3996.73391,0.00000
3994.67373,0.00001
3992.61356,0.00013
3990.55339,0.00019
3988.49322,0.00016
3986.43305,0.00019
3984.37287,0.00029
3982.31270,0.00031
3980.25253,0.00025
3978.19236,0.00026
3976.13219,0.00043
3974.07201,0.00066
3972.01184,0.00082
3969.95167,0.00084
3967.89150,0.00069
3965.83133,0.00045
3963.77115,0.00029
3961.71098,0.00021
3959.65081,0.00015
3957.59064,0.00021
3955.53046,0.00044
3953.47029,0.00067
3951.41012,0.00075
3949.34995,0.00064
3947.28978,0.00053
3945.22960,0.00054
3943.16943,0.00054
3941.10926,0.00049
3939.04909,0.00048
3936.98892,0.00051
3934.92874,0.00054
3932.86857,0.00054
3930.80840,0.00046
3928.74823,0.00037
3926.68805,0.00044
3924.62788,0.00069
3922.56771,0.00092
3920.50754,0.00090
3918.44737,0.00062
3916.38719,0.00035
3914.32702,0.00036
3912.26685,0.00063
3910.20668,0.00094
3908.14651,0.00113
3906.08633,0.00107
3904.02616,0.00078
3901.96599,0.00069
3899.90582,0.00100
3897.84565,0.00135
3895.78547,0.00148
3893.72530,0.00133
3891.66513,0.00103
3889.60496,0.00098
3887.54478,0.00113
3885.48461,0.00104
3883.42444,0.00084
3881.36427,0.00095
3879.30410,0.00129
3877.24392,0.00166
3875.18375,0.00175
3873.12358,0.00145
3871.06341,0.00088
3869.00324,0.00030
3866.94306,0.00020
3864.88289,0.00050
3862.82272,0.00077
3860.76255,0.00096
3858.70237,0.00124
3856.64220,0.00154
3854.58203,0.00153
3852.52186,0.00112
3850.46169,0.00091
3848.40151,0.00097
3846.34134,0.00100
3844.28117,0.00095
3842.22100,0.00103
3840.16083,0.00126
3838.10065,0.00122
3836.04048,0.00096
3833.98031,0.00098
3831.92014,0.00132
3829.85997,0.00166
3827.79979,0.00183
3825.73962,0.00180
3823.67945,0.00168
3821.61928,0.00141
3819.55910,0.00117
3817.49893,0.00127
3815.43876,0.00136
3813.37859,0.00129
3811.31842,0.00141
3809.25824,0.00168
3807.19807,0.00174
3805.13790,0.00172
3803.07773,0.00183
3801.01756,0.00171
3798.95738,0.00143
3796.89721,0.00131
3794.83704,0.00125
3792.77687,0.00129
3790.71670,0.00152
3788.65652,0.00185
3786.59635,0.00194
3784.53618,0.00173
3782.47601,0.00169
3780.41583,0.00181
3778.35566,0.00153
3776.29549,0.00111
3774.23532,0.00114
3772.17515,0.00148
3770.11497,0.00159
3768.05480,0.00133
3765.99463,0.00101
3763.93446,0.00082
3761.87429,0.00092
3759.81411,0.00125
3757.75394,0.00151
3755.69377,0.00170
3753.63360,0.00193
3751.57342,0.00190
3749.51325,0.00137
3747.45308,0.00097
3745.39291,0.00094
3743.33274,0.00098
3741.27256,0.00100
3739.21239,0.00109
3737.15222,0.00128
3735.09205,0.00144
3733.03188,0.00146
3730.97170,0.00146
3728.91153,0.00153
3726.85136,0.00152
3724.79119,0.00129
3722.73102,0.00123
3720.67084,0.00139
3718.61067,0.00141
3716.55050,0.00134
3714.49033,0.00147
3712.43015,0.00159
3710.36998,0.00146
3708.30981,0.00137
3706.24964,0.00149
3704.18947,0.00166
3702.12929,0.00172
3700.06912,0.00165
3698.00895,0.00162
3695.94878,0.00167
3693.88861,0.00176
3691.82843,0.00168
3689.76826,0.00135
3687.70809,0.00099
3685.64792,0.00084
3683.58775,0.00098
3681.52757,0.00143
3679.46740,0.00199
3677.40723,0.00224
3675.34706,0.00181
3673.28688,0.00120
3671.22671,0.00108
3669.16654,0.00129
3667.10637,0.00159
3665.04620,0.00187
3662.98602,0.00207
3660.92585,0.00234
3658.86568,0.00257
3656.80551,0.00254
3654.74534,0.00253
3652.68516,0.00297
3650.62499,0.00343
3648.56482,0.00312
3646.50465,0.00240
3644.44447,0.00207
3642.38430,0.00213
3640.32413,0.00237
3638.26396,0.00269
3636.20379,0.00317
3634.14361,0.00371
3632.08344,0.00388
3630.02327,0.00356
3627.96310,0.00319
3625.90293,0.00317
3623.84275,0.00339
3621.78258,0.00377
3619.72241,0.00417
3617.66224,0.00434
3615.60207,0.00445
3613.54189,0.00457
3611.48172,0.00452
3609.42155,0.00444
3607.36138,0.00443
3605.30120,0.00442
3603.24103,0.00443
3601.18086,0.00455
3599.12069,0.00481
3597.06052,0.00516
3595.00034,0.00548
3592.94017,0.00565
3590.88000,0.00582
3588.81983,0.00606
3586.75966,0.00608
3584.69948,0.00592
3582.63931,0.00590
3580.57914,0.00609
3578.51897,0.00639
3576.45879,0.00665
3574.39862,0.00684
3572.33845,0.00715
3570.27828,0.00769
3568.21811,0.00811
3566.15793,0.00818
3564.09776,0.00817
3562.03759,0.00829
3559.97742,0.00835
3557.91725,0.00834
3555.85707,0.00850
3553.79690,0.00881
3551.73673,0.00921
3549.67656,0.00965
3547.61639,0.00992
3545.55621,0.00989
3543.49604,0.00974
3541.43587,0.00984
3539.37570,0.01006
3537.31552,0.01015
3535.25535,0.01030
3533.19518,0.01073
3531.13501,0.01121
3529.07484,0.01139
3527.01466,0.01134
3524.95449,0.01127
3522.89432,0.01116
3520.83415,0.01119
3518.77398,0.01149
3516.71380,0.01178
3514.65363,0.01187
3512.59346,0.01191
3510.53329,0.01200
3508.47312,0.01211
3506.41294,0.01229
3504.35277,0.01255
3502.29260,0.01276
3500.23243,0.01293
3498.17225,0.01308
3496.11208,0.01314
3494.05191,0.01312
3491.99174,0.01316
3489.93157,0.01336
3487.87139,0.01363
3485.81122,0.01390
3483.75105,0.01409
3481.69088,0.01413
3479.63071,0.01422
3477.57053,0.01456
3475.51036,0.01482
3473.45019,0.01480
3471.39002,0.01484
3469.32984,0.01507
3467.26967,0.01528
3465.20950,0.01546
3463.14933,0.01568
3461.08916,0.01582
3459.02898,0.01582
3456.96881,0.01581
3454.90864,0.01589
3452.84847,0.01596
3450.78830,0.01600
3448.72812,0.01626
3446.66795,0.01663
3444.60778,0.01673
3442.54761,0.01675
3440.48744,0.01685
3438.42726,0.01684
3436.36709,0.01681
3434.30692,0.01703
3432.24675,0.01731
3430.18657,0.01737
3428.12640,0.01746
3426.06623,0.01777
3424.00606,0.01805
3421.94589,0.01801
3419.88571,0.01779
3417.82554,0.01777
3415.76537,0.01783
3413.70520,0.01778
3411.64503,0.01774
3409.58485,0.01786
3407.52468,0.01814
3405.46451,0.01844
3403.40434,0.01844
3401.34416,0.01831
3399.28399,0.01838
3397.22382,0.01868
3395.16365,0.01886
3393.10348,0.01885
3391.04330,0.01885
3388.98313,0.01903
3386.92296,0.01930
3384.86279,0.01946
3382.80262,0.01947
3380.74244,0.01950
3378.68227,0.01962
3376.62210,0.01970
3374.56193,0.01967
3372.50176,0.01959
3370.44158,0.01944
3368.38141,0.01928
3366.32124,0.01928
3364.26107,0.01954
3362.20089,0.01987
3360.14072,0.02006
3358.08055,0.02022
3356.02038,0.02042
3353.96021,0.02054
3351.90003,0.02061
3349.83986,0.02071
3347.77969,0.02076
3345.71952,0.02073
3343.65935,0.02059
3341.59917,0.02054
3339.53900,0.02073
3337.47883,0.02090
3335.41866,0.02093
3333.35849,0.02099
3331.29831,0.02111
3329.23814,0.02105
3327.17797,0.02082
3325.11780,0.02074
3323.05762,0.02081
3320.99745,0.02084
3318.93728,0.02082
3316.87711,0.02077
3314.81694,0.02077
3312.75676,0.02097
3310.69659,0.02127
3308.63642,0.02140
3306.57625,0.02131
3304.51608,0.02119
3302.45590,0.02118
3300.39573,0.02119
3298.33556,0.02115
3296.27539,0.02116
3294.21521,0.02122
3292.15504,0.02121
3290.09487,0.02124
3288.03470,0.02138
3285.97453,0.02137
3283.91435,0.02123
3281.85418,0.02123
3279.79401,0.02134
3277.73384,0.02142
3275.67367,0.02143
3273.61349,0.02139
3271.55332,0.02135
3269.49315,0.02133
3267.43298,0.02133
3265.37281,0.02124
3263.31263,0.02102
3261.25246,0.02085
3259.19229,0.02082
3257.13212,0.02089
3255.07194,0.02094
3253.01177,0.02082
3250.95160,0.02057
3248.89143,0.02047
3246.83126,0.02057
3244.77108,0.02059
3242.71091,0.02046
3240.65074,0.02039
3238.59057,0.02046
3236.53040,0.02051
3234.47022,0.02043
3232.41005,0.02040
3230.34988,0.02050
3228.28971,0.02058
3226.22954,0.02056
3224.16936,0.02036
3222.10919,0.02009
3220.04902,0.01997
3217.98885,0.01999
3215.92867,0.02000
3213.86850,0.01992
3211.80833,0.01969
3209.74816,0.01951
3207.68799,0.01954
3205.62781,0.01958
3203.56764,0.01944
3201.50747,0.01918
3199.44730,0.01909
3197.38713,0.01916
3195.32695,0.01911
3193.26678,0.01889
3191.20661,0.01871
3189.14644,0.01865
3187.08626,0.01872
3185.02609,0.01879
3182.96592,0.01872
3180.90575,0.01847
3178.84558,0.01809
3176.78540,0.01778
3174.72523,0.01762
3172.66506,0.01751
3170.60489,0.01743
3168.54472,0.01739
3166.48454,0.01732
3164.42437,0.01715
3162.36420,0.01699
3160.30403,0.01690
3158.24386,0.01674
3156.18368,0.01658
3154.12351,0.01659
3152.06334,0.01675
3150.00317,0.01677
3147.94299,0.01654
3145.88282,0.01624
3143.82265,0.01611
3141.76248,0.01611
3139.70231,0.01597
3137.64213,0.01565
3135.58196,0.01538
3133.52179,0.01526
3131.46162,0.01522
3129.40145,0.01515
3127.34127,0.01501
3125.28110,0.01486
3123.22093,0.01471
3121.16076,0.01453
3119.10058,0.01439
3117.04041,0.01435
3114.98024,0.01434
3112.92007,0.01417
3110.85990,0.01378
3108.79972,0.01337
3106.73955,0.01321
3104.67938,0.01326
3102.61921,0.01330
3100.55904,0.01316
3098.49886,0.01292
3096.43869,0.01274
3094.37852,0.01258
3092.31835,0.01243
3090.25818,0.01239
3088.19800,0.01246
3086.13783,0.01249
3084.07766,0.01229
3082.01749,0.01193
3079.95731,0.01177
3077.89714,0.01176
3075.83697,0.01165
3073.77680,0.01146
3071.71663,0.01132
3069.65645,0.01124
3067.59628,0.01114
3065.53611,0.01100
3063.47594,0.01077
3061.41577,0.01050
3059.35559,0.01040
3057.29542,0.01047
3055.23525,0.01051
3053.17508,0.01048
3051.11491,0.01036
3049.05473,0.01021
3046.99456,0.01011
3044.93439,0.01008
3042.87422,0.01000
3040.81404,0.00986
3038.75387,0.00970
3036.69370,0.00967
3034.63353,0.00978
3032.57336,0.00978
3030.51318,0.00964
3028.45301,0.00951
3026.39284,0.00939
3024.33267,0.00916
3022.27250,0.00897
3020.21232,0.00889
3018.15215,0.00878
3016.09198,0.00867
3014.03181,0.00864
3011.97163,0.00861
3009.91146,0.00857
3007.85129,0.00853
3005.79112,0.00844
3003.73095,0.00833
3001.67077,0.00830
2999.61060,0.00838
2997.55043,0.00846
2995.49026,0.00848
2993.43009,0.00850
2991.36991,0.00849
2989.30974,0.00843
2987.24957,0.00841
2985.18940,0.00853
2983.12923,0.00868
2981.06905,0.00876
2979.00888,0.00881
2976.94871,0.00887
2974.88854,0.00901
2972.82836,0.00922
2970.76819,0.00938
2968.70802,0.00949
2966.64785,0.00961
2964.58768,0.00989
2962.52750,0.01019
2960.46733,0.01031
2958.40716,0.01041
2956.34699,0.01063
2954.28682,0.01081
2952.22664,0.01086
2950.16647,0.01095
2948.10630,0.01109
2946.04613,0.01124
2943.98596,0.01143
2941.92578,0.01164
2939.86561,0.01182
2937.80544,0.01196
2935.74527,0.01199
2933.68509,0.01182
2931.62492,0.01170
2929.56475,0.01176
2927.50458,0.01185
2925.44441,0.01184
2923.38423,0.01174
2921.32406,0.01160
2919.26389,0.01150
2917.20372,0.01154
2915.14355,0.01163
2913.08337,0.01155
2911.02320,0.01131
2908.96303,0.01114
2906.90286,0.01106
2904.84268,0.01105
2902.78251,0.01100
2900.72234,0.01090
2898.66217,0.01087
2896.60200,0.01081
2894.54182,0.01073
2892.48165,0.01080
2890.42148,0.01083
2888.36131,0.01068
2886.30114,0.01058
2884.24096,0.01063
2882.18079,0.01070
2880.12062,0.01062
2878.06045,0.01046
2876.00028,0.01033
2873.94010,0.01029
2871.87993,0.01023
2869.81976,0.01017
2867.75959,0.01013
2865.69941,0.00995
2863.63924,0.00954
2861.57907,0.00918
2859.51890,0.00907
2857.45873,0.00918
2855.39855,0.00929
2853.33838,0.00912
2851.27821,0.00876
2849.21804,0.00854
2847.15787,0.00851
2845.09769,0.00859
2843.03752,0.00872
2840.97735,0.00870
2838.91718,0.00855
2836.85700,0.00843
2834.79683,0.00827
2832.73666,0.00805
2830.67649,0.00793
2828.61632,0.00798
2826.55614,0.00800
2824.49597,0.00791
2822.43580,0.00783
2820.37563,0.00784
2818.31546,0.00785
2816.25528,0.00777
2814.19511,0.00767
2812.13494,0.00756
2810.07477,0.00744
2808.01460,0.00740
2805.95442,0.00745
2803.89425,0.00746
2801.83408,0.00736
2799.77391,0.00726
2797.71373,0.00731
2795.65356,0.00736
2793.59339,0.00724
2791.53322,0.00706
2789.47305,0.00693
2787.41287,0.00684
2785.35270,0.00690
2783.29253,0.00701
2781.23236,0.00699
2779.17219,0.00693
2777.11201,0.00685
2775.05184,0.00665
2772.99167,0.00650
2770.93150,0.00657
2768.87133,0.00673
2766.81115,0.00679
2764.75098,0.00670
2762.69081,0.00664
2760.63064,0.00669
2758.57046,0.00678
2756.51029,0.00679
2754.45012,0.00668
2752.38995,0.00662
2750.32978,0.00662
2748.26960,0.00659
2746.20943,0.00655
2744.14926,0.00653
2742.08909,0.00650
2740.02892,0.00650
2737.96874,0.00655
2735.90857,0.00663
2733.84840,0.00665
2731.78823,0.00662
2729.72805,0.00667
2727.66788,0.00671
2725.60771,0.00661
2723.54754,0.00641
2721.48737,0.00625
2719.42719,0.00614
2717.36702,0.00603
2715.30685,0.00607
2713.24668,0.00625
2711.18651,0.00633
2709.12633,0.00623
2707.06616,0.00610
2705.00599,0.00605
2702.94582,0.00607
2700.88565,0.00611
2698.82547,0.00614
2696.76530,0.00620
2694.70513,0.00617
2692.64496,0.00601
2690.58478,0.00592
2688.52461,0.00592
2686.46444,0.00594
2684.40427,0.00608
2682.34410,0.00632
2680.28392,0.00644
2678.22375,0.00632
2676.16358,0.00607
2674.10341,0.00596
2672.04324,0.00601
2669.98306,0.00605
2667.92289,0.00597
2665.86272,0.00588
2663.80255,0.00585
2661.74238,0.00591
2659.68220,0.00605
2657.62203,0.00615
2655.56186,0.00617
2653.50169,0.00617
2651.44151,0.00620
2649.38134,0.00611
2647.32117,0.00589
2645.26100,0.00583
2643.20083,0.00586
2641.14065,0.00584
2639.08048,0.00574
2637.02031,0.00555
2634.96014,0.00546
2632.89997,0.00565
2630.83979,0.00592
2628.77962,0.00598
2626.71945,0.00583
2624.65928,0.00565
2622.59910,0.00561
2620.53893,0.00564
2618.47876,0.00561
2616.41859,0.00550
2614.35842,0.00538
2612.29824,0.00524
2610.23807,0.00516
2608.17790,0.00520
2606.11773,0.00535
2604.05756,0.00544
2601.99738,0.00542
2599.93721,0.00551
2597.87704,0.00555
2595.81687,0.00537
2593.75670,0.00510
2591.69652,0.00485
2589.63635,0.00481
2587.57618,0.00499
2585.51601,0.00520
2583.45583,0.00520
2581.39566,0.00506
2579.33549,0.00502
2577.27532,0.00515
2575.21515,0.00533
2573.15497,0.00537
2571.09480,0.00531
2569.03463,0.00518
2566.97446,0.00507
2564.91429,0.00510
2562.85411,0.00508
2560.79394,0.00484
2558.73377,0.00456
2556.67360,0.00450
2554.61342,0.00466
2552.55325,0.00490
2550.49308,0.00498
2548.43291,0.00486
2546.37274,0.00480
2544.31256,0.00481
2542.25239,0.00483
2540.19222,0.00495
2538.13205,0.00514
2536.07188,0.00518
2534.01170,0.00506
2531.95153,0.00496
2529.89136,0.00484
2527.83119,0.00476
2525.77102,0.00495
2523.71084,0.00511
2521.65067,0.00500
2519.59050,0.00485
2517.53033,0.00479
2515.47015,0.00480
2513.40998,0.00481
2511.34981,0.00480
2509.28964,0.00493
2507.22947,0.00499
2505.16929,0.00473
2503.10912,0.00441
2501.04895,0.00437
2498.98878,0.00455
2496.92861,0.00466
2494.86843,0.00478
2492.80826,0.00496
2490.74809,0.00495
2488.68792,0.00487
2486.62775,0.00484
2484.56757,0.00470
2482.50740,0.00451
2480.44723,0.00455
2478.38706,0.00478
2476.32688,0.00489
2474.26671,0.00476
2472.20654,0.00465
2470.14637,0.00459
2468.08620,0.00449
2466.02602,0.00452
2463.96585,0.00461
2461.90568,0.00462
2459.84551,0.00460
2457.78534,0.00460
2455.72516,0.00467
2453.66499,0.00480
2451.60482,0.00487
2449.54465,0.00480
2447.48447,0.00471
2445.42430,0.00480
2443.36413,0.00484
2441.30396,0.00467
2439.24379,0.00450
2437.18361,0.00446
2435.12344,0.00455
2433.06327,0.00460
2431.00310,0.00454
2428.94293,0.00451
2426.88275,0.00447
2424.82258,0.00434
2422.76241,0.00423
2420.70224,0.00432
2418.64207,0.00446
2416.58189,0.00432
2414.52172,0.00409
2412.46155,0.00412
2410.40138,0.00421
2408.34120,0.00421
2406.28103,0.00422
2404.22086,0.00417
2402.16069,0.00404
2400.10052,0.00419
2398.04034,0.00448
2395.98017,0.00461
2393.92000,0.00452
2391.85983,0.00442
2389.79966,0.00439
2387.73948,0.00433
2385.67931,0.00427
2383.61914,0.00434
2381.55897,0.00454
2379.49880,0.00470
2377.43862,0.00469
2375.37845,0.00450
2373.31828,0.00410
2371.25811,0.00410
2369.19793,0.00485
2367.13776,0.00546
2365.07759,0.00544
2363.01742,0.00565
2360.95725,0.00594
2358.89707,0.00665
2356.83690,0.00669
2354.77673,0.00586
2352.71656,0.00464
2350.65639,0.00319
2348.59621,0.00272
2346.53604,0.00438
2344.47587,0.00513
2342.41570,0.00475
2340.35552,0.00393
2338.29535,0.00362
2336.23518,0.00417
2334.17501,0.00468
2332.11484,0.00468
2330.05466,0.00459
2327.99449,0.00525
2325.93432,0.00572
2323.87415,0.00557
2321.81398,0.00484
2319.75380,0.00452
2317.69363,0.00450
2315.63346,0.00477
2313.57329,0.00488
2311.51312,0.00473
2309.45294,0.00468
2307.39277,0.00472
2305.33260,0.00484
2303.27243,0.00497
2301.21225,0.00497
2299.15208,0.00485
2297.09191,0.00480
2295.03174,0.00479
2292.97157,0.00485
2290.91139,0.00517
2288.85122,0.00551
2286.79105,0.00546
2284.73088,0.00524
2282.67071,0.00524
2280.61053,0.00543
2278.55036,0.00556
2276.49019,0.00542
2274.43002,0.00503
2272.36984,0.00480
2270.30967,0.00496
2268.24950,0.00516
2266.18933,0.00500
2264.12916,0.00465
2262.06898,0.00435
2260.00881,0.00413
2257.94864,0.00401
2255.88847,0.00414
2253.82830,0.00444
2251.76812,0.00452
2249.70795,0.00434
2247.64778,0.00427
2245.58761,0.00424
2243.52744,0.00427
2241.46726,0.00451
2239.40709,0.00468
2237.34692,0.00468
2235.28675,0.00482
2233.22657,0.00483
2231.16640,0.00463
2229.10623,0.00450
2227.04606,0.00423
2224.98589,0.00419
2222.92571,0.00448
2220.86554,0.00455
2218.80537,0.00475
2216.74520,0.00508
2214.68503,0.00499
2212.62485,0.00482
2210.56468,0.00467
2208.50451,0.00432
2206.44434,0.00406
2204.38417,0.00407
2202.32399,0.00398
2200.26382,0.00377
2198.20365,0.00396
2196.14348,0.00453
2194.08330,0.00513
2192.02313,0.00534
2189.96296,0.00498
2187.90279,0.00434
2185.84262,0.00395
2183.78244,0.00421
2181.72227,0.00472
2179.66210,0.00470
2177.60193,0.00427
2175.54176,0.00441
2173.48158,0.00498
2171.42141,0.00509
2169.36124,0.00534
2167.30107,0.00610
2165.24089,0.00638
2163.18072,0.00553
2161.12055,0.00331
2159.06038,0.00111
2157.00021,0.00105
2154.94003,0.00204
2152.87986,0.00226
2150.81969,0.00180
2148.75952,0.00164
2146.69935,0.00219
2144.63917,0.00284
2142.57900,0.00265
2140.51883,0.00217
2138.45866,0.00227
2136.39849,0.00270
2134.33831,0.00299
2132.27814,0.00310
2130.21797,0.00303
2128.15780,0.00310
2126.09762,0.00341
2124.03745,0.00354
2121.97728,0.00354
2119.91711,0.00378
2117.85694,0.00436
2115.79676,0.00473
2113.73659,0.00455
2111.67642,0.00444
2109.61625,0.00444
2107.55608,0.00418
2105.49590,0.00411
2103.43573,0.00432
2101.37556,0.00424
2099.31539,0.00405
2097.25521,0.00401
2095.19504,0.00413
2093.13487,0.00431
2091.07470,0.00421
2089.01453,0.00393
2086.95435,0.00375
2084.89418,0.00372
2082.83401,0.00412
2080.77384,0.00464
2078.71367,0.00458
2076.65349,0.00429
2074.59332,0.00416
2072.53315,0.00422
2070.47298,0.00470
2068.41281,0.00489
2066.35263,0.00443
2064.29246,0.00411
2062.23229,0.00423
2060.17212,0.00469
2058.11194,0.00504
2056.05177,0.00499
2053.99160,0.00499
2051.93143,0.00470
2049.87126,0.00391
2047.81108,0.00376
2045.75091,0.00418
2043.69074,0.00400
2041.63057,0.00363
2039.57040,0.00442
2037.51022,0.00586
2035.45005,0.00555
2033.38988,0.00360
2031.32971,0.00251
2029.26954,0.00280
2027.20936,0.00328
2025.14919,0.00333
2023.08902,0.00325
2021.02885,0.00362
2018.96867,0.00430
2016.90850,0.00412
2014.84833,0.00291
2012.78816,0.00236
2010.72799,0.00271
2008.66781,0.00252
2006.60764,0.00171
2004.54747,0.00112
2002.48730,0.00121
2000.42713,0.00240
1998.36695,0.00391
1996.30678,0.00436
1994.24661,0.00390
1992.18644,0.00342
1990.12626,0.00323
1988.06609,0.00322
1986.00592,0.00346
1983.94575,0.00378
1981.88558,0.00382
1979.82540,0.00361
1977.76523,0.00310
1975.70506,0.00239
1973.64489,0.00213
1971.58472,0.00235
1969.52454,0.00277
1967.46437,0.00297
1965.40420,0.00255
1963.34403,0.00199
1961.28386,0.00167
1959.22368,0.00183
1957.16351,0.00225
1955.10334,0.00238
1953.04317,0.00250
1950.98299,0.00246
1948.92282,0.00213
1946.86265,0.00210
1944.80248,0.00222
1942.74231,0.00203
1940.68213,0.00189
1938.62196,0.00219
1936.56179,0.00269
1934.50162,0.00302
1932.44145,0.00309
1930.38127,0.00297
1928.32110,0.00286
1926.26093,0.00281
1924.20076,0.00270
1922.14059,0.00250
1920.08041,0.00241
1918.02024,0.00256
1915.96007,0.00287
1913.89990,0.00300
1911.83972,0.00270
1909.77955,0.00222
1907.71938,0.00199
1905.65921,0.00198
1903.59904,0.00209
1901.53886,0.00234
1899.47869,0.00250
1897.41852,0.00240
1895.35835,0.00224
1893.29818,0.00229
1891.23800,0.00238
1889.17783,0.00221
1887.11766,0.00191
1885.05749,0.00182
1882.99731,0.00208
1880.93714,0.00240
1878.87697,0.00240
1876.81680,0.00215
1874.75663,0.00196
1872.69645,0.00188
1870.63628,0.00182
1868.57611,0.00180
1866.51594,0.00185
1864.45577,0.00192
1862.39559,0.00185
1860.33542,0.00165
1858.27525,0.00146
1856.21508,0.00143
1854.15491,0.00156
1852.09473,0.00178
1850.03456,0.00206
1847.97439,0.00235
1845.91422,0.00249
1843.85404,0.00233
1841.79387,0.00199
1839.73370,0.00176
1837.67353,0.00168
1835.61336,0.00171
1833.55318,0.00177
1831.49301,0.00185
1829.43284,0.00189
1827.37267,0.00191
1825.31250,0.00194
1823.25232,0.00194
1821.19215,0.00188
1819.13198,0.00184
1817.07181,0.00186
1815.01163,0.00189
1812.95146,0.00183
1810.89129,0.00164
1808.83112,0.00148
1806.77095,0.00148
1804.71077,0.00159
1802.65060,0.00171
1800.59043,0.00172
1798.53026,0.00160
1796.47009,0.00147
1794.40991,0.00147
1792.34974,0.00149
1790.28957,0.00138
1788.22940,0.00125
1786.16923,0.00126
1784.10905,0.00139
1782.04888,0.00155
1779.98871,0.00169
1777.92854,0.00176
1775.86836,0.00187
1773.80819,0.00201
1771.74802,0.00202
1769.68785,0.00196
1767.62768,0.00205
1765.56750,0.00227
1763.50733,0.00251
1761.44716,0.00268
1759.38699,0.00278
1757.32682,0.00293
1755.26664,0.00320
1753.20647,0.00356
1751.14630,0.00394
1749.08613,0.00424
1747.02596,0.00442
1744.96578,0.00456
1742.90561,0.00470
1740.84544,0.00481
1738.78527,0.00492
1736.72509,0.00510
1734.66492,0.00526
1732.60475,0.00525
1730.54458,0.00515
1728.48441,0.00513
1726.42423,0.00519
1724.36406,0.00524
1722.30389,0.00522
1720.24372,0.00510
1718.18355,0.00486
1716.12337,0.00455
1714.06320,0.00433
1712.00303,0.00416
1709.94286,0.00400
1707.88268,0.00382
1705.82251,0.00370
1703.76234,0.00373
1701.70217,0.00374
1699.64200,0.00351
1697.58182,0.00332
1695.52165,0.00334
1693.46148,0.00342
1691.40131,0.00344
1689.34114,0.00344
1687.28096,0.00363
1685.22079,0.00403
1683.16062,0.00432
1681.10045,0.00435
1679.04028,0.00445
1676.98010,0.00473
1674.91993,0.00510
1672.85976,0.00543
1670.79959,0.00570
1668.73941,0.00590
1666.67924,0.00610
1664.61907,0.00644
1662.55890,0.00685
1660.49873,0.00722
1658.43855,0.00760
1656.37838,0.00806
1654.31821,0.00845
1652.25804,0.00856
1650.19787,0.00854
1648.13769,0.00862
1646.07752,0.00875
1644.01735,0.00886
1641.95718,0.00896
1639.89701,0.00905
1637.83683,0.00912
1635.77666,0.00926
1633.71649,0.00952
1631.65632,0.00974
1629.59614,0.00991
1627.53597,0.01009
1625.47580,0.01029
1623.41563,0.01036
1621.35546,0.01030
1619.29528,0.01025
1617.23511,0.01022
1615.17494,0.01023
1613.11477,0.01028
1611.05460,0.01026
1608.99442,0.01009
1606.93425,0.00986
1604.87408,0.00957
1602.81391,0.00915
1600.75373,0.00865
1598.69356,0.00816
1596.63339,0.00773
1594.57322,0.00733
1592.51305,0.00688
1590.45287,0.00639
1588.39270,0.00594
1586.33253,0.00556
1584.27236,0.00518
1582.21219,0.00479
1580.15201,0.00444
1578.09184,0.00411
1576.03167,0.00376
1573.97150,0.00354
1571.91133,0.00347
1569.85115,0.00339
1567.79098,0.00327
1565.73081,0.00318
1563.67064,0.00313
1561.61046,0.00306
1559.55029,0.00273
1557.49012,0.00225
1555.42995,0.00217
1553.36978,0.00226
1551.30960,0.00220
1549.24943,0.00207
1547.18926,0.00207
1545.12909,0.00228
1543.06892,0.00259
1541.00874,0.00266
1538.94857,0.00230
1536.88840,0.00189
1534.82823,0.00161
1532.76805,0.00143
1530.70788,0.00137
1528.64771,0.00141
1526.58754,0.00141
1524.52737,0.00136
1522.46719,0.00134
1520.40702,0.00142
1518.34685,0.00150
1516.28668,0.00153
1514.22651,0.00162
1512.16633,0.00182
1510.10616,0.00206
1508.04599,0.00214
1505.98582,0.00197
1503.92565,0.00187
1501.86547,0.00197
1499.80530,0.00206
1497.74513,0.00203
1495.68496,0.00196
1493.62478,0.00196
1491.56461,0.00204
1489.50444,0.00217
1487.44427,0.00223
1485.38410,0.00217
1483.32392,0.00218
1481.26375,0.00236
1479.20358,0.00265
1477.14341,0.00304
1475.08324,0.00349
1473.02306,0.00386
1470.96289,0.00406
1468.90272,0.00420
1466.84255,0.00447
1464.78238,0.00486
1462.72220,0.00519
1460.66203,0.00544
1458.60186,0.00564
1456.54169,0.00574
1454.48151,0.00578
1452.42134,0.00587
1450.36117,0.00606
1448.30100,0.00632
1446.24083,0.00654
1444.18065,0.00663
1442.12048,0.00672
1440.06031,0.00692
1438.00014,0.00721
1435.93997,0.00748
1433.87979,0.00769
1431.81962,0.00791
1429.75945,0.00815
1427.69928,0.00832
1425.63910,0.00844
1423.57893,0.00855
1421.51876,0.00863
1419.45859,0.00869
1417.39842,0.00878
1415.33824,0.00896
1413.27807,0.00912
1411.21790,0.00915
1409.15773,0.00908
1407.09756,0.00896
1405.03738,0.00885
1402.97721,0.00873
1400.91704,0.00856
1398.85687,0.00836
1396.79670,0.00823
1394.73652,0.00816
1392.67635,0.00806
1390.61618,0.00794
1388.55601,0.00792
1386.49583,0.00803
1384.43566,0.00821
1382.37549,0.00841
1380.31532,0.00863
1378.25515,0.00884
1376.19497,0.00897
1374.13480,0.00902
1372.07463,0.00906
1370.01446,0.00909
1367.95429,0.00901
1365.89411,0.00884
1363.83394,0.00873
1361.77377,0.00867
1359.71360,0.00860
1357.65343,0.00851
1355.59325,0.00838
1353.53308,0.00823
1351.47291,0.00809
1349.41274,0.00795
1347.35256,0.00784
1345.29239,0.00780
1343.23222,0.00780
1341.17205,0.00772
1339.11188,0.00756
1337.05170,0.00747
1334.99153,0.00751
1332.93136,0.00755
1330.87119,0.00751
1328.81102,0.00755
1326.75084,0.00772
1324.69067,0.00782
1322.63050,0.00778
1320.57033,0.00781
1318.51015,0.00798
1316.44998,0.00807
1314.38981,0.00797
1312.32964,0.00785
1310.26947,0.00780
1308.20929,0.00778
1306.14912,0.00769
1304.08895,0.00750
1302.02878,0.00728
1299.96861,0.00716
1297.90843,0.00713
1295.84826,0.00709
1293.78809,0.00697
1291.72792,0.00683
1289.66775,0.00669
1287.60757,0.00657
1285.54740,0.00649
1283.48723,0.00653
1281.42706,0.00664
1279.36688,0.00672
1277.30671,0.00682
1275.24654,0.00697
1273.18637,0.00708
1271.12620,0.00717
1269.06602,0.00736
1267.00585,0.00763
1264.94568,0.00789
1262.88551,0.00813
1260.82534,0.00836
1258.76516,0.00861
1256.70499,0.00887
1254.64482,0.00903
1252.58465,0.00914
1250.52447,0.00930
1248.46430,0.00945
1246.40413,0.00948
1244.34396,0.00939
1242.28379,0.00920
1240.22361,0.00902
1238.16344,0.00893
1236.10327,0.00881
1234.04310,0.00862
1231.98293,0.00848
1229.92275,0.00838
1227.86258,0.00814
1225.80241,0.00777
1223.74224,0.00738
1221.68207,0.00709
1219.62189,0.00685
1217.56172,0.00652
1215.50155,0.00619
1213.44138,0.00596
1211.38120,0.00564
1209.32103,0.00513
1207.26086,0.00461
1205.20069,0.00422
1203.14052,0.00392
1201.08034,0.00356
1199.02017,0.00315
1196.96000,0.00274
1194.89983,0.00231
1192.83966,0.00188
1190.77948,0.00160
1188.71931,0.00153
1186.65914,0.00159
1184.59897,0.00180
1182.53880,0.00207
1180.47862,0.00232
1178.41845,0.00262
1176.35828,0.00303
1174.29811,0.00355
1172.23793,0.00408
1170.17776,0.00451
1168.11759,0.00496
1166.05742,0.00549
1163.99725,0.00600
1161.93707,0.00649
1159.87690,0.00706
1157.81673,0.00761
1155.75656,0.00807
1153.69639,0.00846
1151.63621,0.00875
1149.57604,0.00907
1147.51587,0.00949
1145.45570,0.00978
1143.39552,0.00981
1141.33535,0.00986
1139.27518,0.01005
1137.21501,0.01029
1135.15484,0.01053
1133.09466,0.01079
1131.03449,0.01113
1128.97432,0.01153
1126.91415,0.01195
1124.85398,0.01243
1122.79380,0.01293
1120.73363,0.01348
1118.67346,0.01402
1116.61329,0.01434
1114.55312,0.01455
1112.49294,0.01483
1110.43277,0.01521
1108.37260,0.01559
1106.31243,0.01604
1104.25225,0.01660
1102.19208,0.01719
1100.13191,0.01784
1098.07174,0.01862
1096.01157,0.01941
1093.95139,0.02010
1091.89122,0.02074
1089.83105,0.02137
1087.77088,0.02194
1085.71071,0.02244
1083.65053,0.02297
1081.59036,0.02360
1079.53019,0.02425
1077.47002,0.02487
1075.40985,0.02541
1073.34967,0.02586
1071.28950,0.02616
1069.22933,0.02647
1067.16916,0.02690
1065.10898,0.02725
1063.04881,0.02743
1060.98864,0.02759
1058.92847,0.02791
1056.86830,0.02829
1054.80812,0.02859
1052.74795,0.02897
1050.68778,0.02945
1048.62761,0.02986
1046.56744,0.03023
1044.50726,0.03064
1042.44709,0.03104
1040.38692,0.03140
1038.32675,0.03172
1036.26657,0.03187
1034.20640,0.03189
1032.14623,0.03197
1030.08606,0.03207
1028.02589,0.03216
1025.96571,0.03229
1023.90554,0.03235
1021.84537,0.03208
1019.78520,0.03171
1017.72503,0.03169
1015.66485,0.03183
1013.60468,0.03188
1011.54451,0.03189
1009.48434,0.03185
1007.42417,0.03167
1005.36399,0.03132
1003.30382,0.03094
1001.24365,0.03071
999.18348,0.03048
997.12330,0.03017
995.06313,0.02989
993.00296,0.02955
990.94279,0.02915
988.88262,0.02878
986.82244,0.02843
984.76227,0.02809
982.70210,0.02767
980.64193,0.02722
978.58176,0.02701
976.52158,0.02695
974.46141,0.02677
972.40124,0.02638
970.34107,0.02594
968.28089,0.02561
966.22072,0.02528
964.16055,0.02496
962.10038,0.02479
960.04021,0.02459
957.98003,0.02418
955.91986,0.02368
953.85969,0.02331
951.79952,0.02299
949.73935,0.02268
947.67917,0.02239
945.61900,0.02194
943.55883,0.02113
941.49866,0.02009
939.43849,0.01897
937.37831,0.01790
935.31814,0.01698
933.25797,0.01604
931.19780,0.01491
929.13762,0.01369
927.07745,0.01266
925.01728,0.01201
922.95711,0.01158
920.89694,0.01112
918.83676,0.01048
916.77659,0.00969
914.71642,0.00897
912.65625,0.00837
910.59608,0.00802
908.53590,0.00787
906.47573,0.00771
904.41556,0.00753
902.35539,0.00728
900.29522,0.00714
898.23504,0.00726
896.17487,0.00735
894.11470,0.00720
892.05453,0.00697
889.99435,0.00686
887.93418,0.00682
885.87401,0.00662
883.81384,0.00611
881.75367,0.00553
879.69349,0.00526
877.63332,0.00517
875.57315,0.00500
873.51298,0.00479
871.45281,0.00460
869.39263,0.00438
867.33246,0.00419
865.27229,0.00420
863.21212,0.00437
861.15194,0.00440
859.09177,0.00431
857.03160,0.00415
854.97143,0.00388
852.91126,0.00353
850.85108,0.00338
848.79091,0.00339
846.73074,0.00307
844.67057,0.00273
842.61040,0.00280
840.55022,0.00274
838.49005,0.00236
836.42988,0.00217
834.36971,0.00218
832.30954,0.00221
830.24936,0.00223
828.18919,0.00215
826.12902,0.00187
824.06885,0.00172
822.00867,0.00195
819.94850,0.00216
817.88833,0.00211
815.82816,0.00231
813.76799,0.00282
811.70781,0.00304
809.64764,0.00294
807.58747,0.00295
805.52730,0.00313
803.46713,0.00320
801.40695,0.00291
799.34678,0.00258
797.28661,0.00240
795.22644,0.00215
793.16627,0.00182
791.10609,0.00175
789.04592,0.00190
786.98575,0.00185
784.92558,0.00166
782.86540,0.00164
780.80523,0.00169
778.74506,0.00181
776.68489,0.00233
774.62472,0.00289
772.56454,0.00279
770.50437,0.00228
768.44420,0.00200
766.38403,0.00192
764.32386,0.00192
762.26368,0.00208
760.20351,0.00211
758.14334,0.00197
756.08317,0.00196
754.02299,0.00221
751.96282,0.00253
749.90265,0.00262
747.84248,0.00236
745.78231,0.00209
743.72213,0.00204
741.66196,0.00195
739.60179,0.00175
737.54162,0.00187
735.48145,0.00225
733.42127,0.00206
731.36110,0.00147
729.30093,0.00144
727.24076,0.00201
725.18059,0.00241
723.12041,0.00252
721.06024,0.00284
719.00007,0.00285
716.93990,0.00259
714.87972,0.00255
712.81955,0.00298
710.75938,0.00359
708.69921,0.00408
706.63904,0.00416
704.57886,0.00385
702.51869,0.00367
700.45852,0.00369
698.39835,0.00355
696.33818,0.00338
694.27800,0.00344
692.21783,0.00363
690.15766,0.00377
688.09749,0.00379
686.03731,0.00373
683.97714,0.00355
681.91697,0.00313
679.85680,0.00261
677.79663,0.00225
675.73645,0.00227
673.67628,0.00224
671.61611,0.00164
669.55594,0.00266
667.49577,0.00422
665.43559,0.00134
663.37542,0.00155
661.31525,0.00255
659.25508,0.00311
657.19491,0.00340
655.13473,0.00372
653.07456,0.00380
651.01439,0.00318
648.95422,0.00225
646.89404,0.00179
644.83387,0.00196
642.77370,0.00222
640.71353,0.00262
638.65336,0.00329
636.59318,0.00347
634.53301,0.00295
632.47284,0.00281
630.41267,0.00368
628.35250,0.00472
626.29232,0.00475
624.23215,0.00396
622.17198,0.00302
620.11181,0.00253
618.05164,0.00280
615.99146,0.00302
613.93129,0.00222
611.87112,0.00079
609.81095,0.00011
607.75077,0.00020
605.69060,0.00047
603.63043,0.00030
601.57026,0.00000
599.51009,0.00000
