3996.73391,0.00093
3994.67373,0.00099
3992.61356,0.00081
3990.55339,0.00053
3988.49322,0.00055
3986.43305,0.00093
3984.37287,0.00128
3982.31270,0.00146
3980.25253,0.00144
3978.19236,0.00106
3976.13219,0.00056
3974.07201,0.00024
3972.01184,0.00003
3969.95167,0.00000
3967.89150,0.00017
3965.83133,0.00039
3963.77115,0.00046
3961.71098,0.00019
3959.65081,0.00013
3957.59064,0.00068
3955.53046,0.00129
3953.47029,0.00169
3951.41012,0.00187
3949.34995,0.00152
3947.28978,0.00076
3945.22960,0.00021
3943.16943,0.00013
3941.10926,0.00043
3939.04909,0.00080
3936.98892,0.00082
3934.92874,0.00075
3932.86857,0.00123
3930.80840,0.00190
3928.74823,0.00190
3926.68805,0.00138
3924.62788,0.00108
3922.56771,0.00125
3920.50754,0.00150
3918.44737,0.00141
3916.38719,0.00103
3914.32702,0.00077
3912.26685,0.00071
3910.20668,0.00070
3908.14651,0.00070
3906.08633,0.00091
3904.02616,0.00149
3901.96599,0.00204
3899.90582,0.00198
3897.84565,0.00154
3895.78547,0.00147
3893.72530,0.00180
3891.66513,0.00181
3889.60496,0.00146
3887.54478,0.00148
3885.48461,0.00170
3883.42444,0.00142
3881.36427,0.00068
3879.30410,0.00031
3877.24392,0.00062
3875.18375,0.00103
3873.12358,0.00110
3871.06341,0.00109
3869.00324,0.00120
3866.94306,0.00126
3864.88289,0.00133
3862.82272,0.00139
3860.76255,0.00131
3858.70237,0.00113
3856.64220,0.00075
3854.58203,0.00028
3852.52186,0.00037
3850.46169,0.00108
3848.40151,0.00164
3846.34134,0.00201
3844.28117,0.00252
3842.22100,0.00305
3840.16083,0.00300
3838.10065,0.00224
3836.04048,0.00163
3833.98031,0.00148
3831.92014,0.00136
3829.85997,0.00142
3827.79979,0.00186
3825.73962,0.00222
3823.67945,0.00181
3821.61928,0.00072
3819.55910,0.00000
3817.49893,0.00019
3815.43876,0.00087
3813.37859,0.00163
3811.31842,0.00221
3809.25824,0.00255
3807.19807,0.00252
3805.13790,0.00210
3803.07773,0.00187
3801.01756,0.00211
3798.95738,0.00215
3796.89721,0.00181
3794.83704,0.00168
3792.77687,0.00182
3790.71670,0.00184
3788.65652,0.00167
3786.59635,0.00170
3784.53618,0.00219
3782.47601,0.00267
3780.41583,0.00271
3778.35566,0.00240
3776.29549,0.00204
3774.23532,0.00194
3772.17515,0.00230
3770.11497,0.00295
3768.05480,0.00308
3765.99463,0.00222
3763.93446,0.00125
3761.87429,0.00099
3759.81411,0.00121
3757.75394,0.00165
3755.69377,0.00225
3753.63360,0.00250
3751.57342,0.00195
3749.51325,0.00118
3747.45308,0.00124
3745.39291,0.00186
3743.33274,0.00233
3741.27256,0.00242
3739.21239,0.00227
3737.15222,0.00207
3735.09205,0.00204
3733.03188,0.00203
3730.97170,0.00184
3728.91153,0.00114
3726.85136,0.00014
3724.79119,0.00000
3722.73102,0.00102
3720.67084,0.00203
3718.61067,0.00203
3716.55050,0.00152
3714.49033,0.00127
3712.43015,0.00159
3710.36998,0.00224
3708.30981,0.00229
3706.24964,0.00204
3704.18947,0.00229
3702.12929,0.00260
3700.06912,0.00240
3698.00895,0.00225
3695.94878,0.00240
3693.88861,0.00242
3691.82843,0.00226
3689.76826,0.00205
3687.70809,0.00184
3685.64792,0.00173
3683.58775,0.00161
3681.52757,0.00139
3679.46740,0.00158
3677.40723,0.00230
3675.34706,0.00287
3673.28688,0.00281
3671.22671,0.00248
3669.16654,0.00234
3667.10637,0.00242
3665.04620,0.00257
3662.98602,0.00257
3660.92585,0.00223
3658.86568,0.00191
3656.80551,0.00218
3654.74534,0.00264
3652.68516,0.00235
3650.62499,0.00164
3648.56482,0.00182
3646.50465,0.00287
3644.44447,0.00361
3642.38430,0.00388
3640.32413,0.00385
3638.26396,0.00363
3636.20379,0.00327
3634.14361,0.00292
3632.08344,0.00285
3630.02327,0.00336
3627.96310,0.00462
3625.90293,0.00581
3623.84275,0.00617
3621.78258,0.00580
3619.72241,0.00534
3617.66224,0.00544
3615.60207,0.00585
3613.54189,0.00619
3611.48172,0.00638
3609.42155,0.00670
3607.36138,0.00728
3605.30120,0.00772
3603.24103,0.00794
3601.18086,0.00827
3599.12069,0.00878
3597.06052,0.00910
3595.00034,0.00921
3592.94017,0.00934
3590.88000,0.00949
3588.81983,0.00959
3586.75966,0.00985
3584.69948,0.01033
3582.63931,0.01084
3580.57914,0.01110
3578.51897,0.01091
3576.45879,0.01066
3574.39862,0.01126
3572.33845,0.01286
3570.27828,0.01422
3568.21811,0.01429
3566.15793,0.01385
3564.09776,0.01435
3562.03759,0.01523
3559.97742,0.01557
3557.91725,0.01577
3555.85707,0.01609
3553.79690,0.01620
3551.73673,0.01633
3549.67656,0.01675
3547.61639,0.01712
3545.55621,0.01752
3543.49604,0.01816
3541.43587,0.01864
3539.37570,0.01898
3537.31552,0.01968
3535.25535,0.02041
3533.19518,0.02075
3531.13501,0.02120
3529.07484,0.02207
3527.01466,0.02276
3524.95449,0.02291
3522.89432,0.02295
3520.83415,0.02346
3518.77398,0.02449
3516.71380,0.02535
3514.65363,0.02558
3512.59346,0.02570
3510.53329,0.02632
3508.47312,0.02725
3506.41294,0.02798
3504.35277,0.02828
3502.29260,0.02814
3500.23243,0.02809
3498.17225,0.02853
3496.11208,0.02909
3494.05191,0.02945
3491.99174,0.02989
3489.93157,0.03060
3487.87139,0.03141
3485.81122,0.03212
3483.75105,0.03270
3481.69088,0.03343
3479.63071,0.03416
3477.57053,0.03432
3475.51036,0.03433
3473.45019,0.03493
3471.39002,0.03560
3469.32984,0.03563
3467.26967,0.03559
3465.20950,0.03632
3463.14933,0.03755
3461.08916,0.03854
3459.02898,0.03911
3456.96881,0.03949
3454.90864,0.03964
3452.84847,0.03949
3450.78830,0.03946
3448.72812,0.03978
3446.66795,0.04032
3444.60778,0.04085
3442.54761,0.04126
3440.48744,0.04164
3438.42726,0.04202
3436.36709,0.04242
3434.30692,0.04301
3432.24675,0.04352
3430.18657,0.04358
3428.12640,0.04370
3426.06623,0.04439
3424.00606,0.04536
3421.94589,0.04614
3419.88571,0.04673
3417.82554,0.04725
3415.76537,0.04743
3413.70520,0.04747
3411.64503,0.04777
3409.58485,0.04808
3407.52468,0.04823
3405.46451,0.04851
3403.40434,0.04885
3401.34416,0.04919
3399.28399,0.04960
3397.22382,0.04974
3395.16365,0.04967
3393.10348,0.04990
3391.04330,0.05035
3388.98313,0.05079
3386.92296,0.05134
3384.86279,0.05191
3382.80262,0.05206
3380.74244,0.05191
3378.68227,0.05218
3376.62210,0.05288
3374.56193,0.05337
3372.50176,0.05355
3370.44158,0.05353
3368.38141,0.05342
3366.32124,0.05340
3364.26107,0.05371
3362.20089,0.05456
3360.14072,0.05532
3358.08055,0.05537
3356.02038,0.05509
3353.96021,0.05496
3351.90003,0.05509
3349.83986,0.05534
3347.77969,0.05536
3345.71952,0.05522
3343.65935,0.05530
3341.59917,0.05572
3339.53900,0.05616
3337.47883,0.05625
3335.41866,0.05611
3333.35849,0.05594
3331.29831,0.05571
3329.23814,0.05540
3327.17797,0.05521
3325.11780,0.05544
3323.05762,0.05605
3320.99745,0.05639
3318.93728,0.05621
3316.87711,0.05611
3314.81694,0.05640
3312.75676,0.05704
3310.69659,0.05784
3308.63642,0.05823
3306.57625,0.05809
3304.51608,0.05779
3302.45590,0.05767
3300.39573,0.05784
3298.33556,0.05822
3296.27539,0.05862
3294.21521,0.05882
3292.15504,0.05858
3290.09487,0.05803
3288.03470,0.05757
3285.97453,0.05739
3283.91435,0.05742
3281.85418,0.05752
3279.79401,0.05751
3277.73384,0.05730
3275.67367,0.05723
3273.61349,0.05741
3271.55332,0.05749
3269.49315,0.05748
3267.43298,0.05751
3265.37281,0.05740
3263.31263,0.05737
3261.25246,0.05747
3259.19229,0.05748
3257.13212,0.05761
3255.07194,0.05753
3253.01177,0.05681
3250.95160,0.05620
3248.89143,0.05609
3246.83126,0.05609
3244.77108,0.05613
3242.71091,0.05591
3240.65074,0.05544
3238.59057,0.05524
3236.53040,0.05533
3234.47022,0.05550
3232.41005,0.05569
3230.34988,0.05567
3228.28971,0.05542
3226.22954,0.05499
3224.16936,0.05444
3222.10919,0.05425
3220.04902,0.05451
3217.98885,0.05474
3215.92867,0.05461
3213.86850,0.05415
3211.80833,0.05359
3209.74816,0.05303
3207.68799,0.05251
3205.62781,0.05214
3203.56764,0.05202
3201.50747,0.05215
3199.44730,0.05227
3197.38713,0.05220
3195.32695,0.05194
3193.26678,0.05166
3191.20661,0.05148
3189.14644,0.05121
3187.08626,0.05098
3185.02609,0.05098
3182.96592,0.05082
3180.90575,0.05058
3178.84558,0.05038
3176.78540,0.04988
3174.72523,0.04935
3172.66506,0.04899
3170.60489,0.04858
3168.54472,0.04828
3166.48454,0.04815
3164.42437,0.04788
3162.36420,0.04738
3160.30403,0.04687
3158.24386,0.04661
3156.18368,0.04654
3154.12351,0.04643
3152.06334,0.04611
3150.00317,0.04558
3147.94299,0.04494
3145.88282,0.04453
3143.82265,0.04440
3141.76248,0.04412
3139.70231,0.04374
3137.64213,0.04346
3135.58196,0.04302
3133.52179,0.04250
3131.46162,0.04210
3129.40145,0.04179
3127.34127,0.04173
3125.28110,0.04181
3123.22093,0.04169
3121.16076,0.04139
3119.10058,0.04115
3117.04041,0.04092
3114.98024,0.04053
3112.92007,0.04015
3110.85990,0.03982
3108.79972,0.03937
3106.73955,0.03883
3104.67938,0.03826
3102.61921,0.03787
3100.55904,0.03762
3098.49886,0.03720
3096.43869,0.03682
3094.37852,0.03679
3092.31835,0.03697
3090.25818,0.03702
3088.19800,0.03671
3086.13783,0.03623
3084.07766,0.03590
3082.01749,0.03561
3079.95731,0.03513
3077.89714,0.03465
3075.83697,0.03425
3073.77680,0.03369
3071.71663,0.03316
3069.65645,0.03286
3067.59628,0.03258
3065.53611,0.03232
3063.47594,0.03217
3061.41577,0.03203
3059.35559,0.03180
3057.29542,0.03156
3055.23525,0.03136
3053.17508,0.03109
3051.11491,0.03066
3049.05473,0.03027
3046.99456,0.03007
3044.93439,0.02988
3042.87422,0.02972
3040.81404,0.02974
3038.75387,0.02964
3036.69370,0.02933
3034.63353,0.02896
3032.57336,0.02867
3030.51318,0.02860
3028.45301,0.02844
3026.39284,0.02796
3024.33267,0.02756
3022.27250,0.02734
3020.21232,0.02711
3018.15215,0.02699
3016.09198,0.02704
3014.03181,0.02696
3011.97163,0.02676
3009.91146,0.02677
3007.85129,0.02676
3005.79112,0.02650
3003.73095,0.02621
3001.67077,0.02585
2999.61060,0.02540
2997.55043,0.02516
2995.49026,0.02514
2993.43009,0.02502
2991.36991,0.02488
2989.30974,0.02505
2987.24957,0.02531
2985.18940,0.02533
2983.12923,0.02545
2981.06905,0.02583
2979.00888,0.02637
2976.94871,0.02703
2974.88854,0.02754
2972.82836,0.02790
2970.76819,0.02866
2968.70802,0.02998
2966.64785,0.03130
2964.58768,0.03266
2962.52750,0.03444
2960.46733,0.03625
2958.40716,0.03785
2956.34699,0.03930
2954.28682,0.04080
2952.22664,0.04270
2950.16647,0.04475
2948.10630,0.04680
2946.04613,0.04902
2943.98596,0.05133
2941.92578,0.05379
2939.86561,0.05666
2937.80544,0.05977
2935.74527,0.06254
2933.68509,0.06483
2931.62492,0.06703
2929.56475,0.06921
2927.50458,0.07114
2925.44441,0.07289
2923.38423,0.07443
2921.32406,0.07538
2919.26389,0.07562
2917.20372,0.07484
2915.14355,0.07281
2913.08337,0.07006
2911.02320,0.06717
2908.96303,0.06436
2906.90286,0.06189
2904.84268,0.05989
2902.78251,0.05798
2900.72234,0.05593
2898.66217,0.05414
2896.60200,0.05285
2894.54182,0.05166
2892.48165,0.05029
2890.42148,0.04908
2888.36131,0.04820
2886.30114,0.04739
2884.24096,0.04625
2882.18079,0.04509
2880.12062,0.04464
2878.06045,0.04480
2876.00028,0.04521
2873.94010,0.04575
2871.87993,0.04612
2869.81976,0.04629
2867.75959,0.04667
2865.69941,0.04762
2863.63924,0.04895
2861.57907,0.05042
2859.51890,0.05229
2857.45873,0.05434
2855.39855,0.05601
2853.33838,0.05722
2851.27821,0.05782
2849.21804,0.05708
2847.15787,0.05458
2845.09769,0.05106
2843.03752,0.04744
2840.97735,0.04408
2838.91718,0.04136
2836.85700,0.03933
2834.79683,0.03763
2832.73666,0.03626
2830.67649,0.03520
2828.61632,0.03419
2826.55614,0.03332
2824.49597,0.03265
2822.43580,0.03196
2820.37563,0.03122
2818.31546,0.03057
2816.25528,0.03012
2814.19511,0.02979
2812.13494,0.02936
2810.07477,0.02880
2808.01460,0.02831
2805.95442,0.02792
2803.89425,0.02768
2801.83408,0.02759
2799.77391,0.02748
2797.71373,0.02715
2795.65356,0.02661
2793.59339,0.02606
2791.53322,0.02564
2789.47305,0.02547
2787.41287,0.02538
2785.35270,0.02518
2783.29253,0.02495
2781.23236,0.02461
2779.17219,0.02418
2777.11201,0.02406
2775.05184,0.02422
2772.99167,0.02426
2770.93150,0.02408
2768.87133,0.02378
2766.81115,0.02332
2764.75098,0.02303
2762.69081,0.02316
2760.63064,0.02324
2758.57046,0.02294
2756.51029,0.02270
2754.45012,0.02257
2752.38995,0.02241
2750.32978,0.02247
2748.26960,0.02257
2746.20943,0.02244
2744.14926,0.02239
2742.08909,0.02247
2740.02892,0.02235
2737.96874,0.02223
2735.90857,0.02224
2733.84840,0.02220
2731.78823,0.02215
2729.72805,0.02220
2727.66788,0.02214
2725.60771,0.02192
2723.54754,0.02186
2721.48737,0.02188
2719.42719,0.02174
2717.36702,0.02142
2715.30685,0.02107
2713.24668,0.02085
2711.18651,0.02079
2709.12633,0.02094
2707.06616,0.02120
2705.00599,0.02134
2702.94582,0.02135
2700.88565,0.02136
2698.82547,0.02119
2696.76530,0.02094
2694.70513,0.02086
2692.64496,0.02069
2690.58478,0.02054
2688.52461,0.02065
2686.46444,0.02071
2684.40427,0.02060
2682.34410,0.02054
2680.28392,0.02056
2678.22375,0.02045
2676.16358,0.02039
2674.10341,0.02045
2672.04324,0.02042
2669.98306,0.02018
2667.92289,0.01976
2665.86272,0.01939
2663.80255,0.01918
2661.74238,0.01921
2659.68220,0.01942
2657.62203,0.01939
2655.56186,0.01901
2653.50169,0.01872
2651.44151,0.01884
2649.38134,0.01919
2647.32117,0.01940
2645.26100,0.01922
2643.20083,0.01868
2641.14065,0.01841
2639.08048,0.01878
2637.02031,0.01902
2634.96014,0.01885
2632.89997,0.01844
2630.83979,0.01783
2628.77962,0.01759
2626.71945,0.01779
2624.65928,0.01802
2622.59910,0.01813
2620.53893,0.01792
2618.47876,0.01760
2616.41859,0.01767
2614.35842,0.01791
2612.29824,0.01777
2610.23807,0.01707
2608.17790,0.01640
2606.11773,0.01634
2604.05756,0.01653
2601.99738,0.01638
2599.93721,0.01597
2597.87704,0.01567
2595.81687,0.01557
2593.75670,0.01565
2591.69652,0.01573
2589.63635,0.01530
2587.57618,0.01452
2585.51601,0.01442
2583.45583,0.01502
2581.39566,0.01543
2579.33549,0.01547
2577.27532,0.01506
2575.21515,0.01419
2573.15497,0.01374
2571.09480,0.01424
2569.03463,0.01493
2566.97446,0.01521
2564.91429,0.01504
2562.85411,0.01473
2560.79394,0.01446
2558.73377,0.01420
2556.67360,0.01418
2554.61342,0.01420
2552.55325,0.01410
2550.49308,0.01422
2548.43291,0.01450
2546.37274,0.01474
2544.31256,0.01494
2542.25239,0.01471
2540.19222,0.01399
2538.13205,0.01358
2536.07188,0.01385
2534.01170,0.01428
2531.95153,0.01424
2529.89136,0.01381
2527.83119,0.01334
2525.77102,0.01291
2523.71084,0.01276
2521.65067,0.01307
2519.59050,0.01337
2517.53033,0.01316
2515.47015,0.01278
2513.40998,0.01259
2511.34981,0.01247
2509.28964,0.01237
2507.22947,0.01230
2505.16929,0.01253
2503.10912,0.01284
2501.04895,0.01269
2498.98878,0.01221
2496.92861,0.01200
2494.86843,0.01217
2492.80826,0.01249
2490.74809,0.01291
2488.68792,0.01309
2486.62775,0.01263
2484.56757,0.01178
2482.50740,0.01142
2480.44723,0.01194
2478.38706,0.01272
2476.32688,0.01298
2474.26671,0.01287
2472.20654,0.01297
2470.14637,0.01282
2468.08620,0.01244
2466.02602,0.01216
2463.96585,0.01145
2461.90568,0.01062
2459.84551,0.01045
2457.78534,0.01081
2455.72516,0.01093
2453.66499,0.01066
2451.60482,0.01049
2449.54465,0.01051
2447.48447,0.01108
2445.42430,0.01175
2443.36413,0.01152
2441.30396,0.01122
2439.24379,0.01141
2437.18361,0.01118
2435.12344,0.01055
2433.06327,0.01050
2431.00310,0.01112
2428.94293,0.01150
2426.88275,0.01093
2424.82258,0.00993
2422.76241,0.00985
2420.70224,0.01080
2418.64207,0.01138
2416.58189,0.01109
2414.52172,0.01085
2412.46155,0.01092
2410.40138,0.01082
2408.34120,0.01037
2406.28103,0.00993
2404.22086,0.00981
2402.16069,0.01015
2400.10052,0.01054
2398.04034,0.01037
2395.98017,0.01018
2393.92000,0.01033
2391.85983,0.01046
2389.79966,0.01028
2387.73948,0.01010
2385.67931,0.01037
2383.61914,0.01084
2381.55897,0.01087
2379.49880,0.01037
2377.43862,0.00987
2375.37845,0.00941
2373.31828,0.00944
2371.25811,0.01000
2369.19793,0.01037
2367.13776,0.01132
2365.07759,0.01198
2363.01742,0.00969
2360.95725,0.00743
2358.89707,0.00587
2356.83690,0.00577
2354.77673,0.00684
2352.71656,0.00807
2350.65639,0.01094
2348.59621,0.01309
2346.53604,0.01143
2344.47587,0.01109
2342.41570,0.01048
2340.35552,0.00968
2338.29535,0.00998
2336.23518,0.01020
2334.17501,0.01029
2332.11484,0.01052
2330.05466,0.01120
2327.99449,0.01172
2325.93432,0.01211
2323.87415,0.01118
2321.81398,0.01041
2319.75380,0.01062
2317.69363,0.01164
2315.63346,0.01152
2313.57329,0.01038
2311.51312,0.00944
2309.45294,0.00899
2307.39277,0.00910
2305.33260,0.00963
2303.27243,0.01022
2301.21225,0.01039
2299.15208,0.01036
2297.09191,0.01046
2295.03174,0.01078
2292.97157,0.01091
2290.91139,0.01040
2288.85122,0.00977
2286.79105,0.00977
2284.73088,0.00995
2282.67071,0.00958
2280.61053,0.00902
2278.55036,0.00900
2276.49019,0.00931
2274.43002,0.00932
2272.36984,0.00905
2270.30967,0.00880
2268.24950,0.00818
2266.18933,0.00746
2264.12916,0.00750
2262.06898,0.00784
2260.00881,0.00778
2257.94864,0.00810
2255.88847,0.00878
2253.82830,0.00814
2251.76812,0.00668
2249.70795,0.00659
2247.64778,0.00738
2245.58761,0.00748
2243.52744,0.00768
2241.46726,0.00774
2239.40709,0.00762
2237.34692,0.00801
2235.28675,0.00817
2233.22657,0.00769
2231.16640,0.00716
2229.10623,0.00669
2227.04606,0.00650
2224.98589,0.00670
2222.92571,0.00631
2220.86554,0.00583
2218.80537,0.00555
2216.74520,0.00413
2214.68503,0.00308
2212.62485,0.00417
2210.56468,0.00580
2208.50451,0.00624
2206.44434,0.00598
2204.38417,0.00597
2202.32399,0.00640
2200.26382,0.00646
2198.20365,0.00523
2196.14348,0.00468
2194.08330,0.00604
2192.02313,0.00641
2189.96296,0.00390
2187.90279,0.00124
2185.84262,0.00225
2183.78244,0.00532
2181.72227,0.00653
2179.66210,0.00580
2177.60193,0.00469
2175.54176,0.00439
2173.48158,0.00512
2171.42141,0.00569
2169.36124,0.00533
2167.30107,0.00466
2165.24089,0.00484
2163.18072,0.00514
2161.12055,0.00339
2159.06038,0.00151
2157.00021,0.00235
2154.94003,0.00342
2152.87986,0.00365
2150.81969,0.00424
2148.75952,0.00435
2146.69935,0.00299
2144.63917,0.00186
2142.57900,0.00250
2140.51883,0.00341
2138.45866,0.00327
2136.39849,0.00328
2134.33831,0.00438
2132.27814,0.00531
2130.21797,0.00513
2128.15780,0.00473
2126.09762,0.00460
2124.03745,0.00491
2121.97728,0.00554
2119.91711,0.00591
2117.85694,0.00656
2115.79676,0.00747
2113.73659,0.00767
2111.67642,0.00738
2109.61625,0.00757
2107.55608,0.00828
2105.49590,0.00771
2103.43573,0.00585
2101.37556,0.00511
2099.31539,0.00543
2097.25521,0.00567
2095.19504,0.00573
2093.13487,0.00547
2091.07470,0.00496
2089.01453,0.00483
2086.95435,0.00534
2084.89418,0.00613
2082.83401,0.00635
2080.77384,0.00571
2078.71367,0.00540
2076.65349,0.00592
2074.59332,0.00594
2072.53315,0.00499
2070.47298,0.00422
2068.41281,0.00407
2066.35263,0.00398
2064.29246,0.00359
2062.23229,0.00307
2060.17212,0.00316
2058.11194,0.00436
2056.05177,0.00581
2053.99160,0.00613
2051.93143,0.00480
2049.87126,0.00325
2047.81108,0.00258
2045.75091,0.00237
2043.69074,0.00334
2041.63057,0.00469
2039.57040,0.00474
2037.51022,0.00356
2035.45005,0.00156
2033.38988,0.00044
2031.32971,0.00160
2029.26954,0.00302
2027.20936,0.00289
2025.14919,0.00334
2023.08902,0.00560
2021.02885,0.00699
2018.96867,0.00528
2016.90850,0.00195
2014.84833,0.00000
2012.78816,0.00003
2010.72799,0.00029
2008.66781,0.00007
2006.60764,0.00091
2004.54747,0.00192
2002.48730,0.00213
2000.42713,0.00347
1998.36695,0.00552
1996.30678,0.00575
1994.24661,0.00438
1992.18644,0.00342
1990.12626,0.00360
1988.06609,0.00440
1986.00592,0.00525
1983.94575,0.00522
1981.88558,0.00480
1979.82540,0.00531
1977.76523,0.00525
1975.70506,0.00394
1973.64489,0.00371
1971.58472,0.00450
1969.52454,0.00506
1967.46437,0.00548
1965.40420,0.00478
1963.34403,0.00200
1961.28386,0.00000
1959.22368,0.00094
1957.16351,0.00252
1955.10334,0.00312
1953.04317,0.00372
1950.98299,0.00456
1948.92282,0.00438
1946.86265,0.00306
1944.80248,0.00179
1942.74231,0.00157
1940.68213,0.00274
1938.62196,0.00405
1936.56179,0.00430
1934.50162,0.00397
1932.44145,0.00362
1930.38127,0.00309
1928.32110,0.00281
1926.26093,0.00307
1924.20076,0.00340
1922.14059,0.00341
1920.08041,0.00317
1918.02024,0.00319
1915.96007,0.00364
1913.89990,0.00428
1911.83972,0.00477
1909.77955,0.00466
1907.71938,0.00398
1905.65921,0.00325
1903.59904,0.00279
1901.53886,0.00246
1899.47869,0.00209
1897.41852,0.00201
1895.35835,0.00261
1893.29818,0.00348
1891.23800,0.00372
1889.17783,0.00325
1887.11766,0.00294
1885.05749,0.00312
1882.99731,0.00334
1880.93714,0.00326
1878.87697,0.00305
1876.81680,0.00319
1874.75663,0.00368
1872.69645,0.00379
1870.63628,0.00311
1868.57611,0.00206
1866.51594,0.00134
1864.45577,0.00126
1862.39559,0.00140
1860.33542,0.00142
1858.27525,0.00143
1856.21508,0.00135
1854.15491,0.00121
1852.09473,0.00151
1850.03456,0.00202
1847.97439,0.00205
1845.91422,0.00169
1843.85404,0.00154
1841.79387,0.00161
1839.73370,0.00149
1837.67353,0.00114
1835.61336,0.00090
1833.55318,0.00099
1831.49301,0.00124
1829.43284,0.00146
1827.37267,0.00165
1825.31250,0.00185
1823.25232,0.00205
1821.19215,0.00203
1819.13198,0.00149
1817.07181,0.00091
1815.01163,0.00101
1812.95146,0.00156
1810.89129,0.00180
1808.83112,0.00159
1806.77095,0.00131
1804.71077,0.00109
1802.65060,0.00085
1800.59043,0.00062
1798.53026,0.00059
1796.47009,0.00070
1794.40991,0.00056
1792.34974,0.00025
1790.28957,0.00026
1788.22940,0.00051
1786.16923,0.00078
1784.10905,0.00082
1782.04888,0.00044
1779.98871,0.00000
1777.92854,-0.00003
1775.86836,0.00039
1773.80819,0.00067
1771.74802,0.00072
1769.68785,0.00102
1767.62768,0.00153
1765.56750,0.00189
1763.50733,0.00227
1761.44716,0.00325
1759.38699,0.00477
1757.32682,0.00628
1755.26664,0.00762
1753.20647,0.00901
1751.14630,0.01084
1749.08613,0.01306
1747.02596,0.01481
1744.96578,0.01551
1742.90561,0.01574
1740.84544,0.01624
1738.78527,0.01690
1736.72509,0.01717
1734.66492,0.01713
1732.60475,0.01725
1730.54458,0.01753
1728.48441,0.01785
1726.42423,0.01824
1724.36406,0.01861
1722.30389,0.01890
1720.24372,0.01906
1718.18355,0.01911
1716.12337,0.01924
1714.06320,0.01937
1712.00303,0.01935
1709.94286,0.01926
1707.88268,0.01915
1705.82251,0.01876
1703.76234,0.01805
1701.70217,0.01743
1699.64200,0.01731
1697.58182,0.01773
1695.52165,0.01849
1693.46148,0.01934
1691.40131,0.02025
1689.34114,0.02148
1687.28096,0.02315
1685.22079,0.02577
1683.16062,0.02926
1681.10045,0.03182
1679.04028,0.03331
1676.98010,0.03451
1674.91993,0.03568
1672.85976,0.03661
1670.79959,0.03706
1668.73941,0.03681
1666.67924,0.03586
1664.61907,0.03459
1662.55890,0.03348
1660.49873,0.03294
1658.43855,0.03274
1656.37838,0.03254
1654.31821,0.03231
1652.25804,0.03200
1650.19787,0.03155
1648.13769,0.03110
1646.07752,0.03106
1644.01735,0.03157
1641.95718,0.03217
1639.89701,0.03255
1637.83683,0.03286
1635.77666,0.03363
1633.71649,0.03474
1631.65632,0.03544
1629.59614,0.03583
1627.53597,0.03638
1625.47580,0.03693
1623.41563,0.03705
1621.35546,0.03683
1619.29528,0.03678
1617.23511,0.03728
1615.17494,0.03815
1613.11477,0.03912
1611.05460,0.04067
1608.99442,0.04293
1606.93425,0.04484
1604.87408,0.04555
1602.81391,0.04498
1600.75373,0.04340
1598.69356,0.04143
1596.63339,0.03957
1594.57322,0.03787
1592.51305,0.03638
1590.45287,0.03528
1588.39270,0.03448
1586.33253,0.03360
1584.27236,0.03251
1582.21219,0.03137
1580.15201,0.03040
1578.09184,0.02966
1576.03167,0.02892
1573.97150,0.02826
1571.91133,0.02779
1569.85115,0.02694
1567.79098,0.02559
1565.73081,0.02437
1563.67064,0.02348
1561.61046,0.02263
1559.55029,0.02119
1557.49012,0.01925
1555.42995,0.01800
1553.36978,0.01703
1551.30960,0.01593
1549.24943,0.01500
1547.18926,0.01441
1545.12909,0.01388
1543.06892,0.01318
1541.00874,0.01217
1538.94857,0.01093
1536.88840,0.01015
1534.82823,0.00970
1532.76805,0.00919
1530.70788,0.00866
1528.64771,0.00836
1526.58754,0.00837
1524.52737,0.00867
1522.46719,0.00934
1520.40702,0.01070
1518.34685,0.01251
1516.28668,0.01406
1514.22651,0.01438
1512.16633,0.01334
1510.10616,0.01163
1508.04599,0.00961
1505.98582,0.00781
1503.92565,0.00684
1501.86547,0.00603
1499.80530,0.00507
1497.74513,0.00413
1495.68496,0.00319
1493.62478,0.00229
1491.56461,0.00159
1489.50444,0.00128
1487.44427,0.00127
1485.38410,0.00129
1483.32392,0.00135
1481.26375,0.00160
1479.20358,0.00209
1477.14341,0.00292
1475.08324,0.00433
1473.02306,0.00676
1470.96289,0.00988
1468.90272,0.01259
1466.84255,0.01481
1464.78238,0.01676
1462.72220,0.01814
1460.66203,0.01889
1458.60186,0.01974
1456.54169,0.02143
1454.48151,0.02303
1452.42134,0.02368
1450.36117,0.02401
1448.30100,0.02482
1446.24083,0.02592
1444.18065,0.02690
1442.12048,0.02790
1440.06031,0.02897
1438.00014,0.02990
1435.93997,0.03084
1433.87979,0.03169
1431.81962,0.03209
1429.75945,0.03205
1427.69928,0.03191
1425.63910,0.03195
1423.57893,0.03211
1421.51876,0.03221
1419.45859,0.03237
1417.39842,0.03265
1415.33824,0.03273
1413.27807,0.03239
1411.21790,0.03173
1409.15773,0.03093
1407.09756,0.03006
1405.03738,0.02903
1402.97721,0.02797
1400.91704,0.02717
1398.85687,0.02653
1396.79670,0.02571
1394.73652,0.02476
1392.67635,0.02408
1390.61618,0.02392
1388.55601,0.02422
1386.49583,0.02478
1384.43566,0.02535
1382.37549,0.02598
1380.31532,0.02679
1378.25515,0.02772
1376.19497,0.02849
1374.13480,0.02876
1372.07463,0.02868
1370.01446,0.02869
1367.95429,0.02873
1365.89411,0.02852
1363.83394,0.02810
1361.77377,0.02758
1359.71360,0.02707
1357.65343,0.02672
1355.59325,0.02656
1353.53308,0.02648
1351.47291,0.02626
1349.41274,0.02594
1347.35256,0.02570
1345.29239,0.02557
1343.23222,0.02551
1341.17205,0.02546
1339.11188,0.02544
1337.05170,0.02549
1334.99153,0.02556
1332.93136,0.02562
1330.87119,0.02571
1328.81102,0.02585
1326.75084,0.02599
1324.69067,0.02597
1322.63050,0.02575
1320.57033,0.02542
1318.51015,0.02520
1316.44998,0.02517
1314.38981,0.02513
1312.32964,0.02489
1310.26947,0.02449
1308.20929,0.02409
1306.14912,0.02364
1304.08895,0.02296
1302.02878,0.02209
1299.96861,0.02117
1297.90843,0.02031
1295.84826,0.01992
1293.78809,0.02015
1291.72792,0.02062
1289.66775,0.02102
1287.60757,0.02117
1285.54740,0.02104
1283.48723,0.02099
1281.42706,0.02134
1279.36688,0.02171
1277.30671,0.02184
1275.24654,0.02214
1273.18637,0.02283
1271.12620,0.02360
1269.06602,0.02424
1267.00585,0.02492
1264.94568,0.02570
1262.88551,0.02654
1260.82534,0.02750
1258.76516,0.02844
1256.70499,0.02915
1254.64482,0.02962
1252.58465,0.02998
1250.52447,0.03045
1248.46430,0.03103
1246.40413,0.03160
1244.34396,0.03203
1242.28379,0.03222
1240.22361,0.03222
1238.16344,0.03196
1236.10327,0.03134
1234.04310,0.03058
1231.98293,0.02979
1229.92275,0.02892
1227.86258,0.02787
1225.80241,0.02651
1223.74224,0.02499
1221.68207,0.02337
1219.62189,0.02163
1217.56172,0.02002
1215.50155,0.01866
1213.44138,0.01742
1211.38120,0.01617
1209.32103,0.01469
1207.26086,0.01323
1205.20069,0.01206
1203.14052,0.01075
1201.08034,0.00885
1199.02017,0.00659
1196.96000,0.00450
1194.89983,0.00275
1192.83966,0.00133
1190.77948,0.00037
1188.71931,0.00000
1186.65914,-0.00013
1184.59897,-0.00022
1182.53880,-0.00012
1180.47862,0.00051
1178.41845,0.00167
1176.35828,0.00314
1174.29811,0.00491
1172.23793,0.00736
1170.17776,0.01035
1168.11759,0.01297
1166.05742,0.01460
1163.99725,0.01555
1161.93707,0.01621
1159.87690,0.01658
1157.81673,0.01692
1155.75656,0.01757
1153.69639,0.01857
1151.63621,0.01973
1149.57604,0.02109
1147.51587,0.02273
1145.45570,0.02440
1143.39552,0.02582
1141.33535,0.02690
1139.27518,0.02757
1137.21501,0.02807
1135.15484,0.02874
1133.09466,0.02980
1131.03449,0.03115
1128.97432,0.03239
1126.91415,0.03342
1124.85398,0.03459
1122.79380,0.03610
1120.73363,0.03772
1118.67346,0.03920
1116.61329,0.04061
1114.55312,0.04204
1112.49294,0.04354
1110.43277,0.04505
1108.37260,0.04625
1106.31243,0.04724
1104.25225,0.04859
1102.19208,0.05033
1100.13191,0.05221
1098.07174,0.05451
1096.01157,0.05732
1093.95139,0.05999
1091.89122,0.06205
1089.83105,0.06386
1087.77088,0.06599
1085.71071,0.06858
1083.65053,0.07099
1081.59036,0.07310
1079.53019,0.07561
1077.47002,0.07830
1075.40985,0.08075
1073.34967,0.08322
1071.28950,0.08570
1069.22933,0.08794
1067.16916,0.08994
1065.10898,0.09157
1063.04881,0.09275
1060.98864,0.09387
1058.92847,0.09559
1056.86830,0.09795
1054.80812,0.10030
1052.74795,0.10247
1050.68778,0.10497
1048.62761,0.10798
1046.56744,0.11120
1044.50726,0.11438
1042.44709,0.11736
1040.38692,0.12008
1038.32675,0.12234
1036.26657,0.12409
1034.20640,0.12551
1032.14623,0.12607
1030.08606,0.12591
1028.02589,0.12603
1025.96571,0.12627
1023.90554,0.12578
1021.84537,0.12472
1019.78520,0.12403
1017.72503,0.12389
1015.66485,0.12404
1013.60468,0.12461
1011.54451,0.12517
1009.48434,0.12507
1007.42417,0.12466
1005.36399,0.12429
1003.30382,0.12397
1001.24365,0.12347
999.18348,0.12226
997.12330,0.12026
995.06313,0.11778
993.00296,0.11529
990.94279,0.11311
988.88262,0.11096
986.82244,0.10890
984.76227,0.10733
982.70210,0.10598
980.64193,0.10429
978.58176,0.10211
976.52158,0.09974
974.46141,0.09777
972.40124,0.09601
970.34107,0.09403
968.28089,0.09207
966.22072,0.09024
964.16055,0.08818
962.10038,0.08564
960.04021,0.08339
957.98003,0.08180
955.91986,0.07983
953.85969,0.07740
951.79952,0.07569
949.73935,0.07450
947.67917,0.07287
945.61900,0.07098
943.55883,0.06884
941.49866,0.06561
939.43849,0.06144
937.37831,0.05734
935.31814,0.05343
933.25797,0.04935
931.19780,0.04527
929.13762,0.04173
927.07745,0.03883
925.01728,0.03631
922.95711,0.03422
920.89694,0.03238
918.83676,0.03044
916.77659,0.02848
914.71642,0.02646
912.65625,0.02444
910.59608,0.02299
908.53590,0.02167
906.47573,0.01986
904.41556,0.01846
902.35539,0.01825
900.29522,0.01877
898.23504,0.01899
896.17487,0.01873
894.11470,0.01861
892.05453,0.01859
889.99435,0.01841
887.93418,0.01819
885.87401,0.01776
883.81384,0.01659
881.75367,0.01500
879.69349,0.01387
877.63332,0.01316
875.57315,0.01208
873.51298,0.01101
871.45281,0.01030
869.39263,0.00981
867.33246,0.00961
865.27229,0.00912
863.21212,0.00857
861.15194,0.00882
859.09177,0.00922
857.03160,0.00903
854.97143,0.00866
852.91126,0.00821
850.85108,0.00740
848.79091,0.00706
846.73074,0.00757
844.67057,0.00763
842.61040,0.00703
840.55022,0.00682
838.49005,0.00697
836.42988,0.00693
834.36971,0.00692
832.30954,0.00676
830.24936,0.00585
828.18919,0.00498
826.12902,0.00502
824.06885,0.00503
822.00867,0.00451
819.94850,0.00430
817.88833,0.00439
815.82816,0.00391
813.76799,0.00276
811.70781,0.00246
809.64764,0.00350
807.58747,0.00398
805.52730,0.00383
803.46713,0.00413
801.40695,0.00418
799.34678,0.00384
797.28661,0.00369
795.22644,0.00351
793.16627,0.00308
791.10609,0.00261
789.04592,0.00238
786.98575,0.00268
784.92558,0.00291
782.86540,0.00206
780.80523,0.00089
778.74506,0.00027
776.68489,0.00000
774.62472,0.00015
772.56454,0.00081
770.50437,0.00199
768.44420,0.00334
766.38403,0.00354
764.32386,0.00275
762.26368,0.00213
760.20351,0.00185
758.14334,0.00234
756.08317,0.00331
754.02299,0.00331
751.96282,0.00257
749.90265,0.00214
747.84248,0.00209
745.78231,0.00184
743.72213,0.00093
741.66196,0.00000
739.60179,-0.00037
737.54162,-0.00013
735.48145,0.00057
733.42127,0.00192
731.36110,0.00377
729.30093,0.00503
727.24076,0.00426
725.18059,0.00223
723.12041,0.00174
721.06024,0.00244
719.00007,0.00290
716.93990,0.00229
714.87972,0.00287
712.81955,0.00521
710.75938,0.00716
708.69921,0.00821
706.63904,0.00936
704.57886,0.01055
702.51869,0.01078
700.45852,0.01048
698.39835,0.01062
696.33818,0.01094
694.27800,0.01110
692.21783,0.01102
690.15766,0.01041
688.09749,0.00974
686.03731,0.00953
683.97714,0.00966
681.91697,0.00957
679.85680,0.00894
677.79663,0.00893
675.73645,0.01090
673.67628,0.01372
671.61611,0.01379
669.55594,0.00614
667.49577,0.00000
665.43559,0.00548
663.37542,0.00557
661.31525,0.00480
659.25508,0.00556
657.19491,0.00578
655.13473,0.00498
653.07456,0.00522
651.01439,0.00627
648.95422,0.00538
646.89404,0.00375
644.83387,0.00288
642.77370,0.00154
640.71353,0.00000
638.65336,0.00022
636.59318,0.00176
634.53301,0.00231
632.47284,0.00125
630.41267,0.00010
628.35250,-0.00020
626.29232,0.00010
624.23215,0.00078
622.17198,0.00162
620.11181,0.00133
618.05164,0.00096
615.99146,-0.00064
613.93129,-0.00531
611.87112,-0.00751
609.81095,-0.00468
607.75077,-0.00227
605.69060,-0.00253
603.63043,-0.00086
601.57026,0.00153
599.51009,0.00000
