3996.73391,-0.00226
3994.67373,-0.00193
3992.61356,-0.00208
3990.55339,-0.00222
3988.49322,-0.00200
3986.43305,-0.00142
3984.37287,-0.00101
3982.31270,-0.00113
3980.25253,-0.00151
3978.19236,-0.00162
3976.13219,-0.00141
3974.07201,-0.00125
3972.01184,-0.00118
3969.95167,-0.00103
3967.89150,-0.00082
3965.83133,-0.00038
3963.77115,0.00019
3961.71098,0.00025
3959.65081,-0.00010
3957.59064,-0.00018
3955.53046,0.00000
3953.47029,0.00062
3951.41012,0.00165
3949.34995,0.00191
3947.28978,0.00083
3945.22960,-0.00011
3943.16943,0.00000
3941.10926,0.00024
3939.04909,0.00053
3936.98892,0.00072
3934.92874,0.00101
3932.86857,0.00172
3930.80840,0.00209
3928.74823,0.00164
3926.68805,0.00110
3924.62788,0.00088
3922.56771,0.00091
3920.50754,0.00139
3918.44737,0.00189
3916.38719,0.00178
3914.32702,0.00130
3912.26685,0.00123
3910.20668,0.00129
3908.14651,0.00125
3906.08633,0.00171
3904.02616,0.00213
3901.96599,0.00193
3899.90582,0.00184
3897.84565,0.00135
3895.78547,0.00106
3893.72530,0.00197
3891.66513,0.00237
3889.60496,0.00099
3887.54478,0.00101
3885.48461,0.00233
3883.42444,0.00231
3881.36427,0.00197
3879.30410,0.00087
3877.24392,0.00008
3875.18375,0.00094
3873.12358,0.00161
3871.06341,0.00196
3869.00324,0.00108
3866.94306,-0.00005
3864.88289,0.00076
3862.82272,0.00120
3860.76255,0.00050
3858.70237,0.00000
3856.64220,0.00086
3854.58203,0.00284
3852.52186,0.00298
3850.46169,0.00186
3848.40151,0.00206
3846.34134,0.00291
3844.28117,0.00341
3842.22100,0.00343
3840.16083,0.00377
3838.10065,0.00380
3836.04048,0.00318
3833.98031,0.00325
3831.92014,0.00353
3829.85997,0.00322
3827.79979,0.00313
3825.73962,0.00258
3823.67945,0.00192
3821.61928,0.00150
3819.55910,0.00000
3817.49893,0.00060
3815.43876,0.00200
3813.37859,0.00165
3811.31842,0.00181
3809.25824,0.00306
3807.19807,0.00360
3805.13790,0.00248
3803.07773,0.00298
3801.01756,0.00381
3798.95738,0.00281
3796.89721,0.00254
3794.83704,0.00226
3792.77687,0.00188
3790.71670,0.00208
3788.65652,0.00249
3786.59635,0.00302
3784.53618,0.00324
3782.47601,0.00323
3780.41583,0.00378
3778.35566,0.00359
3776.29549,0.00268
3774.23532,0.00260
3772.17515,0.00370
3770.11497,0.00501
3768.05480,0.00476
3765.99463,0.00311
3763.93446,0.00091
3761.87429,0.00036
3759.81411,0.00150
3757.75394,0.00197
3755.69377,0.00190
3753.63360,0.00251
3751.57342,0.00254
3749.51325,0.00064
3747.45308,0.00000
3745.39291,0.00204
3743.33274,0.00215
3741.27256,0.00066
3739.21239,0.00054
3737.15222,0.00140
3735.09205,0.00232
3733.03188,0.00247
3730.97170,0.00154
3728.91153,0.00064
3726.85136,0.00073
3724.79119,0.00096
3722.73102,0.00124
3720.67084,0.00143
3718.61067,0.00129
3716.55050,0.00118
3714.49033,0.00183
3712.43015,0.00296
3710.36998,0.00318
3708.30981,0.00213
3706.24964,0.00133
3704.18947,0.00209
3702.12929,0.00300
3700.06912,0.00210
3698.00895,0.00138
3695.94878,0.00171
3693.88861,0.00191
3691.82843,0.00237
3689.76826,0.00281
3687.70809,0.00217
3685.64792,0.00149
3683.58775,0.00154
3681.52757,0.00128
3679.46740,0.00087
3677.40723,0.00203
3675.34706,0.00347
3673.28688,0.00250
3671.22671,0.00283
3669.16654,0.00333
3667.10637,0.00227
3665.04620,0.00215
3662.98602,0.00276
3660.92585,0.00281
3658.86568,0.00273
3656.80551,0.00293
3654.74534,0.00201
3652.68516,0.00140
3650.62499,0.00244
3648.56482,0.00297
3646.50465,0.00226
3644.44447,0.00204
3642.38430,0.00297
3640.32413,0.00367
3638.26396,0.00366
3636.20379,0.00334
3634.14361,0.00289
3632.08344,0.00283
3630.02327,0.00409
3627.96310,0.00457
3625.90293,0.00394
3623.84275,0.00437
3621.78258,0.00565
3619.72241,0.00660
3617.66224,0.00619
3615.60207,0.00604
3613.54189,0.00684
3611.48172,0.00675
3609.42155,0.00667
3607.36138,0.00729
3605.30120,0.00751
3603.24103,0.00773
3601.18086,0.00846
3599.12069,0.00922
3597.06052,0.00959
3595.00034,0.00950
3592.94017,0.00877
3590.88000,0.00845
3588.81983,0.00922
3586.75966,0.00951
3584.69948,0.00917
3582.63931,0.00974
3580.57914,0.01061
3578.51897,0.01087
3576.45879,0.01088
3574.39862,0.01136
3572.33845,0.01235
3570.27828,0.01345
3568.21811,0.01424
3566.15793,0.01388
3564.09776,0.01319
3562.03759,0.01342
3559.97742,0.01382
3557.91725,0.01405
3555.85707,0.01453
3553.79690,0.01530
3551.73673,0.01586
3549.67656,0.01631
3547.61639,0.01714
3545.55621,0.01781
3543.49604,0.01815
3541.43587,0.01853
3539.37570,0.01890
3537.31552,0.01923
3535.25535,0.01919
3533.19518,0.01900
3531.13501,0.01970
3529.07484,0.02101
3527.01466,0.02171
3524.95449,0.02191
3522.89432,0.02203
3520.83415,0.02222
3518.77398,0.02312
3516.71380,0.02426
3514.65363,0.02484
3512.59346,0.02521
3510.53329,0.02577
3508.47312,0.02607
3506.41294,0.02628
3504.35277,0.02696
3502.29260,0.02726
3500.23243,0.02711
3498.17225,0.02756
3496.11208,0.02832
3494.05191,0.02872
3491.99174,0.02902
3489.93157,0.02968
3487.87139,0.03057
3485.81122,0.03122
3483.75105,0.03167
3481.69088,0.03220
3479.63071,0.03270
3477.57053,0.03309
3475.51036,0.03359
3473.45019,0.03426
3471.39002,0.03471
3469.32984,0.03476
3467.26967,0.03462
3465.20950,0.03478
3463.14933,0.03561
3461.08916,0.03644
3459.02898,0.03698
3456.96881,0.03790
3454.90864,0.03867
3452.84847,0.03842
3450.78830,0.03798
3448.72812,0.03833
3446.66795,0.03867
3444.60778,0.03894
3442.54761,0.03988
3440.48744,0.04063
3438.42726,0.04089
3436.36709,0.04124
3434.30692,0.04181
3432.24675,0.04212
3430.18657,0.04200
3428.12640,0.04229
3426.06623,0.04305
3424.00606,0.04373
3421.94589,0.04446
3419.88571,0.04507
3417.82554,0.04530
3415.76537,0.04531
3413.70520,0.04557
3411.64503,0.04629
3409.58485,0.04680
3407.52468,0.04717
3405.46451,0.04790
3403.40434,0.04812
3401.34416,0.04761
3399.28399,0.04753
3397.22382,0.04773
3395.16365,0.04793
3393.10348,0.04848
3391.04330,0.04908
3388.98313,0.04929
3386.92296,0.04939
3384.86279,0.04965
3382.80262,0.04982
3380.74244,0.04990
3378.68227,0.05038
3376.62210,0.05113
3374.56193,0.05149
3372.50176,0.05164
3370.44158,0.05184
3368.38141,0.05191
3366.32124,0.05197
3364.26107,0.05214
3362.20089,0.05244
3360.14072,0.05266
3358.08055,0.05264
3356.02038,0.05258
3353.96021,0.05273
3351.90003,0.05331
3349.83986,0.05386
3347.77969,0.05356
3345.71952,0.05301
3343.65935,0.05338
3341.59917,0.05425
3339.53900,0.05465
3337.47883,0.05463
3335.41866,0.05443
3333.35849,0.05413
3331.29831,0.05388
3329.23814,0.05360
3327.17797,0.05335
3325.11780,0.05358
3323.05762,0.05436
3320.99745,0.05510
3318.93728,0.05503
3316.87711,0.05444
3314.81694,0.05441
3312.75676,0.05518
3310.69659,0.05610
3308.63642,0.05657
3306.57625,0.05671
3304.51608,0.05671
3302.45590,0.05633
3300.39573,0.05572
3298.33556,0.05544
3296.27539,0.05561
3294.21521,0.05598
3292.15504,0.05622
3290.09487,0.05623
3288.03470,0.05608
3285.97453,0.05561
3283.91435,0.05525
3281.85418,0.05569
3279.79401,0.05620
3277.73384,0.05602
3275.67367,0.05570
3273.61349,0.05551
3271.55332,0.05535
3269.49315,0.05543
3267.43298,0.05564
3265.37281,0.05566
3263.31263,0.05551
3261.25246,0.05529
3259.19229,0.05532
3257.13212,0.05580
3255.07194,0.05602
3253.01177,0.05540
3250.95160,0.05458
3248.89143,0.05416
3246.83126,0.05432
3244.77108,0.05466
3242.71091,0.05442
3240.65074,0.05416
3238.59057,0.05446
3236.53040,0.05469
3234.47022,0.05463
3232.41005,0.05455
3230.34988,0.05444
3228.28971,0.05421
3226.22954,0.05381
3224.16936,0.05346
3222.10919,0.05337
3220.04902,0.05318
3217.98885,0.05275
3215.92867,0.05251
3213.86850,0.05255
3211.80833,0.05266
3209.74816,0.05254
3207.68799,0.05201
3205.62781,0.05144
3203.56764,0.05123
3201.50747,0.05120
3199.44730,0.05099
3197.38713,0.05057
3195.32695,0.05024
3193.26678,0.05008
3191.20661,0.04974
3189.14644,0.04960
3187.08626,0.05017
3185.02609,0.05055
3182.96592,0.05009
3180.90575,0.04954
3178.84558,0.04921
3176.78540,0.04876
3174.72523,0.04845
3172.66506,0.04843
3170.60489,0.04821
3168.54472,0.04755
3166.48454,0.04706
3164.42437,0.04696
3162.36420,0.04643
3160.30403,0.04568
3158.24386,0.04560
3156.18368,0.04581
3154.12351,0.04575
3152.06334,0.04560
3150.00317,0.04517
3147.94299,0.04433
3145.88282,0.04384
3143.82265,0.04386
3141.76248,0.04368
3139.70231,0.04328
3137.64213,0.04302
3135.58196,0.04283
3133.52179,0.04250
3131.46162,0.04186
3129.40145,0.04133
3127.34127,0.04134
3125.28110,0.04153
3123.22093,0.04124
3121.16076,0.04038
3119.10058,0.04005
3117.04041,0.04057
3114.98024,0.04052
3112.92007,0.03963
3110.85990,0.03909
3108.79972,0.03914
3106.73955,0.03904
3104.67938,0.03849
3102.61921,0.03797
3100.55904,0.03774
3098.49886,0.03736
3096.43869,0.03661
3094.37852,0.03607
3092.31835,0.03648
3090.25818,0.03714
3088.19800,0.03668
3086.13783,0.03559
3084.07766,0.03521
3082.01749,0.03551
3079.95731,0.03553
3077.89714,0.03501
3075.83697,0.03427
3073.77680,0.03351
3071.71663,0.03297
3069.65645,0.03268
3067.59628,0.03260
3065.53611,0.03283
3063.47594,0.03291
3061.41577,0.03256
3059.35559,0.03220
3057.29542,0.03199
3055.23525,0.03160
3053.17508,0.03104
3051.11491,0.03049
3049.05473,0.03012
3046.99456,0.03004
3044.93439,0.03006
3042.87422,0.03021
3040.81404,0.03045
3038.75387,0.03010
3036.69370,0.02921
3034.63353,0.02849
3032.57336,0.02825
3030.51318,0.02831
3028.45301,0.02819
3026.39284,0.02799
3024.33267,0.02799
3022.27250,0.02784
3020.21232,0.02739
3018.15215,0.02716
3016.09198,0.02724
3014.03181,0.02707
3011.97163,0.02683
3009.91146,0.02696
3007.85129,0.02696
3005.79112,0.02651
3003.73095,0.02590
3001.67077,0.02543
2999.61060,0.02521
2997.55043,0.02530
2995.49026,0.02572
2993.43009,0.02582
2991.36991,0.02541
2989.30974,0.02534
2987.24957,0.02560
2985.18940,0.02570
2983.12923,0.02583
2981.06905,0.02616
2979.00888,0.02679
2976.94871,0.02772
2974.88854,0.02844
2972.82836,0.02877
2970.76819,0.02916
2968.70802,0.03011
2966.64785,0.03125
2964.58768,0.03215
2962.52750,0.03338
2960.46733,0.03525
2958.40716,0.03720
2956.34699,0.03868
2954.28682,0.04018
2952.22664,0.04219
2950.16647,0.04429
2948.10630,0.04610
2946.04613,0.04794
2943.98596,0.04992
2941.92578,0.05193
2939.86561,0.05446
2937.80544,0.05755
2935.74527,0.06028
2933.68509,0.06235
2931.62492,0.06424
2929.56475,0.06617
2927.50458,0.06824
2925.44441,0.07053
2923.38423,0.07253
2921.32406,0.07342
2919.26389,0.07322
2917.20372,0.07224
2915.14355,0.07044
2913.08337,0.06796
2911.02320,0.06522
2908.96303,0.06264
2906.90286,0.06039
2904.84268,0.05857
2902.78251,0.05701
2900.72234,0.05521
2898.66217,0.05326
2896.60200,0.05159
2894.54182,0.05009
2892.48165,0.04880
2890.42148,0.04796
2888.36131,0.04727
2886.30114,0.04628
2884.24096,0.04514
2882.18079,0.04435
2880.12062,0.04411
2878.06045,0.04422
2876.00028,0.04463
2873.94010,0.04502
2871.87993,0.04493
2869.81976,0.04498
2867.75959,0.04569
2865.69941,0.04675
2863.63924,0.04799
2861.57907,0.04936
2859.51890,0.05098
2857.45873,0.05301
2855.39855,0.05499
2853.33838,0.05633
2851.27821,0.05691
2849.21804,0.05620
2847.15787,0.05373
2845.09769,0.05024
2843.03752,0.04663
2840.97735,0.04348
2838.91718,0.04121
2836.85700,0.03957
2834.79683,0.03794
2832.73666,0.03643
2830.67649,0.03532
2828.61632,0.03446
2826.55614,0.03362
2824.49597,0.03282
2822.43580,0.03203
2820.37563,0.03123
2818.31546,0.03057
2816.25528,0.03016
2814.19511,0.02985
2812.13494,0.02962
2810.07477,0.02943
2808.01460,0.02903
2805.95442,0.02856
2803.89425,0.02837
2801.83408,0.02817
2799.77391,0.02760
2797.71373,0.02687
2795.65356,0.02643
2793.59339,0.02626
2791.53322,0.02598
2789.47305,0.02580
2787.41287,0.02585
2785.35270,0.02582
2783.29253,0.02562
2781.23236,0.02533
2779.17219,0.02509
2777.11201,0.02496
2775.05184,0.02491
2772.99167,0.02493
2770.93150,0.02496
2768.87133,0.02496
2766.81115,0.02491
2764.75098,0.02458
2762.69081,0.02401
2760.63064,0.02369
2758.57046,0.02372
2756.51029,0.02378
2754.45012,0.02362
2752.38995,0.02341
2750.32978,0.02339
2748.26960,0.02354
2746.20943,0.02377
2744.14926,0.02393
2742.08909,0.02380
2740.02892,0.02338
2737.96874,0.02293
2735.90857,0.02267
2733.84840,0.02267
2731.78823,0.02275
2729.72805,0.02273
2727.66788,0.02247
2725.60771,0.02212
2723.54754,0.02197
2721.48737,0.02201
2719.42719,0.02214
2717.36702,0.02216
2715.30685,0.02191
2713.24668,0.02151
2711.18651,0.02147
2709.12633,0.02193
2707.06616,0.02223
2705.00599,0.02211
2702.94582,0.02197
2700.88565,0.02190
2698.82547,0.02180
2696.76530,0.02191
2694.70513,0.02196
2692.64496,0.02146
2690.58478,0.02086
2688.52461,0.02084
2686.46444,0.02131
2684.40427,0.02164
2682.34410,0.02157
2680.28392,0.02145
2678.22375,0.02141
2676.16358,0.02147
2674.10341,0.02159
2672.04324,0.02157
2669.98306,0.02125
2667.92289,0.02060
2665.86272,0.02008
2663.80255,0.01987
2661.74238,0.02009
2659.68220,0.02059
2657.62203,0.02048
2655.56186,0.01974
2653.50169,0.01947
2651.44151,0.01979
2649.38134,0.01996
2647.32117,0.02009
2645.26100,0.02035
2643.20083,0.02027
2641.14065,0.02002
2639.08048,0.02006
2637.02031,0.02010
2634.96014,0.01986
2632.89997,0.01930
2630.83979,0.01858
2628.77962,0.01817
2626.71945,0.01807
2624.65928,0.01792
2622.59910,0.01769
2620.53893,0.01762
2618.47876,0.01801
2616.41859,0.01859
2614.35842,0.01896
2612.29824,0.01907
2610.23807,0.01852
2608.17790,0.01759
2606.11773,0.01719
2604.05756,0.01700
2601.99738,0.01650
2599.93721,0.01622
2597.87704,0.01640
2595.81687,0.01660
2593.75670,0.01669
2591.69652,0.01691
2589.63635,0.01685
2587.57618,0.01614
2585.51601,0.01569
2583.45583,0.01616
2581.39566,0.01689
2579.33549,0.01700
2577.27532,0.01620
2575.21515,0.01521
2573.15497,0.01513
2571.09480,0.01571
2569.03463,0.01595
2566.97446,0.01581
2564.91429,0.01558
2562.85411,0.01525
2560.79394,0.01463
2558.73377,0.01418
2556.67360,0.01455
2554.61342,0.01510
2552.55325,0.01495
2550.49308,0.01456
2548.43291,0.01493
2546.37274,0.01557
2544.31256,0.01565
2542.25239,0.01538
2540.19222,0.01494
2538.13205,0.01462
2536.07188,0.01475
2534.01170,0.01516
2531.95153,0.01519
2529.89136,0.01460
2527.83119,0.01401
2525.77102,0.01400
2523.71084,0.01439
2521.65067,0.01464
2519.59050,0.01452
2517.53033,0.01390
2515.47015,0.01297
2513.40998,0.01246
2511.34981,0.01278
2509.28964,0.01342
2507.22947,0.01379
2505.16929,0.01407
2503.10912,0.01434
2501.04895,0.01422
2498.98878,0.01385
2496.92861,0.01346
2494.86843,0.01319
2492.80826,0.01332
2490.74809,0.01376
2488.68792,0.01398
2486.62775,0.01360
2484.56757,0.01302
2482.50740,0.01312
2480.44723,0.01374
2478.38706,0.01397
2476.32688,0.01377
2474.26671,0.01358
2472.20654,0.01342
2470.14637,0.01330
2468.08620,0.01350
2466.02602,0.01352
2463.96585,0.01279
2461.90568,0.01208
2459.84551,0.01187
2457.78534,0.01191
2455.72516,0.01200
2453.66499,0.01192
2451.60482,0.01167
2449.54465,0.01199
2447.48447,0.01324
2445.42430,0.01394
2443.36413,0.01341
2441.30396,0.01297
2439.24379,0.01309
2437.18361,0.01309
2435.12344,0.01254
2433.06327,0.01192
2431.00310,0.01178
2428.94293,0.01168
2426.88275,0.01136
2424.82258,0.01137
2422.76241,0.01203
2420.70224,0.01297
2418.64207,0.01321
2416.58189,0.01278
2414.52172,0.01279
2412.46155,0.01298
2410.40138,0.01254
2408.34120,0.01219
2406.28103,0.01244
2404.22086,0.01244
2402.16069,0.01219
2400.10052,0.01217
2398.04034,0.01232
2395.98017,0.01246
2393.92000,0.01243
2391.85983,0.01205
2389.79966,0.01158
2387.73948,0.01148
2385.67931,0.01180
2383.61914,0.01204
2381.55897,0.01183
2379.49880,0.01155
2377.43862,0.01167
2375.37845,0.01147
2373.31828,0.01160
2371.25811,0.01304
2369.19793,0.01459
2367.13776,0.01588
2365.07759,0.01540
2363.01742,0.00975
2360.95725,0.00462
2358.89707,0.00397
2356.83690,0.00794
2354.77673,0.01193
2352.71656,0.01354
2350.65639,0.01627
2348.59621,0.01779
2346.53604,0.01419
2344.47587,0.01388
2342.41570,0.01468
2340.35552,0.01442
2338.29535,0.01496
2336.23518,0.01634
2334.17501,0.01834
2332.11484,0.01954
2330.05466,0.01878
2327.99449,0.01652
2325.93432,0.01572
2323.87415,0.01481
2321.81398,0.01373
2319.75380,0.01265
2317.69363,0.01253
2315.63346,0.01222
2313.57329,0.01231
2311.51312,0.01297
2309.45294,0.01298
2307.39277,0.01242
2305.33260,0.01220
2303.27243,0.01219
2301.21225,0.01192
2299.15208,0.01208
2297.09191,0.01241
2295.03174,0.01248
2292.97157,0.01265
2290.91139,0.01288
2288.85122,0.01276
2286.79105,0.01234
2284.73088,0.01175
2282.67071,0.01100
2280.61053,0.01026
2278.55036,0.00987
2276.49019,0.00983
2274.43002,0.00962
2272.36984,0.00933
2270.30967,0.00977
2268.24950,0.01041
2266.18933,0.01022
2264.12916,0.00962
2262.06898,0.00918
2260.00881,0.00878
2257.94864,0.00901
2255.88847,0.01005
2253.82830,0.01047
2251.76812,0.00977
2249.70795,0.00946
2247.64778,0.00964
2245.58761,0.00920
2243.52744,0.00880
2241.46726,0.00806
2239.40709,0.00652
2237.34692,0.00556
2235.28675,0.00559
2233.22657,0.00614
2231.16640,0.00657
2229.10623,0.00613
2227.04606,0.00604
2224.98589,0.00742
2222.92571,0.00799
2220.86554,0.00652
2218.80537,0.00491
2216.74520,0.00415
2214.68503,0.00462
2212.62485,0.00645
2210.56468,0.00855
2208.50451,0.00896
2206.44434,0.00749
2204.38417,0.00623
2202.32399,0.00651
2200.26382,0.00735
2198.20365,0.00711
2196.14348,0.00717
2194.08330,0.00947
2192.02313,0.01143
2189.96296,0.00927
2187.90279,0.00540
2185.84262,0.00611
2183.78244,0.01003
2181.72227,0.01082
2179.66210,0.00857
2177.60193,0.00668
2175.54176,0.00636
2173.48158,0.00739
2171.42141,0.00805
2169.36124,0.00744
2167.30107,0.00716
2165.24089,0.00772
2163.18072,0.00680
2161.12055,0.00391
2159.06038,0.00267
2157.00021,0.00424
2154.94003,0.00635
2152.87986,0.00777
2150.81969,0.00708
2148.75952,0.00491
2146.69935,0.00405
2144.63917,0.00469
2142.57900,0.00582
2140.51883,0.00647
2138.45866,0.00566
2136.39849,0.00447
2134.33831,0.00466
2132.27814,0.00628
2130.21797,0.00757
2128.15780,0.00778
2126.09762,0.00782
2124.03745,0.00807
2121.97728,0.00827
2119.91711,0.00805
2117.85694,0.00790
2115.79676,0.00841
2113.73659,0.00916
2111.67642,0.00920
2109.61625,0.00856
2107.55608,0.00872
2105.49590,0.00857
2103.43573,0.00679
2101.37556,0.00498
2099.31539,0.00440
2097.25521,0.00516
2095.19504,0.00619
2093.13487,0.00639
2091.07470,0.00645
2089.01453,0.00724
2086.95435,0.00797
2084.89418,0.00791
2082.83401,0.00784
2080.77384,0.00815
2078.71367,0.00837
2076.65349,0.00777
2074.59332,0.00665
2072.53315,0.00619
2070.47298,0.00628
2068.41281,0.00628
2066.35263,0.00601
2064.29246,0.00501
2062.23229,0.00345
2060.17212,0.00317
2058.11194,0.00494
2056.05177,0.00611
2053.99160,0.00551
2051.93143,0.00528
2049.87126,0.00562
2047.81108,0.00535
2045.75091,0.00553
2043.69074,0.00742
2041.63057,0.00818
2039.57040,0.00580
2037.51022,0.00398
2035.45005,0.00469
2033.38988,0.00540
2031.32971,0.00444
2029.26954,0.00255
2027.20936,0.00163
2025.14919,0.00292
2023.08902,0.00532
2021.02885,0.00691
2018.96867,0.00659
2016.90850,0.00439
2014.84833,0.00237
2012.78816,0.00196
2010.72799,0.00190
2008.66781,0.00182
2006.60764,0.00247
2004.54747,0.00264
2002.48730,0.00277
2000.42713,0.00490
1998.36695,0.00729
1996.30678,0.00789
1994.24661,0.00778
1992.18644,0.00719
1990.12626,0.00590
1988.06609,0.00615
1986.00592,0.00837
1983.94575,0.01016
1981.88558,0.00979
1979.82540,0.00775
1977.76523,0.00555
1975.70506,0.00444
1973.64489,0.00396
1971.58472,0.00421
1969.52454,0.00601
1967.46437,0.00724
1965.40420,0.00554
1963.34403,0.00219
1961.28386,0.00000
1959.22368,0.00093
1957.16351,0.00410
1955.10334,0.00665
1953.04317,0.00713
1950.98299,0.00618
1948.92282,0.00497
1946.86265,0.00442
1944.80248,0.00451
1942.74231,0.00454
1940.68213,0.00491
1938.62196,0.00606
1936.56179,0.00627
1934.50162,0.00556
1932.44145,0.00539
1930.38127,0.00555
1928.32110,0.00542
1926.26093,0.00491
1924.20076,0.00443
1922.14059,0.00445
1920.08041,0.00540
1918.02024,0.00604
1915.96007,0.00483
1913.89990,0.00409
1911.83972,0.00506
1909.77955,0.00596
1907.71938,0.00546
1905.65921,0.00439
1903.59904,0.00371
1901.53886,0.00338
1899.47869,0.00306
1897.41852,0.00310
1895.35835,0.00380
1893.29818,0.00456
1891.23800,0.00495
1889.17783,0.00464
1887.11766,0.00420
1885.05749,0.00460
1882.99731,0.00504
1880.93714,0.00499
1878.87697,0.00483
1876.81680,0.00478
1874.75663,0.00443
1872.69645,0.00362
1870.63628,0.00312
1868.57611,0.00285
1866.51594,0.00245
1864.45577,0.00294
1862.39559,0.00388
1860.33542,0.00419
1858.27525,0.00401
1856.21508,0.00358
1854.15491,0.00321
1852.09473,0.00330
1850.03456,0.00332
1847.97439,0.00250
1845.91422,0.00191
1843.85404,0.00218
1841.79387,0.00220
1839.73370,0.00233
1837.67353,0.00243
1835.61336,0.00201
1833.55318,0.00163
1831.49301,0.00203
1829.43284,0.00242
1827.37267,0.00244
1825.31250,0.00308
1823.25232,0.00355
1821.19215,0.00347
1819.13198,0.00285
1817.07181,0.00196
1815.01163,0.00149
1812.95146,0.00158
1810.89129,0.00170
1808.83112,0.00159
1806.77095,0.00164
1804.71077,0.00178
1802.65060,0.00175
1800.59043,0.00131
1798.53026,0.00049
1796.47009,0.00000
1794.40991,0.00058
1792.34974,0.00159
1790.28957,0.00123
1788.22940,0.00080
1786.16923,0.00138
1784.10905,0.00162
1782.04888,0.00128
1779.98871,0.00076
1777.92854,0.00010
1775.86836,0.00000
1773.80819,0.00038
1771.74802,0.00025
1769.68785,0.00007
1767.62768,0.00092
1765.56750,0.00175
1763.50733,0.00303
1761.44716,0.00428
1759.38699,0.00493
1757.32682,0.00618
1755.26664,0.00709
1753.20647,0.00824
1751.14630,0.01064
1749.08613,0.01286
1747.02596,0.01396
1744.96578,0.01437
1742.90561,0.01490
1740.84544,0.01580
1738.78527,0.01588
1736.72509,0.01595
1734.66492,0.01732
1732.60475,0.01692
1730.54458,0.01606
1728.48441,0.01642
1726.42423,0.01713
1724.36406,0.01767
1722.30389,0.01734
1720.24372,0.01746
1718.18355,0.01855
1716.12337,0.01835
1714.06320,0.01759
1712.00303,0.01757
1709.94286,0.01797
1707.88268,0.01839
1705.82251,0.01809
1703.76234,0.01682
1701.70217,0.01725
1699.64200,0.01773
1697.58182,0.01728
1695.52165,0.01789
1693.46148,0.01782
1691.40131,0.01881
1689.34114,0.02051
1687.28096,0.02230
1685.22079,0.02593
1683.16062,0.02834
1681.10045,0.02884
1679.04028,0.03064
1676.98010,0.03362
1674.91993,0.03556
1672.85976,0.03571
1670.79959,0.03647
1668.73941,0.03597
1666.67924,0.03361
1664.61907,0.03269
1662.55890,0.03257
1660.49873,0.03124
1658.43855,0.02998
1656.37838,0.03043
1654.31821,0.03263
1652.25804,0.03138
1650.19787,0.02819
1648.13769,0.02934
1646.07752,0.03112
1644.01735,0.03066
1641.95718,0.03046
1639.89701,0.03088
1637.83683,0.03232
1635.77666,0.03426
1633.71649,0.03409
1631.65632,0.03389
1629.59614,0.03499
1627.53597,0.03572
1625.47580,0.03611
1623.41563,0.03652
1621.35546,0.03558
1619.29528,0.03570
1617.23511,0.03786
1615.17494,0.03843
1613.11477,0.03819
1611.05460,0.03949
1608.99442,0.04156
1606.93425,0.04322
1604.87408,0.04399
1602.81391,0.04369
1600.75373,0.04225
1598.69356,0.04038
1596.63339,0.03884
1594.57322,0.03750
1592.51305,0.03612
1590.45287,0.03491
1588.39270,0.03381
1586.33253,0.03269
1584.27236,0.03160
1582.21219,0.03035
1580.15201,0.02924
1578.09184,0.02939
1576.03167,0.02917
1573.97150,0.02680
1571.91133,0.02603
1569.85115,0.02654
1567.79098,0.02509
1565.73081,0.02339
1563.67064,0.02201
1561.61046,0.02220
1559.55029,0.02370
1557.49012,0.02019
1555.42995,0.01683
1553.36978,0.01631
1551.30960,0.01613
1549.24943,0.01501
1547.18926,0.01323
1545.12909,0.01222
1543.06892,0.01203
1541.00874,0.01259
1538.94857,0.01070
1536.88840,0.00776
1534.82823,0.00828
1532.76805,0.00883
1530.70788,0.00734
1528.64771,0.00709
1526.58754,0.00756
1524.52737,0.00765
1522.46719,0.00882
1520.40702,0.00978
1518.34685,0.01097
1516.28668,0.01284
1514.22651,0.01285
1512.16633,0.01144
1510.10616,0.01012
1508.04599,0.01011
1505.98582,0.00861
1503.92565,0.00552
1501.86547,0.00448
1499.80530,0.00482
1497.74513,0.00461
1495.68496,0.00290
1493.62478,0.00104
1491.56461,0.00121
1489.50444,0.00210
1487.44427,0.00179
1485.38410,0.00112
1483.32392,0.00117
1481.26375,0.00164
1479.20358,0.00176
1477.14341,0.00228
1475.08324,0.00412
1473.02306,0.00737
1470.96289,0.00973
1468.90272,0.01143
1466.84255,0.01441
1464.78238,0.01690
1462.72220,0.01690
1460.66203,0.01698
1458.60186,0.01914
1456.54169,0.02105
1454.48151,0.02113
1452.42134,0.02149
1450.36117,0.02247
1448.30100,0.02371
1446.24083,0.02462
1444.18065,0.02540
1442.12048,0.02640
1440.06031,0.02755
1438.00014,0.02930
1435.93997,0.03005
1433.87979,0.02935
1431.81962,0.02970
1429.75945,0.03039
1427.69928,0.03029
1425.63910,0.03032
1423.57893,0.03022
1421.51876,0.03029
1419.45859,0.03147
1417.39842,0.03169
1415.33824,0.03105
1413.27807,0.03067
1411.21790,0.03017
1409.15773,0.02939
1407.09756,0.02891
1405.03738,0.02832
1402.97721,0.02688
1400.91704,0.02597
1398.85687,0.02556
1396.79670,0.02473
1394.73652,0.02392
1392.67635,0.02285
1390.61618,0.02247
1388.55601,0.02345
1386.49583,0.02430
1384.43566,0.02456
1382.37549,0.02522
1380.31532,0.02605
1378.25515,0.02657
1376.19497,0.02710
1374.13480,0.02752
1372.07463,0.02736
1370.01446,0.02753
1367.95429,0.02774
1365.89411,0.02746
1363.83394,0.02734
1361.77377,0.02673
1359.71360,0.02567
1357.65343,0.02530
1355.59325,0.02539
1353.53308,0.02521
1351.47291,0.02486
1349.41274,0.02483
1347.35256,0.02497
1345.29239,0.02487
1343.23222,0.02467
1341.17205,0.02485
1339.11188,0.02497
1337.05170,0.02456
1334.99153,0.02432
1332.93136,0.02452
1330.87119,0.02489
1328.81102,0.02529
1326.75084,0.02561
1324.69067,0.02551
1322.63050,0.02504
1320.57033,0.02466
1318.51015,0.02438
1316.44998,0.02415
1314.38981,0.02419
1312.32964,0.02409
1310.26947,0.02366
1308.20929,0.02319
1306.14912,0.02265
1304.08895,0.02205
1302.02878,0.02136
1299.96861,0.02054
1297.90843,0.01991
1295.84826,0.01969
1293.78809,0.01971
1291.72792,0.01983
1289.66775,0.02010
1287.60757,0.02045
1285.54740,0.02082
1283.48723,0.02111
1281.42706,0.02119
1279.36688,0.02109
1277.30671,0.02090
1275.24654,0.02103
1273.18637,0.02182
1271.12620,0.02300
1269.06602,0.02386
1267.00585,0.02434
1264.94568,0.02483
1262.88551,0.02556
1260.82534,0.02649
1258.76516,0.02746
1256.70499,0.02839
1254.64482,0.02903
1252.58465,0.02918
1250.52447,0.02938
1248.46430,0.02992
1246.40413,0.03040
1244.34396,0.03071
1242.28379,0.03100
1240.22361,0.03116
1238.16344,0.03095
1236.10327,0.03024
1234.04310,0.02939
1231.98293,0.02856
1229.92275,0.02765
1227.86258,0.02663
1225.80241,0.02532
1223.74224,0.02375
1221.68207,0.02229
1219.62189,0.02103
1217.56172,0.01973
1215.50155,0.01829
1213.44138,0.01700
1211.38120,0.01584
1209.32103,0.01438
1207.26086,0.01286
1205.20069,0.01157
1203.14052,0.01020
1201.08034,0.00851
1199.02017,0.00656
1196.96000,0.00463
1194.89983,0.00299
1192.83966,0.00153
1190.77948,0.00045
1188.71931,0.00000
1186.65914,-0.00016
1184.59897,-0.00019
1182.53880,-0.00014
1180.47862,0.00024
1178.41845,0.00115
1176.35828,0.00244
1174.29811,0.00421
1172.23793,0.00691
1170.17776,0.01017
1168.11759,0.01270
1166.05742,0.01392
1163.99725,0.01448
1161.93707,0.01502
1159.87690,0.01565
1157.81673,0.01634
1155.75656,0.01703
1153.69639,0.01781
1151.63621,0.01879
1149.57604,0.01998
1147.51587,0.02113
1145.45570,0.02227
1143.39552,0.02364
1141.33535,0.02512
1139.27518,0.02635
1137.21501,0.02696
1135.15484,0.02716
1133.09466,0.02775
1131.03449,0.02906
1128.97432,0.03059
1126.91415,0.03184
1124.85398,0.03275
1122.79380,0.03390
1120.73363,0.03552
1118.67346,0.03688
1116.61329,0.03801
1114.55312,0.03939
1112.49294,0.04053
1110.43277,0.04149
1108.37260,0.04296
1106.31243,0.04448
1104.25225,0.04576
1102.19208,0.04724
1100.13191,0.04891
1098.07174,0.05096
1096.01157,0.05355
1093.95139,0.05598
1091.89122,0.05778
1089.83105,0.05972
1087.77088,0.06229
1085.71071,0.06499
1083.65053,0.06722
1081.59036,0.06893
1079.53019,0.07073
1077.47002,0.07325
1075.40985,0.07633
1073.34967,0.07932
1071.28950,0.08164
1069.22933,0.08331
1067.16916,0.08482
1065.10898,0.08606
1063.04881,0.08702
1060.98864,0.08863
1058.92847,0.09109
1056.86830,0.09338
1054.80812,0.09514
1052.74795,0.09694
1050.68778,0.09917
1048.62761,0.10192
1046.56744,0.10498
1044.50726,0.10832
1042.44709,0.11167
1040.38692,0.11420
1038.32675,0.11583
1036.26657,0.11729
1034.20640,0.11854
1032.14623,0.11887
1030.08606,0.11853
1028.02589,0.11865
1025.96571,0.11905
1023.90554,0.11888
1021.84537,0.11828
1019.78520,0.11766
1017.72503,0.11714
1015.66485,0.11679
1013.60468,0.11671
1011.54451,0.11688
1009.48434,0.11716
1007.42417,0.11754
1005.36399,0.11780
1003.30382,0.11760
1001.24365,0.11679
999.18348,0.11534
997.12330,0.11316
995.06313,0.11065
993.00296,0.10841
990.94279,0.10654
988.88262,0.10472
986.82244,0.10260
984.76227,0.10048
982.70210,0.09899
980.64193,0.09813
978.58176,0.09688
976.52158,0.09461
974.46141,0.09229
972.40124,0.09043
970.34107,0.08853
968.28089,0.08654
966.22072,0.08476
964.16055,0.08297
962.10038,0.08057
960.04021,0.07826
957.98003,0.07682
955.91986,0.07515
953.85969,0.07275
951.79952,0.07059
949.73935,0.06893
947.67917,0.06714
945.61900,0.06540
943.55883,0.06406
941.49866,0.06198
939.43849,0.05832
937.37831,0.05402
935.31814,0.04992
933.25797,0.04622
931.19780,0.04291
929.13762,0.03978
927.07745,0.03687
925.01728,0.03419
922.95711,0.03196
920.89694,0.03018
918.83676,0.02818
916.77659,0.02600
914.71642,0.02405
912.65625,0.02215
910.59608,0.02051
908.53590,0.01925
906.47573,0.01798
904.41556,0.01668
902.35539,0.01592
900.29522,0.01610
898.23504,0.01665
896.17487,0.01697
894.11470,0.01707
892.05453,0.01700
889.99435,0.01666
887.93418,0.01633
885.87401,0.01636
883.81384,0.01589
881.75367,0.01414
879.69349,0.01237
877.63332,0.01160
875.57315,0.01093
873.51298,0.01009
871.45281,0.00966
869.39263,0.00936
867.33246,0.00878
865.27229,0.00819
863.21212,0.00768
861.15194,0.00715
859.09177,0.00687
857.03160,0.00678
854.97143,0.00672
852.91126,0.00634
850.85108,0.00560
848.79091,0.00572
846.73074,0.00687
844.67057,0.00708
842.61040,0.00575
840.55022,0.00478
838.49005,0.00479
836.42988,0.00454
834.36971,0.00443
832.30954,0.00426
830.24936,0.00304
828.18919,0.00284
826.12902,0.00401
824.06885,0.00404
822.00867,0.00332
819.94850,0.00335
817.88833,0.00313
815.82816,0.00233
813.76799,0.00182
811.70781,0.00194
809.64764,0.00287
807.58747,0.00321
805.52730,0.00315
803.46713,0.00421
801.40695,0.00490
799.34678,0.00429
797.28661,0.00334
795.22644,0.00245
793.16627,0.00132
791.10609,0.00032
789.04592,0.00000
786.98575,0.00018
784.92558,0.00033
782.86540,-0.00007
780.80523,-0.00035
778.74506,-0.00019
776.68489,-0.00013
774.62472,-0.00046
772.56454,-0.00052
770.50437,0.00087
768.44420,0.00259
766.38403,0.00267
764.32386,0.00202
762.26368,0.00275
760.20351,0.00393
758.14334,0.00439
756.08317,0.00468
754.02299,0.00455
751.96282,0.00461
749.90265,0.00494
747.84248,0.00424
745.78231,0.00316
743.72213,0.00267
741.66196,0.00184
739.60179,0.00041
737.54162,0.00000
735.48145,0.00124
733.42127,0.00298
731.36110,0.00383
729.30093,0.00406
727.24076,0.00327
725.18059,0.00169
723.12041,0.00182
721.06024,0.00335
719.00007,0.00506
716.93990,0.00508
714.87972,0.00454
712.81955,0.00475
710.75938,0.00563
708.69921,0.00746
706.63904,0.00988
704.57886,0.01107
702.51869,0.01015
700.45852,0.00863
698.39835,0.00789
696.33818,0.00805
694.27800,0.00919
692.21783,0.01064
690.15766,0.01106
688.09749,0.01010
686.03731,0.00850
683.97714,0.00747
681.91697,0.00755
679.85680,0.00867
677.79663,0.01103
675.73645,0.01382
673.67628,0.01612
671.61611,0.01687
669.55594,0.00942
667.49577,0.00259
665.43559,0.00977
663.37542,0.00888
661.31525,0.00760
659.25508,0.00709
657.19491,0.00462
655.13473,0.00307
653.07456,0.00618
651.01439,0.01170
648.95422,0.01381
646.89404,0.01183
644.83387,0.00926
642.77370,0.00769
640.71353,0.00653
638.65336,0.00616
636.59318,0.00585
634.53301,0.00455
632.47284,0.00390
630.41267,0.00556
628.35250,0.00715
626.29232,0.00649
624.23215,0.00674
622.17198,0.00814
620.11181,0.00850
618.05164,0.00824
615.99146,0.01043
613.93129,0.01323
611.87112,0.00810
609.81095,-0.00010
607.75077,-0.00155
605.69060,0.00062
603.63043,0.00274
601.57026,0.00245
599.51009,0.00000
