3996.73391,0.00061
3994.67373,0.00098
3992.61356,0.00076
3990.55339,0.00016
3988.49322,-0.00004
3986.43305,0.00032
3984.37287,0.00062
3982.31270,0.00068
3980.25253,0.00075
3978.19236,0.00068
3976.13219,0.00032
3974.07201,-0.00005
3972.01184,-0.00016
3969.95167,-0.00004
3967.89150,0.00012
3965.83133,0.00028
3963.77115,0.00036
3961.71098,0.00018
3959.65081,0.00000
3957.59064,0.00009
3955.53046,0.00023
3953.47029,0.00057
3951.41012,0.00106
3949.34995,0.00109
3947.28978,0.00056
3945.22960,0.00007
3943.16943,0.00000
3941.10926,0.00030
3939.04909,0.00050
3936.98892,0.00036
3934.92874,0.00039
3932.86857,0.00102
3930.80840,0.00171
3928.74823,0.00162
3926.68805,0.00099
3924.62788,0.00074
3922.56771,0.00102
3920.50754,0.00112
3918.44737,0.00077
3916.38719,0.00049
3914.32702,0.00055
3912.26685,0.00081
3910.20668,0.00113
3908.14651,0.00133
3906.08633,0.00137
3904.02616,0.00148
3901.96599,0.00175
3899.90582,0.00188
3897.84565,0.00173
3895.78547,0.00158
3893.72530,0.00156
3891.66513,0.00134
3889.60496,0.00090
3887.54478,0.00101
3885.48461,0.00167
3883.42444,0.00184
3881.36427,0.00125
3879.30410,0.00073
3877.24392,0.00077
3875.18375,0.00107
3873.12358,0.00142
3871.06341,0.00176
3869.00324,0.00184
3866.94306,0.00164
3864.88289,0.00163
3862.82272,0.00178
3860.76255,0.00163
3858.70237,0.00129
3856.64220,0.00097
3854.58203,0.00077
3852.52186,0.00097
3850.46169,0.00169
3848.40151,0.00241
3846.34134,0.00286
3844.28117,0.00327
3842.22100,0.00363
3840.16083,0.00354
3838.10065,0.00300
3836.04048,0.00268
3833.98031,0.00256
3831.92014,0.00226
3829.85997,0.00198
3827.79979,0.00205
3825.73962,0.00217
3823.67945,0.00163
3821.61928,0.00045
3819.55910,0.00000
3817.49893,0.00066
3815.43876,0.00128
3813.37859,0.00150
3811.31842,0.00178
3809.25824,0.00229
3807.19807,0.00275
3805.13790,0.00286
3803.07773,0.00276
3801.01756,0.00256
3798.95738,0.00223
3796.89721,0.00191
3794.83704,0.00173
3792.77687,0.00164
3790.71670,0.00160
3788.65652,0.00165
3786.59635,0.00184
3784.53618,0.00212
3782.47601,0.00225
3780.41583,0.00222
3778.35566,0.00215
3776.29549,0.00209
3774.23532,0.00223
3772.17515,0.00266
3770.11497,0.00318
3768.05480,0.00304
3765.99463,0.00193
3763.93446,0.00075
3761.87429,0.00043
3759.81411,0.00097
3757.75394,0.00190
3755.69377,0.00257
3753.63360,0.00242
3751.57342,0.00156
3749.51325,0.00103
3747.45308,0.00121
3745.39291,0.00130
3743.33274,0.00132
3741.27256,0.00157
3739.21239,0.00148
3737.15222,0.00094
3735.09205,0.00082
3733.03188,0.00122
3730.97170,0.00138
3728.91153,0.00094
3726.85136,0.00026
3724.79119,0.00014
3722.73102,0.00075
3720.67084,0.00133
3718.61067,0.00122
3716.55050,0.00100
3714.49033,0.00131
3712.43015,0.00206
3710.36998,0.00277
3708.30981,0.00267
3706.24964,0.00220
3704.18947,0.00206
3702.12929,0.00189
3700.06912,0.00127
3698.00895,0.00096
3695.94878,0.00127
3693.88861,0.00152
3691.82843,0.00170
3689.76826,0.00196
3687.70809,0.00198
3685.64792,0.00166
3683.58775,0.00118
3681.52757,0.00090
3679.46740,0.00139
3677.40723,0.00249
3675.34706,0.00314
3673.28688,0.00272
3671.22671,0.00218
3669.16654,0.00226
3667.10637,0.00256
3665.04620,0.00259
3662.98602,0.00228
3660.92585,0.00171
3658.86568,0.00138
3656.80551,0.00177
3654.74534,0.00237
3652.68516,0.00238
3650.62499,0.00198
3648.56482,0.00183
3646.50465,0.00212
3644.44447,0.00262
3642.38430,0.00298
3640.32413,0.00306
3638.26396,0.00299
3636.20379,0.00284
3634.14361,0.00275
3632.08344,0.00288
3630.02327,0.00321
3627.96310,0.00407
3625.90293,0.00515
3623.84275,0.00571
3621.78258,0.00565
3619.72241,0.00549
3617.66224,0.00584
3615.60207,0.00658
3613.54189,0.00724
3611.48172,0.00754
3609.42155,0.00757
3607.36138,0.00755
3605.30120,0.00747
3603.24103,0.00736
3601.18086,0.00745
3599.12069,0.00789
3597.06052,0.00819
3595.00034,0.00823
3592.94017,0.00837
3590.88000,0.00881
3588.81983,0.00914
3586.75966,0.00918
3584.69948,0.00934
3582.63931,0.00990
3580.57914,0.01052
3578.51897,0.01071
3576.45879,0.01057
3574.39862,0.01088
3572.33845,0.01201
3570.27828,0.01322
3568.21811,0.01373
3566.15793,0.01367
3564.09776,0.01385
3562.03759,0.01437
3559.97742,0.01471
3557.91725,0.01494
3555.85707,0.01521
3553.79690,0.01532
3551.73673,0.01559
3549.67656,0.01628
3547.61639,0.01716
3545.55621,0.01806
3543.49604,0.01876
3541.43587,0.01902
3539.37570,0.01918
3537.31552,0.01954
3535.25535,0.01985
3533.19518,0.02005
3531.13501,0.02065
3529.07484,0.02172
3527.01466,0.02250
3524.95449,0.02279
3522.89432,0.02304
3520.83415,0.02347
3518.77398,0.02410
3516.71380,0.02473
3514.65363,0.02507
3512.59346,0.02544
3510.53329,0.02613
3508.47312,0.02699
3506.41294,0.02780
3504.35277,0.02826
3502.29260,0.02813
3500.23243,0.02799
3498.17225,0.02842
3496.11208,0.02892
3494.05191,0.02913
3491.99174,0.02974
3489.93157,0.03086
3487.87139,0.03171
3485.81122,0.03213
3483.75105,0.03260
3481.69088,0.03337
3479.63071,0.03404
3477.57053,0.03423
3475.51036,0.03442
3473.45019,0.03499
3471.39002,0.03543
3469.32984,0.03535
3467.26967,0.03531
3465.20950,0.03594
3463.14933,0.03697
3461.08916,0.03782
3459.02898,0.03849
3456.96881,0.03916
3454.90864,0.03949
3452.84847,0.03941
3450.78830,0.03943
3448.72812,0.03980
3446.66795,0.04025
3444.60778,0.04061
3442.54761,0.04096
3440.48744,0.04135
3438.42726,0.04176
3436.36709,0.04240
3434.30692,0.04313
3432.24675,0.04350
3430.18657,0.04360
3428.12640,0.04390
3426.06623,0.04453
3424.00606,0.04540
3421.94589,0.04626
3419.88571,0.04680
3417.82554,0.04695
3415.76537,0.04694
3413.70520,0.04720
3411.64503,0.04774
3409.58485,0.04809
3407.52468,0.04830
3405.46451,0.04887
3403.40434,0.04952
3401.34416,0.04974
3399.28399,0.04964
3397.22382,0.04941
3395.16365,0.04935
3393.10348,0.04980
3391.04330,0.05044
3388.98313,0.05097
3386.92296,0.05147
3384.86279,0.05185
3382.80262,0.05191
3380.74244,0.05196
3378.68227,0.05243
3376.62210,0.05292
3374.56193,0.05293
3372.50176,0.05270
3370.44158,0.05255
3368.38141,0.05264
3366.32124,0.05304
3364.26107,0.05368
3362.20089,0.05443
3360.14072,0.05490
3358.08055,0.05496
3356.02038,0.05498
3353.96021,0.05518
3351.90003,0.05555
3349.83986,0.05587
3347.77969,0.05578
3345.71952,0.05562
3343.65935,0.05586
3341.59917,0.05638
3339.53900,0.05678
3337.47883,0.05677
3335.41866,0.05669
3333.35849,0.05665
3331.29831,0.05630
3329.23814,0.05572
3327.17797,0.05532
3325.11780,0.05554
3323.05762,0.05628
3320.99745,0.05687
3318.93728,0.05687
3316.87711,0.05669
3314.81694,0.05686
3312.75676,0.05739
3310.69659,0.05795
3308.63642,0.05815
3306.57625,0.05799
3304.51608,0.05781
3302.45590,0.05786
3300.39573,0.05799
3298.33556,0.05808
3296.27539,0.05810
3294.21521,0.05804
3292.15504,0.05791
3290.09487,0.05771
3288.03470,0.05744
3285.97453,0.05712
3283.91435,0.05694
3281.85418,0.05700
3279.79401,0.05722
3277.73384,0.05760
3275.67367,0.05802
3273.61349,0.05804
3271.55332,0.05765
3269.49315,0.05754
3267.43298,0.05771
3265.37281,0.05767
3263.31263,0.05758
3261.25246,0.05752
3259.19229,0.05735
3257.13212,0.05739
3255.07194,0.05732
3253.01177,0.05675
3250.95160,0.05639
3248.89143,0.05641
3246.83126,0.05633
3244.77108,0.05629
3242.71091,0.05632
3240.65074,0.05626
3238.59057,0.05638
3236.53040,0.05655
3234.47022,0.05636
3232.41005,0.05589
3230.34988,0.05552
3228.28971,0.05541
3226.22954,0.05524
3224.16936,0.05487
3222.10919,0.05470
3220.04902,0.05471
3217.98885,0.05452
3215.92867,0.05443
3213.86850,0.05449
3211.80833,0.05420
3209.74816,0.05346
3207.68799,0.05276
3205.62781,0.05253
3203.56764,0.05269
3201.50747,0.05280
3199.44730,0.05268
3197.38713,0.05243
3195.32695,0.05209
3193.26678,0.05178
3191.20661,0.05160
3189.14644,0.05137
3187.08626,0.05118
3185.02609,0.05124
3182.96592,0.05126
3180.90575,0.05115
3178.84558,0.05104
3176.78540,0.05070
3174.72523,0.05012
3172.66506,0.04955
3170.60489,0.04917
3168.54472,0.04893
3166.48454,0.04856
3164.42437,0.04809
3162.36420,0.04764
3160.30403,0.04720
3158.24386,0.04683
3156.18368,0.04672
3154.12351,0.04681
3152.06334,0.04673
3150.00317,0.04628
3147.94299,0.04560
3145.88282,0.04513
3143.82265,0.04502
3141.76248,0.04485
3139.70231,0.04459
3137.64213,0.04436
3135.58196,0.04390
3133.52179,0.04318
3131.46162,0.04252
3129.40145,0.04225
3127.34127,0.04233
3125.28110,0.04233
3123.22093,0.04197
3121.16076,0.04156
3119.10058,0.04151
3117.04041,0.04148
3114.98024,0.04100
3112.92007,0.04046
3110.85990,0.04025
3108.79972,0.03994
3106.73955,0.03922
3104.67938,0.03847
3102.61921,0.03804
3100.55904,0.03771
3098.49886,0.03726
3096.43869,0.03692
3094.37852,0.03700
3092.31835,0.03728
3090.25818,0.03726
3088.19800,0.03674
3086.13783,0.03619
3084.07766,0.03593
3082.01749,0.03574
3079.95731,0.03545
3077.89714,0.03525
3075.83697,0.03502
3073.77680,0.03439
3071.71663,0.03379
3069.65645,0.03345
3067.59628,0.03303
3065.53611,0.03266
3063.47594,0.03255
3061.41577,0.03264
3059.35559,0.03274
3057.29542,0.03253
3055.23525,0.03196
3053.17508,0.03139
3051.11491,0.03090
3049.05473,0.03042
3046.99456,0.03029
3044.93439,0.03048
3042.87422,0.03053
3040.81404,0.03041
3038.75387,0.03009
3036.69370,0.02971
3034.63353,0.02944
3032.57336,0.02924
3030.51318,0.02913
3028.45301,0.02889
3026.39284,0.02837
3024.33267,0.02786
3022.27250,0.02753
3020.21232,0.02733
3018.15215,0.02726
3016.09198,0.02734
3014.03181,0.02740
3011.97163,0.02743
3009.91146,0.02755
3007.85129,0.02756
3005.79112,0.02728
3003.73095,0.02684
3001.67077,0.02633
2999.61060,0.02580
2997.55043,0.02561
2995.49026,0.02585
2993.43009,0.02600
2991.36991,0.02596
2989.30974,0.02614
2987.24957,0.02635
2985.18940,0.02621
2983.12923,0.02613
2981.06905,0.02651
2979.00888,0.02714
2976.94871,0.02777
2974.88854,0.02819
2972.82836,0.02860
2970.76819,0.02945
2968.70802,0.03071
2966.64785,0.03199
2964.58768,0.03326
2962.52750,0.03472
2960.46733,0.03632
2958.40716,0.03791
2956.34699,0.03955
2954.28682,0.04142
2952.22664,0.04349
2950.16647,0.04557
2948.10630,0.04769
2946.04613,0.05004
2943.98596,0.05258
2941.92578,0.05525
2939.86561,0.05824
2937.80544,0.06132
2935.74527,0.06402
2933.68509,0.06637
2931.62492,0.06850
2929.56475,0.07038
2927.50458,0.07211
2925.44441,0.07386
2923.38423,0.07546
2921.32406,0.07651
2919.26389,0.07662
2917.20372,0.07560
2915.14355,0.07363
2913.08337,0.07109
2911.02320,0.06823
2908.96303,0.06536
2906.90286,0.06290
2904.84268,0.06094
2902.78251,0.05900
2900.72234,0.05694
2898.66217,0.05518
2896.60200,0.05380
2894.54182,0.05235
2892.48165,0.05088
2890.42148,0.04989
2888.36131,0.04921
2886.30114,0.04838
2884.24096,0.04719
2882.18079,0.04612
2880.12062,0.04573
2878.06045,0.04581
2876.00028,0.04604
2873.94010,0.04629
2871.87993,0.04644
2869.81976,0.04679
2867.75959,0.04763
2865.69941,0.04870
2863.63924,0.04984
2861.57907,0.05128
2859.51890,0.05322
2857.45873,0.05548
2855.39855,0.05749
2853.33838,0.05885
2851.27821,0.05938
2849.21804,0.05850
2847.15787,0.05581
2845.09769,0.05208
2843.03752,0.04839
2840.97735,0.04516
2838.91718,0.04254
2836.85700,0.04047
2834.79683,0.03859
2832.73666,0.03697
2830.67649,0.03583
2828.61632,0.03492
2826.55614,0.03428
2824.49597,0.03397
2822.43580,0.03347
2820.37563,0.03243
2818.31546,0.03130
2816.25528,0.03068
2814.19511,0.03051
2812.13494,0.03039
2810.07477,0.03006
2808.01460,0.02954
2805.95442,0.02905
2803.89425,0.02865
2801.83408,0.02839
2799.77391,0.02822
2797.71373,0.02788
2795.65356,0.02742
2793.59339,0.02702
2791.53322,0.02666
2789.47305,0.02646
2787.41287,0.02639
2785.35270,0.02617
2783.29253,0.02579
2781.23236,0.02545
2779.17219,0.02528
2777.11201,0.02539
2775.05184,0.02548
2772.99167,0.02529
2770.93150,0.02511
2768.87133,0.02504
2766.81115,0.02477
2764.75098,0.02433
2762.69081,0.02403
2760.63064,0.02385
2758.57046,0.02368
2756.51029,0.02376
2754.45012,0.02388
2752.38995,0.02381
2750.32978,0.02380
2748.26960,0.02384
2746.20943,0.02383
2744.14926,0.02391
2742.08909,0.02402
2740.02892,0.02390
2737.96874,0.02362
2735.90857,0.02336
2733.84840,0.02329
2731.78823,0.02331
2729.72805,0.02320
2727.66788,0.02305
2725.60771,0.02303
2723.54754,0.02303
2721.48737,0.02284
2719.42719,0.02259
2717.36702,0.02236
2715.30685,0.02206
2713.24668,0.02173
2711.18651,0.02160
2709.12633,0.02186
2707.06616,0.02223
2705.00599,0.02238
2702.94582,0.02237
2700.88565,0.02230
2698.82547,0.02219
2696.76530,0.02218
2694.70513,0.02222
2692.64496,0.02203
2690.58478,0.02190
2688.52461,0.02206
2686.46444,0.02225
2684.40427,0.02220
2682.34410,0.02210
2680.28392,0.02203
2678.22375,0.02179
2676.16358,0.02158
2674.10341,0.02162
2672.04324,0.02164
2669.98306,0.02145
2667.92289,0.02106
2665.86272,0.02059
2663.80255,0.02019
2661.74238,0.02005
2659.68220,0.02024
2657.62203,0.02040
2655.56186,0.02019
2653.50169,0.01996
2651.44151,0.02008
2649.38134,0.02032
2647.32117,0.02043
2645.26100,0.02032
2643.20083,0.01999
2641.14065,0.01977
2639.08048,0.02000
2637.02031,0.02031
2634.96014,0.02027
2632.89997,0.01971
2630.83979,0.01905
2628.77962,0.01891
2626.71945,0.01898
2624.65928,0.01893
2622.59910,0.01883
2620.53893,0.01869
2618.47876,0.01870
2616.41859,0.01898
2614.35842,0.01917
2612.29824,0.01887
2610.23807,0.01834
2608.17790,0.01795
2606.11773,0.01757
2604.05756,0.01731
2601.99738,0.01724
2599.93721,0.01725
2597.87704,0.01729
2595.81687,0.01722
2593.75670,0.01721
2591.69652,0.01729
2589.63635,0.01696
2587.57618,0.01636
2585.51601,0.01631
2583.45583,0.01688
2581.39566,0.01732
2579.33549,0.01741
2577.27532,0.01703
2575.21515,0.01603
2573.15497,0.01528
2571.09480,0.01551
2569.03463,0.01620
2566.97446,0.01654
2564.91429,0.01634
2562.85411,0.01601
2560.79394,0.01579
2558.73377,0.01565
2556.67360,0.01584
2554.61342,0.01589
2552.55325,0.01549
2550.49308,0.01540
2548.43291,0.01573
2546.37274,0.01587
2544.31256,0.01588
2542.25239,0.01584
2540.19222,0.01553
2538.13205,0.01533
2536.07188,0.01540
2534.01170,0.01538
2531.95153,0.01492
2529.89136,0.01427
2527.83119,0.01393
2525.77102,0.01395
2523.71084,0.01417
2521.65067,0.01447
2519.59050,0.01453
2517.53033,0.01421
2515.47015,0.01397
2513.40998,0.01395
2511.34981,0.01395
2509.28964,0.01411
2507.22947,0.01444
2505.16929,0.01472
2503.10912,0.01470
2501.04895,0.01433
2498.98878,0.01397
2496.92861,0.01395
2494.86843,0.01415
2492.80826,0.01423
2490.74809,0.01415
2488.68792,0.01398
2486.62775,0.01352
2484.56757,0.01293
2482.50740,0.01289
2480.44723,0.01348
2478.38706,0.01426
2476.32688,0.01471
2474.26671,0.01469
2472.20654,0.01452
2470.14637,0.01420
2468.08620,0.01371
2466.02602,0.01320
2463.96585,0.01268
2461.90568,0.01230
2459.84551,0.01227
2457.78534,0.01240
2455.72516,0.01236
2453.66499,0.01224
2451.60482,0.01198
2449.54465,0.01184
2447.48447,0.01234
2445.42430,0.01271
2443.36413,0.01241
2441.30396,0.01229
2439.24379,0.01271
2437.18361,0.01298
2435.12344,0.01267
2433.06327,0.01233
2431.00310,0.01238
2428.94293,0.01254
2426.88275,0.01220
2424.82258,0.01145
2422.76241,0.01150
2420.70224,0.01238
2418.64207,0.01277
2416.58189,0.01249
2414.52172,0.01228
2412.46155,0.01217
2410.40138,0.01192
2408.34120,0.01162
2406.28103,0.01145
2404.22086,0.01145
2402.16069,0.01178
2400.10052,0.01221
2398.04034,0.01232
2395.98017,0.01228
2393.92000,0.01220
2391.85983,0.01214
2389.79966,0.01221
2387.73948,0.01238
2385.67931,0.01266
2383.61914,0.01293
2381.55897,0.01277
2379.49880,0.01214
2377.43862,0.01138
2375.37845,0.01027
2373.31828,0.01005
2371.25811,0.01122
2369.19793,0.01185
2367.13776,0.01217
2365.07759,0.01222
2363.01742,0.00940
2360.95725,0.00768
2358.89707,0.00646
2356.83690,0.00626
2354.77673,0.00775
2352.71656,0.00994
2350.65639,0.01402
2348.59621,0.01623
2346.53604,0.01249
2344.47587,0.01229
2342.41570,0.01312
2340.35552,0.01293
2338.29535,0.01303
2336.23518,0.01325
2334.17501,0.01356
2332.11484,0.01316
2330.05466,0.01282
2327.99449,0.01297
2325.93432,0.01440
2323.87415,0.01419
2321.81398,0.01320
2319.75380,0.01221
2317.69363,0.01251
2315.63346,0.01224
2313.57329,0.01139
2311.51312,0.01081
2309.45294,0.01050
2307.39277,0.01078
2305.33260,0.01169
2303.27243,0.01237
2301.21225,0.01210
2299.15208,0.01190
2297.09191,0.01219
2295.03174,0.01241
2292.97157,0.01225
2290.91139,0.01173
2288.85122,0.01139
2286.79105,0.01172
2284.73088,0.01201
2282.67071,0.01138
2280.61053,0.01043
2278.55036,0.01012
2276.49019,0.01024
2274.43002,0.01034
2272.36984,0.01045
2270.30967,0.01060
2268.24950,0.01027
2266.18933,0.00948
2264.12916,0.00898
2262.06898,0.00891
2260.00881,0.00885
2257.94864,0.00917
2255.88847,0.00973
2253.82830,0.00937
2251.76812,0.00839
2249.70795,0.00826
2247.64778,0.00886
2245.58761,0.00890
2243.52744,0.00854
2241.46726,0.00806
2239.40709,0.00779
2237.34692,0.00814
2235.28675,0.00840
2233.22657,0.00825
2231.16640,0.00780
2229.10623,0.00691
2227.04606,0.00659
2224.98589,0.00714
2222.92571,0.00729
2220.86554,0.00738
2218.80537,0.00741
2216.74520,0.00651
2214.68503,0.00601
2212.62485,0.00681
2210.56468,0.00782
2208.50451,0.00824
2206.44434,0.00823
2204.38417,0.00799
2202.32399,0.00825
2200.26382,0.00902
2198.20365,0.00824
2196.14348,0.00688
2194.08330,0.00746
2192.02313,0.00815
2189.96296,0.00640
2187.90279,0.00430
2185.84262,0.00524
2183.78244,0.00761
2181.72227,0.00797
2179.66210,0.00683
2177.60193,0.00630
2175.54176,0.00625
2173.48158,0.00645
2171.42141,0.00717
2169.36124,0.00726
2167.30107,0.00633
2165.24089,0.00541
2163.18072,0.00487
2161.12055,0.00386
2159.06038,0.00282
2157.00021,0.00369
2154.94003,0.00486
2152.87986,0.00462
2150.81969,0.00424
2148.75952,0.00447
2146.69935,0.00476
2144.63917,0.00478
2142.57900,0.00512
2140.51883,0.00573
2138.45866,0.00555
2136.39849,0.00514
2134.33831,0.00574
2132.27814,0.00666
2130.21797,0.00687
2128.15780,0.00693
2126.09762,0.00742
2124.03745,0.00817
2121.97728,0.00886
2119.91711,0.00916
2117.85694,0.00930
2115.79676,0.00959
2113.73659,0.00986
2111.67642,0.00950
2109.61625,0.00906
2107.55608,0.00968
2105.49590,0.00955
2103.43573,0.00794
2101.37556,0.00697
2099.31539,0.00713
2097.25521,0.00781
2095.19504,0.00818
2093.13487,0.00748
2091.07470,0.00674
2089.01453,0.00725
2086.95435,0.00822
2084.89418,0.00842
2082.83401,0.00788
2080.77384,0.00746
2078.71367,0.00778
2076.65349,0.00815
2074.59332,0.00783
2072.53315,0.00725
2070.47298,0.00673
2068.41281,0.00625
2066.35263,0.00597
2064.29246,0.00598
2062.23229,0.00606
2060.17212,0.00599
2058.11194,0.00602
2056.05177,0.00600
2053.99160,0.00547
2051.93143,0.00496
2049.87126,0.00516
2047.81108,0.00565
2045.75091,0.00640
2043.69074,0.00759
2041.63057,0.00729
2039.57040,0.00568
2037.51022,0.00483
2035.45005,0.00368
2033.38988,0.00177
2031.32971,0.00139
2029.26954,0.00249
2027.20936,0.00293
2025.14919,0.00352
2023.08902,0.00553
2021.02885,0.00754
2018.96867,0.00752
2016.90850,0.00560
2014.84833,0.00394
2012.78816,0.00283
2010.72799,0.00115
2008.66781,0.00000
2006.60764,0.00122
2004.54747,0.00321
2002.48730,0.00443
2000.42713,0.00605
1998.36695,0.00729
1996.30678,0.00671
1994.24661,0.00536
1992.18644,0.00482
1990.12626,0.00516
1988.06609,0.00569
1986.00592,0.00624
1983.94575,0.00617
1981.88558,0.00541
1979.82540,0.00532
1977.76523,0.00531
1975.70506,0.00404
1973.64489,0.00310
1971.58472,0.00359
1969.52454,0.00432
1967.46437,0.00461
1965.40420,0.00408
1963.34403,0.00197
1961.28386,0.00000
1959.22368,0.00068
1957.16351,0.00300
1955.10334,0.00500
1953.04317,0.00621
1950.98299,0.00664
1948.92282,0.00620
1946.86265,0.00534
1944.80248,0.00480
1942.74231,0.00467
1940.68213,0.00480
1938.62196,0.00489
1936.56179,0.00485
1934.50162,0.00498
1932.44145,0.00493
1930.38127,0.00442
1928.32110,0.00429
1926.26093,0.00474
1924.20076,0.00491
1922.14059,0.00468
1920.08041,0.00458
1918.02024,0.00449
1915.96007,0.00405
1913.89990,0.00376
1911.83972,0.00414
1909.77955,0.00473
1907.71938,0.00477
1905.65921,0.00422
1903.59904,0.00376
1901.53886,0.00368
1899.47869,0.00354
1897.41852,0.00322
1895.35835,0.00313
1893.29818,0.00337
1891.23800,0.00369
1889.17783,0.00400
1887.11766,0.00434
1885.05749,0.00436
1882.99731,0.00401
1880.93714,0.00364
1878.87697,0.00335
1876.81680,0.00332
1874.75663,0.00369
1872.69645,0.00396
1870.63628,0.00357
1868.57611,0.00260
1866.51594,0.00182
1864.45577,0.00170
1862.39559,0.00190
1860.33542,0.00200
1858.27525,0.00204
1856.21508,0.00196
1854.15491,0.00174
1852.09473,0.00180
1850.03456,0.00217
1847.97439,0.00229
1845.91422,0.00199
1843.85404,0.00177
1841.79387,0.00182
1839.73370,0.00169
1837.67353,0.00135
1835.61336,0.00122
1833.55318,0.00147
1831.49301,0.00177
1829.43284,0.00192
1827.37267,0.00201
1825.31250,0.00227
1823.25232,0.00273
1821.19215,0.00268
1819.13198,0.00173
1817.07181,0.00081
1815.01163,0.00092
1812.95146,0.00151
1810.89129,0.00172
1808.83112,0.00163
1806.77095,0.00161
1804.71077,0.00157
1802.65060,0.00128
1800.59043,0.00081
1798.53026,0.00042
1796.47009,0.00021
1794.40991,0.00014
1792.34974,0.00019
1790.28957,0.00033
1788.22940,0.00047
1786.16923,0.00072
1784.10905,0.00090
1782.04888,0.00067
1779.98871,0.00018
1777.92854,0.00000
1775.86836,0.00022
1773.80819,0.00050
1771.74802,0.00068
1769.68785,0.00106
1767.62768,0.00158
1765.56750,0.00199
1763.50733,0.00237
1761.44716,0.00308
1759.38699,0.00426
1757.32682,0.00580
1755.26664,0.00744
1753.20647,0.00908
1751.14630,0.01113
1749.08613,0.01344
1747.02596,0.01502
1744.96578,0.01555
1742.90561,0.01576
1740.84544,0.01638
1738.78527,0.01734
1736.72509,0.01806
1734.66492,0.01820
1732.60475,0.01810
1730.54458,0.01817
1728.48441,0.01832
1726.42423,0.01853
1724.36406,0.01874
1722.30389,0.01876
1720.24372,0.01875
1718.18355,0.01909
1716.12337,0.01960
1714.06320,0.01970
1712.00303,0.01949
1709.94286,0.01939
1707.88268,0.01946
1705.82251,0.01936
1703.76234,0.01892
1701.70217,0.01851
1699.64200,0.01847
1697.58182,0.01872
1695.52165,0.01914
1693.46148,0.01964
1691.40131,0.02035
1689.34114,0.02162
1687.28096,0.02351
1685.22079,0.02628
1683.16062,0.02968
1681.10045,0.03221
1679.04028,0.03389
1676.98010,0.03525
1674.91993,0.03638
1672.85976,0.03731
1670.79959,0.03787
1668.73941,0.03756
1666.67924,0.03642
1664.61907,0.03507
1662.55890,0.03392
1660.49873,0.03329
1658.43855,0.03316
1656.37838,0.03327
1654.31821,0.03330
1652.25804,0.03282
1650.19787,0.03225
1648.13769,0.03203
1646.07752,0.03207
1644.01735,0.03223
1641.95718,0.03240
1639.89701,0.03265
1637.83683,0.03317
1635.77666,0.03418
1633.71649,0.03528
1631.65632,0.03589
1629.59614,0.03625
1627.53597,0.03683
1625.47580,0.03741
1623.41563,0.03747
1621.35546,0.03716
1619.29528,0.03713
1617.23511,0.03770
1615.17494,0.03853
1613.11477,0.03938
1611.05460,0.04083
1608.99442,0.04302
1606.93425,0.04490
1604.87408,0.04562
1602.81391,0.04506
1600.75373,0.04344
1598.69356,0.04140
1596.63339,0.03957
1594.57322,0.03805
1592.51305,0.03672
1590.45287,0.03559
1588.39270,0.03463
1586.33253,0.03365
1584.27236,0.03258
1582.21219,0.03151
1580.15201,0.03067
1578.09184,0.03009
1576.03167,0.02932
1573.97150,0.02841
1571.91133,0.02774
1569.85115,0.02691
1567.79098,0.02572
1565.73081,0.02460
1563.67064,0.02367
1561.61046,0.02265
1559.55029,0.02107
1557.49012,0.01924
1555.42995,0.01811
1553.36978,0.01726
1551.30960,0.01632
1549.24943,0.01538
1547.18926,0.01460
1545.12909,0.01407
1543.06892,0.01385
1541.00874,0.01346
1538.94857,0.01219
1536.88840,0.01085
1534.82823,0.00999
1532.76805,0.00927
1530.70788,0.00869
1528.64771,0.00848
1526.58754,0.00861
1524.52737,0.00891
1522.46719,0.00952
1520.40702,0.01092
1518.34685,0.01290
1516.28668,0.01458
1514.22651,0.01491
1512.16633,0.01387
1510.10616,0.01217
1508.04599,0.01000
1505.98582,0.00777
1503.92565,0.00655
1501.86547,0.00578
1499.80530,0.00487
1497.74513,0.00386
1495.68496,0.00295
1493.62478,0.00235
1491.56461,0.00208
1489.50444,0.00200
1487.44427,0.00183
1485.38410,0.00149
1483.32392,0.00127
1481.26375,0.00142
1479.20358,0.00192
1477.14341,0.00283
1475.08324,0.00442
1473.02306,0.00700
1470.96289,0.01000
1468.90272,0.01253
1466.84255,0.01477
1464.78238,0.01691
1462.72220,0.01848
1460.66203,0.01941
1458.60186,0.02033
1456.54169,0.02183
1454.48151,0.02328
1452.42134,0.02401
1450.36117,0.02448
1448.30100,0.02526
1446.24083,0.02621
1444.18065,0.02710
1442.12048,0.02815
1440.06031,0.02932
1438.00014,0.03030
1435.93997,0.03106
1433.87979,0.03162
1431.81962,0.03194
1429.75945,0.03212
1427.69928,0.03228
1425.63910,0.03242
1423.57893,0.03250
1421.51876,0.03255
1419.45859,0.03281
1417.39842,0.03325
1415.33824,0.03325
1413.27807,0.03268
1411.21790,0.03186
1409.15773,0.03101
1407.09756,0.03016
1405.03738,0.02919
1402.97721,0.02821
1400.91704,0.02757
1398.85687,0.02707
1396.79670,0.02617
1394.73652,0.02496
1392.67635,0.02407
1390.61618,0.02392
1388.55601,0.02439
1386.49583,0.02503
1384.43566,0.02560
1382.37549,0.02626
1380.31532,0.02716
1378.25515,0.02814
1376.19497,0.02884
1374.13480,0.02897
1372.07463,0.02883
1370.01446,0.02895
1367.95429,0.02921
1365.89411,0.02912
1363.83394,0.02865
1361.77377,0.02801
1359.71360,0.02735
1357.65343,0.02685
1355.59325,0.02658
1353.53308,0.02638
1351.47291,0.02611
1349.41274,0.02587
1347.35256,0.02580
1345.29239,0.02587
1343.23222,0.02594
1341.17205,0.02592
1339.11188,0.02579
1337.05170,0.02569
1334.99153,0.02572
1332.93136,0.02577
1330.87119,0.02574
1328.81102,0.02578
1326.75084,0.02609
1324.69067,0.02628
1322.63050,0.02606
1320.57033,0.02575
1318.51015,0.02562
1316.44998,0.02558
1314.38981,0.02550
1312.32964,0.02525
1310.26947,0.02472
1308.20929,0.02408
1306.14912,0.02350
1304.08895,0.02288
1302.02878,0.02202
1299.96861,0.02094
1297.90843,0.02006
1295.84826,0.01989
1293.78809,0.02037
1291.72792,0.02090
1289.66775,0.02119
1287.60757,0.02132
1285.54740,0.02135
1283.48723,0.02134
1281.42706,0.02155
1279.36688,0.02190
1277.30671,0.02205
1275.24654,0.02225
1273.18637,0.02285
1271.12620,0.02371
1269.06602,0.02446
1267.00585,0.02504
1264.94568,0.02564
1262.88551,0.02645
1260.82534,0.02758
1258.76516,0.02880
1256.70499,0.02972
1254.64482,0.03030
1252.58465,0.03064
1250.52447,0.03090
1248.46430,0.03133
1246.40413,0.03185
1244.34396,0.03226
1242.28379,0.03236
1240.22361,0.03221
1238.16344,0.03194
1236.10327,0.03149
1234.04310,0.03081
1231.98293,0.02994
1229.92275,0.02890
1227.86258,0.02774
1225.80241,0.02637
1223.74224,0.02484
1221.68207,0.02332
1219.62189,0.02186
1217.56172,0.02055
1215.50155,0.01928
1213.44138,0.01790
1211.38120,0.01650
1209.32103,0.01502
1207.26086,0.01357
1205.20069,0.01220
1203.14052,0.01056
1201.08034,0.00852
1199.02017,0.00628
1196.96000,0.00424
1194.89983,0.00259
1192.83966,0.00121
1190.77948,0.00031
1188.71931,0.00000
1186.65914,-0.00020
1184.59897,-0.00042
1182.53880,-0.00032
1180.47862,0.00041
1178.41845,0.00158
1176.35828,0.00300
1174.29811,0.00492
1172.23793,0.00759
1170.17776,0.01061
1168.11759,0.01320
1166.05742,0.01488
1163.99725,0.01576
1161.93707,0.01628
1159.87690,0.01674
1157.81673,0.01723
1155.75656,0.01786
1153.69639,0.01871
1151.63621,0.01973
1149.57604,0.02112
1147.51587,0.02278
1145.45570,0.02427
1143.39552,0.02546
1141.33535,0.02652
1139.27518,0.02756
1137.21501,0.02849
1135.15484,0.02923
1133.09466,0.03010
1131.03449,0.03119
1128.97432,0.03224
1126.91415,0.03330
1124.85398,0.03454
1122.79380,0.03599
1120.73363,0.03763
1118.67346,0.03917
1116.61329,0.04043
1114.55312,0.04158
1112.49294,0.04285
1110.43277,0.04432
1108.37260,0.04574
1106.31243,0.04701
1104.25225,0.04853
1102.19208,0.05034
1100.13191,0.05219
1098.07174,0.05432
1096.01157,0.05694
1093.95139,0.05963
1091.89122,0.06188
1089.83105,0.06391
1087.77088,0.06620
1085.71071,0.06873
1083.65053,0.07105
1081.59036,0.07310
1079.53019,0.07542
1077.47002,0.07812
1075.40985,0.08090
1073.34967,0.08369
1071.28950,0.08617
1069.22933,0.08809
1067.16916,0.08988
1065.10898,0.09154
1063.04881,0.09274
1060.98864,0.09393
1058.92847,0.09571
1056.86830,0.09793
1054.80812,0.10027
1052.74795,0.10281
1050.68778,0.10559
1048.62761,0.10852
1046.56744,0.11153
1044.50726,0.11458
1042.44709,0.11777
1040.38692,0.12102
1038.32675,0.12345
1036.26657,0.12487
1034.20640,0.12599
1032.14623,0.12643
1030.08606,0.12613
1028.02589,0.12607
1025.96571,0.12608
1023.90554,0.12558
1021.84537,0.12479
1019.78520,0.12425
1017.72503,0.12401
1015.66485,0.12388
1013.60468,0.12416
1011.54451,0.12477
1009.48434,0.12498
1007.42417,0.12473
1005.36399,0.12430
1003.30382,0.12382
1001.24365,0.12317
999.18348,0.12169
997.12330,0.11953
995.06313,0.11721
993.00296,0.11462
990.94279,0.11225
988.88262,0.11038
986.82244,0.10871
984.76227,0.10720
982.70210,0.10563
980.64193,0.10383
978.58176,0.10191
976.52158,0.09994
974.46141,0.09800
972.40124,0.09588
970.34107,0.09364
968.28089,0.09153
966.22072,0.08933
964.16055,0.08712
962.10038,0.08509
960.04021,0.08325
957.98003,0.08140
955.91986,0.07900
953.85969,0.07640
951.79952,0.07467
949.73935,0.07359
947.67917,0.07208
945.61900,0.07006
943.55883,0.06761
941.49866,0.06433
939.43849,0.06048
937.37831,0.05664
935.31814,0.05262
933.25797,0.04849
931.19780,0.04477
929.13762,0.04164
927.07745,0.03893
925.01728,0.03612
922.95711,0.03334
920.89694,0.03110
918.83676,0.02912
916.77659,0.02711
914.71642,0.02511
912.65625,0.02317
910.59608,0.02156
908.53590,0.01986
906.47573,0.01781
904.41556,0.01640
902.35539,0.01635
900.29522,0.01719
898.23504,0.01771
896.17487,0.01765
894.11470,0.01758
892.05453,0.01753
889.99435,0.01721
887.93418,0.01662
885.87401,0.01615
883.81384,0.01546
881.75367,0.01385
879.69349,0.01210
877.63332,0.01119
875.57315,0.01063
873.51298,0.00994
871.45281,0.00945
869.39263,0.00906
867.33246,0.00844
865.27229,0.00779
863.21212,0.00755
861.15194,0.00761
859.09177,0.00735
857.03160,0.00680
854.97143,0.00667
852.91126,0.00675
850.85108,0.00651
848.79091,0.00667
846.73074,0.00713
844.67057,0.00639
842.61040,0.00490
840.55022,0.00416
838.49005,0.00411
836.42988,0.00403
834.36971,0.00409
832.30954,0.00419
830.24936,0.00366
828.18919,0.00315
826.12902,0.00320
824.06885,0.00310
822.00867,0.00281
819.94850,0.00284
817.88833,0.00252
815.82816,0.00174
813.76799,0.00119
811.70781,0.00089
809.64764,0.00095
807.58747,0.00099
805.52730,0.00106
803.46713,0.00196
801.40695,0.00278
799.34678,0.00218
797.28661,0.00120
795.22644,0.00095
793.16627,0.00059
791.10609,0.00000
789.04592,-0.00009
786.98575,0.00022
784.92558,0.00015
782.86540,-0.00030
780.80523,-0.00014
778.74506,0.00025
776.68489,-0.00016
774.62472,-0.00051
772.56454,0.00039
770.50437,0.00205
768.44420,0.00267
766.38403,0.00164
764.32386,0.00056
762.26368,0.00063
760.20351,0.00113
758.14334,0.00152
756.08317,0.00202
754.02299,0.00230
751.96282,0.00222
749.90265,0.00186
747.84248,0.00152
745.78231,0.00152
743.72213,0.00138
741.66196,0.00073
739.60179,0.00000
737.54162,-0.00034
735.48145,0.00067
733.42127,0.00223
731.36110,0.00335
729.30093,0.00362
727.24076,0.00282
725.18059,0.00172
723.12041,0.00211
721.06024,0.00291
719.00007,0.00352
716.93990,0.00271
714.87972,0.00225
712.81955,0.00339
710.75938,0.00476
708.69921,0.00567
706.63904,0.00661
704.57886,0.00745
702.51869,0.00768
700.45852,0.00769
698.39835,0.00747
696.33818,0.00690
694.27800,0.00695
692.21783,0.00776
690.15766,0.00792
688.09749,0.00690
686.03731,0.00561
683.97714,0.00501
681.91697,0.00482
679.85680,0.00412
677.79663,0.00383
675.73645,0.00505
673.67628,0.00684
671.61611,0.00744
669.55594,0.00141
667.49577,-0.00268
665.43559,0.00646
663.37542,0.00455
661.31525,0.00247
659.25508,0.00321
657.19491,0.00266
655.13473,0.00179
653.07456,0.00390
651.01439,0.00703
648.95422,0.00730
646.89404,0.00569
644.83387,0.00334
642.77370,0.00128
640.71353,0.00152
638.65336,0.00368
636.59318,0.00488
634.53301,0.00460
632.47284,0.00422
630.41267,0.00507
628.35250,0.00661
626.29232,0.00656
624.23215,0.00507
622.17198,0.00413
620.11181,0.00375
618.05164,0.00485
615.99146,0.00620
613.93129,0.00489
611.87112,0.00376
609.81095,0.00469
607.75077,0.00418
605.69060,0.00147
603.63043,0.00033
601.57026,0.00102
599.51009,0.00000
