3996.73391,0.00098
3994.67373,0.00086
3992.61356,0.00067
3990.55339,0.00039
3988.49322,0.00010
3986.43305,0.00000
3984.37287,0.00015
3982.31270,0.00036
3980.25253,0.00036
3978.19236,0.00035
3976.13219,0.00054
3974.07201,0.00069
3972.01184,0.00067
3969.95167,0.00072
3967.89150,0.00093
3965.83133,0.00115
3963.77115,0.00125
3961.71098,0.00134
3959.65081,0.00143
3957.59064,0.00125
3955.53046,0.00089
3953.47029,0.00082
3951.41012,0.00101
3949.34995,0.00113
3947.28978,0.00129
3945.22960,0.00157
3943.16943,0.00168
3941.10926,0.00151
3939.04909,0.00138
3936.98892,0.00139
3934.92874,0.00133
3932.86857,0.00124
3930.80840,0.00125
3928.74823,0.00131
3926.68805,0.00154
3924.62788,0.00192
3922.56771,0.00203
3920.50754,0.00159
3918.44737,0.00089
3916.38719,0.00043
3914.32702,0.00039
3912.26685,0.00055
3910.20668,0.00071
3908.14651,0.00085
3906.08633,0.00109
3904.02616,0.00144
3901.96599,0.00163
3899.90582,0.00146
3897.84565,0.00116
3895.78547,0.00094
3893.72530,0.00090
3891.66513,0.00111
3889.60496,0.00138
3887.54478,0.00149
3885.48461,0.00146
3883.42444,0.00130
3881.36427,0.00107
3879.30410,0.00089
3877.24392,0.00086
3875.18375,0.00089
3873.12358,0.00075
3871.06341,0.00056
3869.00324,0.00070
3866.94306,0.00112
3864.88289,0.00144
3862.82272,0.00133
3860.76255,0.00086
3858.70237,0.00047
3856.64220,0.00048
3854.58203,0.00109
3852.52186,0.00190
3850.46169,0.00201
3848.40151,0.00153
3846.34134,0.00112
3844.28117,0.00112
3842.22100,0.00116
3840.16083,0.00068
3838.10065,0.00003
3836.04048,0.00000
3833.98031,0.00057
3831.92014,0.00123
3829.85997,0.00159
3827.79979,0.00168
3825.73962,0.00174
3823.67945,0.00186
3821.61928,0.00185
3819.55910,0.00148
3817.49893,0.00101
3815.43876,0.00100
3813.37859,0.00125
3811.31842,0.00121
3809.25824,0.00088
3807.19807,0.00067
3805.13790,0.00083
3803.07773,0.00111
3801.01756,0.00132
3798.95738,0.00157
3796.89721,0.00177
3794.83704,0.00159
3792.77687,0.00119
3790.71670,0.00102
3788.65652,0.00112
3786.59635,0.00127
3784.53618,0.00125
3782.47601,0.00107
3780.41583,0.00103
3778.35566,0.00132
3776.29549,0.00149
3774.23532,0.00121
3772.17515,0.00095
3770.11497,0.00110
3768.05480,0.00118
3765.99463,0.00093
3763.93446,0.00087
3761.87429,0.00112
3759.81411,0.00126
3757.75394,0.00116
3755.69377,0.00095
3753.63360,0.00070
3751.57342,0.00068
3749.51325,0.00081
3747.45308,0.00062
3745.39291,0.00052
3743.33274,0.00100
3741.27256,0.00142
3739.21239,0.00133
3737.15222,0.00123
3735.09205,0.00162
3733.03188,0.00193
3730.97170,0.00179
3728.91153,0.00152
3726.85136,0.00138
3724.79119,0.00139
3722.73102,0.00143
3720.67084,0.00154
3718.61067,0.00151
3716.55050,0.00132
3714.49033,0.00112
3712.43015,0.00085
3710.36998,0.00065
3708.30981,0.00069
3706.24964,0.00094
3704.18947,0.00105
3702.12929,0.00108
3700.06912,0.00135
3698.00895,0.00166
3695.94878,0.00169
3693.88861,0.00147
3691.82843,0.00141
3689.76826,0.00155
3687.70809,0.00151
3685.64792,0.00107
3683.58775,0.00067
3681.52757,0.00059
3679.46740,0.00076
3677.40723,0.00111
3675.34706,0.00153
3673.28688,0.00143
3671.22671,0.00094
3669.16654,0.00074
3667.10637,0.00099
3665.04620,0.00136
3662.98602,0.00163
3660.92585,0.00154
3658.86568,0.00115
3656.80551,0.00094
3654.74534,0.00112
3652.68516,0.00133
3650.62499,0.00145
3648.56482,0.00162
3646.50465,0.00175
3644.44447,0.00175
3642.38430,0.00164
3640.32413,0.00151
3638.26396,0.00157
3636.20379,0.00178
3634.14361,0.00182
3632.08344,0.00168
3630.02327,0.00147
3627.96310,0.00128
3625.90293,0.00132
3623.84275,0.00160
3621.78258,0.00169
3619.72241,0.00138
3617.66224,0.00097
3615.60207,0.00087
3613.54189,0.00112
3611.48172,0.00144
3609.42155,0.00173
3607.36138,0.00193
3605.30120,0.00196
3603.24103,0.00198
3601.18086,0.00207
3599.12069,0.00225
3597.06052,0.00234
3595.00034,0.00242
3592.94017,0.00247
3590.88000,0.00254
3588.81983,0.00259
3586.75966,0.00266
3584.69948,0.00281
3582.63931,0.00299
3580.57914,0.00310
3578.51897,0.00313
3576.45879,0.00315
3574.39862,0.00324
3572.33845,0.00350
3570.27828,0.00380
3568.21811,0.00382
3566.15793,0.00349
3564.09776,0.00319
3562.03759,0.00320
3559.97742,0.00327
3557.91725,0.00324
3555.85707,0.00327
3553.79690,0.00347
3551.73673,0.00367
3549.67656,0.00367
3547.61639,0.00352
3545.55621,0.00336
3543.49604,0.00325
3541.43587,0.00329
3539.37570,0.00359
3537.31552,0.00405
3535.25535,0.00439
3533.19518,0.00435
3531.13501,0.00403
3529.07484,0.00383
3527.01466,0.00401
3524.95449,0.00431
3522.89432,0.00440
3520.83415,0.00435
3518.77398,0.00447
3516.71380,0.00476
3514.65363,0.00503
3512.59346,0.00517
3510.53329,0.00525
3508.47312,0.00533
3506.41294,0.00529
3504.35277,0.00514
3502.29260,0.00505
3500.23243,0.00512
3498.17225,0.00531
3496.11208,0.00550
3494.05191,0.00555
3491.99174,0.00539
3489.93157,0.00518
3487.87139,0.00519
3485.81122,0.00536
3483.75105,0.00548
3481.69088,0.00549
3479.63071,0.00546
3477.57053,0.00559
3475.51036,0.00587
3473.45019,0.00602
3471.39002,0.00603
3469.32984,0.00609
3467.26967,0.00615
3465.20950,0.00602
3463.14933,0.00592
3461.08916,0.00598
3459.02898,0.00601
3456.96881,0.00601
3454.90864,0.00615
3452.84847,0.00626
3450.78830,0.00616
3448.72812,0.00617
3446.66795,0.00655
3444.60778,0.00691
3442.54761,0.00687
3440.48744,0.00667
3438.42726,0.00658
3436.36709,0.00650
3434.30692,0.00649
3432.24675,0.00654
3430.18657,0.00655
3428.12640,0.00651
3426.06623,0.00650
3424.00606,0.00677
3421.94589,0.00718
3419.88571,0.00726
3417.82554,0.00711
3415.76537,0.00716
3413.70520,0.00716
3411.64503,0.00695
3409.58485,0.00690
3407.52468,0.00711
3405.46451,0.00728
3403.40434,0.00724
3401.34416,0.00709
3399.28399,0.00709
3397.22382,0.00722
3395.16365,0.00725
3393.10348,0.00725
3391.04330,0.00733
3388.98313,0.00742
3386.92296,0.00736
3384.86279,0.00720
3382.80262,0.00728
3380.74244,0.00757
3378.68227,0.00766
3376.62210,0.00752
3374.56193,0.00752
3372.50176,0.00768
3370.44158,0.00777
3368.38141,0.00786
3366.32124,0.00798
3364.26107,0.00809
3362.20089,0.00815
3360.14072,0.00802
3358.08055,0.00778
3356.02038,0.00774
3353.96021,0.00787
3351.90003,0.00789
3349.83986,0.00781
3347.77969,0.00773
3345.71952,0.00776
3343.65935,0.00794
3341.59917,0.00816
3339.53900,0.00826
3337.47883,0.00820
3335.41866,0.00817
3333.35849,0.00824
3331.29831,0.00816
3329.23814,0.00795
3327.17797,0.00788
3325.11780,0.00801
3323.05762,0.00814
3320.99745,0.00805
3318.93728,0.00790
3316.87711,0.00781
3314.81694,0.00787
3312.75676,0.00807
3310.69659,0.00816
3308.63642,0.00821
3306.57625,0.00842
3304.51608,0.00858
3302.45590,0.00842
3300.39573,0.00813
3298.33556,0.00810
3296.27539,0.00817
3294.21521,0.00815
3292.15504,0.00812
3290.09487,0.00805
3288.03470,0.00805
3285.97453,0.00839
3283.91435,0.00881
3281.85418,0.00883
3279.79401,0.00854
3277.73384,0.00842
3275.67367,0.00851
3273.61349,0.00845
3271.55332,0.00837
3269.49315,0.00846
3267.43298,0.00856
3265.37281,0.00854
3263.31263,0.00851
3261.25246,0.00851
3259.19229,0.00837
3257.13212,0.00805
3255.07194,0.00779
3253.01177,0.00774
3250.95160,0.00781
3248.89143,0.00789
3246.83126,0.00785
3244.77108,0.00774
3242.71091,0.00778
3240.65074,0.00787
3238.59057,0.00778
3236.53040,0.00760
3234.47022,0.00764
3232.41005,0.00794
3230.34988,0.00812
3228.28971,0.00804
3226.22954,0.00783
3224.16936,0.00764
3222.10919,0.00755
3220.04902,0.00754
3217.98885,0.00750
3215.92867,0.00747
3213.86850,0.00748
3211.80833,0.00750
3209.74816,0.00752
3207.68799,0.00750
3205.62781,0.00738
3203.56764,0.00730
3201.50747,0.00732
3199.44730,0.00736
3197.38713,0.00732
3195.32695,0.00715
3193.26678,0.00696
3191.20661,0.00690
3189.14644,0.00700
3187.08626,0.00712
3185.02609,0.00720
3182.96592,0.00717
3180.90575,0.00713
3178.84558,0.00719
3176.78540,0.00723
3174.72523,0.00712
3172.66506,0.00697
3170.60489,0.00691
3168.54472,0.00699
3166.48454,0.00710
3164.42437,0.00715
3162.36420,0.00709
3160.30403,0.00691
3158.24386,0.00675
3156.18368,0.00667
3154.12351,0.00652
3152.06334,0.00630
3150.00317,0.00622
3147.94299,0.00637
3145.88282,0.00655
3143.82265,0.00659
3141.76248,0.00654
3139.70231,0.00657
3137.64213,0.00659
3135.58196,0.00644
3133.52179,0.00627
3131.46162,0.00614
3129.40145,0.00604
3127.34127,0.00605
3125.28110,0.00610
3123.22093,0.00610
3121.16076,0.00613
3119.10058,0.00617
3117.04041,0.00615
3114.98024,0.00592
3112.92007,0.00570
3110.85990,0.00576
3108.79972,0.00598
3106.73955,0.00618
3104.67938,0.00618
3102.61921,0.00593
3100.55904,0.00559
3098.49886,0.00535
3096.43869,0.00531
3094.37852,0.00541
3092.31835,0.00545
3090.25818,0.00532
3088.19800,0.00525
3086.13783,0.00534
3084.07766,0.00552
3082.01749,0.00576
3079.95731,0.00590
3077.89714,0.00574
3075.83697,0.00554
3073.77680,0.00553
3071.71663,0.00562
3069.65645,0.00568
3067.59628,0.00569
3065.53611,0.00566
3063.47594,0.00553
3061.41577,0.00538
3059.35559,0.00521
3057.29542,0.00494
3055.23525,0.00468
3053.17508,0.00458
3051.11491,0.00467
3049.05473,0.00480
3046.99456,0.00492
3044.93439,0.00509
3042.87422,0.00513
3040.81404,0.00493
3038.75387,0.00474
3036.69370,0.00470
3034.63353,0.00469
3032.57336,0.00463
3030.51318,0.00453
3028.45301,0.00450
3026.39284,0.00461
3024.33267,0.00474
3022.27250,0.00478
3020.21232,0.00473
3018.15215,0.00467
3016.09198,0.00464
3014.03181,0.00453
3011.97163,0.00438
3009.91146,0.00439
3007.85129,0.00454
3005.79112,0.00461
3003.73095,0.00445
3001.67077,0.00416
2999.61060,0.00399
2997.55043,0.00407
2995.49026,0.00426
2993.43009,0.00437
2991.36991,0.00438
2989.30974,0.00431
2987.24957,0.00418
2985.18940,0.00420
2983.12923,0.00438
2981.06905,0.00442
2979.00888,0.00439
2976.94871,0.00443
2974.88854,0.00453
2972.82836,0.00472
2970.76819,0.00487
2968.70802,0.00478
2966.64785,0.00457
2964.58768,0.00448
2962.52750,0.00452
2960.46733,0.00456
2958.40716,0.00466
2956.34699,0.00482
2954.28682,0.00491
2952.22664,0.00504
2950.16647,0.00527
2948.10630,0.00537
2946.04613,0.00522
2943.98596,0.00512
2941.92578,0.00523
2939.86561,0.00527
2937.80544,0.00517
2935.74527,0.00523
2933.68509,0.00539
2931.62492,0.00543
2929.56475,0.00547
2927.50458,0.00561
2925.44441,0.00568
2923.38423,0.00565
2921.32406,0.00571
2919.26389,0.00575
2917.20372,0.00562
2915.14355,0.00546
2913.08337,0.00540
2911.02320,0.00534
2908.96303,0.00519
2906.90286,0.00507
2904.84268,0.00509
2902.78251,0.00517
2900.72234,0.00521
2898.66217,0.00517
2896.60200,0.00508
2894.54182,0.00502
2892.48165,0.00492
2890.42148,0.00484
2888.36131,0.00501
2886.30114,0.00518
2884.24096,0.00516
2882.18079,0.00512
2880.12062,0.00512
2878.06045,0.00513
2876.00028,0.00520
2873.94010,0.00531
2871.87993,0.00528
2869.81976,0.00513
2867.75959,0.00501
2865.69941,0.00492
2863.63924,0.00491
2861.57907,0.00493
2859.51890,0.00491
2857.45873,0.00487
2855.39855,0.00485
2853.33838,0.00479
2851.27821,0.00458
2849.21804,0.00439
2847.15787,0.00444
2845.09769,0.00460
2843.03752,0.00464
2840.97735,0.00458
2838.91718,0.00451
2836.85700,0.00438
2834.79683,0.00424
2832.73666,0.00427
2830.67649,0.00431
2828.61632,0.00431
2826.55614,0.00442
2824.49597,0.00463
2822.43580,0.00465
2820.37563,0.00443
2818.31546,0.00432
2816.25528,0.00434
2814.19511,0.00425
2812.13494,0.00412
2810.07477,0.00422
2808.01460,0.00439
2805.95442,0.00442
2803.89425,0.00438
2801.83408,0.00438
2799.77391,0.00432
2797.71373,0.00414
2795.65356,0.00403
2793.59339,0.00411
2791.53322,0.00425
2789.47305,0.00429
2787.41287,0.00422
2785.35270,0.00423
2783.29253,0.00422
2781.23236,0.00415
2779.17219,0.00415
2777.11201,0.00415
2775.05184,0.00410
2772.99167,0.00404
2770.93150,0.00399
2768.87133,0.00391
2766.81115,0.00380
2764.75098,0.00384
2762.69081,0.00409
2760.63064,0.00440
2758.57046,0.00455
2756.51029,0.00437
2754.45012,0.00420
2752.38995,0.00424
2750.32978,0.00420
2748.26960,0.00409
2746.20943,0.00397
2744.14926,0.00385
2742.08909,0.00389
2740.02892,0.00395
2737.96874,0.00389
2735.90857,0.00387
2733.84840,0.00392
2731.78823,0.00401
2729.72805,0.00404
2727.66788,0.00396
2725.60771,0.00398
2723.54754,0.00409
2721.48737,0.00407
2719.42719,0.00405
2717.36702,0.00412
2715.30685,0.00411
2713.24668,0.00396
2711.18651,0.00385
2709.12633,0.00389
2707.06616,0.00397
2705.00599,0.00397
2702.94582,0.00392
2700.88565,0.00390
2698.82547,0.00396
2696.76530,0.00398
2694.70513,0.00380
2692.64496,0.00367
2690.58478,0.00370
2688.52461,0.00371
2686.46444,0.00356
2684.40427,0.00344
2682.34410,0.00354
2680.28392,0.00375
2678.22375,0.00381
2676.16358,0.00379
2674.10341,0.00386
2672.04324,0.00386
2669.98306,0.00368
2667.92289,0.00361
2665.86272,0.00386
2663.80255,0.00418
2661.74238,0.00422
2659.68220,0.00397
2657.62203,0.00374
2655.56186,0.00379
2653.50169,0.00399
2651.44151,0.00404
2649.38134,0.00395
2647.32117,0.00390
2645.26100,0.00393
2643.20083,0.00402
2641.14065,0.00405
2639.08048,0.00402
2637.02031,0.00396
2634.96014,0.00382
2632.89997,0.00357
2630.83979,0.00346
2628.77962,0.00358
2626.71945,0.00365
2624.65928,0.00364
2622.59910,0.00368
2620.53893,0.00373
2618.47876,0.00388
2616.41859,0.00403
2614.35842,0.00394
2612.29824,0.00385
2610.23807,0.00399
2608.17790,0.00406
2606.11773,0.00387
2604.05756,0.00361
2601.99738,0.00349
2599.93721,0.00356
2597.87704,0.00366
2595.81687,0.00368
2593.75670,0.00364
2591.69652,0.00363
2589.63635,0.00368
2587.57618,0.00363
2585.51601,0.00345
2583.45583,0.00322
2581.39566,0.00298
2579.33549,0.00284
2577.27532,0.00302
2575.21515,0.00329
2573.15497,0.00333
2571.09480,0.00330
2569.03463,0.00324
2566.97446,0.00309
2564.91429,0.00292
2562.85411,0.00291
2560.79394,0.00321
2558.73377,0.00358
2556.67360,0.00351
2554.61342,0.00305
2552.55325,0.00281
2550.49308,0.00289
2548.43291,0.00299
2546.37274,0.00309
2544.31256,0.00318
2542.25239,0.00314
2540.19222,0.00309
2538.13205,0.00321
2536.07188,0.00342
2534.01170,0.00352
2531.95153,0.00340
2529.89136,0.00324
2527.83119,0.00321
2525.77102,0.00319
2523.71084,0.00307
2521.65067,0.00293
2519.59050,0.00273
2517.53033,0.00258
2515.47015,0.00269
2513.40998,0.00287
2511.34981,0.00292
2509.28964,0.00298
2507.22947,0.00305
2505.16929,0.00304
2503.10912,0.00311
2501.04895,0.00310
2498.98878,0.00290
2496.92861,0.00310
2494.86843,0.00347
2492.80826,0.00325
2490.74809,0.00300
2488.68792,0.00328
2486.62775,0.00341
2484.56757,0.00306
2482.50740,0.00266
2480.44723,0.00253
2478.38706,0.00267
2476.32688,0.00292
2474.26671,0.00292
2472.20654,0.00258
2470.14637,0.00238
2468.08620,0.00260
2466.02602,0.00292
2463.96585,0.00296
2461.90568,0.00282
2459.84551,0.00277
2457.78534,0.00284
2455.72516,0.00286
2453.66499,0.00294
2451.60482,0.00321
2449.54465,0.00341
2447.48447,0.00329
2445.42430,0.00294
2443.36413,0.00263
2441.30396,0.00258
2439.24379,0.00278
2437.18361,0.00293
2435.12344,0.00295
2433.06327,0.00290
2431.00310,0.00276
2428.94293,0.00263
2426.88275,0.00272
2424.82258,0.00303
2422.76241,0.00327
2420.70224,0.00331
2418.64207,0.00320
2416.58189,0.00308
2414.52172,0.00305
2412.46155,0.00298
2410.40138,0.00289
2408.34120,0.00303
2406.28103,0.00324
2404.22086,0.00320
2402.16069,0.00291
2400.10052,0.00261
2398.04034,0.00251
2395.98017,0.00267
2393.92000,0.00273
2391.85983,0.00256
2389.79966,0.00251
2387.73948,0.00279
2385.67931,0.00323
2383.61914,0.00352
2381.55897,0.00357
2379.49880,0.00347
2377.43862,0.00330
2375.37845,0.00273
2373.31828,0.00227
2371.25811,0.00200
2369.19793,0.00143
2367.13776,0.00117
2365.07759,0.00164
2363.01742,0.00135
2360.95725,0.00208
2358.89707,0.00199
2356.83690,0.00188
2354.77673,0.00202
2352.71656,0.00290
2350.65639,0.00555
2348.59621,0.00662
2346.53604,0.00241
2344.47587,0.00120
2342.41570,0.00167
2340.35552,0.00254
2338.29535,0.00366
2336.23518,0.00358
2334.17501,0.00262
2332.11484,0.00195
2330.05466,0.00267
2327.99449,0.00361
2325.93432,0.00490
2323.87415,0.00478
2321.81398,0.00445
2319.75380,0.00370
2317.69363,0.00381
2315.63346,0.00375
2313.57329,0.00343
2311.51312,0.00337
2309.45294,0.00365
2307.39277,0.00400
2305.33260,0.00388
2303.27243,0.00363
2301.21225,0.00369
2299.15208,0.00423
2297.09191,0.00451
2295.03174,0.00414
2292.97157,0.00373
2290.91139,0.00362
2288.85122,0.00357
2286.79105,0.00343
2284.73088,0.00343
2282.67071,0.00344
2280.61053,0.00314
2278.55036,0.00285
2276.49019,0.00295
2274.43002,0.00313
2272.36984,0.00296
2270.30967,0.00288
2268.24950,0.00311
2266.18933,0.00330
2264.12916,0.00331
2262.06898,0.00326
2260.00881,0.00334
2257.94864,0.00367
2255.88847,0.00373
2253.82830,0.00341
2251.76812,0.00306
2249.70795,0.00256
2247.64778,0.00194
2245.58761,0.00167
2243.52744,0.00217
2241.46726,0.00287
2239.40709,0.00304
2237.34692,0.00291
2235.28675,0.00267
2233.22657,0.00225
2231.16640,0.00168
2229.10623,0.00137
2227.04606,0.00177
2224.98589,0.00225
2222.92571,0.00242
2220.86554,0.00285
2218.80537,0.00313
2216.74520,0.00342
2214.68503,0.00426
2212.62485,0.00434
2210.56468,0.00355
2208.50451,0.00308
2206.44434,0.00301
2204.38417,0.00283
2202.32399,0.00263
2200.26382,0.00295
2198.20365,0.00302
2196.14348,0.00235
2194.08330,0.00222
2192.02313,0.00300
2189.96296,0.00329
2187.90279,0.00274
2185.84262,0.00229
2183.78244,0.00191
2181.72227,0.00156
2179.66210,0.00179
2177.60193,0.00235
2175.54176,0.00269
2173.48158,0.00247
2171.42141,0.00218
2169.36124,0.00243
2167.30107,0.00253
2165.24089,0.00182
2163.18072,0.00117
2161.12055,0.00069
2159.06038,0.00023
2157.00021,0.00059
2154.94003,0.00107
2152.87986,0.00111
2150.81969,0.00106
2148.75952,0.00108
2146.69935,0.00089
2144.63917,0.00034
2142.57900,0.00000
2140.51883,0.00017
2138.45866,0.00073
2136.39849,0.00127
2134.33831,0.00128
2132.27814,0.00103
2130.21797,0.00120
2128.15780,0.00187
2126.09762,0.00242
2124.03745,0.00235
2121.97728,0.00212
2119.91711,0.00200
2117.85694,0.00188
2115.79676,0.00205
2113.73659,0.00250
2111.67642,0.00293
2109.61625,0.00301
2107.55608,0.00261
2105.49590,0.00229
2103.43573,0.00218
2101.37556,0.00222
2099.31539,0.00260
2097.25521,0.00277
2095.19504,0.00239
2093.13487,0.00187
2091.07470,0.00165
2089.01453,0.00196
2086.95435,0.00270
2084.89418,0.00337
2082.83401,0.00353
2080.77384,0.00320
2078.71367,0.00276
2076.65349,0.00252
2074.59332,0.00255
2072.53315,0.00244
2070.47298,0.00199
2068.41281,0.00197
2066.35263,0.00253
2064.29246,0.00279
2062.23229,0.00260
2060.17212,0.00245
2058.11194,0.00238
2056.05177,0.00211
2053.99160,0.00172
2051.93143,0.00166
2049.87126,0.00193
2047.81108,0.00207
2045.75091,0.00235
2043.69074,0.00288
2041.63057,0.00288
2039.57040,0.00220
2037.51022,0.00169
2035.45005,0.00177
2033.38988,0.00234
2031.32971,0.00317
2029.26954,0.00364
2027.20936,0.00319
2025.14919,0.00258
2023.08902,0.00263
2021.02885,0.00274
2018.96867,0.00270
2016.90850,0.00290
2014.84833,0.00252
2012.78816,0.00124
2010.72799,0.00025
2008.66781,0.00000
2006.60764,0.00031
2004.54747,0.00134
2002.48730,0.00263
2000.42713,0.00297
1998.36695,0.00223
1996.30678,0.00186
1994.24661,0.00239
1992.18644,0.00317
1990.12626,0.00394
1988.06609,0.00449
1986.00592,0.00485
1983.94575,0.00525
1981.88558,0.00510
1979.82540,0.00407
1977.76523,0.00273
1975.70506,0.00157
1973.64489,0.00124
1971.58472,0.00147
1969.52454,0.00149
1967.46437,0.00119
1965.40420,0.00066
1963.34403,0.00082
1961.28386,0.00193
1959.22368,0.00254
1957.16351,0.00229
1955.10334,0.00200
1953.04317,0.00182
1950.98299,0.00172
1948.92282,0.00182
1946.86265,0.00204
1944.80248,0.00246
1942.74231,0.00302
1940.68213,0.00307
1938.62196,0.00250
1936.56179,0.00177
1934.50162,0.00137
1932.44145,0.00143
1930.38127,0.00170
1928.32110,0.00202
1926.26093,0.00220
1924.20076,0.00196
1922.14059,0.00154
1920.08041,0.00155
1918.02024,0.00199
1915.96007,0.00213
1913.89990,0.00177
1911.83972,0.00146
1909.77955,0.00149
1907.71938,0.00186
1905.65921,0.00243
1903.59904,0.00263
1901.53886,0.00218
1899.47869,0.00169
1897.41852,0.00163
1895.35835,0.00180
1893.29818,0.00193
1891.23800,0.00202
1889.17783,0.00198
1887.11766,0.00187
1885.05749,0.00185
1882.99731,0.00188
1880.93714,0.00189
1878.87697,0.00192
1876.81680,0.00187
1874.75663,0.00172
1872.69645,0.00162
1870.63628,0.00161
1868.57611,0.00148
1866.51594,0.00131
1864.45577,0.00140
1862.39559,0.00176
1860.33542,0.00207
1858.27525,0.00201
1856.21508,0.00167
1854.15491,0.00140
1852.09473,0.00139
1850.03456,0.00157
1847.97439,0.00162
1845.91422,0.00159
1843.85404,0.00180
1841.79387,0.00202
1839.73370,0.00193
1837.67353,0.00176
1835.61336,0.00181
1833.55318,0.00189
1831.49301,0.00169
1829.43284,0.00135
1827.37267,0.00109
1825.31250,0.00103
1823.25232,0.00124
1821.19215,0.00155
1819.13198,0.00162
1817.07181,0.00149
1815.01163,0.00142
1812.95146,0.00158
1810.89129,0.00180
1808.83112,0.00189
1806.77095,0.00196
1804.71077,0.00208
1802.65060,0.00217
1800.59043,0.00215
1798.53026,0.00199
1796.47009,0.00174
1794.40991,0.00159
1792.34974,0.00160
1790.28957,0.00153
1788.22940,0.00132
1786.16923,0.00120
1784.10905,0.00126
1782.04888,0.00130
1779.98871,0.00125
1777.92854,0.00130
1775.86836,0.00145
1773.80819,0.00157
1771.74802,0.00167
1769.68785,0.00171
1767.62768,0.00162
1765.56750,0.00151
1763.50733,0.00156
1761.44716,0.00171
1759.38699,0.00182
1757.32682,0.00186
1755.26664,0.00191
1753.20647,0.00209
1751.14630,0.00247
1749.08613,0.00290
1747.02596,0.00310
1744.96578,0.00304
1742.90561,0.00287
1740.84544,0.00280
1738.78527,0.00279
1736.72509,0.00268
1734.66492,0.00268
1732.60475,0.00281
1730.54458,0.00283
1728.48441,0.00283
1726.42423,0.00294
1724.36406,0.00308
1722.30389,0.00309
1720.24372,0.00298
1718.18355,0.00287
1716.12337,0.00276
1714.06320,0.00263
1712.00303,0.00250
1709.94286,0.00243
1707.88268,0.00244
1705.82251,0.00245
1703.76234,0.00245
1701.70217,0.00239
1699.64200,0.00227
1697.58182,0.00206
1695.52165,0.00184
1693.46148,0.00183
1691.40131,0.00204
1689.34114,0.00225
1687.28096,0.00235
1685.22079,0.00250
1683.16062,0.00271
1681.10045,0.00268
1679.04028,0.00250
1676.98010,0.00241
1674.91993,0.00255
1672.85976,0.00275
1670.79959,0.00278
1668.73941,0.00268
1666.67924,0.00268
1664.61907,0.00283
1662.55890,0.00301
1660.49873,0.00314
1658.43855,0.00322
1656.37838,0.00331
1654.31821,0.00345
1652.25804,0.00364
1650.19787,0.00379
1648.13769,0.00401
1646.07752,0.00420
1644.01735,0.00414
1641.95718,0.00405
1639.89701,0.00414
1637.83683,0.00435
1635.77666,0.00445
1633.71649,0.00437
1631.65632,0.00433
1629.59614,0.00437
1627.53597,0.00445
1625.47580,0.00457
1623.41563,0.00461
1621.35546,0.00447
1619.29528,0.00428
1617.23511,0.00428
1615.17494,0.00442
1613.11477,0.00443
1611.05460,0.00432
1608.99442,0.00425
1606.93425,0.00424
1604.87408,0.00417
1602.81391,0.00406
1600.75373,0.00400
1598.69356,0.00397
1596.63339,0.00385
1594.57322,0.00359
1592.51305,0.00335
1590.45287,0.00319
1588.39270,0.00305
1586.33253,0.00289
1584.27236,0.00273
1582.21219,0.00258
1580.15201,0.00254
1578.09184,0.00263
1576.03167,0.00268
1573.97150,0.00249
1571.91133,0.00224
1569.85115,0.00215
1567.79098,0.00217
1565.73081,0.00210
1563.67064,0.00182
1561.61046,0.00157
1559.55029,0.00168
1557.49012,0.00189
1555.42995,0.00173
1553.36978,0.00155
1551.30960,0.00153
1549.24943,0.00158
1547.18926,0.00153
1545.12909,0.00149
1543.06892,0.00168
1541.00874,0.00190
1538.94857,0.00171
1536.88840,0.00133
1534.82823,0.00107
1532.76805,0.00096
1530.70788,0.00095
1528.64771,0.00107
1526.58754,0.00129
1524.52737,0.00136
1522.46719,0.00118
1520.40702,0.00096
1518.34685,0.00085
1516.28668,0.00091
1514.22651,0.00106
1512.16633,0.00111
1510.10616,0.00100
1508.04599,0.00083
1505.98582,0.00079
1503.92565,0.00084
1501.86547,0.00092
1499.80530,0.00100
1497.74513,0.00099
1495.68496,0.00087
1493.62478,0.00083
1491.56461,0.00099
1489.50444,0.00122
1487.44427,0.00127
1485.38410,0.00122
1483.32392,0.00119
1481.26375,0.00119
1479.20358,0.00119
1477.14341,0.00130
1475.08324,0.00157
1473.02306,0.00178
1470.96289,0.00174
1468.90272,0.00167
1466.84255,0.00178
1464.78238,0.00199
1462.72220,0.00211
1460.66203,0.00227
1458.60186,0.00262
1456.54169,0.00292
1454.48151,0.00288
1452.42134,0.00266
1450.36117,0.00248
1448.30100,0.00244
1446.24083,0.00249
1444.18065,0.00253
1442.12048,0.00260
1440.06031,0.00272
1438.00014,0.00288
1435.93997,0.00300
1433.87979,0.00304
1431.81962,0.00306
1429.75945,0.00311
1427.69928,0.00318
1425.63910,0.00330
1423.57893,0.00342
1421.51876,0.00349
1419.45859,0.00362
1417.39842,0.00379
1415.33824,0.00385
1413.27807,0.00388
1411.21790,0.00391
1409.15773,0.00380
1407.09756,0.00360
1405.03738,0.00348
1402.97721,0.00339
1400.91704,0.00339
1398.85687,0.00351
1396.79670,0.00354
1394.73652,0.00331
1392.67635,0.00298
1390.61618,0.00285
1388.55601,0.00289
1386.49583,0.00300
1384.43566,0.00309
1382.37549,0.00320
1380.31532,0.00338
1378.25515,0.00359
1376.19497,0.00366
1374.13480,0.00362
1372.07463,0.00355
1370.01446,0.00352
1367.95429,0.00354
1365.89411,0.00357
1363.83394,0.00354
1361.77377,0.00341
1359.71360,0.00323
1357.65343,0.00315
1355.59325,0.00319
1353.53308,0.00323
1351.47291,0.00319
1349.41274,0.00311
1347.35256,0.00301
1345.29239,0.00299
1343.23222,0.00309
1341.17205,0.00320
1339.11188,0.00318
1337.05170,0.00303
1334.99153,0.00288
1332.93136,0.00284
1330.87119,0.00285
1328.81102,0.00285
1326.75084,0.00285
1324.69067,0.00285
1322.63050,0.00286
1320.57033,0.00285
1318.51015,0.00285
1316.44998,0.00290
1314.38981,0.00296
1312.32964,0.00298
1310.26947,0.00292
1308.20929,0.00278
1306.14912,0.00262
1304.08895,0.00258
1302.02878,0.00260
1299.96861,0.00250
1297.90843,0.00232
1295.84826,0.00225
1293.78809,0.00227
1291.72792,0.00229
1289.66775,0.00232
1287.60757,0.00231
1285.54740,0.00224
1283.48723,0.00220
1281.42706,0.00224
1279.36688,0.00227
1277.30671,0.00219
1275.24654,0.00209
1273.18637,0.00214
1271.12620,0.00235
1269.06602,0.00259
1267.00585,0.00277
1264.94568,0.00294
1262.88551,0.00307
1260.82534,0.00313
1258.76516,0.00322
1256.70499,0.00343
1254.64482,0.00367
1252.58465,0.00377
1250.52447,0.00377
1248.46430,0.00387
1246.40413,0.00395
1244.34396,0.00387
1242.28379,0.00381
1240.22361,0.00378
1238.16344,0.00370
1236.10327,0.00365
1234.04310,0.00363
1231.98293,0.00354
1229.92275,0.00333
1227.86258,0.00315
1225.80241,0.00304
1223.74224,0.00281
1221.68207,0.00250
1219.62189,0.00228
1217.56172,0.00211
1215.50155,0.00198
1213.44138,0.00189
1211.38120,0.00175
1209.32103,0.00151
1207.26086,0.00123
1205.20069,0.00101
1203.14052,0.00089
1201.08034,0.00086
1199.02017,0.00081
1196.96000,0.00064
1194.89983,0.00043
1192.83966,0.00027
1190.77948,0.00012
1188.71931,0.00000
1186.65914,0.00003
1184.59897,0.00025
1182.53880,0.00046
1180.47862,0.00058
1178.41845,0.00066
1176.35828,0.00082
1174.29811,0.00115
1172.23793,0.00149
1170.17776,0.00173
1168.11759,0.00196
1166.05742,0.00224
1163.99725,0.00256
1161.93707,0.00285
1159.87690,0.00311
1157.81673,0.00351
1155.75656,0.00398
1153.69639,0.00427
1151.63621,0.00440
1149.57604,0.00457
1147.51587,0.00484
1145.45570,0.00507
1143.39552,0.00522
1141.33535,0.00532
1139.27518,0.00535
1137.21501,0.00536
1135.15484,0.00549
1133.09466,0.00581
1131.03449,0.00628
1128.97432,0.00669
1126.91415,0.00700
1124.85398,0.00737
1122.79380,0.00769
1120.73363,0.00788
1118.67346,0.00805
1116.61329,0.00820
1114.55312,0.00840
1112.49294,0.00877
1110.43277,0.00918
1108.37260,0.00953
1106.31243,0.00991
1104.25225,0.01031
1102.19208,0.01074
1100.13191,0.01127
1098.07174,0.01194
1096.01157,0.01272
1093.95139,0.01344
1091.89122,0.01397
1089.83105,0.01435
1087.77088,0.01467
1085.71071,0.01503
1083.65053,0.01535
1081.59036,0.01567
1079.53019,0.01614
1077.47002,0.01669
1075.40985,0.01728
1073.34967,0.01782
1071.28950,0.01820
1069.22933,0.01839
1067.16916,0.01845
1065.10898,0.01850
1063.04881,0.01858
1060.98864,0.01880
1058.92847,0.01912
1056.86830,0.01932
1054.80812,0.01944
1052.74795,0.01962
1050.68778,0.01988
1048.62761,0.02028
1046.56744,0.02058
1044.50726,0.02070
1042.44709,0.02093
1040.38692,0.02121
1038.32675,0.02124
1036.26657,0.02101
1034.20640,0.02077
1032.14623,0.02061
1030.08606,0.02035
1028.02589,0.01995
1025.96571,0.01956
1023.90554,0.01933
1021.84537,0.01909
1019.78520,0.01867
1017.72503,0.01832
1015.66485,0.01805
1013.60468,0.01766
1011.54451,0.01738
1009.48434,0.01725
1007.42417,0.01691
1005.36399,0.01627
1003.30382,0.01565
1001.24365,0.01518
999.18348,0.01464
997.12330,0.01412
995.06313,0.01375
993.00296,0.01339
990.94279,0.01306
988.88262,0.01279
986.82244,0.01245
984.76227,0.01227
982.70210,0.01233
980.64193,0.01226
978.58176,0.01194
976.52158,0.01155
974.46141,0.01115
972.40124,0.01078
970.34107,0.01048
968.28089,0.01021
966.22072,0.00987
964.16055,0.00950
962.10038,0.00918
960.04021,0.00881
957.98003,0.00844
955.91986,0.00829
953.85969,0.00811
951.79952,0.00765
949.73935,0.00709
947.67917,0.00673
945.61900,0.00657
943.55883,0.00627
941.49866,0.00569
939.43849,0.00500
937.37831,0.00442
935.31814,0.00406
933.25797,0.00377
931.19780,0.00340
929.13762,0.00308
927.07745,0.00284
925.01728,0.00267
922.95711,0.00267
920.89694,0.00271
918.83676,0.00255
916.77659,0.00216
914.71642,0.00177
912.65625,0.00158
910.59608,0.00155
908.53590,0.00171
906.47573,0.00190
904.41556,0.00187
902.35539,0.00180
900.29522,0.00197
898.23504,0.00210
896.17487,0.00218
894.11470,0.00245
892.05453,0.00261
889.99435,0.00250
887.93418,0.00225
885.87401,0.00204
883.81384,0.00206
881.75367,0.00216
879.69349,0.00209
877.63332,0.00183
875.57315,0.00155
873.51298,0.00131
871.45281,0.00127
869.39263,0.00150
867.33246,0.00168
865.27229,0.00164
863.21212,0.00166
861.15194,0.00179
859.09177,0.00167
857.03160,0.00129
854.97143,0.00102
852.91126,0.00093
850.85108,0.00093
848.79091,0.00109
846.73074,0.00140
844.67057,0.00149
842.61040,0.00124
840.55022,0.00097
838.49005,0.00091
836.42988,0.00098
834.36971,0.00103
832.30954,0.00110
830.24936,0.00102
828.18919,0.00063
826.12902,0.00040
824.06885,0.00051
822.00867,0.00049
819.94850,0.00031
817.88833,0.00014
815.82816,0.00000
813.76799,0.00012
811.70781,0.00051
809.64764,0.00093
807.58747,0.00120
805.52730,0.00106
803.46713,0.00059
801.40695,0.00057
799.34678,0.00092
797.28661,0.00085
795.22644,0.00069
793.16627,0.00074
791.10609,0.00058
789.04592,0.00051
786.98575,0.00098
784.92558,0.00146
782.86540,0.00143
780.80523,0.00120
778.74506,0.00104
776.68489,0.00097
774.62472,0.00096
772.56454,0.00108
770.50437,0.00120
768.44420,0.00104
766.38403,0.00093
764.32386,0.00107
762.26368,0.00104
760.20351,0.00063
758.14334,0.00028
756.08317,0.00051
754.02299,0.00096
751.96282,0.00101
749.90265,0.00088
747.84248,0.00110
745.78231,0.00147
743.72213,0.00183
741.66196,0.00215
739.60179,0.00216
737.54162,0.00192
735.48145,0.00178
733.42127,0.00184
731.36110,0.00195
729.30093,0.00189
727.24076,0.00143
725.18059,0.00113
723.12041,0.00182
721.06024,0.00203
719.00007,0.00249
716.93990,0.00284
714.87972,0.00325
712.81955,0.00362
710.75938,0.00333
708.69921,0.00268
706.63904,0.00248
704.57886,0.00277
702.51869,0.00304
700.45852,0.00351
698.39835,0.00438
696.33818,0.00491
694.27800,0.00474
692.21783,0.00441
690.15766,0.00452
688.09749,0.00498
686.03731,0.00532
683.97714,0.00554
681.91697,0.00591
679.85680,0.00614
677.79663,0.00566
675.73645,0.00497
673.67628,0.00580
671.61611,0.00832
669.55594,0.00548
667.49577,0.00000
665.43559,0.00756
663.37542,0.00672
661.31525,0.00473
659.25508,0.00425
657.19491,0.00398
655.13473,0.00362
653.07456,0.00364
651.01439,0.00382
648.95422,0.00367
646.89404,0.00375
644.83387,0.00359
642.77370,0.00324
640.71353,0.00263
638.65336,0.00161
636.59318,0.00116
634.53301,0.00197
632.47284,0.00310
630.41267,0.00397
628.35250,0.00436
626.29232,0.00355
624.23215,0.00207
622.17198,0.00181
620.11181,0.00285
618.05164,0.00408
615.99146,0.00406
613.93129,0.00341
611.87112,0.00281
609.81095,0.00226
607.75077,0.00210
605.69060,0.00175
603.63043,0.00167
601.57026,0.00153
599.51009,0.00000
