3996.73391,0.00023
3994.67373,0.00003
3992.61356,-0.00003
3990.55339,-0.00002
3988.49322,0.00009
3986.43305,0.00031
3984.37287,0.00033
3982.31270,0.00009
3980.25253,0.00000
3978.19236,0.00031
3976.13219,0.00075
3974.07201,0.00099
3972.01184,0.00096
3969.95167,0.00080
3967.89150,0.00067
3965.83133,0.00058
3963.77115,0.00053
3961.71098,0.00046
3959.65081,0.00034
3957.59064,0.00036
3955.53046,0.00064
3953.47029,0.00091
3951.41012,0.00083
3949.34995,0.00055
3947.28978,0.00057
3945.22960,0.00089
3943.16943,0.00104
3941.10926,0.00090
3939.04909,0.00069
3936.98892,0.00060
3934.92874,0.00065
3932.86857,0.00069
3930.80840,0.00064
3928.74823,0.00066
3926.68805,0.00081
3924.62788,0.00092
3922.56771,0.00090
3920.50754,0.00078
3918.44737,0.00065
3916.38719,0.00065
3914.32702,0.00083
3912.26685,0.00097
3910.20668,0.00102
3908.14651,0.00109
3906.08633,0.00112
3904.02616,0.00100
3901.96599,0.00096
3899.90582,0.00117
3897.84565,0.00129
3895.78547,0.00113
3893.72530,0.00095
3891.66513,0.00094
3889.60496,0.00097
3887.54478,0.00093
3885.48461,0.00092
3883.42444,0.00101
3881.36427,0.00108
3879.30410,0.00094
3877.24392,0.00074
3875.18375,0.00070
3873.12358,0.00070
3871.06341,0.00061
3869.00324,0.00049
3866.94306,0.00027
3864.88289,0.00008
3862.82272,0.00011
3860.76255,0.00018
3858.70237,0.00009
3856.64220,0.00000
3854.58203,0.00023
3852.52186,0.00071
3850.46169,0.00082
3848.40151,0.00056
3846.34134,0.00052
3844.28117,0.00086
3842.22100,0.00118
3840.16083,0.00116
3838.10065,0.00100
3836.04048,0.00092
3833.98031,0.00083
3831.92014,0.00079
3829.85997,0.00083
3827.79979,0.00084
3825.73962,0.00071
3823.67945,0.00049
3821.61928,0.00039
3819.55910,0.00052
3817.49893,0.00069
3815.43876,0.00087
3813.37859,0.00102
3811.31842,0.00104
3809.25824,0.00094
3807.19807,0.00085
3805.13790,0.00092
3803.07773,0.00129
3801.01756,0.00172
3798.95738,0.00173
3796.89721,0.00144
3794.83704,0.00123
3792.77687,0.00117
3790.71670,0.00115
3788.65652,0.00114
3786.59635,0.00120
3784.53618,0.00130
3782.47601,0.00136
3780.41583,0.00146
3778.35566,0.00154
3776.29549,0.00158
3774.23532,0.00172
3772.17515,0.00176
3770.11497,0.00150
3768.05480,0.00128
3765.99463,0.00134
3763.93446,0.00133
3761.87429,0.00112
3759.81411,0.00097
3757.75394,0.00094
3755.69377,0.00087
3753.63360,0.00084
3751.57342,0.00098
3749.51325,0.00094
3747.45308,0.00045
3745.39291,0.00000
3743.33274,0.00013
3741.27256,0.00046
3739.21239,0.00059
3737.15222,0.00070
3735.09205,0.00070
3733.03188,0.00061
3730.97170,0.00061
3728.91153,0.00086
3726.85136,0.00120
3724.79119,0.00141
3722.73102,0.00151
3720.67084,0.00133
3718.61067,0.00104
3716.55050,0.00081
3714.49033,0.00077
3712.43015,0.00106
3710.36998,0.00136
3708.30981,0.00158
3706.24964,0.00150
3704.18947,0.00138
3702.12929,0.00136
3700.06912,0.00129
3698.00895,0.00119
3695.94878,0.00109
3693.88861,0.00099
3691.82843,0.00092
3689.76826,0.00122
3687.70809,0.00158
3685.64792,0.00168
3683.58775,0.00158
3681.52757,0.00139
3679.46740,0.00105
3677.40723,0.00072
3675.34706,0.00059
3673.28688,0.00076
3671.22671,0.00096
3669.16654,0.00115
3667.10637,0.00144
3665.04620,0.00168
3662.98602,0.00174
3660.92585,0.00167
3658.86568,0.00157
3656.80551,0.00150
3654.74534,0.00149
3652.68516,0.00146
3650.62499,0.00135
3648.56482,0.00126
3646.50465,0.00149
3644.44447,0.00185
3642.38430,0.00207
3640.32413,0.00216
3638.26396,0.00219
3636.20379,0.00228
3634.14361,0.00251
3632.08344,0.00270
3630.02327,0.00265
3627.96310,0.00236
3625.90293,0.00232
3623.84275,0.00245
3621.78258,0.00255
3619.72241,0.00250
3617.66224,0.00244
3615.60207,0.00260
3613.54189,0.00276
3611.48172,0.00298
3609.42155,0.00327
3607.36138,0.00353
3605.30120,0.00377
3603.24103,0.00378
3601.18086,0.00363
3599.12069,0.00358
3597.06052,0.00372
3595.00034,0.00381
3592.94017,0.00394
3590.88000,0.00402
3588.81983,0.00404
3586.75966,0.00391
3584.69948,0.00390
3582.63931,0.00416
3580.57914,0.00446
3578.51897,0.00469
3576.45879,0.00474
3574.39862,0.00465
3572.33845,0.00478
3570.27828,0.00533
3568.21811,0.00582
3566.15793,0.00591
3564.09776,0.00588
3562.03759,0.00585
3559.97742,0.00572
3557.91725,0.00565
3555.85707,0.00575
3553.79690,0.00594
3551.73673,0.00608
3549.67656,0.00599
3547.61639,0.00575
3545.55621,0.00584
3543.49604,0.00633
3541.43587,0.00666
3539.37570,0.00667
3537.31552,0.00671
3535.25535,0.00695
3533.19518,0.00716
3531.13501,0.00711
3529.07484,0.00685
3527.01466,0.00674
3524.95449,0.00701
3522.89432,0.00728
3520.83415,0.00736
3518.77398,0.00746
3516.71380,0.00762
3514.65363,0.00785
3512.59346,0.00819
3510.53329,0.00839
3508.47312,0.00827
3506.41294,0.00818
3504.35277,0.00839
3502.29260,0.00858
3500.23243,0.00855
3498.17225,0.00845
3496.11208,0.00840
3494.05191,0.00845
3491.99174,0.00864
3489.93157,0.00885
3487.87139,0.00904
3485.81122,0.00923
3483.75105,0.00930
3481.69088,0.00916
3479.63071,0.00903
3477.57053,0.00919
3475.51036,0.00944
3473.45019,0.00950
3471.39002,0.00956
3469.32984,0.00978
3467.26967,0.00997
3465.20950,0.00996
3463.14933,0.00984
3461.08916,0.00990
3459.02898,0.01025
3456.96881,0.01051
3454.90864,0.01038
3452.84847,0.01017
3450.78830,0.01022
3448.72812,0.01034
3446.66795,0.01045
3444.60778,0.01060
3442.54761,0.01068
3440.48744,0.01071
3438.42726,0.01090
3436.36709,0.01127
3434.30692,0.01160
3432.24675,0.01153
3430.18657,0.01116
3428.12640,0.01102
3426.06623,0.01116
3424.00606,0.01124
3421.94589,0.01133
3419.88571,0.01159
3417.82554,0.01185
3415.76537,0.01192
3413.70520,0.01187
3411.64503,0.01191
3409.58485,0.01205
3407.52468,0.01213
3405.46451,0.01220
3403.40434,0.01233
3401.34416,0.01247
3399.28399,0.01237
3397.22382,0.01232
3395.16365,0.01235
3393.10348,0.01253
3391.04330,0.01262
3388.98313,0.01233
3386.92296,0.01193
3384.86279,0.01196
3382.80262,0.01239
3380.74244,0.01279
3378.68227,0.01284
3376.62210,0.01261
3374.56193,0.01245
3372.50176,0.01261
3370.44158,0.01287
3368.38141,0.01292
3366.32124,0.01290
3364.26107,0.01306
3362.20089,0.01327
3360.14072,0.01327
3358.08055,0.01312
3356.02038,0.01295
3353.96021,0.01284
3351.90003,0.01293
3349.83986,0.01313
3347.77969,0.01328
3345.71952,0.01328
3343.65935,0.01325
3341.59917,0.01330
3339.53900,0.01324
3337.47883,0.01312
3335.41866,0.01328
3333.35849,0.01357
3331.29831,0.01367
3329.23814,0.01356
3327.17797,0.01345
3325.11780,0.01342
3323.05762,0.01345
3320.99745,0.01347
3318.93728,0.01357
3316.87711,0.01367
3314.81694,0.01366
3312.75676,0.01358
3310.69659,0.01356
3308.63642,0.01367
3306.57625,0.01382
3304.51608,0.01387
3302.45590,0.01385
3300.39573,0.01381
3298.33556,0.01371
3296.27539,0.01364
3294.21521,0.01367
3292.15504,0.01368
3290.09487,0.01351
3288.03470,0.01346
3285.97453,0.01363
3283.91435,0.01373
3281.85418,0.01371
3279.79401,0.01368
3277.73384,0.01355
3275.67367,0.01341
3273.61349,0.01340
3271.55332,0.01356
3269.49315,0.01376
3267.43298,0.01382
3265.37281,0.01379
3263.31263,0.01378
3261.25246,0.01372
3259.19229,0.01366
3257.13212,0.01367
3255.07194,0.01371
3253.01177,0.01369
3250.95160,0.01367
3248.89143,0.01378
3246.83126,0.01390
3244.77108,0.01377
3242.71091,0.01353
3240.65074,0.01353
3238.59057,0.01362
3236.53040,0.01351
3234.47022,0.01330
3232.41005,0.01318
3230.34988,0.01318
3228.28971,0.01319
3226.22954,0.01307
3224.16936,0.01296
3222.10919,0.01305
3220.04902,0.01315
3217.98885,0.01310
3215.92867,0.01309
3213.86850,0.01315
3211.80833,0.01312
3209.74816,0.01300
3207.68799,0.01292
3205.62781,0.01287
3203.56764,0.01269
3201.50747,0.01246
3199.44730,0.01236
3197.38713,0.01238
3195.32695,0.01249
3193.26678,0.01250
3191.20661,0.01230
3189.14644,0.01205
3187.08626,0.01194
3185.02609,0.01191
3182.96592,0.01190
3180.90575,0.01185
3178.84558,0.01174
3176.78540,0.01171
3174.72523,0.01188
3172.66506,0.01201
3170.60489,0.01190
3168.54472,0.01171
3166.48454,0.01167
3164.42437,0.01177
3162.36420,0.01185
3160.30403,0.01169
3158.24386,0.01136
3156.18368,0.01117
3154.12351,0.01113
3152.06334,0.01101
3150.00317,0.01087
3147.94299,0.01090
3145.88282,0.01102
3143.82265,0.01106
3141.76248,0.01098
3139.70231,0.01088
3137.64213,0.01082
3135.58196,0.01073
3133.52179,0.01060
3131.46162,0.01040
3129.40145,0.01005
3127.34127,0.00970
3125.28110,0.00964
3123.22093,0.00982
3121.16076,0.00996
3119.10058,0.00997
3117.04041,0.00997
3114.98024,0.01005
3112.92007,0.01013
3110.85990,0.01017
3108.79972,0.01010
3106.73955,0.00990
3104.67938,0.00968
3102.61921,0.00952
3100.55904,0.00934
3098.49886,0.00917
3096.43869,0.00907
3094.37852,0.00900
3092.31835,0.00901
3090.25818,0.00901
3088.19800,0.00899
3086.13783,0.00899
3084.07766,0.00889
3082.01749,0.00872
3079.95731,0.00862
3077.89714,0.00851
3075.83697,0.00851
3073.77680,0.00865
3071.71663,0.00869
3069.65645,0.00855
3067.59628,0.00841
3065.53611,0.00833
3063.47594,0.00824
3061.41577,0.00811
3059.35559,0.00799
3057.29542,0.00800
3055.23525,0.00806
3053.17508,0.00801
3051.11491,0.00789
3049.05473,0.00783
3046.99456,0.00781
3044.93439,0.00777
3042.87422,0.00770
3040.81404,0.00769
3038.75387,0.00762
3036.69370,0.00745
3034.63353,0.00726
3032.57336,0.00715
3030.51318,0.00723
3028.45301,0.00738
3026.39284,0.00738
3024.33267,0.00731
3022.27250,0.00735
3020.21232,0.00747
3018.15215,0.00754
3016.09198,0.00753
3014.03181,0.00748
3011.97163,0.00738
3009.91146,0.00722
3007.85129,0.00708
3005.79112,0.00696
3003.73095,0.00689
3001.67077,0.00686
2999.61060,0.00679
2997.55043,0.00664
2995.49026,0.00657
2993.43009,0.00668
2991.36991,0.00689
2989.30974,0.00705
2987.24957,0.00714
2985.18940,0.00711
2983.12923,0.00701
2981.06905,0.00695
2979.00888,0.00700
2976.94871,0.00722
2974.88854,0.00731
2972.82836,0.00713
2970.76819,0.00703
2968.70802,0.00714
2966.64785,0.00727
2964.58768,0.00730
2962.52750,0.00738
2960.46733,0.00759
2958.40716,0.00782
2956.34699,0.00805
2954.28682,0.00824
2952.22664,0.00830
2950.16647,0.00832
2948.10630,0.00837
2946.04613,0.00835
2943.98596,0.00839
2941.92578,0.00857
2939.86561,0.00876
2937.80544,0.00890
2935.74527,0.00885
2933.68509,0.00873
2931.62492,0.00883
2929.56475,0.00903
2927.50458,0.00909
2925.44441,0.00905
2923.38423,0.00905
2921.32406,0.00906
2919.26389,0.00897
2917.20372,0.00887
2915.14355,0.00878
2913.08337,0.00872
2911.02320,0.00872
2908.96303,0.00867
2906.90286,0.00853
2904.84268,0.00835
2902.78251,0.00823
2900.72234,0.00822
2898.66217,0.00827
2896.60200,0.00830
2894.54182,0.00822
2892.48165,0.00806
2890.42148,0.00800
2888.36131,0.00818
2886.30114,0.00836
2884.24096,0.00825
2882.18079,0.00811
2880.12062,0.00809
2878.06045,0.00794
2876.00028,0.00779
2873.94010,0.00783
2871.87993,0.00787
2869.81976,0.00782
2867.75959,0.00778
2865.69941,0.00775
2863.63924,0.00773
2861.57907,0.00767
2859.51890,0.00752
2857.45873,0.00740
2855.39855,0.00741
2853.33838,0.00744
2851.27821,0.00744
2849.21804,0.00740
2847.15787,0.00730
2845.09769,0.00712
2843.03752,0.00695
2840.97735,0.00692
2838.91718,0.00697
2836.85700,0.00696
2834.79683,0.00695
2832.73666,0.00694
2830.67649,0.00684
2828.61632,0.00671
2826.55614,0.00658
2824.49597,0.00653
2822.43580,0.00654
2820.37563,0.00649
2818.31546,0.00641
2816.25528,0.00641
2814.19511,0.00642
2812.13494,0.00641
2810.07477,0.00639
2808.01460,0.00637
2805.95442,0.00638
2803.89425,0.00637
2801.83408,0.00621
2799.77391,0.00609
2797.71373,0.00620
2795.65356,0.00640
2793.59339,0.00638
2791.53322,0.00615
2789.47305,0.00602
2787.41287,0.00604
2785.35270,0.00616
2783.29253,0.00622
2781.23236,0.00605
2779.17219,0.00581
2777.11201,0.00568
2775.05184,0.00571
2772.99167,0.00579
2770.93150,0.00578
2768.87133,0.00571
2766.81115,0.00573
2764.75098,0.00578
2762.69081,0.00581
2760.63064,0.00585
2758.57046,0.00588
2756.51029,0.00592
2754.45012,0.00598
2752.38995,0.00602
2750.32978,0.00599
2748.26960,0.00585
2746.20943,0.00567
2744.14926,0.00564
2742.08909,0.00581
2740.02892,0.00596
2737.96874,0.00595
2735.90857,0.00587
2733.84840,0.00585
2731.78823,0.00584
2729.72805,0.00583
2727.66788,0.00579
2725.60771,0.00572
2723.54754,0.00573
2721.48737,0.00573
2719.42719,0.00562
2717.36702,0.00554
2715.30685,0.00554
2713.24668,0.00555
2711.18651,0.00560
2709.12633,0.00565
2707.06616,0.00566
2705.00599,0.00564
2702.94582,0.00558
2700.88565,0.00544
2698.82547,0.00539
2696.76530,0.00546
2694.70513,0.00549
2692.64496,0.00542
2690.58478,0.00543
2688.52461,0.00553
2686.46444,0.00560
2684.40427,0.00563
2682.34410,0.00561
2680.28392,0.00543
2678.22375,0.00525
2676.16358,0.00526
2674.10341,0.00536
2672.04324,0.00538
2669.98306,0.00536
2667.92289,0.00537
2665.86272,0.00545
2663.80255,0.00555
2661.74238,0.00558
2659.68220,0.00557
2657.62203,0.00550
2655.56186,0.00539
2653.50169,0.00532
2651.44151,0.00532
2649.38134,0.00531
2647.32117,0.00525
2645.26100,0.00521
2643.20083,0.00513
2641.14065,0.00511
2639.08048,0.00534
2637.02031,0.00564
2634.96014,0.00563
2632.89997,0.00538
2630.83979,0.00526
2628.77962,0.00524
2626.71945,0.00507
2624.65928,0.00493
2622.59910,0.00497
2620.53893,0.00499
2618.47876,0.00495
2616.41859,0.00494
2614.35842,0.00482
2612.29824,0.00466
2610.23807,0.00477
2608.17790,0.00491
2606.11773,0.00483
2604.05756,0.00468
2601.99738,0.00471
2599.93721,0.00488
2597.87704,0.00504
2595.81687,0.00511
2593.75670,0.00505
2591.69652,0.00483
2589.63635,0.00467
2587.57618,0.00462
2585.51601,0.00463
2583.45583,0.00472
2581.39566,0.00476
2579.33549,0.00468
2577.27532,0.00455
2575.21515,0.00440
2573.15497,0.00441
2571.09480,0.00455
2569.03463,0.00452
2566.97446,0.00432
2564.91429,0.00432
2562.85411,0.00454
2560.79394,0.00463
2558.73377,0.00463
2556.67360,0.00464
2554.61342,0.00449
2552.55325,0.00425
2550.49308,0.00408
2548.43291,0.00403
2546.37274,0.00411
2544.31256,0.00407
2542.25239,0.00387
2540.19222,0.00385
2538.13205,0.00402
2536.07188,0.00407
2534.01170,0.00396
2531.95153,0.00400
2529.89136,0.00408
2527.83119,0.00414
2525.77102,0.00421
2523.71084,0.00415
2521.65067,0.00406
2519.59050,0.00414
2517.53033,0.00428
2515.47015,0.00431
2513.40998,0.00420
2511.34981,0.00401
2509.28964,0.00393
2507.22947,0.00407
2505.16929,0.00430
2503.10912,0.00456
2501.04895,0.00466
2498.98878,0.00454
2496.92861,0.00429
2494.86843,0.00409
2492.80826,0.00413
2490.74809,0.00430
2488.68792,0.00430
2486.62775,0.00419
2484.56757,0.00413
2482.50740,0.00413
2480.44723,0.00430
2478.38706,0.00450
2476.32688,0.00462
2474.26671,0.00458
2472.20654,0.00419
2470.14637,0.00394
2468.08620,0.00418
2466.02602,0.00438
2463.96585,0.00436
2461.90568,0.00436
2459.84551,0.00432
2457.78534,0.00423
2455.72516,0.00435
2453.66499,0.00453
2451.60482,0.00455
2449.54465,0.00457
2447.48447,0.00450
2445.42430,0.00419
2443.36413,0.00396
2441.30396,0.00398
2439.24379,0.00412
2437.18361,0.00427
2435.12344,0.00428
2433.06327,0.00403
2431.00310,0.00366
2428.94293,0.00354
2426.88275,0.00363
2424.82258,0.00369
2422.76241,0.00383
2420.70224,0.00392
2418.64207,0.00384
2416.58189,0.00376
2414.52172,0.00376
2412.46155,0.00382
2410.40138,0.00392
2408.34120,0.00403
2406.28103,0.00411
2404.22086,0.00403
2402.16069,0.00379
2400.10052,0.00361
2398.04034,0.00343
2395.98017,0.00357
2393.92000,0.00379
2391.85983,0.00383
2389.79966,0.00379
2387.73948,0.00381
2385.67931,0.00381
2383.61914,0.00380
2381.55897,0.00383
2379.49880,0.00376
2377.43862,0.00346
2375.37845,0.00351
2373.31828,0.00328
2371.25811,0.00346
2369.19793,0.00467
2367.13776,0.00528
2365.07759,0.00460
2363.01742,0.00535
2360.95725,0.00420
2358.89707,0.00447
2356.83690,0.00521
2354.77673,0.00614
2352.71656,0.00557
2350.65639,0.00192
2348.59621,0.00000
2346.53604,0.00640
2344.47587,0.00729
2342.41570,0.00550
2340.35552,0.00431
2338.29535,0.00418
2336.23518,0.00466
2334.17501,0.00488
2332.11484,0.00504
2330.05466,0.00485
2327.99449,0.00582
2325.93432,0.00537
2323.87415,0.00565
2321.81398,0.00482
2319.75380,0.00484
2317.69363,0.00404
2315.63346,0.00424
2313.57329,0.00473
2311.51312,0.00425
2309.45294,0.00373
2307.39277,0.00367
2305.33260,0.00389
2303.27243,0.00412
2301.21225,0.00455
2299.15208,0.00449
2297.09191,0.00413
2295.03174,0.00402
2292.97157,0.00412
2290.91139,0.00431
2288.85122,0.00439
2286.79105,0.00422
2284.73088,0.00392
2282.67071,0.00361
2280.61053,0.00339
2278.55036,0.00352
2276.49019,0.00398
2274.43002,0.00435
2272.36984,0.00441
2270.30967,0.00406
2268.24950,0.00355
2266.18933,0.00318
2264.12916,0.00292
2262.06898,0.00287
2260.00881,0.00323
2257.94864,0.00349
2255.88847,0.00355
2253.82830,0.00354
2251.76812,0.00336
2249.70795,0.00324
2247.64778,0.00344
2245.58761,0.00342
2243.52744,0.00341
2241.46726,0.00369
2239.40709,0.00394
2237.34692,0.00390
2235.28675,0.00382
2233.22657,0.00382
2231.16640,0.00340
2229.10623,0.00287
2227.04606,0.00281
2224.98589,0.00293
2222.92571,0.00324
2220.86554,0.00364
2218.80537,0.00358
2216.74520,0.00348
2214.68503,0.00380
2212.62485,0.00372
2210.56468,0.00306
2208.50451,0.00249
2206.44434,0.00219
2204.38417,0.00229
2202.32399,0.00254
2200.26382,0.00251
2198.20365,0.00252
2196.14348,0.00268
2194.08330,0.00274
2192.02313,0.00282
2189.96296,0.00310
2187.90279,0.00341
2185.84262,0.00304
2183.78244,0.00235
2181.72227,0.00216
2179.66210,0.00181
2177.60193,0.00132
2175.54176,0.00161
2173.48158,0.00203
2171.42141,0.00198
2169.36124,0.00186
2167.30107,0.00169
2165.24089,0.00164
2163.18072,0.00207
2161.12055,0.00222
2159.06038,0.00135
2157.00021,0.00043
2154.94003,0.00081
2152.87986,0.00204
2150.81969,0.00261
2148.75952,0.00227
2146.69935,0.00219
2144.63917,0.00252
2142.57900,0.00264
2140.51883,0.00246
2138.45866,0.00185
2136.39849,0.00129
2134.33831,0.00157
2132.27814,0.00227
2130.21797,0.00267
2128.15780,0.00261
2126.09762,0.00214
2124.03745,0.00186
2121.97728,0.00209
2119.91711,0.00248
2117.85694,0.00294
2115.79676,0.00327
2113.73659,0.00303
2111.67642,0.00254
2109.61625,0.00238
2107.55608,0.00270
2105.49590,0.00298
2103.43573,0.00254
2101.37556,0.00169
2099.31539,0.00153
2097.25521,0.00183
2095.19504,0.00216
2093.13487,0.00249
2091.07470,0.00289
2089.01453,0.00311
2086.95435,0.00265
2084.89418,0.00192
2082.83401,0.00210
2080.77384,0.00301
2078.71367,0.00334
2076.65349,0.00286
2074.59332,0.00255
2072.53315,0.00272
2070.47298,0.00256
2068.41281,0.00207
2066.35263,0.00176
2064.29246,0.00146
2062.23229,0.00143
2060.17212,0.00214
2058.11194,0.00293
2056.05177,0.00277
2053.99160,0.00212
2051.93143,0.00232
2049.87126,0.00319
2047.81108,0.00376
2045.75091,0.00386
2043.69074,0.00340
2041.63057,0.00263
2039.57040,0.00232
2037.51022,0.00279
2035.45005,0.00317
2033.38988,0.00263
2031.32971,0.00177
2029.26954,0.00138
2027.20936,0.00128
2025.14919,0.00115
2023.08902,0.00122
2021.02885,0.00149
2018.96867,0.00165
2016.90850,0.00179
2014.84833,0.00215
2012.78816,0.00265
2010.72799,0.00343
2008.66781,0.00402
2006.60764,0.00353
2004.54747,0.00264
2002.48730,0.00185
2000.42713,0.00119
1998.36695,0.00122
1996.30678,0.00170
1994.24661,0.00172
1992.18644,0.00096
1990.12626,0.00029
1988.06609,0.00057
1986.00592,0.00118
1983.94575,0.00140
1981.88558,0.00200
1979.82540,0.00306
1977.76523,0.00344
1975.70506,0.00319
1973.64489,0.00303
1971.58472,0.00309
1969.52454,0.00262
1967.46437,0.00119
1965.40420,0.00011
1963.34403,0.00008
1961.28386,0.00038
1959.22368,0.00057
1957.16351,0.00042
1955.10334,0.00011
1953.04317,0.00013
1950.98299,0.00050
1948.92282,0.00073
1946.86265,0.00077
1944.80248,0.00069
1942.74231,0.00050
1940.68213,0.00063
1938.62196,0.00108
1936.56179,0.00143
1934.50162,0.00170
1932.44145,0.00183
1930.38127,0.00159
1928.32110,0.00109
1926.26093,0.00078
1924.20076,0.00099
1922.14059,0.00134
1920.08041,0.00129
1918.02024,0.00107
1915.96007,0.00101
1913.89990,0.00106
1911.83972,0.00113
1909.77955,0.00124
1907.71938,0.00135
1905.65921,0.00139
1903.59904,0.00128
1901.53886,0.00085
1899.47869,0.00047
1897.41852,0.00072
1895.35835,0.00132
1893.29818,0.00151
1891.23800,0.00120
1889.17783,0.00088
1887.11766,0.00092
1885.05749,0.00119
1882.99731,0.00131
1880.93714,0.00115
1878.87697,0.00102
1876.81680,0.00115
1874.75663,0.00139
1872.69645,0.00156
1870.63628,0.00160
1868.57611,0.00148
1866.51594,0.00130
1864.45577,0.00123
1862.39559,0.00130
1860.33542,0.00144
1858.27525,0.00149
1856.21508,0.00138
1854.15491,0.00124
1852.09473,0.00112
1850.03456,0.00093
1847.97439,0.00070
1845.91422,0.00059
1843.85404,0.00072
1841.79387,0.00102
1839.73370,0.00114
1837.67353,0.00101
1835.61336,0.00091
1833.55318,0.00106
1831.49301,0.00125
1829.43284,0.00123
1827.37267,0.00114
1825.31250,0.00118
1823.25232,0.00122
1821.19215,0.00112
1819.13198,0.00091
1817.07181,0.00073
1815.01163,0.00073
1812.95146,0.00090
1810.89129,0.00109
1808.83112,0.00115
1806.77095,0.00105
1804.71077,0.00092
1802.65060,0.00087
1800.59043,0.00089
1798.53026,0.00092
1796.47009,0.00087
1794.40991,0.00074
1792.34974,0.00065
1790.28957,0.00061
1788.22940,0.00057
1786.16923,0.00058
1784.10905,0.00072
1782.04888,0.00091
1779.98871,0.00094
1777.92854,0.00071
1775.86836,0.00045
1773.80819,0.00031
1771.74802,0.00027
1769.68785,0.00027
1767.62768,0.00035
1765.56750,0.00057
1763.50733,0.00086
1761.44716,0.00103
1759.38699,0.00107
1757.32682,0.00117
1755.26664,0.00133
1753.20647,0.00150
1751.14630,0.00170
1749.08613,0.00181
1747.02596,0.00182
1744.96578,0.00189
1742.90561,0.00205
1740.84544,0.00211
1738.78527,0.00217
1736.72509,0.00241
1734.66492,0.00268
1732.60475,0.00265
1730.54458,0.00248
1728.48441,0.00235
1726.42423,0.00230
1724.36406,0.00236
1722.30389,0.00253
1720.24372,0.00275
1718.18355,0.00278
1716.12337,0.00233
1714.06320,0.00187
1712.00303,0.00169
1709.94286,0.00161
1707.88268,0.00143
1705.82251,0.00123
1703.76234,0.00137
1701.70217,0.00179
1699.64200,0.00191
1697.58182,0.00162
1695.52165,0.00129
1693.46148,0.00109
1691.40131,0.00104
1689.34114,0.00113
1687.28096,0.00130
1685.22079,0.00149
1683.16062,0.00159
1681.10045,0.00174
1679.04028,0.00195
1676.98010,0.00215
1674.91993,0.00238
1672.85976,0.00271
1670.79959,0.00295
1668.73941,0.00290
1666.67924,0.00289
1664.61907,0.00315
1662.55890,0.00339
1660.49873,0.00341
1658.43855,0.00347
1656.37838,0.00378
1654.31821,0.00418
1652.25804,0.00431
1650.19787,0.00424
1648.13769,0.00421
1646.07752,0.00417
1644.01735,0.00406
1641.95718,0.00399
1639.89701,0.00409
1637.83683,0.00427
1635.77666,0.00426
1633.71649,0.00424
1631.65632,0.00447
1629.59614,0.00475
1627.53597,0.00494
1625.47580,0.00505
1623.41563,0.00502
1621.35546,0.00485
1619.29528,0.00482
1617.23511,0.00491
1615.17494,0.00489
1613.11477,0.00483
1611.05460,0.00485
1608.99442,0.00482
1606.93425,0.00469
1604.87408,0.00461
1602.81391,0.00462
1600.75373,0.00458
1598.69356,0.00443
1596.63339,0.00423
1594.57322,0.00401
1592.51305,0.00377
1590.45287,0.00360
1588.39270,0.00352
1586.33253,0.00341
1584.27236,0.00318
1582.21219,0.00293
1580.15201,0.00276
1578.09184,0.00261
1576.03167,0.00233
1573.97150,0.00201
1571.91133,0.00182
1569.85115,0.00163
1567.79098,0.00136
1565.73081,0.00113
1563.67064,0.00106
1561.61046,0.00121
1559.55029,0.00128
1557.49012,0.00092
1555.42995,0.00064
1553.36978,0.00053
1551.30960,0.00048
1549.24943,0.00042
1547.18926,0.00047
1545.12909,0.00074
1543.06892,0.00103
1541.00874,0.00101
1538.94857,0.00057
1536.88840,0.00020
1534.82823,0.00022
1532.76805,0.00036
1530.70788,0.00040
1528.64771,0.00042
1526.58754,0.00035
1524.52737,0.00022
1522.46719,0.00030
1520.40702,0.00043
1518.34685,0.00040
1516.28668,0.00020
1514.22651,0.00000
1512.16633,0.00002
1510.10616,0.00031
1508.04599,0.00063
1505.98582,0.00066
1503.92565,0.00048
1501.86547,0.00043
1499.80530,0.00058
1497.74513,0.00072
1495.68496,0.00072
1493.62478,0.00074
1491.56461,0.00087
1489.50444,0.00099
1487.44427,0.00104
1485.38410,0.00107
1483.32392,0.00115
1481.26375,0.00133
1479.20358,0.00153
1477.14341,0.00174
1475.08324,0.00196
1473.02306,0.00206
1470.96289,0.00210
1468.90272,0.00221
1466.84255,0.00237
1464.78238,0.00245
1462.72220,0.00253
1460.66203,0.00285
1458.60186,0.00325
1456.54169,0.00329
1454.48151,0.00317
1452.42134,0.00315
1450.36117,0.00329
1448.30100,0.00348
1446.24083,0.00361
1444.18065,0.00371
1442.12048,0.00385
1440.06031,0.00398
1438.00014,0.00410
1435.93997,0.00412
1433.87979,0.00405
1431.81962,0.00403
1429.75945,0.00411
1427.69928,0.00428
1425.63910,0.00456
1423.57893,0.00483
1421.51876,0.00501
1419.45859,0.00503
1417.39842,0.00491
1415.33824,0.00487
1413.27807,0.00496
1411.21790,0.00497
1409.15773,0.00487
1407.09756,0.00477
1405.03738,0.00468
1402.97721,0.00459
1400.91704,0.00464
1398.85687,0.00479
1396.79670,0.00479
1394.73652,0.00454
1392.67635,0.00423
1390.61618,0.00414
1388.55601,0.00426
1386.49583,0.00433
1384.43566,0.00430
1382.37549,0.00434
1380.31532,0.00455
1378.25515,0.00486
1376.19497,0.00512
1374.13480,0.00515
1372.07463,0.00498
1370.01446,0.00485
1367.95429,0.00483
1365.89411,0.00488
1363.83394,0.00489
1361.77377,0.00479
1359.71360,0.00470
1357.65343,0.00471
1355.59325,0.00471
1353.53308,0.00468
1351.47291,0.00460
1349.41274,0.00444
1347.35256,0.00427
1345.29239,0.00427
1343.23222,0.00443
1341.17205,0.00455
1339.11188,0.00454
1337.05170,0.00449
1334.99153,0.00443
1332.93136,0.00434
1330.87119,0.00425
1328.81102,0.00425
1326.75084,0.00431
1324.69067,0.00440
1322.63050,0.00446
1320.57033,0.00443
1318.51015,0.00435
1316.44998,0.00438
1314.38981,0.00451
1312.32964,0.00450
1310.26947,0.00434
1308.20929,0.00417
1306.14912,0.00408
1304.08895,0.00406
1302.02878,0.00406
1299.96861,0.00400
1297.90843,0.00390
1295.84826,0.00383
1293.78809,0.00380
1291.72792,0.00371
1289.66775,0.00361
1287.60757,0.00364
1285.54740,0.00375
1283.48723,0.00383
1281.42706,0.00387
1279.36688,0.00395
1277.30671,0.00405
1275.24654,0.00406
1273.18637,0.00405
1271.12620,0.00411
1269.06602,0.00419
1267.00585,0.00430
1264.94568,0.00449
1262.88551,0.00465
1260.82534,0.00472
1258.76516,0.00480
1256.70499,0.00495
1254.64482,0.00509
1252.58465,0.00511
1250.52447,0.00507
1248.46430,0.00500
1246.40413,0.00494
1244.34396,0.00488
1242.28379,0.00487
1240.22361,0.00487
1238.16344,0.00483
1236.10327,0.00477
1234.04310,0.00464
1231.98293,0.00446
1229.92275,0.00429
1227.86258,0.00413
1225.80241,0.00401
1223.74224,0.00390
1221.68207,0.00375
1219.62189,0.00361
1217.56172,0.00348
1215.50155,0.00333
1213.44138,0.00314
1211.38120,0.00284
1209.32103,0.00252
1207.26086,0.00234
1205.20069,0.00229
1203.14052,0.00218
1201.08034,0.00196
1199.02017,0.00174
1196.96000,0.00157
1194.89983,0.00136
1192.83966,0.00108
1190.77948,0.00095
1188.71931,0.00101
1186.65914,0.00106
1184.59897,0.00112
1182.53880,0.00128
1180.47862,0.00159
1178.41845,0.00191
1176.35828,0.00211
1174.29811,0.00240
1172.23793,0.00280
1170.17776,0.00314
1168.11759,0.00348
1166.05742,0.00391
1163.99725,0.00432
1161.93707,0.00461
1159.87690,0.00492
1157.81673,0.00535
1155.75656,0.00568
1153.69639,0.00580
1151.63621,0.00585
1149.57604,0.00600
1147.51587,0.00617
1145.45570,0.00632
1143.39552,0.00660
1141.33535,0.00692
1139.27518,0.00710
1137.21501,0.00715
1135.15484,0.00725
1133.09466,0.00750
1131.03449,0.00774
1128.97432,0.00799
1126.91415,0.00833
1124.85398,0.00858
1122.79380,0.00876
1120.73363,0.00903
1118.67346,0.00937
1116.61329,0.00976
1114.55312,0.01016
1112.49294,0.01043
1110.43277,0.01065
1108.37260,0.01090
1106.31243,0.01111
1104.25225,0.01131
1102.19208,0.01159
1100.13191,0.01202
1098.07174,0.01262
1096.01157,0.01318
1093.95139,0.01356
1091.89122,0.01378
1089.83105,0.01407
1087.77088,0.01443
1085.71071,0.01464
1083.65053,0.01477
1081.59036,0.01507
1079.53019,0.01555
1077.47002,0.01593
1075.40985,0.01624
1073.34967,0.01659
1071.28950,0.01691
1069.22933,0.01717
1067.16916,0.01736
1065.10898,0.01754
1063.04881,0.01777
1060.98864,0.01789
1058.92847,0.01791
1056.86830,0.01810
1054.80812,0.01841
1052.74795,0.01861
1050.68778,0.01879
1048.62761,0.01902
1046.56744,0.01916
1044.50726,0.01920
1042.44709,0.01943
1040.38692,0.01988
1038.32675,0.02020
1036.26657,0.02028
1034.20640,0.02022
1032.14623,0.01998
1030.08606,0.01969
1028.02589,0.01962
1025.96571,0.01979
1023.90554,0.02002
1021.84537,0.02012
1019.78520,0.02007
1017.72503,0.02006
1015.66485,0.02016
1013.60468,0.02012
1011.54451,0.01989
1009.48434,0.01976
1007.42417,0.01972
1005.36399,0.01957
1003.30382,0.01937
1001.24365,0.01904
999.18348,0.01855
997.12330,0.01829
995.06313,0.01825
993.00296,0.01812
990.94279,0.01806
988.88262,0.01812
986.82244,0.01809
984.76227,0.01789
982.70210,0.01763
980.64193,0.01732
978.58176,0.01695
976.52158,0.01664
974.46141,0.01647
972.40124,0.01633
970.34107,0.01609
968.28089,0.01575
966.22072,0.01541
964.16055,0.01512
962.10038,0.01496
960.04021,0.01489
957.98003,0.01482
955.91986,0.01469
953.85969,0.01446
951.79952,0.01422
949.73935,0.01400
947.67917,0.01364
945.61900,0.01304
943.55883,0.01248
941.49866,0.01220
939.43849,0.01196
937.37831,0.01155
935.31814,0.01108
933.25797,0.01054
931.19780,0.00996
929.13762,0.00957
927.07745,0.00929
925.01728,0.00897
922.95711,0.00856
920.89694,0.00827
918.83676,0.00809
916.77659,0.00775
914.71642,0.00741
912.65625,0.00729
910.59608,0.00719
908.53590,0.00694
906.47573,0.00667
904.41556,0.00660
902.35539,0.00669
900.29522,0.00674
898.23504,0.00670
896.17487,0.00680
894.11470,0.00701
892.05453,0.00709
889.99435,0.00704
887.93418,0.00694
885.87401,0.00679
883.81384,0.00656
881.75367,0.00625
879.69349,0.00601
877.63332,0.00606
875.57315,0.00629
873.51298,0.00643
871.45281,0.00627
869.39263,0.00597
867.33246,0.00586
865.27229,0.00600
863.21212,0.00624
861.15194,0.00641
859.09177,0.00635
857.03160,0.00614
854.97143,0.00596
852.91126,0.00582
850.85108,0.00578
848.79091,0.00574
846.73074,0.00536
844.67057,0.00508
842.61040,0.00543
840.55022,0.00591
838.49005,0.00591
836.42988,0.00551
834.36971,0.00503
832.30954,0.00465
830.24936,0.00453
828.18919,0.00482
826.12902,0.00520
824.06885,0.00527
822.00867,0.00509
819.94850,0.00495
817.88833,0.00500
815.82816,0.00520
813.76799,0.00538
811.70781,0.00546
809.64764,0.00534
807.58747,0.00512
805.52730,0.00501
803.46713,0.00505
801.40695,0.00505
799.34678,0.00505
797.28661,0.00520
795.22644,0.00534
793.16627,0.00544
791.10609,0.00545
789.04592,0.00527
786.98575,0.00508
784.92558,0.00512
782.86540,0.00517
780.80523,0.00489
778.74506,0.00471
776.68489,0.00505
774.62472,0.00531
772.56454,0.00508
770.50437,0.00497
768.44420,0.00511
766.38403,0.00516
764.32386,0.00519
762.26368,0.00525
760.20351,0.00545
758.14334,0.00580
756.08317,0.00604
754.02299,0.00613
751.96282,0.00610
749.90265,0.00565
747.84248,0.00513
745.78231,0.00523
743.72213,0.00573
741.66196,0.00601
739.60179,0.00600
737.54162,0.00610
735.48145,0.00630
733.42127,0.00616
731.36110,0.00579
729.30093,0.00520
727.24076,0.00468
725.18059,0.00498
723.12041,0.00562
721.06024,0.00674
719.00007,0.00654
716.93990,0.00650
714.87972,0.00669
712.81955,0.00703
710.75938,0.00750
708.69921,0.00767
706.63904,0.00739
704.57886,0.00705
702.51869,0.00694
700.45852,0.00673
698.39835,0.00629
696.33818,0.00598
694.27800,0.00576
692.21783,0.00554
690.15766,0.00565
688.09749,0.00619
686.03731,0.00672
683.97714,0.00670
681.91697,0.00643
679.85680,0.00637
677.79663,0.00660
675.73645,0.00693
673.67628,0.00538
671.61611,0.00000
669.55594,0.00110
667.49577,0.01179
665.43559,0.00130
663.37542,0.00296
661.31525,0.00489
659.25508,0.00474
657.19491,0.00517
655.13473,0.00581
653.07456,0.00623
651.01439,0.00680
648.95422,0.00734
646.89404,0.00654
644.83387,0.00580
642.77370,0.00563
640.71353,0.00536
638.65336,0.00439
636.59318,0.00344
634.53301,0.00338
632.47284,0.00389
630.41267,0.00392
628.35250,0.00321
626.29232,0.00213
624.23215,0.00178
622.17198,0.00271
620.11181,0.00371
618.05164,0.00336
615.99146,0.00297
613.93129,0.00394
611.87112,0.00387
609.81095,0.00128
607.75077,-0.00086
605.69060,-0.00077
603.63043,0.00006
601.57026,0.00032
599.51009,0.00000
