3996.73391,0.00042
3994.67373,0.00041
3992.61356,0.00048
3990.55339,0.00065
3988.49322,0.00085
3986.43305,0.00102
3984.37287,0.00110
3982.31270,0.00112
3980.25253,0.00115
3978.19236,0.00115
3976.13219,0.00099
3974.07201,0.00067
3972.01184,0.00035
3969.95167,0.00026
3967.89150,0.00039
3965.83133,0.00057
3963.77115,0.00061
3961.71098,0.00045
3959.65081,0.00018
3957.59064,0.00000
3955.53046,0.00008
3953.47029,0.00042
3951.41012,0.00085
3949.34995,0.00118
3947.28978,0.00136
3945.22960,0.00136
3943.16943,0.00118
3941.10926,0.00088
3939.04909,0.00061
3936.98892,0.00046
3934.92874,0.00046
3932.86857,0.00059
3930.80840,0.00078
3928.74823,0.00099
3926.68805,0.00118
3924.62788,0.00122
3922.56771,0.00106
3920.50754,0.00084
3918.44737,0.00076
3916.38719,0.00084
3914.32702,0.00094
3912.26685,0.00095
3910.20668,0.00095
3908.14651,0.00115
3906.08633,0.00155
3904.02616,0.00195
3901.96599,0.00212
3899.90582,0.00197
3897.84565,0.00162
3895.78547,0.00137
3893.72530,0.00136
3891.66513,0.00146
3889.60496,0.00154
3887.54478,0.00160
3885.48461,0.00159
3883.42444,0.00148
3881.36427,0.00131
3879.30410,0.00118
3877.24392,0.00128
3875.18375,0.00169
3873.12358,0.00213
3871.06341,0.00231
3869.00324,0.00224
3866.94306,0.00220
3864.88289,0.00230
3862.82272,0.00231
3860.76255,0.00221
3858.70237,0.00228
3856.64220,0.00252
3854.58203,0.00256
3852.52186,0.00210
3850.46169,0.00135
3848.40151,0.00082
3846.34134,0.00084
3844.28117,0.00134
3842.22100,0.00201
3840.16083,0.00247
3838.10065,0.00245
3836.04048,0.00202
3833.98031,0.00145
3831.92014,0.00100
3829.85997,0.00081
3827.79979,0.00091
3825.73962,0.00114
3823.67945,0.00133
3821.61928,0.00128
3819.55910,0.00090
3817.49893,0.00047
3815.43876,0.00024
3813.37859,0.00030
3811.31842,0.00071
3809.25824,0.00133
3807.19807,0.00191
3805.13790,0.00230
3803.07773,0.00253
3801.01756,0.00248
3798.95738,0.00212
3796.89721,0.00166
3794.83704,0.00134
3792.77687,0.00126
3790.71670,0.00132
3788.65652,0.00128
3786.59635,0.00108
3784.53618,0.00087
3782.47601,0.00078
3780.41583,0.00086
3778.35566,0.00102
3776.29549,0.00122
3774.23532,0.00151
3772.17515,0.00179
3770.11497,0.00187
3768.05480,0.00174
3765.99463,0.00160
3763.93446,0.00159
3761.87429,0.00168
3759.81411,0.00176
3757.75394,0.00186
3755.69377,0.00224
3753.63360,0.00293
3751.57342,0.00353
3749.51325,0.00364
3747.45308,0.00348
3745.39291,0.00342
3743.33274,0.00355
3741.27256,0.00376
3739.21239,0.00392
3737.15222,0.00390
3735.09205,0.00350
3733.03188,0.00269
3730.97170,0.00185
3728.91153,0.00150
3726.85136,0.00179
3724.79119,0.00238
3722.73102,0.00276
3720.67084,0.00273
3718.61067,0.00250
3716.55050,0.00249
3714.49033,0.00284
3712.43015,0.00316
3710.36998,0.00291
3708.30981,0.00211
3706.24964,0.00130
3704.18947,0.00083
3702.12929,0.00069
3700.06912,0.00077
3698.00895,0.00111
3695.94878,0.00174
3693.88861,0.00247
3691.82843,0.00290
3689.76826,0.00268
3687.70809,0.00190
3685.64792,0.00109
3683.58775,0.00072
3681.52757,0.00091
3679.46740,0.00156
3677.40723,0.00247
3675.34706,0.00331
3673.28688,0.00378
3671.22671,0.00378
3669.16654,0.00333
3667.10637,0.00262
3665.04620,0.00195
3662.98602,0.00151
3660.92585,0.00140
3658.86568,0.00166
3656.80551,0.00218
3654.74534,0.00284
3652.68516,0.00361
3650.62499,0.00427
3648.56482,0.00443
3646.50465,0.00400
3644.44447,0.00333
3642.38430,0.00291
3640.32413,0.00293
3638.26396,0.00336
3636.20379,0.00412
3634.14361,0.00507
3632.08344,0.00593
3630.02327,0.00636
3627.96310,0.00610
3625.90293,0.00536
3623.84275,0.00471
3621.78258,0.00457
3619.72241,0.00496
3617.66224,0.00546
3615.60207,0.00568
3613.54189,0.00561
3611.48172,0.00552
3609.42155,0.00563
3607.36138,0.00589
3605.30120,0.00619
3603.24103,0.00654
3601.18086,0.00684
3599.12069,0.00698
3597.06052,0.00698
3595.00034,0.00696
3592.94017,0.00697
3590.88000,0.00710
3588.81983,0.00741
3586.75966,0.00777
3584.69948,0.00802
3582.63931,0.00820
3580.57914,0.00834
3578.51897,0.00839
3576.45879,0.00840
3574.39862,0.00846
3572.33845,0.00863
3570.27828,0.00891
3568.21811,0.00919
3566.15793,0.00937
3564.09776,0.00950
3562.03759,0.00976
3559.97742,0.01009
3557.91725,0.01031
3555.85707,0.01035
3553.79690,0.01034
3551.73673,0.01039
3549.67656,0.01056
3547.61639,0.01082
3545.55621,0.01100
3543.49604,0.01105
3541.43587,0.01117
3539.37570,0.01150
3537.31552,0.01191
3535.25535,0.01226
3533.19518,0.01261
3531.13501,0.01308
3529.07484,0.01356
3527.01466,0.01380
3524.95449,0.01378
3522.89432,0.01366
3520.83415,0.01363
3518.77398,0.01374
3516.71380,0.01397
3514.65363,0.01424
3512.59346,0.01455
3510.53329,0.01487
3508.47312,0.01516
3506.41294,0.01541
3504.35277,0.01562
3502.29260,0.01585
3500.23243,0.01612
3498.17225,0.01640
3496.11208,0.01660
3494.05191,0.01664
3491.99174,0.01660
3489.93157,0.01657
3487.87139,0.01658
3485.81122,0.01658
3483.75105,0.01659
3481.69088,0.01668
3479.63071,0.01688
3477.57053,0.01714
3475.51036,0.01740
3473.45019,0.01761
3471.39002,0.01782
3469.32984,0.01810
3467.26967,0.01843
3465.20950,0.01873
3463.14933,0.01892
3461.08916,0.01900
3459.02898,0.01908
3456.96881,0.01919
3454.90864,0.01930
3452.84847,0.01939
3450.78830,0.01950
3448.72812,0.01963
3446.66795,0.01981
3444.60778,0.02005
3442.54761,0.02033
3440.48744,0.02057
3438.42726,0.02074
3436.36709,0.02081
3434.30692,0.02074
3432.24675,0.02058
3430.18657,0.02056
3428.12640,0.02086
3426.06623,0.02139
3424.00606,0.02185
3421.94589,0.02208
3419.88571,0.02212
3417.82554,0.02209
3415.76537,0.02209
3413.70520,0.02217
3411.64503,0.02236
3409.58485,0.02266
3407.52468,0.02290
3405.46451,0.02296
3403.40434,0.02285
3401.34416,0.02278
3399.28399,0.02287
3397.22382,0.02308
3395.16365,0.02327
3393.10348,0.02333
3391.04330,0.02333
3388.98313,0.02339
3386.92296,0.02354
3384.86279,0.02369
3382.80262,0.02372
3380.74244,0.02369
3378.68227,0.02380
3376.62210,0.02410
3374.56193,0.02444
3372.50176,0.02463
3370.44158,0.02463
3368.38141,0.02462
3366.32124,0.02472
3364.26107,0.02494
3362.20089,0.02522
3360.14072,0.02540
3358.08055,0.02540
3356.02038,0.02525
3353.96021,0.02507
3351.90003,0.02492
3349.83986,0.02481
3347.77969,0.02475
3345.71952,0.02484
3343.65935,0.02509
3341.59917,0.02539
3339.53900,0.02554
3337.47883,0.02556
3335.41866,0.02558
3333.35849,0.02574
3331.29831,0.02603
3329.23814,0.02630
3327.17797,0.02639
3325.11780,0.02626
3323.05762,0.02604
3320.99745,0.02593
3318.93728,0.02596
3316.87711,0.02596
3314.81694,0.02587
3312.75676,0.02582
3310.69659,0.02594
3308.63642,0.02621
3306.57625,0.02650
3304.51608,0.02667
3302.45590,0.02670
3300.39573,0.02663
3298.33556,0.02655
3296.27539,0.02646
3294.21521,0.02626
3292.15504,0.02597
3290.09487,0.02575
3288.03470,0.02570
3285.97453,0.02578
3283.91435,0.02597
3281.85418,0.02627
3279.79401,0.02659
3277.73384,0.02683
3275.67367,0.02693
3273.61349,0.02682
3271.55332,0.02654
3269.49315,0.02626
3267.43298,0.02614
3265.37281,0.02622
3263.31263,0.02637
3261.25246,0.02645
3259.19229,0.02634
3257.13212,0.02602
3255.07194,0.02564
3253.01177,0.02539
3250.95160,0.02537
3248.89143,0.02553
3246.83126,0.02570
3244.77108,0.02577
3242.71091,0.02580
3240.65074,0.02585
3238.59057,0.02587
3236.53040,0.02577
3234.47022,0.02554
3232.41005,0.02524
3230.34988,0.02497
3228.28971,0.02481
3226.22954,0.02480
3224.16936,0.02492
3222.10919,0.02503
3220.04902,0.02496
3217.98885,0.02470
3215.92867,0.02435
3213.86850,0.02407
3211.80833,0.02395
3209.74816,0.02395
3207.68799,0.02394
3205.62781,0.02380
3203.56764,0.02354
3201.50747,0.02332
3199.44730,0.02324
3197.38713,0.02327
3195.32695,0.02326
3193.26678,0.02316
3191.20661,0.02304
3189.14644,0.02297
3187.08626,0.02288
3185.02609,0.02269
3182.96592,0.02236
3180.90575,0.02197
3178.84558,0.02166
3176.78540,0.02148
3174.72523,0.02137
3172.66506,0.02125
3170.60489,0.02105
3168.54472,0.02081
3166.48454,0.02061
3164.42437,0.02056
3162.36420,0.02069
3160.30403,0.02087
3158.24386,0.02092
3156.18368,0.02078
3154.12351,0.02050
3152.06334,0.02015
3150.00317,0.01983
3147.94299,0.01957
3145.88282,0.01936
3143.82265,0.01922
3141.76248,0.01914
3139.70231,0.01907
3137.64213,0.01891
3135.58196,0.01865
3133.52179,0.01829
3131.46162,0.01788
3129.40145,0.01752
3127.34127,0.01732
3125.28110,0.01727
3123.22093,0.01727
3121.16076,0.01724
3119.10058,0.01715
3117.04041,0.01701
3114.98024,0.01680
3112.92007,0.01654
3110.85990,0.01626
3108.79972,0.01601
3106.73955,0.01580
3104.67938,0.01560
3102.61921,0.01543
3100.55904,0.01528
3098.49886,0.01514
3096.43869,0.01500
3094.37852,0.01484
3092.31835,0.01470
3090.25818,0.01458
3088.19800,0.01445
3086.13783,0.01428
3084.07766,0.01407
3082.01749,0.01383
3079.95731,0.01363
3077.89714,0.01350
3075.83697,0.01342
3073.77680,0.01335
3071.71663,0.01326
3069.65645,0.01312
3067.59628,0.01294
3065.53611,0.01272
3063.47594,0.01252
3061.41577,0.01237
3059.35559,0.01226
3057.29542,0.01214
3055.23525,0.01199
3053.17508,0.01181
3051.11491,0.01166
3049.05473,0.01152
3046.99456,0.01136
3044.93439,0.01115
3042.87422,0.01088
3040.81404,0.01063
3038.75387,0.01048
3036.69370,0.01043
3034.63353,0.01041
3032.57336,0.01040
3030.51318,0.01042
3028.45301,0.01045
3026.39284,0.01041
3024.33267,0.01024
3022.27250,0.00996
3020.21232,0.00964
3018.15215,0.00940
3016.09198,0.00934
3014.03181,0.00941
3011.97163,0.00950
3009.91146,0.00954
3007.85129,0.00951
3005.79112,0.00943
3003.73095,0.00936
3001.67077,0.00932
2999.61060,0.00931
2997.55043,0.00930
2995.49026,0.00920
2993.43009,0.00892
2991.36991,0.00867
2989.30974,0.00867
2987.24957,0.00892
2985.18940,0.00938
2983.12923,0.00998
2981.06905,0.01039
2979.00888,0.01035
2976.94871,0.01002
2974.88854,0.00980
2972.82836,0.00993
2970.76819,0.01030
2968.70802,0.01064
2966.64785,0.01085
2964.58768,0.01105
2962.52750,0.01127
2960.46733,0.01142
2958.40716,0.01145
2956.34699,0.01149
2954.28682,0.01168
2952.22664,0.01198
2950.16647,0.01222
2948.10630,0.01241
2946.04613,0.01273
2943.98596,0.01306
2941.92578,0.01324
2939.86561,0.01340
2937.80544,0.01360
2935.74527,0.01368
2933.68509,0.01356
2931.62492,0.01344
2929.56475,0.01344
2927.50458,0.01345
2925.44441,0.01334
2923.38423,0.01321
2921.32406,0.01325
2919.26389,0.01339
2917.20372,0.01336
2915.14355,0.01318
2913.08337,0.01300
2911.02320,0.01289
2908.96303,0.01286
2906.90286,0.01277
2904.84268,0.01248
2902.78251,0.01224
2900.72234,0.01230
2898.66217,0.01253
2896.60200,0.01265
2894.54182,0.01252
2892.48165,0.01227
2890.42148,0.01200
2888.36131,0.01183
2886.30114,0.01197
2884.24096,0.01235
2882.18079,0.01245
2880.12062,0.01198
2878.06045,0.01124
2876.00028,0.01080
2873.94010,0.01088
2871.87993,0.01118
2869.81976,0.01125
2867.75959,0.01113
2865.69941,0.01107
2863.63924,0.01105
2861.57907,0.01089
2859.51890,0.01057
2857.45873,0.01019
2855.39855,0.00984
2853.33838,0.00962
2851.27821,0.00948
2849.21804,0.00925
2847.15787,0.00900
2845.09769,0.00893
2843.03752,0.00907
2840.97735,0.00921
2838.91718,0.00911
2836.85700,0.00884
2834.79683,0.00872
2832.73666,0.00880
2830.67649,0.00882
2828.61632,0.00862
2826.55614,0.00831
2824.49597,0.00805
2822.43580,0.00793
2820.37563,0.00795
2818.31546,0.00800
2816.25528,0.00805
2814.19511,0.00804
2812.13494,0.00794
2810.07477,0.00784
2808.01460,0.00773
2805.95442,0.00765
2803.89425,0.00769
2801.83408,0.00772
2799.77391,0.00750
2797.71373,0.00722
2795.65356,0.00712
2793.59339,0.00720
2791.53322,0.00733
2789.47305,0.00742
2787.41287,0.00755
2785.35270,0.00770
2783.29253,0.00775
2781.23236,0.00773
2779.17219,0.00771
2777.11201,0.00756
2775.05184,0.00726
2772.99167,0.00703
2770.93150,0.00703
2768.87133,0.00709
2766.81115,0.00699
2764.75098,0.00689
2762.69081,0.00700
2760.63064,0.00716
2758.57046,0.00715
2756.51029,0.00708
2754.45012,0.00708
2752.38995,0.00694
2750.32978,0.00659
2748.26960,0.00629
2746.20943,0.00620
2744.14926,0.00629
2742.08909,0.00650
2740.02892,0.00668
2737.96874,0.00668
2735.90857,0.00657
2733.84840,0.00653
2731.78823,0.00653
2729.72805,0.00638
2727.66788,0.00607
2725.60771,0.00585
2723.54754,0.00588
2721.48737,0.00609
2719.42719,0.00636
2717.36702,0.00658
2715.30685,0.00667
2713.24668,0.00663
2711.18651,0.00654
2709.12633,0.00641
2707.06616,0.00624
2705.00599,0.00608
2702.94582,0.00607
2700.88565,0.00623
2698.82547,0.00642
2696.76530,0.00653
2694.70513,0.00652
2692.64496,0.00639
2690.58478,0.00619
2688.52461,0.00605
2686.46444,0.00598
2684.40427,0.00595
2682.34410,0.00591
2680.28392,0.00582
2678.22375,0.00566
2676.16358,0.00543
2674.10341,0.00535
2672.04324,0.00551
2669.98306,0.00573
2667.92289,0.00572
2665.86272,0.00552
2663.80255,0.00548
2661.74238,0.00577
2659.68220,0.00611
2657.62203,0.00622
2655.56186,0.00618
2653.50169,0.00615
2651.44151,0.00613
2649.38134,0.00604
2647.32117,0.00587
2645.26100,0.00566
2643.20083,0.00551
2641.14065,0.00543
2639.08048,0.00540
2637.02031,0.00546
2634.96014,0.00553
2632.89997,0.00549
2630.83979,0.00550
2628.77962,0.00561
2626.71945,0.00563
2624.65928,0.00544
2622.59910,0.00510
2620.53893,0.00479
2618.47876,0.00472
2616.41859,0.00493
2614.35842,0.00516
2612.29824,0.00515
2610.23807,0.00509
2608.17790,0.00519
2606.11773,0.00530
2604.05756,0.00519
2601.99738,0.00500
2599.93721,0.00497
2597.87704,0.00509
2595.81687,0.00507
2593.75670,0.00475
2591.69652,0.00440
2589.63635,0.00444
2587.57618,0.00483
2585.51601,0.00517
2583.45583,0.00522
2581.39566,0.00514
2579.33549,0.00515
2577.27532,0.00521
2575.21515,0.00512
2573.15497,0.00495
2571.09480,0.00495
2569.03463,0.00504
2566.97446,0.00491
2564.91429,0.00451
2562.85411,0.00418
2560.79394,0.00414
2558.73377,0.00423
2556.67360,0.00422
2554.61342,0.00427
2552.55325,0.00457
2550.49308,0.00480
2548.43291,0.00470
2546.37274,0.00457
2544.31256,0.00464
2542.25239,0.00475
2540.19222,0.00471
2538.13205,0.00462
2536.07188,0.00475
2534.01170,0.00514
2531.95153,0.00528
2529.89136,0.00492
2527.83119,0.00448
2525.77102,0.00432
2523.71084,0.00431
2521.65067,0.00426
2519.59050,0.00413
2517.53033,0.00403
2515.47015,0.00413
2513.40998,0.00435
2511.34981,0.00447
2509.28964,0.00450
2507.22947,0.00458
2505.16929,0.00455
2503.10912,0.00429
2501.04895,0.00395
2498.98878,0.00363
2496.92861,0.00335
2494.86843,0.00331
2492.80826,0.00359
2490.74809,0.00398
2488.68792,0.00427
2486.62775,0.00444
2484.56757,0.00447
2482.50740,0.00441
2480.44723,0.00439
2478.38706,0.00447
2476.32688,0.00444
2474.26671,0.00414
2472.20654,0.00389
2470.14637,0.00407
2468.08620,0.00441
2466.02602,0.00448
2463.96585,0.00430
2461.90568,0.00414
2459.84551,0.00415
2457.78534,0.00444
2455.72516,0.00484
2453.66499,0.00485
2451.60482,0.00434
2449.54465,0.00395
2447.48447,0.00421
2445.42430,0.00482
2443.36413,0.00527
2441.30396,0.00529
2439.24379,0.00492
2437.18361,0.00456
2435.12344,0.00447
2433.06327,0.00459
2431.00310,0.00469
2428.94293,0.00447
2426.88275,0.00396
2424.82258,0.00361
2422.76241,0.00368
2420.70224,0.00404
2418.64207,0.00442
2416.58189,0.00454
2414.52172,0.00442
2412.46155,0.00432
2410.40138,0.00419
2408.34120,0.00381
2406.28103,0.00331
2404.22086,0.00309
2402.16069,0.00320
2400.10052,0.00341
2398.04034,0.00354
2395.98017,0.00362
2393.92000,0.00370
2391.85983,0.00381
2389.79966,0.00388
2387.73948,0.00384
2385.67931,0.00365
2383.61914,0.00349
2381.55897,0.00346
2379.49880,0.00350
2377.43862,0.00344
2375.37845,0.00341
2373.31828,0.00367
2371.25811,0.00423
2369.19793,0.00471
2367.13776,0.00487
2365.07759,0.00491
2363.01742,0.00492
2360.95725,0.00465
2358.89707,0.00421
2356.83690,0.00408
2354.77673,0.00445
2352.71656,0.00498
2350.65639,0.00527
2348.59621,0.00517
2346.53604,0.00481
2344.47587,0.00441
2342.41570,0.00398
2340.35552,0.00342
2338.29535,0.00293
2336.23518,0.00276
2334.17501,0.00290
2332.11484,0.00319
2330.05466,0.00342
2327.99449,0.00345
2325.93432,0.00320
2323.87415,0.00288
2321.81398,0.00283
2319.75380,0.00312
2317.69363,0.00352
2315.63346,0.00394
2313.57329,0.00436
2311.51312,0.00470
2309.45294,0.00482
2307.39277,0.00467
2305.33260,0.00429
2303.27243,0.00389
2301.21225,0.00365
2299.15208,0.00363
2297.09191,0.00382
2295.03174,0.00419
2292.97157,0.00461
2290.91139,0.00499
2288.85122,0.00531
2286.79105,0.00553
2284.73088,0.00558
2282.67071,0.00552
2280.61053,0.00551
2278.55036,0.00561
2276.49019,0.00576
2274.43002,0.00571
2272.36984,0.00528
2270.30967,0.00454
2268.24950,0.00382
2266.18933,0.00345
2264.12916,0.00371
2262.06898,0.00446
2260.00881,0.00519
2257.94864,0.00549
2255.88847,0.00542
2253.82830,0.00526
2251.76812,0.00522
2249.70795,0.00550
2247.64778,0.00612
2245.58761,0.00632
2243.52744,0.00537
2241.46726,0.00407
2239.40709,0.00348
2237.34692,0.00365
2235.28675,0.00409
2233.22657,0.00440
2231.16640,0.00441
2229.10623,0.00411
2227.04606,0.00353
2224.98589,0.00299
2222.92571,0.00281
2220.86554,0.00303
2218.80537,0.00364
2216.74520,0.00433
2214.68503,0.00450
2212.62485,0.00454
2210.56468,0.00511
2208.50451,0.00577
2206.44434,0.00601
2204.38417,0.00585
2202.32399,0.00541
2200.26382,0.00484
2198.20365,0.00443
2196.14348,0.00422
2194.08330,0.00359
2192.02313,0.00240
2189.96296,0.00167
2187.90279,0.00231
2185.84262,0.00390
2183.78244,0.00511
2181.72227,0.00518
2179.66210,0.00487
2177.60193,0.00513
2175.54176,0.00567
2173.48158,0.00586
2171.42141,0.00566
2169.36124,0.00487
2167.30107,0.00339
2165.24089,0.00177
2163.18072,0.00059
2161.12055,0.00001
2159.06038,0.00000
2157.00021,0.00068
2154.94003,0.00201
2152.87986,0.00360
2150.81969,0.00520
2148.75952,0.00600
2146.69935,0.00515
2144.63917,0.00360
2142.57900,0.00332
2140.51883,0.00458
2138.45866,0.00556
2136.39849,0.00498
2134.33831,0.00374
2132.27814,0.00341
2130.21797,0.00416
2128.15780,0.00508
2126.09762,0.00541
2124.03745,0.00493
2121.97728,0.00429
2119.91711,0.00419
2117.85694,0.00452
2115.79676,0.00486
2113.73659,0.00523
2111.67642,0.00543
2109.61625,0.00511
2107.55608,0.00491
2105.49590,0.00539
2103.43573,0.00602
2101.37556,0.00601
2099.31539,0.00517
2097.25521,0.00394
2095.19504,0.00300
2093.13487,0.00282
2091.07470,0.00326
2089.01453,0.00371
2086.95435,0.00383
2084.89418,0.00371
2082.83401,0.00367
2080.77384,0.00395
2078.71367,0.00445
2076.65349,0.00491
2074.59332,0.00521
2072.53315,0.00535
2070.47298,0.00524
2068.41281,0.00476
2066.35263,0.00405
2064.29246,0.00355
2062.23229,0.00351
2060.17212,0.00374
2058.11194,0.00406
2056.05177,0.00437
2053.99160,0.00463
2051.93143,0.00483
2049.87126,0.00488
2047.81108,0.00462
2045.75091,0.00398
2043.69074,0.00311
2041.63057,0.00249
2039.57040,0.00246
2037.51022,0.00285
2035.45005,0.00328
2033.38988,0.00346
2031.32971,0.00316
2029.26954,0.00232
2027.20936,0.00124
2025.14919,0.00042
2023.08902,0.00028
2021.02885,0.00095
2018.96867,0.00219
2016.90850,0.00365
2014.84833,0.00490
2012.78816,0.00554
2010.72799,0.00539
2008.66781,0.00460
2006.60764,0.00371
2004.54747,0.00310
2002.48730,0.00274
2000.42713,0.00241
1998.36695,0.00220
1996.30678,0.00232
1994.24661,0.00280
1992.18644,0.00331
1990.12626,0.00346
1988.06609,0.00311
1986.00592,0.00250
1983.94575,0.00211
1981.88558,0.00216
1979.82540,0.00229
1977.76523,0.00197
1975.70506,0.00118
1973.64489,0.00039
1971.58472,0.00000
1969.52454,0.00011
1967.46437,0.00068
1965.40420,0.00144
1963.34403,0.00184
1961.28386,0.00164
1959.22368,0.00122
1957.16351,0.00109
1955.10334,0.00143
1953.04317,0.00203
1950.98299,0.00251
1948.92282,0.00265
1946.86265,0.00257
1944.80248,0.00251
1942.74231,0.00234
1940.68213,0.00171
1938.62196,0.00073
1936.56179,0.00000
1934.50162,-0.00004
1932.44145,0.00055
1930.38127,0.00135
1928.32110,0.00194
1926.26093,0.00220
1924.20076,0.00223
1922.14059,0.00220
1920.08041,0.00226
1918.02024,0.00243
1915.96007,0.00260
1913.89990,0.00269
1911.83972,0.00276
1909.77955,0.00286
1907.71938,0.00292
1905.65921,0.00271
1903.59904,0.00227
1901.53886,0.00186
1899.47869,0.00168
1897.41852,0.00163
1895.35835,0.00156
1893.29818,0.00152
1891.23800,0.00165
1889.17783,0.00182
1887.11766,0.00181
1885.05749,0.00170
1882.99731,0.00175
1880.93714,0.00199
1878.87697,0.00220
1876.81680,0.00218
1874.75663,0.00195
1872.69645,0.00166
1870.63628,0.00145
1868.57611,0.00130
1866.51594,0.00111
1864.45577,0.00093
1862.39559,0.00096
1860.33542,0.00124
1858.27525,0.00149
1856.21508,0.00145
1854.15491,0.00117
1852.09473,0.00090
1850.03456,0.00084
1847.97439,0.00097
1845.91422,0.00117
1843.85404,0.00135
1841.79387,0.00152
1839.73370,0.00168
1837.67353,0.00175
1835.61336,0.00166
1833.55318,0.00145
1831.49301,0.00124
1829.43284,0.00111
1827.37267,0.00108
1825.31250,0.00113
1823.25232,0.00116
1821.19215,0.00115
1819.13198,0.00112
1817.07181,0.00111
1815.01163,0.00120
1812.95146,0.00146
1810.89129,0.00173
1808.83112,0.00184
1806.77095,0.00175
1804.71077,0.00159
1802.65060,0.00145
1800.59043,0.00135
1798.53026,0.00128
1796.47009,0.00124
1794.40991,0.00123
1792.34974,0.00114
1790.28957,0.00086
1788.22940,0.00051
1786.16923,0.00029
1784.10905,0.00025
1782.04888,0.00025
1779.98871,0.00024
1777.92854,0.00036
1775.86836,0.00073
1773.80819,0.00120
1771.74802,0.00149
1769.68785,0.00152
1767.62768,0.00152
1765.56750,0.00166
1763.50733,0.00190
1761.44716,0.00209
1759.38699,0.00221
1757.32682,0.00241
1755.26664,0.00281
1753.20647,0.00347
1751.14630,0.00431
1749.08613,0.00505
1747.02596,0.00543
1744.96578,0.00547
1742.90561,0.00539
1740.84544,0.00540
1738.78527,0.00564
1736.72509,0.00613
1734.66492,0.00663
1732.60475,0.00677
1730.54458,0.00643
1728.48441,0.00587
1726.42423,0.00539
1724.36406,0.00514
1722.30389,0.00516
1720.24372,0.00536
1718.18355,0.00551
1716.12337,0.00529
1714.06320,0.00472
1712.00303,0.00412
1709.94286,0.00379
1707.88268,0.00378
1705.82251,0.00396
1703.76234,0.00421
1701.70217,0.00449
1699.64200,0.00463
1697.58182,0.00441
1695.52165,0.00383
1693.46148,0.00322
1691.40131,0.00296
1689.34114,0.00311
1687.28096,0.00356
1685.22079,0.00414
1683.16062,0.00463
1681.10045,0.00491
1679.04028,0.00511
1676.98010,0.00539
1674.91993,0.00578
1672.85976,0.00620
1670.79959,0.00658
1668.73941,0.00676
1666.67924,0.00679
1664.61907,0.00693
1662.55890,0.00729
1660.49873,0.00779
1658.43855,0.00847
1656.37838,0.00938
1654.31821,0.01029
1652.25804,0.01078
1650.19787,0.01084
1648.13769,0.01072
1646.07752,0.01050
1644.01735,0.01025
1641.95718,0.01025
1639.89701,0.01060
1637.83683,0.01109
1635.77666,0.01131
1633.71649,0.01107
1631.65632,0.01068
1629.59614,0.01055
1627.53597,0.01081
1625.47580,0.01134
1623.41563,0.01194
1621.35546,0.01237
1619.29528,0.01257
1617.23511,0.01247
1615.17494,0.01202
1613.11477,0.01139
1611.05460,0.01088
1608.99442,0.01051
1606.93425,0.01019
1604.87408,0.00985
1602.81391,0.00948
1600.75373,0.00902
1598.69356,0.00844
1596.63339,0.00781
1594.57322,0.00714
1592.51305,0.00641
1590.45287,0.00567
1588.39270,0.00503
1586.33253,0.00452
1584.27236,0.00413
1582.21219,0.00384
1580.15201,0.00368
1578.09184,0.00358
1576.03167,0.00337
1573.97150,0.00301
1571.91133,0.00270
1569.85115,0.00250
1567.79098,0.00231
1565.73081,0.00223
1563.67064,0.00239
1561.61046,0.00279
1559.55029,0.00309
1557.49012,0.00284
1555.42995,0.00216
1553.36978,0.00151
1551.30960,0.00118
1549.24943,0.00118
1547.18926,0.00151
1545.12909,0.00215
1543.06892,0.00285
1541.00874,0.00315
1538.94857,0.00278
1536.88840,0.00202
1534.82823,0.00139
1532.76805,0.00104
1530.70788,0.00096
1528.64771,0.00120
1526.58754,0.00166
1524.52737,0.00216
1522.46719,0.00247
1520.40702,0.00244
1518.34685,0.00215
1516.28668,0.00176
1514.22651,0.00145
1512.16633,0.00141
1510.10616,0.00169
1508.04599,0.00194
1505.98582,0.00174
1503.92565,0.00123
1501.86547,0.00089
1499.80530,0.00096
1497.74513,0.00121
1495.68496,0.00134
1493.62478,0.00134
1491.56461,0.00144
1489.50444,0.00158
1487.44427,0.00156
1485.38410,0.00138
1483.32392,0.00126
1481.26375,0.00138
1479.20358,0.00179
1477.14341,0.00245
1475.08324,0.00319
1473.02306,0.00368
1470.96289,0.00380
1468.90272,0.00383
1466.84255,0.00408
1464.78238,0.00457
1462.72220,0.00518
1460.66203,0.00587
1458.60186,0.00646
1456.54169,0.00666
1454.48151,0.00647
1452.42134,0.00626
1450.36117,0.00622
1448.30100,0.00627
1446.24083,0.00630
1444.18065,0.00638
1442.12048,0.00664
1440.06031,0.00710
1438.00014,0.00766
1435.93997,0.00811
1433.87979,0.00836
1431.81962,0.00852
1429.75945,0.00868
1427.69928,0.00886
1425.63910,0.00911
1423.57893,0.00946
1421.51876,0.00988
1419.45859,0.01020
1417.39842,0.01021
1415.33824,0.00998
1413.27807,0.00977
1411.21790,0.00970
1409.15773,0.00968
1407.09756,0.00956
1405.03738,0.00928
1402.97721,0.00893
1400.91704,0.00868
1398.85687,0.00859
1396.79670,0.00858
1394.73652,0.00854
1392.67635,0.00845
1390.61618,0.00839
1388.55601,0.00844
1386.49583,0.00854
1384.43566,0.00863
1382.37549,0.00876
1380.31532,0.00897
1378.25515,0.00923
1376.19497,0.00943
1374.13480,0.00953
1372.07463,0.00951
1370.01446,0.00946
1367.95429,0.00944
1365.89411,0.00942
1363.83394,0.00935
1361.77377,0.00918
1359.71360,0.00891
1357.65343,0.00863
1355.59325,0.00838
1353.53308,0.00815
1351.47291,0.00794
1349.41274,0.00777
1347.35256,0.00766
1345.29239,0.00758
1343.23222,0.00754
1341.17205,0.00757
1339.11188,0.00763
1337.05170,0.00763
1334.99153,0.00753
1332.93136,0.00737
1330.87119,0.00720
1328.81102,0.00708
1326.75084,0.00709
1324.69067,0.00727
1322.63050,0.00756
1320.57033,0.00784
1318.51015,0.00804
1316.44998,0.00812
1314.38981,0.00808
1312.32964,0.00793
1310.26947,0.00772
1308.20929,0.00749
1306.14912,0.00724
1304.08895,0.00699
1302.02878,0.00676
1299.96861,0.00664
1297.90843,0.00665
1295.84826,0.00669
1293.78809,0.00667
1291.72792,0.00659
1289.66775,0.00653
1287.60757,0.00653
1285.54740,0.00654
1283.48723,0.00650
1281.42706,0.00641
1279.36688,0.00630
1277.30671,0.00622
1275.24654,0.00623
1273.18637,0.00634
1271.12620,0.00656
1269.06602,0.00686
1267.00585,0.00720
1264.94568,0.00754
1262.88551,0.00787
1260.82534,0.00823
1258.76516,0.00863
1256.70499,0.00906
1254.64482,0.00945
1252.58465,0.00974
1250.52447,0.00986
1248.46430,0.00987
1246.40413,0.00986
1244.34396,0.00985
1242.28379,0.00979
1240.22361,0.00963
1238.16344,0.00939
1236.10327,0.00906
1234.04310,0.00869
1231.98293,0.00827
1229.92275,0.00785
1227.86258,0.00752
1225.80241,0.00732
1223.74224,0.00725
1221.68207,0.00718
1219.62189,0.00695
1217.56172,0.00652
1215.50155,0.00595
1213.44138,0.00534
1211.38120,0.00474
1209.32103,0.00421
1207.26086,0.00370
1205.20069,0.00316
1203.14052,0.00255
1201.08034,0.00192
1199.02017,0.00132
1196.96000,0.00080
1194.89983,0.00032
1192.83966,0.00000
1190.77948,-0.00009
1188.71931,-0.00002
1186.65914,0.00001
1184.59897,-0.00002
1182.53880,0.00004
1180.47862,0.00035
1178.41845,0.00093
1176.35828,0.00157
1174.29811,0.00212
1172.23793,0.00266
1170.17776,0.00333
1168.11759,0.00407
1166.05742,0.00471
1163.99725,0.00525
1161.93707,0.00580
1159.87690,0.00636
1157.81673,0.00696
1155.75656,0.00766
1153.69639,0.00837
1151.63621,0.00898
1149.57604,0.00952
1147.51587,0.00988
1145.45570,0.01000
1143.39552,0.01011
1141.33535,0.01043
1139.27518,0.01072
1137.21501,0.01078
1135.15484,0.01079
1133.09466,0.01099
1131.03449,0.01137
1128.97432,0.01185
1126.91415,0.01235
1124.85398,0.01289
1122.79380,0.01348
1120.73363,0.01409
1118.67346,0.01479
1116.61329,0.01555
1114.55312,0.01621
1112.49294,0.01678
1110.43277,0.01726
1108.37260,0.01768
1106.31243,0.01815
1104.25225,0.01867
1102.19208,0.01926
1100.13191,0.02005
1098.07174,0.02108
1096.01157,0.02210
1093.95139,0.02289
1091.89122,0.02357
1089.83105,0.02424
1087.77088,0.02489
1085.71071,0.02560
1083.65053,0.02648
1081.59036,0.02740
1079.53019,0.02809
1077.47002,0.02858
1075.40985,0.02915
1073.34967,0.02991
1071.28950,0.03067
1069.22933,0.03131
1067.16916,0.03182
1065.10898,0.03217
1063.04881,0.03225
1060.98864,0.03211
1058.92847,0.03209
1056.86830,0.03245
1054.80812,0.03304
1052.74795,0.03359
1050.68778,0.03403
1048.62761,0.03449
1046.56744,0.03509
1044.50726,0.03570
1042.44709,0.03622
1040.38692,0.03662
1038.32675,0.03686
1036.26657,0.03708
1034.20640,0.03741
1032.14623,0.03779
1030.08606,0.03804
1028.02589,0.03813
1025.96571,0.03801
1023.90554,0.03768
1021.84537,0.03738
1019.78520,0.03731
1017.72503,0.03735
1015.66485,0.03736
1013.60468,0.03746
1011.54451,0.03772
1009.48434,0.03786
1007.42417,0.03762
1005.36399,0.03710
1003.30382,0.03651
1001.24365,0.03609
999.18348,0.03602
997.12330,0.03599
995.06313,0.03565
993.00296,0.03506
990.94279,0.03442
988.88262,0.03385
986.82244,0.03341
984.76227,0.03311
982.70210,0.03289
980.64193,0.03253
978.58176,0.03199
976.52158,0.03144
974.46141,0.03103
972.40124,0.03056
970.34107,0.02998
968.28089,0.02959
966.22072,0.02956
964.16055,0.02960
962.10038,0.02935
960.04021,0.02882
957.98003,0.02825
955.91986,0.02770
953.85969,0.02720
951.79952,0.02678
949.73935,0.02637
947.67917,0.02576
945.61900,0.02478
943.55883,0.02346
941.49866,0.02208
939.43849,0.02095
937.37831,0.01997
935.31814,0.01889
933.25797,0.01762
931.19780,0.01621
929.13762,0.01493
927.07745,0.01399
925.01728,0.01325
922.95711,0.01241
920.89694,0.01137
918.83676,0.01035
916.77659,0.00952
914.71642,0.00890
912.65625,0.00839
910.59608,0.00787
908.53590,0.00740
906.47573,0.00710
904.41556,0.00690
902.35539,0.00684
900.29522,0.00687
898.23504,0.00676
896.17487,0.00659
894.11470,0.00652
892.05453,0.00649
889.99435,0.00656
887.93418,0.00671
885.87401,0.00674
883.81384,0.00658
881.75367,0.00626
879.69349,0.00572
877.63332,0.00497
875.57315,0.00435
873.51298,0.00398
871.45281,0.00366
869.39263,0.00335
867.33246,0.00333
865.27229,0.00351
863.21212,0.00355
861.15194,0.00337
859.09177,0.00304
857.03160,0.00253
854.97143,0.00206
852.91126,0.00205
850.85108,0.00250
848.79091,0.00279
846.73074,0.00246
844.67057,0.00165
842.61040,0.00089
840.55022,0.00057
838.49005,0.00056
836.42988,0.00042
834.36971,0.00012
832.30954,0.00000
830.24936,0.00014
828.18919,0.00029
826.12902,0.00042
824.06885,0.00058
822.00867,0.00068
819.94850,0.00070
817.88833,0.00071
815.82816,0.00088
813.76799,0.00118
811.70781,0.00135
809.64764,0.00159
807.58747,0.00231
805.52730,0.00307
803.46713,0.00301
801.40695,0.00218
799.34678,0.00141
797.28661,0.00118
795.22644,0.00113
793.16627,0.00080
791.10609,0.00029
789.04592,0.00000
786.98575,-0.00006
784.92558,-0.00002
782.86540,0.00022
780.80523,0.00068
778.74506,0.00110
776.68489,0.00145
774.62472,0.00189
772.56454,0.00202
770.50437,0.00141
768.44420,0.00054
766.38403,0.00014
764.32386,0.00027
762.26368,0.00064
760.20351,0.00098
758.14334,0.00121
756.08317,0.00143
754.02299,0.00173
751.96282,0.00197
749.90265,0.00197
747.84248,0.00184
745.78231,0.00183
743.72213,0.00190
741.66196,0.00173
739.60179,0.00136
737.54162,0.00118
735.48145,0.00129
733.42127,0.00146
731.36110,0.00141
729.30093,0.00098
727.24076,0.00035
725.18059,0.00000
723.12041,0.00002
721.06024,0.00025
719.00007,0.00058
716.93990,0.00107
714.87972,0.00170
712.81955,0.00223
710.75938,0.00229
708.69921,0.00179
706.63904,0.00135
704.57886,0.00163
702.51869,0.00265
700.45852,0.00390
698.39835,0.00496
696.33818,0.00559
694.27800,0.00557
692.21783,0.00483
690.15766,0.00374
688.09749,0.00274
686.03731,0.00204
683.97714,0.00170
681.91697,0.00179
679.85680,0.00228
677.79663,0.00295
675.73645,0.00354
673.67628,0.00412
671.61611,0.00481
669.55594,0.00526
667.49577,0.00486
665.43559,0.00369
663.37542,0.00272
661.31525,0.00277
659.25508,0.00369
657.19491,0.00474
655.13473,0.00545
653.07456,0.00582
651.01439,0.00575
648.95422,0.00515
646.89404,0.00440
644.83387,0.00396
642.77370,0.00381
640.71353,0.00360
638.65336,0.00300
636.59318,0.00194
634.53301,0.00073
632.47284,0.00000
630.41267,-0.00028
628.35250,0.00042
626.29232,0.00235
624.23215,0.00585
622.17198,0.00914
620.11181,0.00925
618.05164,0.00545
615.99146,0.00090
613.93129,-0.00087
611.87112,-0.00027
609.81095,-0.00015
607.75077,-0.00101
605.69060,-0.00090
603.63043,0.00044
601.57026,0.00096
599.51009,0.00000
