3996.73391,0.00020
3994.67373,0.00050
3992.61356,0.00068
3990.55339,0.00059
3988.49322,0.00034
3986.43305,0.00018
3984.37287,0.00022
3982.31270,0.00025
3980.25253,0.00011
3978.19236,0.00007
3976.13219,0.00015
3974.07201,0.00013
3972.01184,0.00005
3969.95167,0.00005
3967.89150,0.00017
3965.83133,0.00033
3963.77115,0.00037
3961.71098,0.00025
3959.65081,0.00011
3957.59064,0.00009
3955.53046,0.00009
3953.47029,0.00002
3951.41012,0.00000
3949.34995,0.00009
3947.28978,0.00023
3945.22960,0.00032
3943.16943,0.00026
3941.10926,0.00018
3939.04909,0.00024
3936.98892,0.00031
3934.92874,0.00025
3932.86857,0.00021
3930.80840,0.00037
3928.74823,0.00054
3926.68805,0.00046
3924.62788,0.00028
3922.56771,0.00032
3920.50754,0.00047
3918.44737,0.00042
3916.38719,0.00017
3914.32702,0.00000
3912.26685,0.00007
3910.20668,0.00042
3908.14651,0.00096
3906.08633,0.00123
3904.02616,0.00093
3901.96599,0.00046
3899.90582,0.00015
3897.84565,-0.00001
3895.78547,0.00016
3893.72530,0.00054
3891.66513,0.00068
3889.60496,0.00068
3887.54478,0.00068
3885.48461,0.00048
3883.42444,0.00029
3881.36427,0.00022
3879.30410,0.00016
3877.24392,0.00046
3875.18375,0.00099
3873.12358,0.00120
3871.06341,0.00095
3869.00324,0.00062
3866.94306,0.00076
3864.88289,0.00103
3862.82272,0.00075
3860.76255,0.00041
3858.70237,0.00083
3856.64220,0.00181
3854.58203,0.00210
3852.52186,0.00105
3850.46169,0.00016
3848.40151,0.00027
3846.34134,0.00075
3844.28117,0.00110
3842.22100,0.00136
3840.16083,0.00154
3838.10065,0.00130
3836.04048,0.00078
3833.98031,0.00063
3831.92014,0.00074
3829.85997,0.00067
3827.79979,0.00043
3825.73962,0.00026
3823.67945,0.00041
3821.61928,0.00074
3819.55910,0.00093
3817.49893,0.00095
3815.43876,0.00057
3813.37859,0.00016
3811.31842,0.00026
3809.25824,0.00060
3807.19807,0.00059
3805.13790,0.00025
3803.07773,0.00003
3801.01756,0.00000
3798.95738,0.00029
3796.89721,0.00052
3794.83704,0.00041
3792.77687,0.00038
3790.71670,0.00063
3788.65652,0.00093
3786.59635,0.00102
3784.53618,0.00087
3782.47601,0.00068
3780.41583,0.00046
3778.35566,0.00022
3776.29549,0.00029
3774.23532,0.00073
3772.17515,0.00114
3770.11497,0.00109
3768.05480,0.00078
3765.99463,0.00069
3763.93446,0.00080
3761.87429,0.00097
3759.81411,0.00097
3757.75394,0.00086
3755.69377,0.00102
3753.63360,0.00136
3751.57342,0.00124
3749.51325,0.00068
3747.45308,0.00049
3745.39291,0.00057
3743.33274,0.00068
3741.27256,0.00109
3739.21239,0.00162
3737.15222,0.00179
3735.09205,0.00137
3733.03188,0.00064
3730.97170,0.00023
3728.91153,0.00035
3726.85136,0.00064
3724.79119,0.00064
3722.73102,0.00046
3720.67084,0.00049
3718.61067,0.00060
3716.55050,0.00083
3714.49033,0.00126
3712.43015,0.00145
3710.36998,0.00112
3708.30981,0.00073
3706.24964,0.00057
3704.18947,0.00049
3702.12929,0.00052
3700.06912,0.00070
3698.00895,0.00067
3695.94878,0.00044
3693.88861,0.00051
3691.82843,0.00096
3689.76826,0.00097
3687.70809,0.00035
3685.64792,0.00000
3683.58775,0.00023
3681.52757,0.00067
3679.46740,0.00109
3677.40723,0.00121
3675.34706,0.00087
3673.28688,0.00072
3671.22671,0.00105
3669.16654,0.00121
3667.10637,0.00114
3665.04620,0.00121
3662.98602,0.00144
3660.92585,0.00170
3658.86568,0.00194
3656.80551,0.00197
3654.74534,0.00176
3652.68516,0.00183
3650.62499,0.00216
3648.56482,0.00202
3646.50465,0.00165
3644.44447,0.00188
3642.38430,0.00242
3640.32413,0.00273
3638.26396,0.00280
3636.20379,0.00281
3634.14361,0.00276
3632.08344,0.00263
3630.02327,0.00222
3627.96310,0.00188
3625.90293,0.00237
3623.84275,0.00327
3621.78258,0.00381
3619.72241,0.00396
3617.66224,0.00406
3615.60207,0.00417
3613.54189,0.00420
3611.48172,0.00422
3609.42155,0.00428
3607.36138,0.00436
3605.30120,0.00465
3603.24103,0.00507
3601.18086,0.00523
3599.12069,0.00525
3597.06052,0.00541
3595.00034,0.00561
3592.94017,0.00577
3590.88000,0.00600
3588.81983,0.00610
3586.75966,0.00599
3584.69948,0.00609
3582.63931,0.00655
3580.57914,0.00697
3578.51897,0.00714
3576.45879,0.00708
3574.39862,0.00699
3572.33845,0.00733
3570.27828,0.00807
3568.21811,0.00848
3566.15793,0.00846
3564.09776,0.00856
3562.03759,0.00881
3559.97742,0.00895
3557.91725,0.00892
3555.85707,0.00886
3553.79690,0.00907
3551.73673,0.00959
3549.67656,0.01012
3547.61639,0.01038
3545.55621,0.01033
3543.49604,0.01026
3541.43587,0.01044
3539.37570,0.01069
3537.31552,0.01081
3535.25535,0.01086
3533.19518,0.01101
3531.13501,0.01129
3529.07484,0.01164
3527.01466,0.01193
3524.95449,0.01201
3522.89432,0.01209
3520.83415,0.01232
3518.77398,0.01260
3516.71380,0.01285
3514.65363,0.01304
3512.59346,0.01313
3510.53329,0.01324
3508.47312,0.01349
3506.41294,0.01376
3504.35277,0.01386
3502.29260,0.01385
3500.23243,0.01397
3498.17225,0.01423
3496.11208,0.01447
3494.05191,0.01475
3491.99174,0.01504
3489.93157,0.01514
3487.87139,0.01505
3485.81122,0.01509
3483.75105,0.01546
3481.69088,0.01587
3479.63071,0.01591
3477.57053,0.01585
3475.51036,0.01618
3473.45019,0.01673
3471.39002,0.01713
3469.32984,0.01732
3467.26967,0.01732
3465.20950,0.01720
3463.14933,0.01729
3461.08916,0.01767
3459.02898,0.01799
3456.96881,0.01806
3454.90864,0.01801
3452.84847,0.01798
3450.78830,0.01803
3448.72812,0.01824
3446.66795,0.01855
3444.60778,0.01876
3442.54761,0.01881
3440.48744,0.01875
3438.42726,0.01876
3436.36709,0.01891
3434.30692,0.01916
3432.24675,0.01941
3430.18657,0.01962
3428.12640,0.01984
3426.06623,0.01997
3424.00606,0.02001
3421.94589,0.02011
3419.88571,0.02025
3417.82554,0.02033
3415.76537,0.02054
3413.70520,0.02093
3411.64503,0.02118
3409.58485,0.02123
3407.52468,0.02129
3405.46451,0.02131
3403.40434,0.02125
3401.34416,0.02129
3399.28399,0.02148
3397.22382,0.02165
3395.16365,0.02177
3393.10348,0.02178
3391.04330,0.02173
3388.98313,0.02186
3386.92296,0.02219
3384.86279,0.02244
3382.80262,0.02251
3380.74244,0.02248
3378.68227,0.02248
3376.62210,0.02263
3374.56193,0.02282
3372.50176,0.02289
3370.44158,0.02290
3368.38141,0.02302
3366.32124,0.02321
3364.26107,0.02334
3362.20089,0.02336
3360.14072,0.02325
3358.08055,0.02315
3356.02038,0.02318
3353.96021,0.02325
3351.90003,0.02328
3349.83986,0.02329
3347.77969,0.02334
3345.71952,0.02345
3343.65935,0.02370
3341.59917,0.02400
3339.53900,0.02409
3337.47883,0.02402
3335.41866,0.02405
3333.35849,0.02406
3331.29831,0.02395
3329.23814,0.02394
3327.17797,0.02410
3325.11780,0.02423
3323.05762,0.02423
3320.99745,0.02408
3318.93728,0.02396
3316.87711,0.02409
3314.81694,0.02438
3312.75676,0.02456
3310.69659,0.02446
3308.63642,0.02417
3306.57625,0.02393
3304.51608,0.02394
3302.45590,0.02415
3300.39573,0.02427
3298.33556,0.02412
3296.27539,0.02399
3294.21521,0.02413
3292.15504,0.02431
3290.09487,0.02423
3288.03470,0.02402
3285.97453,0.02402
3283.91435,0.02416
3281.85418,0.02421
3279.79401,0.02424
3277.73384,0.02433
3275.67367,0.02438
3273.61349,0.02435
3271.55332,0.02433
3269.49315,0.02438
3267.43298,0.02442
3265.37281,0.02435
3263.31263,0.02420
3261.25246,0.02408
3259.19229,0.02399
3257.13212,0.02397
3255.07194,0.02410
3253.01177,0.02430
3250.95160,0.02426
3248.89143,0.02396
3246.83126,0.02379
3244.77108,0.02382
3242.71091,0.02382
3240.65074,0.02378
3238.59057,0.02378
3236.53040,0.02384
3234.47022,0.02378
3232.41005,0.02343
3230.34988,0.02310
3228.28971,0.02312
3226.22954,0.02328
3224.16936,0.02335
3222.10919,0.02326
3220.04902,0.02294
3217.98885,0.02259
3215.92867,0.02248
3213.86850,0.02247
3211.80833,0.02248
3209.74816,0.02254
3207.68799,0.02250
3205.62781,0.02235
3203.56764,0.02225
3201.50747,0.02213
3199.44730,0.02197
3197.38713,0.02185
3195.32695,0.02173
3193.26678,0.02150
3191.20661,0.02120
3189.14644,0.02095
3187.08626,0.02099
3185.02609,0.02114
3182.96592,0.02099
3180.90575,0.02052
3178.84558,0.02007
3176.78540,0.01991
3174.72523,0.02002
3172.66506,0.02010
3170.60489,0.02001
3168.54472,0.01990
3166.48454,0.01975
3164.42437,0.01950
3162.36420,0.01929
3160.30403,0.01916
3158.24386,0.01900
3156.18368,0.01878
3154.12351,0.01854
3152.06334,0.01830
3150.00317,0.01814
3147.94299,0.01801
3145.88282,0.01777
3143.82265,0.01761
3141.76248,0.01758
3139.70231,0.01741
3137.64213,0.01710
3135.58196,0.01683
3133.52179,0.01669
3131.46162,0.01665
3129.40145,0.01669
3127.34127,0.01672
3125.28110,0.01661
3123.22093,0.01634
3121.16076,0.01609
3119.10058,0.01592
3117.04041,0.01584
3114.98024,0.01582
3112.92007,0.01566
3110.85990,0.01542
3108.79972,0.01518
3106.73955,0.01492
3104.67938,0.01468
3102.61921,0.01445
3100.55904,0.01424
3098.49886,0.01415
3096.43869,0.01418
3094.37852,0.01412
3092.31835,0.01390
3090.25818,0.01373
3088.19800,0.01362
3086.13783,0.01345
3084.07766,0.01326
3082.01749,0.01306
3079.95731,0.01283
3077.89714,0.01255
3075.83697,0.01233
3073.77680,0.01226
3071.71663,0.01227
3069.65645,0.01232
3067.59628,0.01235
3065.53611,0.01217
3063.47594,0.01180
3061.41577,0.01154
3059.35559,0.01143
3057.29542,0.01133
3055.23525,0.01129
3053.17508,0.01131
3051.11491,0.01120
3049.05473,0.01095
3046.99456,0.01077
3044.93439,0.01073
3042.87422,0.01071
3040.81404,0.01060
3038.75387,0.01046
3036.69370,0.01040
3034.63353,0.01034
3032.57336,0.01012
3030.51318,0.00985
3028.45301,0.00971
3026.39284,0.00964
3024.33267,0.00956
3022.27250,0.00949
3020.21232,0.00940
3018.15215,0.00927
3016.09198,0.00915
3014.03181,0.00913
3011.97163,0.00912
3009.91146,0.00899
3007.85129,0.00886
3005.79112,0.00883
3003.73095,0.00894
3001.67077,0.00904
2999.61060,0.00896
2997.55043,0.00880
2995.49026,0.00871
2993.43009,0.00869
2991.36991,0.00884
2989.30974,0.00898
2987.24957,0.00894
2985.18940,0.00892
2983.12923,0.00902
2981.06905,0.00914
2979.00888,0.00924
2976.94871,0.00925
2974.88854,0.00926
2972.82836,0.00940
2970.76819,0.00958
2968.70802,0.00973
2966.64785,0.00996
2964.58768,0.01023
2962.52750,0.01041
2960.46733,0.01053
2958.40716,0.01079
2956.34699,0.01119
2954.28682,0.01142
2952.22664,0.01146
2950.16647,0.01154
2948.10630,0.01178
2946.04613,0.01205
2943.98596,0.01211
2941.92578,0.01209
2939.86561,0.01218
2937.80544,0.01233
2935.74527,0.01250
2933.68509,0.01276
2931.62492,0.01287
2929.56475,0.01267
2927.50458,0.01243
2925.44441,0.01240
2923.38423,0.01260
2921.32406,0.01266
2919.26389,0.01246
2917.20372,0.01222
2915.14355,0.01204
2913.08337,0.01184
2911.02320,0.01168
2908.96303,0.01161
2906.90286,0.01158
2904.84268,0.01163
2902.78251,0.01170
2900.72234,0.01163
2898.66217,0.01157
2896.60200,0.01160
2894.54182,0.01156
2892.48165,0.01145
2890.42148,0.01135
2888.36131,0.01126
2886.30114,0.01114
2884.24096,0.01098
2882.18079,0.01093
2880.12062,0.01092
2878.06045,0.01079
2876.00028,0.01062
2873.94010,0.01060
2871.87993,0.01064
2869.81976,0.01049
2867.75959,0.01020
2865.69941,0.01003
2863.63924,0.00999
2861.57907,0.00995
2859.51890,0.00987
2857.45873,0.00971
2855.39855,0.00947
2853.33838,0.00926
2851.27821,0.00907
2849.21804,0.00889
2847.15787,0.00880
2845.09769,0.00877
2843.03752,0.00877
2840.97735,0.00874
2838.91718,0.00870
2836.85700,0.00866
2834.79683,0.00851
2832.73666,0.00822
2830.67649,0.00794
2828.61632,0.00781
2826.55614,0.00783
2824.49597,0.00794
2822.43580,0.00800
2820.37563,0.00796
2818.31546,0.00784
2816.25528,0.00768
2814.19511,0.00751
2812.13494,0.00742
2810.07477,0.00741
2808.01460,0.00736
2805.95442,0.00728
2803.89425,0.00729
2801.83408,0.00738
2799.77391,0.00740
2797.71373,0.00732
2795.65356,0.00720
2793.59339,0.00712
2791.53322,0.00707
2789.47305,0.00694
2787.41287,0.00676
2785.35270,0.00667
2783.29253,0.00672
2781.23236,0.00691
2779.17219,0.00708
2777.11201,0.00701
2775.05184,0.00681
2772.99167,0.00672
2770.93150,0.00670
2768.87133,0.00662
2766.81115,0.00653
2764.75098,0.00653
2762.69081,0.00651
2760.63064,0.00643
2758.57046,0.00644
2756.51029,0.00650
2754.45012,0.00641
2752.38995,0.00627
2750.32978,0.00618
2748.26960,0.00613
2746.20943,0.00617
2744.14926,0.00626
2742.08909,0.00637
2740.02892,0.00642
2737.96874,0.00633
2735.90857,0.00621
2733.84840,0.00613
2731.78823,0.00609
2729.72805,0.00608
2727.66788,0.00610
2725.60771,0.00612
2723.54754,0.00613
2721.48737,0.00621
2719.42719,0.00631
2717.36702,0.00625
2715.30685,0.00607
2713.24668,0.00599
2711.18651,0.00611
2709.12633,0.00625
2707.06616,0.00618
2705.00599,0.00603
2702.94582,0.00599
2700.88565,0.00606
2698.82547,0.00613
2696.76530,0.00605
2694.70513,0.00580
2692.64496,0.00563
2690.58478,0.00562
2688.52461,0.00556
2686.46444,0.00549
2684.40427,0.00548
2682.34410,0.00544
2680.28392,0.00543
2678.22375,0.00549
2676.16358,0.00550
2674.10341,0.00548
2672.04324,0.00547
2669.98306,0.00539
2667.92289,0.00530
2665.86272,0.00530
2663.80255,0.00540
2661.74238,0.00563
2659.68220,0.00586
2657.62203,0.00589
2655.56186,0.00571
2653.50169,0.00546
2651.44151,0.00533
2649.38134,0.00537
2647.32117,0.00550
2645.26100,0.00557
2643.20083,0.00552
2641.14065,0.00542
2639.08048,0.00536
2637.02031,0.00531
2634.96014,0.00521
2632.89997,0.00507
2630.83979,0.00493
2628.77962,0.00492
2626.71945,0.00510
2624.65928,0.00515
2622.59910,0.00490
2620.53893,0.00467
2618.47876,0.00468
2616.41859,0.00473
2614.35842,0.00461
2612.29824,0.00449
2610.23807,0.00450
2608.17790,0.00450
2606.11773,0.00444
2604.05756,0.00434
2601.99738,0.00423
2599.93721,0.00429
2597.87704,0.00456
2595.81687,0.00466
2593.75670,0.00443
2591.69652,0.00420
2589.63635,0.00424
2587.57618,0.00438
2585.51601,0.00442
2583.45583,0.00444
2581.39566,0.00448
2579.33549,0.00446
2577.27532,0.00445
2575.21515,0.00444
2573.15497,0.00432
2571.09480,0.00420
2569.03463,0.00422
2566.97446,0.00433
2564.91429,0.00438
2562.85411,0.00436
2560.79394,0.00431
2558.73377,0.00421
2556.67360,0.00420
2554.61342,0.00428
2552.55325,0.00434
2550.49308,0.00434
2548.43291,0.00428
2546.37274,0.00424
2544.31256,0.00417
2542.25239,0.00406
2540.19222,0.00409
2538.13205,0.00424
2536.07188,0.00423
2534.01170,0.00394
2531.95153,0.00363
2529.89136,0.00361
2527.83119,0.00378
2525.77102,0.00372
2523.71084,0.00336
2521.65067,0.00323
2519.59050,0.00338
2517.53033,0.00343
2515.47015,0.00349
2513.40998,0.00358
2511.34981,0.00351
2509.28964,0.00355
2507.22947,0.00367
2505.16929,0.00358
2503.10912,0.00349
2501.04895,0.00346
2498.98878,0.00341
2496.92861,0.00350
2494.86843,0.00356
2492.80826,0.00354
2490.74809,0.00361
2488.68792,0.00374
2486.62775,0.00380
2484.56757,0.00369
2482.50740,0.00355
2480.44723,0.00344
2478.38706,0.00335
2476.32688,0.00332
2474.26671,0.00326
2472.20654,0.00317
2470.14637,0.00313
2468.08620,0.00331
2466.02602,0.00358
2463.96585,0.00358
2461.90568,0.00346
2459.84551,0.00348
2457.78534,0.00355
2455.72516,0.00349
2453.66499,0.00336
2451.60482,0.00338
2449.54465,0.00346
2447.48447,0.00338
2445.42430,0.00339
2443.36413,0.00341
2441.30396,0.00330
2439.24379,0.00332
2437.18361,0.00351
2435.12344,0.00363
2433.06327,0.00345
2431.00310,0.00317
2428.94293,0.00302
2426.88275,0.00292
2424.82258,0.00296
2422.76241,0.00324
2420.70224,0.00348
2418.64207,0.00338
2416.58189,0.00305
2414.52172,0.00286
2412.46155,0.00295
2410.40138,0.00316
2408.34120,0.00334
2406.28103,0.00342
2404.22086,0.00330
2402.16069,0.00310
2400.10052,0.00295
2398.04034,0.00273
2395.98017,0.00262
2393.92000,0.00267
2391.85983,0.00282
2389.79966,0.00303
2387.73948,0.00324
2385.67931,0.00337
2383.61914,0.00341
2381.55897,0.00324
2379.49880,0.00286
2377.43862,0.00257
2375.37845,0.00243
2373.31828,0.00243
2371.25811,0.00267
2369.19793,0.00340
2367.13776,0.00436
2365.07759,0.00440
2363.01742,0.00318
2360.95725,0.00292
2358.89707,0.00312
2356.83690,0.00297
2354.77673,0.00259
2352.71656,0.00246
2350.65639,0.00328
2348.59621,0.00390
2346.53604,0.00294
2344.47587,0.00289
2342.41570,0.00290
2340.35552,0.00276
2338.29535,0.00281
2336.23518,0.00243
2334.17501,0.00181
2332.11484,0.00161
2330.05466,0.00229
2327.99449,0.00320
2325.93432,0.00376
2323.87415,0.00314
2321.81398,0.00240
2319.75380,0.00229
2317.69363,0.00295
2315.63346,0.00334
2313.57329,0.00327
2311.51312,0.00309
2309.45294,0.00301
2307.39277,0.00322
2305.33260,0.00363
2303.27243,0.00387
2301.21225,0.00380
2299.15208,0.00377
2297.09191,0.00380
2295.03174,0.00376
2292.97157,0.00372
2290.91139,0.00377
2288.85122,0.00382
2286.79105,0.00376
2284.73088,0.00360
2282.67071,0.00337
2280.61053,0.00328
2278.55036,0.00357
2276.49019,0.00396
2274.43002,0.00405
2272.36984,0.00397
2270.30967,0.00383
2268.24950,0.00343
2266.18933,0.00311
2264.12916,0.00322
2262.06898,0.00330
2260.00881,0.00310
2257.94864,0.00310
2255.88847,0.00334
2253.82830,0.00357
2251.76812,0.00365
2249.70795,0.00362
2247.64778,0.00376
2245.58761,0.00393
2243.52744,0.00373
2241.46726,0.00324
2239.40709,0.00305
2237.34692,0.00319
2235.28675,0.00327
2233.22657,0.00360
2231.16640,0.00412
2229.10623,0.00421
2227.04606,0.00389
2224.98589,0.00338
2222.92571,0.00292
2220.86554,0.00269
2218.80537,0.00243
2216.74520,0.00238
2214.68503,0.00320
2212.62485,0.00437
2210.56468,0.00456
2208.50451,0.00400
2206.44434,0.00374
2204.38417,0.00371
2202.32399,0.00369
2200.26382,0.00383
2198.20365,0.00385
2196.14348,0.00361
2194.08330,0.00357
2192.02313,0.00363
2189.96296,0.00351
2187.90279,0.00338
2185.84262,0.00310
2183.78244,0.00273
2181.72227,0.00247
2179.66210,0.00232
2177.60193,0.00244
2175.54176,0.00256
2173.48158,0.00256
2171.42141,0.00287
2169.36124,0.00317
2167.30107,0.00307
2165.24089,0.00280
2163.18072,0.00207
2161.12055,0.00085
2159.06038,0.00000
2157.00021,0.00002
2154.94003,0.00011
2152.87986,-0.00004
2150.81969,0.00018
2148.75952,0.00045
2146.69935,0.00077
2144.63917,0.00191
2142.57900,0.00316
2140.51883,0.00320
2138.45866,0.00234
2136.39849,0.00161
2134.33831,0.00128
2132.27814,0.00127
2130.21797,0.00142
2128.15780,0.00154
2126.09762,0.00193
2124.03745,0.00262
2121.97728,0.00279
2119.91711,0.00246
2117.85694,0.00251
2115.79676,0.00309
2113.73659,0.00347
2111.67642,0.00341
2109.61625,0.00342
2107.55608,0.00377
2105.49590,0.00400
2103.43573,0.00359
2101.37556,0.00290
2099.31539,0.00251
2097.25521,0.00247
2095.19504,0.00259
2093.13487,0.00275
2091.07470,0.00291
2089.01453,0.00301
2086.95435,0.00283
2084.89418,0.00226
2082.83401,0.00188
2080.77384,0.00213
2078.71367,0.00272
2076.65349,0.00319
2074.59332,0.00317
2072.53315,0.00299
2070.47298,0.00315
2068.41281,0.00338
2066.35263,0.00330
2064.29246,0.00284
2062.23229,0.00234
2060.17212,0.00199
2058.11194,0.00167
2056.05177,0.00178
2053.99160,0.00284
2051.93143,0.00426
2049.87126,0.00475
2047.81108,0.00397
2045.75091,0.00321
2043.69074,0.00321
2041.63057,0.00302
2039.57040,0.00258
2037.51022,0.00264
2035.45005,0.00273
2033.38988,0.00242
2031.32971,0.00192
2029.26954,0.00132
2027.20936,0.00055
2025.14919,0.00000
2023.08902,0.00026
2021.02885,0.00104
2018.96867,0.00159
2016.90850,0.00146
2014.84833,0.00117
2012.78816,0.00125
2010.72799,0.00112
2008.66781,0.00115
2006.60764,0.00150
2004.54747,0.00120
2002.48730,0.00095
2000.42713,0.00155
1998.36695,0.00206
1996.30678,0.00185
1994.24661,0.00170
1992.18644,0.00228
1990.12626,0.00329
1988.06609,0.00395
1986.00592,0.00373
1983.94575,0.00309
1981.88558,0.00267
1979.82540,0.00227
1977.76523,0.00167
1975.70506,0.00085
1973.64489,0.00013
1971.58472,0.00030
1969.52454,0.00104
1967.46437,0.00169
1965.40420,0.00239
1963.34403,0.00270
1961.28386,0.00208
1959.22368,0.00124
1957.16351,0.00105
1955.10334,0.00140
1953.04317,0.00183
1950.98299,0.00189
1948.92282,0.00143
1946.86265,0.00082
1944.80248,0.00052
1942.74231,0.00073
1940.68213,0.00115
1938.62196,0.00138
1936.56179,0.00141
1934.50162,0.00135
1932.44145,0.00130
1930.38127,0.00139
1928.32110,0.00149
1926.26093,0.00154
1924.20076,0.00178
1922.14059,0.00209
1920.08041,0.00202
1918.02024,0.00149
1915.96007,0.00082
1913.89990,0.00049
1911.83972,0.00055
1909.77955,0.00070
1907.71938,0.00084
1905.65921,0.00103
1903.59904,0.00112
1901.53886,0.00093
1899.47869,0.00065
1897.41852,0.00056
1895.35835,0.00058
1893.29818,0.00056
1891.23800,0.00052
1889.17783,0.00053
1887.11766,0.00050
1885.05749,0.00045
1882.99731,0.00049
1880.93714,0.00045
1878.87697,0.00025
1876.81680,0.00013
1874.75663,0.00023
1872.69645,0.00031
1870.63628,0.00024
1868.57611,0.00018
1866.51594,0.00024
1864.45577,0.00032
1862.39559,0.00041
1860.33542,0.00055
1858.27525,0.00061
1856.21508,0.00061
1854.15491,0.00068
1852.09473,0.00074
1850.03456,0.00064
1847.97439,0.00046
1845.91422,0.00028
1843.85404,0.00007
1841.79387,-0.00006
1839.73370,0.00000
1837.67353,0.00020
1835.61336,0.00043
1833.55318,0.00061
1831.49301,0.00070
1829.43284,0.00069
1827.37267,0.00062
1825.31250,0.00054
1823.25232,0.00038
1821.19215,0.00013
1819.13198,0.00000
1817.07181,0.00007
1815.01163,0.00011
1812.95146,0.00005
1810.89129,0.00004
1808.83112,0.00011
1806.77095,0.00019
1804.71077,0.00025
1802.65060,0.00032
1800.59043,0.00037
1798.53026,0.00045
1796.47009,0.00052
1794.40991,0.00044
1792.34974,0.00017
1790.28957,-0.00001
1788.22940,0.00008
1786.16923,0.00025
1784.10905,0.00030
1782.04888,0.00022
1779.98871,0.00016
1777.92854,0.00020
1775.86836,0.00032
1773.80819,0.00046
1771.74802,0.00061
1769.68785,0.00072
1767.62768,0.00072
1765.56750,0.00066
1763.50733,0.00066
1761.44716,0.00080
1759.38699,0.00111
1757.32682,0.00152
1755.26664,0.00188
1753.20647,0.00222
1751.14630,0.00259
1749.08613,0.00284
1747.02596,0.00301
1744.96578,0.00328
1742.90561,0.00359
1740.84544,0.00383
1738.78527,0.00412
1736.72509,0.00450
1734.66492,0.00482
1732.60475,0.00491
1730.54458,0.00485
1728.48441,0.00476
1726.42423,0.00468
1724.36406,0.00456
1722.30389,0.00442
1720.24372,0.00431
1718.18355,0.00410
1716.12337,0.00372
1714.06320,0.00339
1712.00303,0.00315
1709.94286,0.00298
1707.88268,0.00282
1705.82251,0.00268
1703.76234,0.00268
1701.70217,0.00278
1699.64200,0.00265
1697.58182,0.00226
1695.52165,0.00204
1693.46148,0.00216
1691.40131,0.00246
1689.34114,0.00273
1687.28096,0.00291
1685.22079,0.00295
1683.16062,0.00297
1681.10045,0.00320
1679.04028,0.00356
1676.98010,0.00391
1674.91993,0.00420
1672.85976,0.00450
1670.79959,0.00487
1668.73941,0.00531
1666.67924,0.00575
1664.61907,0.00619
1662.55890,0.00661
1660.49873,0.00703
1658.43855,0.00749
1656.37838,0.00793
1654.31821,0.00815
1652.25804,0.00818
1650.19787,0.00827
1648.13769,0.00845
1646.07752,0.00881
1644.01735,0.00928
1641.95718,0.00961
1639.89701,0.00975
1637.83683,0.00979
1635.77666,0.00979
1633.71649,0.00986
1631.65632,0.01004
1629.59614,0.01023
1627.53597,0.01042
1625.47580,0.01059
1623.41563,0.01067
1621.35546,0.01071
1619.29528,0.01078
1617.23511,0.01083
1615.17494,0.01084
1613.11477,0.01085
1611.05460,0.01078
1608.99442,0.01053
1606.93425,0.01021
1604.87408,0.00989
1602.81391,0.00950
1600.75373,0.00900
1598.69356,0.00847
1596.63339,0.00790
1594.57322,0.00729
1592.51305,0.00675
1590.45287,0.00626
1588.39270,0.00577
1586.33253,0.00529
1584.27236,0.00479
1582.21219,0.00426
1580.15201,0.00383
1578.09184,0.00354
1576.03167,0.00322
1573.97150,0.00290
1571.91133,0.00269
1569.85115,0.00251
1567.79098,0.00232
1565.73081,0.00210
1563.67064,0.00184
1561.61046,0.00159
1559.55029,0.00131
1557.49012,0.00100
1555.42995,0.00090
1553.36978,0.00092
1551.30960,0.00094
1549.24943,0.00091
1547.18926,0.00084
1545.12909,0.00070
1543.06892,0.00047
1541.00874,0.00032
1538.94857,0.00029
1536.88840,0.00029
1534.82823,0.00029
1532.76805,0.00023
1530.70788,0.00023
1528.64771,0.00028
1526.58754,0.00029
1524.52737,0.00034
1522.46719,0.00041
1520.40702,0.00033
1518.34685,0.00014
1516.28668,0.00000
1514.22651,-0.00001
1512.16633,0.00013
1510.10616,0.00035
1508.04599,0.00042
1505.98582,0.00022
1503.92565,0.00011
1501.86547,0.00021
1499.80530,0.00038
1497.74513,0.00046
1495.68496,0.00051
1493.62478,0.00066
1491.56461,0.00084
1489.50444,0.00092
1487.44427,0.00092
1485.38410,0.00095
1483.32392,0.00105
1481.26375,0.00123
1479.20358,0.00151
1477.14341,0.00188
1475.08324,0.00227
1473.02306,0.00266
1470.96289,0.00307
1468.90272,0.00344
1466.84255,0.00375
1464.78238,0.00404
1462.72220,0.00433
1460.66203,0.00464
1458.60186,0.00493
1456.54169,0.00508
1454.48151,0.00517
1452.42134,0.00533
1450.36117,0.00558
1448.30100,0.00591
1446.24083,0.00625
1444.18065,0.00652
1442.12048,0.00670
1440.06031,0.00685
1438.00014,0.00703
1435.93997,0.00726
1433.87979,0.00751
1431.81962,0.00776
1429.75945,0.00805
1427.69928,0.00837
1425.63910,0.00870
1423.57893,0.00901
1421.51876,0.00928
1419.45859,0.00947
1417.39842,0.00951
1415.33824,0.00943
1413.27807,0.00937
1411.21790,0.00940
1409.15773,0.00947
1407.09756,0.00944
1405.03738,0.00919
1402.97721,0.00882
1400.91704,0.00852
1398.85687,0.00833
1396.79670,0.00827
1394.73652,0.00823
1392.67635,0.00813
1390.61618,0.00802
1388.55601,0.00799
1386.49583,0.00808
1384.43566,0.00825
1382.37549,0.00844
1380.31532,0.00867
1378.25515,0.00890
1376.19497,0.00909
1374.13480,0.00921
1372.07463,0.00929
1370.01446,0.00933
1367.95429,0.00934
1365.89411,0.00932
1363.83394,0.00918
1361.77377,0.00893
1359.71360,0.00871
1357.65343,0.00858
1355.59325,0.00850
1353.53308,0.00842
1351.47291,0.00832
1349.41274,0.00817
1347.35256,0.00795
1345.29239,0.00774
1343.23222,0.00768
1341.17205,0.00778
1339.11188,0.00784
1337.05170,0.00778
1334.99153,0.00767
1332.93136,0.00762
1330.87119,0.00766
1328.81102,0.00775
1326.75084,0.00783
1324.69067,0.00794
1322.63050,0.00810
1320.57033,0.00818
1318.51015,0.00816
1316.44998,0.00814
1314.38981,0.00812
1312.32964,0.00800
1310.26947,0.00783
1308.20929,0.00770
1306.14912,0.00761
1304.08895,0.00748
1302.02878,0.00724
1299.96861,0.00701
1297.90843,0.00689
1295.84826,0.00686
1293.78809,0.00688
1291.72792,0.00688
1289.66775,0.00682
1287.60757,0.00674
1285.54740,0.00662
1283.48723,0.00650
1281.42706,0.00650
1279.36688,0.00655
1277.30671,0.00663
1275.24654,0.00678
1273.18637,0.00694
1271.12620,0.00709
1269.06602,0.00731
1267.00585,0.00755
1264.94568,0.00781
1262.88551,0.00820
1260.82534,0.00862
1258.76516,0.00891
1256.70499,0.00917
1254.64482,0.00942
1252.58465,0.00957
1250.52447,0.00965
1248.46430,0.00971
1246.40413,0.00977
1244.34396,0.00980
1242.28379,0.00970
1240.22361,0.00947
1238.16344,0.00921
1236.10327,0.00886
1234.04310,0.00848
1231.98293,0.00827
1229.92275,0.00812
1227.86258,0.00781
1225.80241,0.00742
1223.74224,0.00708
1221.68207,0.00678
1219.62189,0.00644
1217.56172,0.00600
1215.50155,0.00563
1213.44138,0.00536
1211.38120,0.00508
1209.32103,0.00468
1207.26086,0.00411
1205.20069,0.00347
1203.14052,0.00283
1201.08034,0.00219
1199.02017,0.00158
1196.96000,0.00112
1194.89983,0.00077
1192.83966,0.00046
1190.77948,0.00018
1188.71931,0.00000
1186.65914,-0.00009
1184.59897,0.00002
1182.53880,0.00032
1180.47862,0.00069
1178.41845,0.00115
1176.35828,0.00172
1174.29811,0.00237
1172.23793,0.00302
1170.17776,0.00365
1168.11759,0.00436
1166.05742,0.00515
1163.99725,0.00591
1161.93707,0.00651
1159.87690,0.00704
1157.81673,0.00763
1155.75656,0.00822
1153.69639,0.00877
1151.63621,0.00933
1149.57604,0.00987
1147.51587,0.01028
1145.45570,0.01060
1143.39552,0.01090
1141.33535,0.01115
1139.27518,0.01128
1137.21501,0.01134
1135.15484,0.01153
1133.09466,0.01191
1131.03449,0.01237
1128.97432,0.01290
1126.91415,0.01356
1124.85398,0.01414
1122.79380,0.01447
1120.73363,0.01478
1118.67346,0.01528
1116.61329,0.01591
1114.55312,0.01651
1112.49294,0.01702
1110.43277,0.01749
1108.37260,0.01810
1106.31243,0.01881
1104.25225,0.01946
1102.19208,0.02009
1100.13191,0.02071
1098.07174,0.02148
1096.01157,0.02253
1093.95139,0.02359
1091.89122,0.02445
1089.83105,0.02519
1087.77088,0.02589
1085.71071,0.02653
1083.65053,0.02718
1081.59036,0.02788
1079.53019,0.02862
1077.47002,0.02948
1075.40985,0.03042
1073.34967,0.03116
1071.28950,0.03157
1069.22933,0.03187
1067.16916,0.03232
1065.10898,0.03289
1063.04881,0.03335
1060.98864,0.03366
1058.92847,0.03395
1056.86830,0.03433
1054.80812,0.03474
1052.74795,0.03510
1050.68778,0.03560
1048.62761,0.03619
1046.56744,0.03673
1044.50726,0.03722
1042.44709,0.03770
1040.38692,0.03819
1038.32675,0.03866
1036.26657,0.03905
1034.20640,0.03933
1032.14623,0.03945
1030.08606,0.03947
1028.02589,0.03959
1025.96571,0.03978
1023.90554,0.03975
1021.84537,0.03955
1019.78520,0.03942
1017.72503,0.03945
1015.66485,0.03960
1013.60468,0.03981
1011.54451,0.03988
1009.48434,0.03970
1007.42417,0.03940
1005.36399,0.03914
1003.30382,0.03888
1001.24365,0.03851
999.18348,0.03805
997.12330,0.03750
995.06313,0.03683
993.00296,0.03613
990.94279,0.03559
988.88262,0.03534
986.82244,0.03523
984.76227,0.03492
982.70210,0.03446
980.64193,0.03410
978.58176,0.03374
976.52158,0.03324
974.46141,0.03273
972.40124,0.03232
970.34107,0.03183
968.28089,0.03121
966.22072,0.03067
964.16055,0.03017
962.10038,0.02954
960.04021,0.02896
957.98003,0.02857
955.91986,0.02821
953.85969,0.02773
951.79952,0.02711
949.73935,0.02637
947.67917,0.02565
945.61900,0.02507
943.55883,0.02433
941.49866,0.02315
939.43849,0.02172
937.37831,0.02023
935.31814,0.01875
933.25797,0.01732
931.19780,0.01593
929.13762,0.01455
927.07745,0.01337
925.01728,0.01253
922.95711,0.01167
920.89694,0.01059
918.83676,0.00959
916.77659,0.00882
914.71642,0.00833
912.65625,0.00791
910.59608,0.00741
908.53590,0.00696
906.47573,0.00668
904.41556,0.00646
902.35539,0.00627
900.29522,0.00641
898.23504,0.00677
896.17487,0.00690
894.11470,0.00677
892.05453,0.00674
889.99435,0.00663
887.93418,0.00608
885.87401,0.00535
883.81384,0.00481
881.75367,0.00443
879.69349,0.00408
877.63332,0.00385
875.57315,0.00388
873.51298,0.00387
871.45281,0.00354
869.39263,0.00329
867.33246,0.00329
865.27229,0.00321
863.21212,0.00298
861.15194,0.00272
859.09177,0.00257
857.03160,0.00260
854.97143,0.00265
852.91126,0.00247
850.85108,0.00195
848.79091,0.00133
846.73074,0.00111
844.67057,0.00112
842.61040,0.00095
840.55022,0.00074
838.49005,0.00072
836.42988,0.00060
834.36971,0.00025
832.30954,0.00000
830.24936,-0.00010
828.18919,-0.00018
826.12902,-0.00018
824.06885,-0.00012
822.00867,-0.00013
819.94850,0.00005
817.88833,0.00049
815.82816,0.00075
813.76799,0.00081
811.70781,0.00099
809.64764,0.00116
807.58747,0.00110
805.52730,0.00102
803.46713,0.00096
801.40695,0.00112
799.34678,0.00144
797.28661,0.00147
795.22644,0.00103
793.16627,0.00039
791.10609,0.00000
789.04592,-0.00011
786.98575,-0.00009
784.92558,0.00000
782.86540,0.00009
780.80523,0.00023
778.74506,0.00032
776.68489,0.00005
774.62472,-0.00028
772.56454,-0.00024
770.50437,-0.00012
768.44420,0.00002
766.38403,0.00026
764.32386,0.00037
762.26368,0.00038
760.20351,0.00055
758.14334,0.00066
756.08317,0.00036
754.02299,-0.00002
751.96282,0.00000
749.90265,0.00002
747.84248,-0.00022
745.78231,-0.00026
743.72213,0.00003
741.66196,0.00011
739.60179,-0.00019
737.54162,-0.00043
735.48145,-0.00031
733.42127,-0.00006
731.36110,-0.00004
729.30093,-0.00005
727.24076,0.00030
725.18059,0.00078
723.12041,0.00083
721.06024,0.00033
719.00007,0.00046
716.93990,0.00109
714.87972,0.00145
712.81955,0.00147
710.75938,0.00158
708.69921,0.00186
706.63904,0.00208
704.57886,0.00228
702.51869,0.00251
700.45852,0.00272
698.39835,0.00287
696.33818,0.00284
694.27800,0.00273
692.21783,0.00294
690.15766,0.00336
688.09749,0.00337
686.03731,0.00291
683.97714,0.00256
681.91697,0.00263
679.85680,0.00298
677.79663,0.00305
675.73645,0.00270
673.67628,0.00278
671.61611,0.00344
669.55594,0.00199
667.49577,0.00000
665.43559,0.00256
663.37542,0.00299
661.31525,0.00312
659.25508,0.00330
657.19491,0.00316
655.13473,0.00287
653.07456,0.00289
651.01439,0.00325
648.95422,0.00350
646.89404,0.00382
644.83387,0.00430
642.77370,0.00450
640.71353,0.00397
638.65336,0.00316
636.59318,0.00261
634.53301,0.00227
632.47284,0.00191
630.41267,0.00151
628.35250,0.00135
626.29232,0.00138
624.23215,0.00138
622.17198,0.00172
620.11181,0.00112
618.05164,-0.00042
615.99146,-0.00093
613.93129,-0.00027
611.87112,0.00025
609.81095,0.00032
607.75077,0.00065
605.69060,0.00120
603.63043,0.00161
601.57026,0.00142
599.51009,0.00000
