3996.73391,0.00066
3994.67373,0.00067
3992.61356,0.00066
3990.55339,0.00061
3988.49322,0.00060
3986.43305,0.00067
3984.37287,0.00077
3982.31270,0.00077
3980.25253,0.00062
3978.19236,0.00034
3976.13219,0.00008
3974.07201,0.00000
3972.01184,0.00013
3969.95167,0.00034
3967.89150,0.00052
3965.83133,0.00060
3963.77115,0.00060
3961.71098,0.00058
3959.65081,0.00062
3957.59064,0.00072
3955.53046,0.00079
3953.47029,0.00076
3951.41012,0.00064
3949.34995,0.00047
3947.28978,0.00033
3945.22960,0.00033
3943.16943,0.00053
3941.10926,0.00086
3939.04909,0.00121
3936.98892,0.00147
3934.92874,0.00153
3932.86857,0.00134
3930.80840,0.00103
3928.74823,0.00080
3926.68805,0.00075
3924.62788,0.00079
3922.56771,0.00084
3920.50754,0.00082
3918.44737,0.00078
3916.38719,0.00081
3914.32702,0.00093
3912.26685,0.00111
3910.20668,0.00129
3908.14651,0.00142
3906.08633,0.00141
3904.02616,0.00124
3901.96599,0.00100
3899.90582,0.00074
3897.84565,0.00050
3895.78547,0.00032
3893.72530,0.00021
3891.66513,0.00024
3889.60496,0.00050
3887.54478,0.00082
3885.48461,0.00096
3883.42444,0.00093
3881.36427,0.00089
3879.30410,0.00091
3877.24392,0.00094
3875.18375,0.00090
3873.12358,0.00076
3871.06341,0.00063
3869.00324,0.00061
3866.94306,0.00075
3864.88289,0.00102
3862.82272,0.00135
3860.76255,0.00163
3858.70237,0.00173
3856.64220,0.00154
3854.58203,0.00106
3852.52186,0.00053
3850.46169,0.00035
3848.40151,0.00061
3846.34134,0.00103
3844.28117,0.00127
3842.22100,0.00121
3840.16083,0.00095
3838.10065,0.00077
3836.04048,0.00089
3833.98031,0.00122
3831.92014,0.00148
3829.85997,0.00146
3827.79979,0.00122
3825.73962,0.00093
3823.67945,0.00071
3821.61928,0.00058
3819.55910,0.00054
3817.49893,0.00053
3815.43876,0.00051
3813.37859,0.00061
3811.31842,0.00085
3809.25824,0.00110
3807.19807,0.00115
3805.13790,0.00096
3803.07773,0.00061
3801.01756,0.00035
3798.95738,0.00037
3796.89721,0.00065
3794.83704,0.00105
3792.77687,0.00141
3790.71670,0.00163
3788.65652,0.00170
3786.59635,0.00167
3784.53618,0.00160
3782.47601,0.00153
3780.41583,0.00144
3778.35566,0.00142
3776.29549,0.00159
3774.23532,0.00186
3772.17515,0.00200
3770.11497,0.00190
3768.05480,0.00170
3765.99463,0.00159
3763.93446,0.00165
3761.87429,0.00176
3759.81411,0.00178
3757.75394,0.00167
3755.69377,0.00149
3753.63360,0.00123
3751.57342,0.00086
3749.51325,0.00049
3747.45308,0.00026
3745.39291,0.00027
3743.33274,0.00063
3741.27256,0.00123
3739.21239,0.00168
3737.15222,0.00154
3735.09205,0.00083
3733.03188,0.00016
3730.97170,0.00000
3728.91153,0.00021
3726.85136,0.00048
3724.79119,0.00069
3722.73102,0.00099
3720.67084,0.00138
3718.61067,0.00168
3716.55050,0.00176
3714.49033,0.00160
3712.43015,0.00134
3710.36998,0.00118
3708.30981,0.00124
3706.24964,0.00144
3704.18947,0.00163
3702.12929,0.00171
3700.06912,0.00178
3698.00895,0.00187
3695.94878,0.00184
3693.88861,0.00155
3691.82843,0.00109
3689.76826,0.00076
3687.70809,0.00078
3685.64792,0.00108
3683.58775,0.00139
3681.52757,0.00158
3679.46740,0.00166
3677.40723,0.00170
3675.34706,0.00178
3673.28688,0.00196
3671.22671,0.00211
3669.16654,0.00217
3667.10637,0.00223
3665.04620,0.00236
3662.98602,0.00253
3660.92585,0.00268
3658.86568,0.00275
3656.80551,0.00270
3654.74534,0.00265
3652.68516,0.00269
3650.62499,0.00281
3648.56482,0.00306
3646.50465,0.00348
3644.44447,0.00389
3642.38430,0.00411
3640.32413,0.00422
3638.26396,0.00442
3636.20379,0.00473
3634.14361,0.00502
3632.08344,0.00516
3630.02327,0.00511
3627.96310,0.00490
3625.90293,0.00473
3623.84275,0.00476
3621.78258,0.00495
3619.72241,0.00519
3617.66224,0.00538
3615.60207,0.00554
3613.54189,0.00574
3611.48172,0.00611
3609.42155,0.00665
3607.36138,0.00720
3605.30120,0.00756
3603.24103,0.00778
3601.18086,0.00804
3599.12069,0.00845
3597.06052,0.00886
3595.00034,0.00903
3592.94017,0.00899
3590.88000,0.00888
3588.81983,0.00884
3586.75966,0.00901
3584.69948,0.00946
3582.63931,0.01006
3580.57914,0.01053
3578.51897,0.01067
3576.45879,0.01053
3574.39862,0.01035
3572.33845,0.01026
3570.27828,0.01027
3568.21811,0.01040
3566.15793,0.01077
3564.09776,0.01137
3562.03759,0.01197
3559.97742,0.01235
3557.91725,0.01260
3555.85707,0.01288
3553.79690,0.01323
3551.73673,0.01360
3549.67656,0.01391
3547.61639,0.01412
3545.55621,0.01421
3543.49604,0.01426
3541.43587,0.01433
3539.37570,0.01447
3537.31552,0.01477
3535.25535,0.01522
3533.19518,0.01569
3531.13501,0.01604
3529.07484,0.01625
3527.01466,0.01639
3524.95449,0.01656
3522.89432,0.01679
3520.83415,0.01705
3518.77398,0.01732
3516.71380,0.01761
3514.65363,0.01791
3512.59346,0.01820
3510.53329,0.01848
3508.47312,0.01872
3506.41294,0.01885
3504.35277,0.01882
3502.29260,0.01880
3500.23243,0.01901
3498.17225,0.01947
3496.11208,0.01999
3494.05191,0.02041
3491.99174,0.02074
3489.93157,0.02100
3487.87139,0.02114
3485.81122,0.02115
3483.75105,0.02108
3481.69088,0.02105
3479.63071,0.02117
3477.57053,0.02142
3475.51036,0.02173
3473.45019,0.02209
3471.39002,0.02249
3469.32984,0.02284
3467.26967,0.02303
3465.20950,0.02306
3463.14933,0.02302
3461.08916,0.02301
3459.02898,0.02313
3456.96881,0.02336
3454.90864,0.02364
3452.84847,0.02394
3450.78830,0.02421
3448.72812,0.02442
3446.66795,0.02460
3444.60778,0.02484
3442.54761,0.02508
3440.48744,0.02524
3438.42726,0.02534
3436.36709,0.02548
3434.30692,0.02575
3432.24675,0.02608
3430.18657,0.02635
3428.12640,0.02654
3426.06623,0.02670
3424.00606,0.02688
3421.94589,0.02708
3419.88571,0.02728
3417.82554,0.02748
3415.76537,0.02765
3413.70520,0.02776
3411.64503,0.02781
3409.58485,0.02780
3407.52468,0.02780
3405.46451,0.02792
3403.40434,0.02823
3401.34416,0.02864
3399.28399,0.02895
3397.22382,0.02905
3395.16365,0.02899
3393.10348,0.02891
3391.04330,0.02898
3388.98313,0.02927
3386.92296,0.02962
3384.86279,0.02985
3382.80262,0.02993
3380.74244,0.02998
3378.68227,0.03011
3376.62210,0.03032
3374.56193,0.03053
3372.50176,0.03067
3370.44158,0.03074
3368.38141,0.03069
3366.32124,0.03055
3364.26107,0.03035
3362.20089,0.03022
3360.14072,0.03022
3358.08055,0.03040
3356.02038,0.03065
3353.96021,0.03087
3351.90003,0.03099
3349.83986,0.03105
3347.77969,0.03107
3345.71952,0.03107
3343.65935,0.03109
3341.59917,0.03120
3339.53900,0.03137
3337.47883,0.03151
3335.41866,0.03159
3333.35849,0.03164
3331.29831,0.03173
3329.23814,0.03185
3327.17797,0.03197
3325.11780,0.03209
3323.05762,0.03218
3320.99745,0.03221
3318.93728,0.03214
3316.87711,0.03201
3314.81694,0.03186
3312.75676,0.03175
3310.69659,0.03178
3308.63642,0.03199
3306.57625,0.03227
3304.51608,0.03246
3302.45590,0.03249
3300.39573,0.03237
3298.33556,0.03220
3296.27539,0.03209
3294.21521,0.03210
3292.15504,0.03220
3290.09487,0.03232
3288.03470,0.03242
3285.97453,0.03247
3283.91435,0.03246
3281.85418,0.03237
3279.79401,0.03223
3277.73384,0.03209
3275.67367,0.03199
3273.61349,0.03191
3271.55332,0.03184
3269.49315,0.03182
3267.43298,0.03187
3265.37281,0.03199
3263.31263,0.03209
3261.25246,0.03210
3259.19229,0.03197
3257.13212,0.03174
3255.07194,0.03152
3253.01177,0.03136
3250.95160,0.03133
3248.89143,0.03143
3246.83126,0.03154
3244.77108,0.03154
3242.71091,0.03138
3240.65074,0.03117
3238.59057,0.03103
3236.53040,0.03098
3234.47022,0.03097
3232.41005,0.03094
3230.34988,0.03083
3228.28971,0.03065
3226.22954,0.03049
3224.16936,0.03045
3222.10919,0.03051
3220.04902,0.03054
3217.98885,0.03050
3215.92867,0.03040
3213.86850,0.03025
3211.80833,0.03005
3209.74816,0.02979
3207.68799,0.02946
3205.62781,0.02913
3203.56764,0.02884
3201.50747,0.02866
3199.44730,0.02860
3197.38713,0.02859
3195.32695,0.02855
3193.26678,0.02846
3191.20661,0.02832
3189.14644,0.02810
3187.08626,0.02777
3185.02609,0.02739
3182.96592,0.02706
3180.90575,0.02684
3178.84558,0.02672
3176.78540,0.02668
3174.72523,0.02662
3172.66506,0.02646
3170.60489,0.02615
3168.54472,0.02573
3166.48454,0.02536
3164.42437,0.02516
3162.36420,0.02509
3160.30403,0.02504
3158.24386,0.02493
3156.18368,0.02469
3154.12351,0.02433
3152.06334,0.02396
3150.00317,0.02367
3147.94299,0.02354
3145.88282,0.02350
3143.82265,0.02343
3141.76248,0.02328
3139.70231,0.02311
3137.64213,0.02297
3135.58196,0.02282
3133.52179,0.02264
3131.46162,0.02240
3129.40145,0.02206
3127.34127,0.02163
3125.28110,0.02120
3123.22093,0.02085
3121.16076,0.02056
3119.10058,0.02033
3117.04041,0.02018
3114.98024,0.02004
3112.92007,0.01985
3110.85990,0.01961
3108.79972,0.01937
3106.73955,0.01917
3104.67938,0.01900
3102.61921,0.01882
3100.55904,0.01863
3098.49886,0.01841
3096.43869,0.01817
3094.37852,0.01791
3092.31835,0.01763
3090.25818,0.01736
3088.19800,0.01718
3086.13783,0.01709
3084.07766,0.01704
3082.01749,0.01695
3079.95731,0.01677
3077.89714,0.01654
3075.83697,0.01635
3073.77680,0.01621
3071.71663,0.01611
3069.65645,0.01595
3067.59628,0.01572
3065.53611,0.01541
3063.47594,0.01506
3061.41577,0.01474
3059.35559,0.01450
3057.29542,0.01440
3055.23525,0.01440
3053.17508,0.01443
3051.11491,0.01441
3049.05473,0.01429
3046.99456,0.01405
3044.93439,0.01372
3042.87422,0.01338
3040.81404,0.01314
3038.75387,0.01300
3036.69370,0.01296
3034.63353,0.01296
3032.57336,0.01297
3030.51318,0.01292
3028.45301,0.01282
3026.39284,0.01268
3024.33267,0.01250
3022.27250,0.01228
3020.21232,0.01203
3018.15215,0.01180
3016.09198,0.01163
3014.03181,0.01157
3011.97163,0.01161
3009.91146,0.01162
3007.85129,0.01153
3005.79112,0.01134
3003.73095,0.01113
3001.67077,0.01096
2999.61060,0.01090
2997.55043,0.01097
2995.49026,0.01110
2993.43009,0.01109
2991.36991,0.01095
2989.30974,0.01085
2987.24957,0.01090
2985.18940,0.01106
2983.12923,0.01123
2981.06905,0.01131
2979.00888,0.01132
2976.94871,0.01137
2974.88854,0.01164
2972.82836,0.01205
2970.76819,0.01233
2968.70802,0.01243
2966.64785,0.01253
2964.58768,0.01271
2962.52750,0.01291
2960.46733,0.01312
2958.40716,0.01337
2956.34699,0.01369
2954.28682,0.01406
2952.22664,0.01445
2950.16647,0.01480
2948.10630,0.01508
2946.04613,0.01531
2943.98596,0.01551
2941.92578,0.01565
2939.86561,0.01576
2937.80544,0.01590
2935.74527,0.01609
2933.68509,0.01630
2931.62492,0.01634
2929.56475,0.01612
2927.50458,0.01589
2925.44441,0.01582
2923.38423,0.01583
2921.32406,0.01573
2919.26389,0.01543
2917.20372,0.01505
2915.14355,0.01484
2913.08337,0.01477
2911.02320,0.01466
2908.96303,0.01460
2906.90286,0.01456
2904.84268,0.01439
2902.78251,0.01413
2900.72234,0.01395
2898.66217,0.01394
2896.60200,0.01394
2894.54182,0.01381
2892.48165,0.01368
2890.42148,0.01376
2888.36131,0.01384
2886.30114,0.01371
2884.24096,0.01354
2882.18079,0.01351
2880.12062,0.01354
2878.06045,0.01352
2876.00028,0.01348
2873.94010,0.01339
2871.87993,0.01314
2869.81976,0.01283
2867.75959,0.01264
2865.69941,0.01252
2863.63924,0.01230
2861.57907,0.01196
2859.51890,0.01161
2857.45873,0.01141
2855.39855,0.01137
2853.33838,0.01138
2851.27821,0.01134
2849.21804,0.01123
2847.15787,0.01098
2845.09769,0.01061
2843.03752,0.01025
2840.97735,0.01000
2838.91718,0.00988
2836.85700,0.00982
2834.79683,0.00975
2832.73666,0.00966
2830.67649,0.00959
2828.61632,0.00955
2826.55614,0.00956
2824.49597,0.00956
2822.43580,0.00948
2820.37563,0.00936
2818.31546,0.00926
2816.25528,0.00917
2814.19511,0.00902
2812.13494,0.00884
2810.07477,0.00877
2808.01460,0.00888
2805.95442,0.00901
2803.89425,0.00898
2801.83408,0.00883
2799.77391,0.00877
2797.71373,0.00885
2795.65356,0.00889
2793.59339,0.00880
2791.53322,0.00856
2789.47305,0.00822
2787.41287,0.00794
2785.35270,0.00790
2783.29253,0.00807
2781.23236,0.00817
2779.17219,0.00802
2777.11201,0.00780
2775.05184,0.00775
2772.99167,0.00789
2770.93150,0.00795
2768.87133,0.00785
2766.81115,0.00773
2764.75098,0.00769
2762.69081,0.00775
2760.63064,0.00795
2758.57046,0.00808
2756.51029,0.00806
2754.45012,0.00811
2752.38995,0.00825
2750.32978,0.00817
2748.26960,0.00778
2746.20943,0.00748
2744.14926,0.00755
2742.08909,0.00781
2740.02892,0.00791
2737.96874,0.00783
2735.90857,0.00769
2733.84840,0.00752
2731.78823,0.00738
2729.72805,0.00733
2727.66788,0.00731
2725.60771,0.00722
2723.54754,0.00718
2721.48737,0.00724
2719.42719,0.00731
2717.36702,0.00731
2715.30685,0.00731
2713.24668,0.00728
2711.18651,0.00709
2709.12633,0.00675
2707.06616,0.00656
2705.00599,0.00665
2702.94582,0.00683
2700.88565,0.00685
2698.82547,0.00678
2696.76530,0.00677
2694.70513,0.00684
2692.64496,0.00694
2690.58478,0.00705
2688.52461,0.00721
2686.46444,0.00739
2684.40427,0.00745
2682.34410,0.00736
2680.28392,0.00720
2678.22375,0.00698
2676.16358,0.00673
2674.10341,0.00659
2672.04324,0.00656
2669.98306,0.00655
2667.92289,0.00660
2665.86272,0.00678
2663.80255,0.00705
2661.74238,0.00726
2659.68220,0.00725
2657.62203,0.00701
2655.56186,0.00669
2653.50169,0.00643
2651.44151,0.00627
2649.38134,0.00627
2647.32117,0.00633
2645.26100,0.00635
2643.20083,0.00634
2641.14065,0.00642
2639.08048,0.00649
2637.02031,0.00645
2634.96014,0.00639
2632.89997,0.00647
2630.83979,0.00660
2628.77962,0.00653
2626.71945,0.00625
2624.65928,0.00600
2622.59910,0.00589
2620.53893,0.00582
2618.47876,0.00563
2616.41859,0.00545
2614.35842,0.00549
2612.29824,0.00567
2610.23807,0.00584
2608.17790,0.00584
2606.11773,0.00567
2604.05756,0.00554
2601.99738,0.00564
2599.93721,0.00572
2597.87704,0.00547
2595.81687,0.00502
2593.75670,0.00484
2591.69652,0.00507
2589.63635,0.00545
2587.57618,0.00567
2585.51601,0.00573
2583.45583,0.00592
2581.39566,0.00629
2579.33549,0.00634
2577.27532,0.00577
2575.21515,0.00505
2573.15497,0.00473
2571.09480,0.00475
2569.03463,0.00487
2566.97446,0.00497
2564.91429,0.00499
2562.85411,0.00494
2560.79394,0.00489
2558.73377,0.00487
2556.67360,0.00479
2554.61342,0.00471
2552.55325,0.00468
2550.49308,0.00477
2548.43291,0.00502
2546.37274,0.00524
2544.31256,0.00511
2542.25239,0.00464
2540.19222,0.00425
2538.13205,0.00421
2536.07188,0.00450
2534.01170,0.00487
2531.95153,0.00496
2529.89136,0.00481
2527.83119,0.00488
2525.77102,0.00515
2523.71084,0.00513
2521.65067,0.00480
2519.59050,0.00449
2517.53033,0.00436
2515.47015,0.00440
2513.40998,0.00443
2511.34981,0.00443
2509.28964,0.00450
2507.22947,0.00458
2505.16929,0.00455
2503.10912,0.00455
2501.04895,0.00464
2498.98878,0.00474
2496.92861,0.00467
2494.86843,0.00442
2492.80826,0.00427
2490.74809,0.00450
2488.68792,0.00484
2486.62775,0.00495
2484.56757,0.00476
2482.50740,0.00436
2480.44723,0.00407
2478.38706,0.00430
2476.32688,0.00481
2474.26671,0.00495
2472.20654,0.00467
2470.14637,0.00447
2468.08620,0.00462
2466.02602,0.00491
2463.96585,0.00491
2461.90568,0.00461
2459.84551,0.00433
2457.78534,0.00433
2455.72516,0.00468
2453.66499,0.00504
2451.60482,0.00508
2449.54465,0.00496
2447.48447,0.00480
2445.42430,0.00455
2443.36413,0.00429
2441.30396,0.00402
2439.24379,0.00366
2437.18361,0.00343
2435.12344,0.00349
2433.06327,0.00361
2431.00310,0.00380
2428.94293,0.00421
2426.88275,0.00449
2424.82258,0.00434
2422.76241,0.00403
2420.70224,0.00388
2418.64207,0.00394
2416.58189,0.00410
2414.52172,0.00424
2412.46155,0.00441
2410.40138,0.00460
2408.34120,0.00451
2406.28103,0.00410
2404.22086,0.00373
2402.16069,0.00363
2400.10052,0.00371
2398.04034,0.00381
2395.98017,0.00388
2393.92000,0.00390
2391.85983,0.00389
2389.79966,0.00385
2387.73948,0.00375
2385.67931,0.00359
2383.61914,0.00344
2381.55897,0.00338
2379.49880,0.00341
2377.43862,0.00339
2375.37845,0.00321
2373.31828,0.00287
2371.25811,0.00252
2369.19793,0.00250
2367.13776,0.00307
2365.07759,0.00410
2363.01742,0.00494
2360.95725,0.00503
2358.89707,0.00449
2356.83690,0.00380
2354.77673,0.00325
2352.71656,0.00287
2350.65639,0.00279
2348.59621,0.00313
2346.53604,0.00381
2344.47587,0.00454
2342.41570,0.00502
2340.35552,0.00514
2338.29535,0.00495
2336.23518,0.00471
2334.17501,0.00480
2332.11484,0.00536
2330.05466,0.00606
2327.99449,0.00646
2325.93432,0.00626
2323.87415,0.00555
2321.81398,0.00473
2319.75380,0.00426
2317.69363,0.00430
2315.63346,0.00470
2313.57329,0.00512
2311.51312,0.00529
2309.45294,0.00513
2307.39277,0.00468
2305.33260,0.00416
2303.27243,0.00385
2301.21225,0.00391
2299.15208,0.00425
2297.09191,0.00466
2295.03174,0.00497
2292.97157,0.00515
2290.91139,0.00530
2288.85122,0.00544
2286.79105,0.00546
2284.73088,0.00520
2282.67071,0.00475
2280.61053,0.00431
2278.55036,0.00409
2276.49019,0.00417
2274.43002,0.00447
2272.36984,0.00478
2270.30967,0.00495
2268.24950,0.00502
2266.18933,0.00505
2264.12916,0.00505
2262.06898,0.00486
2260.00881,0.00439
2257.94864,0.00377
2255.88847,0.00322
2253.82830,0.00291
2251.76812,0.00288
2249.70795,0.00305
2247.64778,0.00321
2245.58761,0.00307
2243.52744,0.00297
2241.46726,0.00342
2239.40709,0.00424
2237.34692,0.00469
2235.28675,0.00428
2233.22657,0.00329
2231.16640,0.00242
2229.10623,0.00218
2227.04606,0.00280
2224.98589,0.00403
2222.92571,0.00493
2220.86554,0.00475
2218.80537,0.00371
2216.74520,0.00264
2214.68503,0.00237
2212.62485,0.00294
2210.56468,0.00348
2208.50451,0.00339
2206.44434,0.00332
2204.38417,0.00409
2202.32399,0.00505
2200.26382,0.00474
2198.20365,0.00324
2196.14348,0.00219
2194.08330,0.00237
2192.02313,0.00269
2189.96296,0.00233
2187.90279,0.00181
2185.84262,0.00161
2183.78244,0.00194
2181.72227,0.00289
2179.66210,0.00401
2177.60193,0.00455
2175.54176,0.00441
2173.48158,0.00427
2171.42141,0.00506
2169.36124,0.00678
2167.30107,0.00786
2165.24089,0.00665
2163.18072,0.00348
2161.12055,0.00056
2159.06038,0.00000
2157.00021,0.00154
2154.94003,0.00291
2152.87986,0.00310
2150.81969,0.00272
2148.75952,0.00227
2146.69935,0.00207
2144.63917,0.00237
2142.57900,0.00301
2140.51883,0.00346
2138.45866,0.00346
2136.39849,0.00317
2134.33831,0.00283
2132.27814,0.00280
2130.21797,0.00333
2128.15780,0.00387
2126.09762,0.00394
2124.03745,0.00388
2121.97728,0.00400
2119.91711,0.00408
2117.85694,0.00364
2115.79676,0.00286
2113.73659,0.00268
2111.67642,0.00354
2109.61625,0.00471
2107.55608,0.00525
2105.49590,0.00509
2103.43573,0.00490
2101.37556,0.00491
2099.31539,0.00472
2097.25521,0.00433
2095.19504,0.00399
2093.13487,0.00377
2091.07470,0.00363
2089.01453,0.00358
2086.95435,0.00365
2084.89418,0.00381
2082.83401,0.00395
2080.77384,0.00397
2078.71367,0.00383
2076.65349,0.00361
2074.59332,0.00353
2072.53315,0.00380
2070.47298,0.00426
2068.41281,0.00451
2066.35263,0.00427
2064.29246,0.00363
2062.23229,0.00293
2060.17212,0.00248
2058.11194,0.00246
2056.05177,0.00287
2053.99160,0.00352
2051.93143,0.00401
2049.87126,0.00408
2047.81108,0.00395
2045.75091,0.00396
2043.69074,0.00409
2041.63057,0.00391
2039.57040,0.00319
2037.51022,0.00204
2035.45005,0.00086
2033.38988,0.00011
2031.32971,0.00000
2029.26954,0.00040
2027.20936,0.00093
2025.14919,0.00125
2023.08902,0.00137
2021.02885,0.00154
2018.96867,0.00192
2016.90850,0.00232
2014.84833,0.00253
2012.78816,0.00255
2010.72799,0.00247
2008.66781,0.00225
2006.60764,0.00184
2004.54747,0.00136
2002.48730,0.00112
2000.42713,0.00142
1998.36695,0.00219
1996.30678,0.00286
1994.24661,0.00286
1992.18644,0.00233
1990.12626,0.00187
1988.06609,0.00174
1986.00592,0.00174
1983.94575,0.00177
1981.88558,0.00201
1979.82540,0.00247
1977.76523,0.00293
1975.70506,0.00324
1973.64489,0.00353
1971.58472,0.00382
1969.52454,0.00381
1967.46437,0.00326
1965.40420,0.00232
1963.34403,0.00135
1961.28386,0.00055
1959.22368,0.00003
1957.16351,0.00000
1955.10334,0.00052
1953.04317,0.00132
1950.98299,0.00197
1948.92282,0.00226
1946.86265,0.00229
1944.80248,0.00222
1942.74231,0.00216
1940.68213,0.00205
1938.62196,0.00190
1936.56179,0.00181
1934.50162,0.00188
1932.44145,0.00210
1930.38127,0.00226
1928.32110,0.00215
1926.26093,0.00183
1924.20076,0.00156
1922.14059,0.00154
1920.08041,0.00175
1918.02024,0.00210
1915.96007,0.00243
1913.89990,0.00252
1911.83972,0.00229
1909.77955,0.00187
1907.71938,0.00149
1905.65921,0.00140
1903.59904,0.00163
1901.53886,0.00201
1899.47869,0.00231
1897.41852,0.00236
1895.35835,0.00216
1893.29818,0.00184
1891.23800,0.00158
1889.17783,0.00149
1887.11766,0.00153
1885.05749,0.00162
1882.99731,0.00168
1880.93714,0.00169
1878.87697,0.00170
1876.81680,0.00180
1874.75663,0.00194
1872.69645,0.00197
1870.63628,0.00182
1868.57611,0.00153
1866.51594,0.00123
1864.45577,0.00100
1862.39559,0.00092
1860.33542,0.00100
1858.27525,0.00124
1856.21508,0.00158
1854.15491,0.00184
1852.09473,0.00189
1850.03456,0.00172
1847.97439,0.00151
1845.91422,0.00136
1843.85404,0.00127
1841.79387,0.00124
1839.73370,0.00129
1837.67353,0.00137
1835.61336,0.00139
1833.55318,0.00131
1831.49301,0.00122
1829.43284,0.00121
1827.37267,0.00125
1825.31250,0.00121
1823.25232,0.00112
1821.19215,0.00102
1819.13198,0.00094
1817.07181,0.00084
1815.01163,0.00068
1812.95146,0.00052
1810.89129,0.00049
1808.83112,0.00061
1806.77095,0.00079
1804.71077,0.00093
1802.65060,0.00104
1800.59043,0.00109
1798.53026,0.00110
1796.47009,0.00106
1794.40991,0.00095
1792.34974,0.00081
1790.28957,0.00074
1788.22940,0.00081
1786.16923,0.00092
1784.10905,0.00099
1782.04888,0.00101
1779.98871,0.00099
1777.92854,0.00097
1775.86836,0.00098
1773.80819,0.00100
1771.74802,0.00109
1769.68785,0.00131
1767.62768,0.00162
1765.56750,0.00193
1763.50733,0.00214
1761.44716,0.00229
1759.38699,0.00241
1757.32682,0.00255
1755.26664,0.00274
1753.20647,0.00294
1751.14630,0.00320
1749.08613,0.00358
1747.02596,0.00408
1744.96578,0.00453
1742.90561,0.00486
1740.84544,0.00514
1738.78527,0.00547
1736.72509,0.00580
1734.66492,0.00604
1732.60475,0.00619
1730.54458,0.00631
1728.48441,0.00640
1726.42423,0.00639
1724.36406,0.00624
1722.30389,0.00594
1720.24372,0.00549
1718.18355,0.00497
1716.12337,0.00455
1714.06320,0.00435
1712.00303,0.00430
1709.94286,0.00424
1707.88268,0.00406
1705.82251,0.00377
1703.76234,0.00342
1701.70217,0.00303
1699.64200,0.00269
1697.58182,0.00262
1695.52165,0.00290
1693.46148,0.00337
1691.40131,0.00375
1689.34114,0.00390
1687.28096,0.00379
1685.22079,0.00359
1683.16062,0.00365
1681.10045,0.00412
1679.04028,0.00479
1676.98010,0.00539
1674.91993,0.00584
1672.85976,0.00620
1670.79959,0.00657
1668.73941,0.00705
1666.67924,0.00768
1664.61907,0.00832
1662.55890,0.00884
1660.49873,0.00922
1658.43855,0.00947
1656.37838,0.00960
1654.31821,0.00972
1652.25804,0.00996
1650.19787,0.01031
1648.13769,0.01070
1646.07752,0.01116
1644.01735,0.01168
1641.95718,0.01211
1639.89701,0.01236
1637.83683,0.01248
1635.77666,0.01262
1633.71649,0.01286
1631.65632,0.01316
1629.59614,0.01339
1627.53597,0.01354
1625.47580,0.01362
1623.41563,0.01365
1621.35546,0.01360
1619.29528,0.01349
1617.23511,0.01341
1615.17494,0.01349
1613.11477,0.01365
1611.05460,0.01368
1608.99442,0.01345
1606.93425,0.01301
1604.87408,0.01244
1602.81391,0.01181
1600.75373,0.01119
1598.69356,0.01058
1596.63339,0.00997
1594.57322,0.00935
1592.51305,0.00872
1590.45287,0.00809
1588.39270,0.00750
1586.33253,0.00696
1584.27236,0.00644
1582.21219,0.00588
1580.15201,0.00527
1578.09184,0.00466
1576.03167,0.00413
1573.97150,0.00375
1571.91133,0.00346
1569.85115,0.00320
1567.79098,0.00302
1565.73081,0.00291
1563.67064,0.00273
1561.61046,0.00237
1559.55029,0.00189
1557.49012,0.00158
1555.42995,0.00162
1553.36978,0.00183
1551.30960,0.00197
1549.24943,0.00186
1547.18926,0.00148
1545.12909,0.00088
1543.06892,0.00030
1541.00874,0.00000
1538.94857,0.00010
1536.88840,0.00040
1534.82823,0.00064
1532.76805,0.00078
1530.70788,0.00086
1528.64771,0.00085
1526.58754,0.00075
1524.52737,0.00060
1522.46719,0.00044
1520.40702,0.00033
1518.34685,0.00029
1516.28668,0.00029
1514.22651,0.00029
1512.16633,0.00021
1510.10616,0.00005
1508.04599,0.00000
1505.98582,0.00022
1503.92565,0.00059
1501.86547,0.00088
1499.80530,0.00102
1497.74513,0.00113
1495.68496,0.00127
1493.62478,0.00140
1491.56461,0.00145
1489.50444,0.00150
1487.44427,0.00167
1485.38410,0.00192
1483.32392,0.00218
1481.26375,0.00245
1479.20358,0.00274
1477.14341,0.00302
1475.08324,0.00329
1473.02306,0.00362
1470.96289,0.00411
1468.90272,0.00468
1466.84255,0.00522
1464.78238,0.00563
1462.72220,0.00591
1460.66203,0.00601
1458.60186,0.00601
1456.54169,0.00611
1454.48151,0.00639
1452.42134,0.00669
1450.36117,0.00689
1448.30100,0.00705
1446.24083,0.00728
1444.18065,0.00758
1442.12048,0.00785
1440.06031,0.00804
1438.00014,0.00821
1435.93997,0.00847
1433.87979,0.00882
1431.81962,0.00921
1429.75945,0.00960
1427.69928,0.01000
1425.63910,0.01037
1423.57893,0.01064
1421.51876,0.01081
1419.45859,0.01093
1417.39842,0.01108
1415.33824,0.01119
1413.27807,0.01120
1411.21790,0.01114
1409.15773,0.01104
1407.09756,0.01088
1405.03738,0.01063
1402.97721,0.01031
1400.91704,0.00991
1398.85687,0.00954
1396.79670,0.00931
1394.73652,0.00921
1392.67635,0.00918
1390.61618,0.00916
1388.55601,0.00914
1386.49583,0.00921
1384.43566,0.00940
1382.37549,0.00965
1380.31532,0.00991
1378.25515,0.01011
1376.19497,0.01024
1374.13480,0.01032
1372.07463,0.01039
1370.01446,0.01044
1367.95429,0.01036
1365.89411,0.01016
1363.83394,0.00989
1361.77377,0.00970
1359.71360,0.00965
1357.65343,0.00966
1355.59325,0.00965
1353.53308,0.00957
1351.47291,0.00944
1349.41274,0.00929
1347.35256,0.00911
1345.29239,0.00888
1343.23222,0.00859
1341.17205,0.00831
1339.11188,0.00816
1337.05170,0.00817
1334.99153,0.00831
1332.93136,0.00848
1330.87119,0.00863
1328.81102,0.00873
1326.75084,0.00877
1324.69067,0.00877
1322.63050,0.00874
1320.57033,0.00868
1318.51015,0.00859
1316.44998,0.00848
1314.38981,0.00836
1312.32964,0.00827
1310.26947,0.00825
1308.20929,0.00827
1306.14912,0.00827
1304.08895,0.00818
1302.02878,0.00801
1299.96861,0.00781
1297.90843,0.00766
1295.84826,0.00756
1293.78809,0.00751
1291.72792,0.00746
1289.66775,0.00740
1287.60757,0.00736
1285.54740,0.00734
1283.48723,0.00731
1281.42706,0.00726
1279.36688,0.00722
1277.30671,0.00720
1275.24654,0.00725
1273.18637,0.00735
1271.12620,0.00752
1269.06602,0.00777
1267.00585,0.00812
1264.94568,0.00853
1262.88551,0.00897
1260.82534,0.00938
1258.76516,0.00972
1256.70499,0.00998
1254.64482,0.01017
1252.58465,0.01029
1250.52447,0.01033
1248.46430,0.01031
1246.40413,0.01027
1244.34396,0.01024
1242.28379,0.01018
1240.22361,0.01009
1238.16344,0.00994
1236.10327,0.00970
1234.04310,0.00937
1231.98293,0.00902
1229.92275,0.00868
1227.86258,0.00833
1225.80241,0.00795
1223.74224,0.00753
1221.68207,0.00711
1219.62189,0.00670
1217.56172,0.00629
1215.50155,0.00588
1213.44138,0.00545
1211.38120,0.00497
1209.32103,0.00442
1207.26086,0.00388
1205.20069,0.00336
1203.14052,0.00281
1201.08034,0.00217
1199.02017,0.00143
1196.96000,0.00069
1194.89983,0.00018
1192.83966,0.00000
1190.77948,-0.00005
1188.71931,-0.00015
1186.65914,-0.00026
1184.59897,-0.00026
1182.53880,-0.00014
1180.47862,0.00016
1178.41845,0.00061
1176.35828,0.00117
1174.29811,0.00189
1172.23793,0.00275
1170.17776,0.00357
1168.11759,0.00425
1166.05742,0.00488
1163.99725,0.00558
1161.93707,0.00632
1159.87690,0.00699
1157.81673,0.00759
1155.75656,0.00818
1153.69639,0.00879
1151.63621,0.00943
1149.57604,0.01000
1147.51587,0.01034
1145.45570,0.01044
1143.39552,0.01048
1141.33535,0.01068
1139.27518,0.01098
1137.21501,0.01116
1135.15484,0.01126
1133.09466,0.01150
1131.03449,0.01194
1128.97432,0.01246
1126.91415,0.01299
1124.85398,0.01351
1122.79380,0.01400
1120.73363,0.01446
1118.67346,0.01494
1116.61329,0.01546
1114.55312,0.01598
1112.49294,0.01650
1110.43277,0.01705
1108.37260,0.01764
1106.31243,0.01824
1104.25225,0.01888
1102.19208,0.01961
1100.13191,0.02032
1098.07174,0.02105
1096.01157,0.02191
1093.95139,0.02283
1091.89122,0.02362
1089.83105,0.02427
1087.77088,0.02490
1085.71071,0.02566
1083.65053,0.02653
1081.59036,0.02729
1079.53019,0.02791
1077.47002,0.02853
1075.40985,0.02915
1073.34967,0.02968
1071.28950,0.03017
1069.22933,0.03074
1067.16916,0.03141
1065.10898,0.03207
1063.04881,0.03243
1060.98864,0.03246
1058.92847,0.03258
1056.86830,0.03297
1054.80812,0.03337
1052.74795,0.03369
1050.68778,0.03408
1048.62761,0.03456
1046.56744,0.03502
1044.50726,0.03545
1042.44709,0.03598
1040.38692,0.03657
1038.32675,0.03714
1036.26657,0.03763
1034.20640,0.03795
1032.14623,0.03802
1030.08606,0.03788
1028.02589,0.03767
1025.96571,0.03768
1023.90554,0.03789
1021.84537,0.03803
1019.78520,0.03804
1017.72503,0.03792
1015.66485,0.03780
1013.60468,0.03786
1011.54451,0.03791
1009.48434,0.03775
1007.42417,0.03753
1005.36399,0.03735
1003.30382,0.03709
1001.24365,0.03677
999.18348,0.03641
997.12330,0.03598
995.06313,0.03551
993.00296,0.03502
990.94279,0.03454
988.88262,0.03411
986.82244,0.03375
984.76227,0.03350
982.70210,0.03333
980.64193,0.03317
978.58176,0.03296
976.52158,0.03266
974.46141,0.03226
972.40124,0.03171
970.34107,0.03106
968.28089,0.03057
966.22072,0.03025
964.16055,0.02989
962.10038,0.02957
960.04021,0.02932
957.98003,0.02888
955.91986,0.02823
953.85969,0.02772
951.79952,0.02748
949.73935,0.02718
947.67917,0.02658
945.61900,0.02566
943.55883,0.02439
941.49866,0.02285
939.43849,0.02137
937.37831,0.02012
935.31814,0.01896
933.25797,0.01771
931.19780,0.01642
929.13762,0.01510
927.07745,0.01375
925.01728,0.01251
922.95711,0.01163
920.89694,0.01106
918.83676,0.01046
916.77659,0.00969
914.71642,0.00883
912.65625,0.00803
910.59608,0.00745
908.53590,0.00704
906.47573,0.00667
904.41556,0.00638
902.35539,0.00623
900.29522,0.00628
898.23504,0.00649
896.17487,0.00674
894.11470,0.00687
892.05453,0.00682
889.99435,0.00670
887.93418,0.00659
885.87401,0.00640
883.81384,0.00613
881.75367,0.00581
879.69349,0.00528
877.63332,0.00447
875.57315,0.00379
873.51298,0.00359
871.45281,0.00360
869.39263,0.00347
867.33246,0.00332
865.27229,0.00330
863.21212,0.00336
861.15194,0.00333
859.09177,0.00308
857.03160,0.00271
854.97143,0.00232
852.91126,0.00179
850.85108,0.00128
848.79091,0.00109
846.73074,0.00119
844.67057,0.00127
842.61040,0.00119
840.55022,0.00088
838.49005,0.00044
836.42988,0.00010
834.36971,0.00000
832.30954,-0.00001
830.24936,-0.00012
828.18919,-0.00011
826.12902,0.00025
824.06885,0.00053
822.00867,0.00055
819.94850,0.00086
817.88833,0.00161
815.82816,0.00226
813.76799,0.00248
811.70781,0.00248
809.64764,0.00247
807.58747,0.00245
805.52730,0.00235
803.46713,0.00208
801.40695,0.00161
799.34678,0.00114
797.28661,0.00106
795.22644,0.00137
793.16627,0.00147
791.10609,0.00101
789.04592,0.00033
786.98575,0.00000
784.92558,0.00015
782.86540,0.00043
780.80523,0.00057
778.74506,0.00071
776.68489,0.00095
774.62472,0.00102
772.56454,0.00077
770.50437,0.00042
768.44420,0.00011
766.38403,-0.00022
764.32386,-0.00038
762.26368,-0.00020
760.20351,0.00029
758.14334,0.00093
756.08317,0.00140
754.02299,0.00137
751.96282,0.00105
749.90265,0.00097
747.84248,0.00126
745.78231,0.00136
743.72213,0.00085
741.66196,0.00023
739.60179,0.00000
737.54162,-0.00001
735.48145,0.00011
733.42127,0.00021
731.36110,0.00028
729.30093,0.00036
727.24076,0.00028
725.18059,-0.00002
723.12041,-0.00030
721.06024,-0.00032
719.00007,-0.00007
716.93990,0.00037
714.87972,0.00092
712.81955,0.00161
710.75938,0.00233
708.69921,0.00280
706.63904,0.00290
704.57886,0.00284
702.51869,0.00277
700.45852,0.00269
698.39835,0.00248
696.33818,0.00202
694.27800,0.00129
692.21783,0.00049
690.15766,0.00002
688.09749,0.00007
686.03731,0.00042
683.97714,0.00077
681.91697,0.00106
679.85680,0.00130
677.79663,0.00132
675.73645,0.00096
673.67628,0.00031
671.61611,-0.00022
669.55594,-0.00022
667.49577,0.00041
665.43559,0.00130
663.37542,0.00202
661.31525,0.00236
659.25508,0.00227
657.19491,0.00182
655.13473,0.00121
653.07456,0.00082
651.01439,0.00086
648.95422,0.00116
646.89404,0.00153
644.83387,0.00190
642.77370,0.00213
640.71353,0.00201
638.65336,0.00154
636.59318,0.00117
634.53301,0.00161
632.47284,0.00318
630.41267,0.00523
628.35250,0.00633
626.29232,0.00520
624.23215,0.00280
622.17198,0.00172
620.11181,0.00227
618.05164,0.00256
615.99146,0.00195
613.93129,0.00092
611.87112,0.00066
609.81095,0.00222
607.75077,0.00414
605.69060,0.00443
603.63043,0.00312
601.57026,0.00136
599.51009,0.00000
