3996.73391,0.00063
3994.67373,0.00032
3992.61356,0.00013
3990.55339,0.00015
3988.49322,0.00027
3986.43305,0.00035
3984.37287,0.00037
3982.31270,0.00041
3980.25253,0.00047
3978.19236,0.00047
3976.13219,0.00037
3974.07201,0.00019
3972.01184,0.00006
3969.95167,0.00014
3967.89150,0.00036
3965.83133,0.00049
3963.77115,0.00039
3961.71098,0.00015
3959.65081,0.00000
3957.59064,0.00009
3955.53046,0.00036
3953.47029,0.00062
3951.41012,0.00074
3949.34995,0.00071
3947.28978,0.00063
3945.22960,0.00057
3943.16943,0.00056
3941.10926,0.00064
3939.04909,0.00085
3936.98892,0.00109
3934.92874,0.00121
3932.86857,0.00113
3930.80840,0.00088
3928.74823,0.00061
3926.68805,0.00048
3924.62788,0.00051
3922.56771,0.00060
3920.50754,0.00059
3918.44737,0.00040
3916.38719,0.00013
3914.32702,0.00000
3912.26685,0.00008
3910.20668,0.00029
3908.14651,0.00050
3906.08633,0.00061
3904.02616,0.00061
3901.96599,0.00055
3899.90582,0.00047
3897.84565,0.00039
3895.78547,0.00031
3893.72530,0.00024
3891.66513,0.00026
3889.60496,0.00048
3887.54478,0.00082
3885.48461,0.00111
3883.42444,0.00123
3881.36427,0.00116
3879.30410,0.00098
3877.24392,0.00087
3875.18375,0.00092
3873.12358,0.00107
3871.06341,0.00115
3869.00324,0.00107
3866.94306,0.00087
3864.88289,0.00073
3862.82272,0.00079
3860.76255,0.00099
3858.70237,0.00106
3856.64220,0.00081
3854.58203,0.00033
3852.52186,0.00000
3850.46169,0.00008
3848.40151,0.00044
3846.34134,0.00073
3844.28117,0.00075
3842.22100,0.00063
3840.16083,0.00059
3838.10065,0.00073
3836.04048,0.00093
3833.98031,0.00102
3831.92014,0.00108
3829.85997,0.00127
3827.79979,0.00162
3825.73962,0.00196
3823.67945,0.00209
3821.61928,0.00192
3819.55910,0.00158
3817.49893,0.00127
3815.43876,0.00114
3813.37859,0.00122
3811.31842,0.00140
3809.25824,0.00155
3807.19807,0.00165
3805.13790,0.00173
3803.07773,0.00175
3801.01756,0.00162
3798.95738,0.00135
3796.89721,0.00109
3794.83704,0.00106
3792.77687,0.00129
3790.71670,0.00165
3788.65652,0.00202
3786.59635,0.00231
3784.53618,0.00243
3782.47601,0.00236
3780.41583,0.00220
3778.35566,0.00212
3776.29549,0.00218
3774.23532,0.00230
3772.17515,0.00240
3770.11497,0.00243
3768.05480,0.00240
3765.99463,0.00236
3763.93446,0.00231
3761.87429,0.00224
3759.81411,0.00213
3757.75394,0.00208
3755.69377,0.00220
3753.63360,0.00244
3751.57342,0.00261
3749.51325,0.00265
3747.45308,0.00263
3745.39291,0.00246
3743.33274,0.00203
3741.27256,0.00146
3739.21239,0.00090
3737.15222,0.00036
3735.09205,0.00000
3733.03188,0.00005
3730.97170,0.00054
3728.91153,0.00120
3726.85136,0.00182
3724.79119,0.00227
3722.73102,0.00249
3720.67084,0.00244
3718.61067,0.00222
3716.55050,0.00201
3714.49033,0.00184
3712.43015,0.00171
3710.36998,0.00168
3708.30981,0.00178
3706.24964,0.00194
3704.18947,0.00205
3702.12929,0.00208
3700.06912,0.00211
3698.00895,0.00214
3695.94878,0.00212
3693.88861,0.00201
3691.82843,0.00178
3689.76826,0.00151
3687.70809,0.00145
3685.64792,0.00173
3683.58775,0.00208
3681.52757,0.00223
3679.46740,0.00218
3677.40723,0.00210
3675.34706,0.00207
3673.28688,0.00201
3671.22671,0.00179
3669.16654,0.00147
3667.10637,0.00139
3665.04620,0.00170
3662.98602,0.00219
3660.92585,0.00259
3658.86568,0.00266
3656.80551,0.00242
3654.74534,0.00219
3652.68516,0.00224
3650.62499,0.00259
3648.56482,0.00303
3646.50465,0.00335
3644.44447,0.00347
3642.38430,0.00340
3640.32413,0.00326
3638.26396,0.00324
3636.20379,0.00342
3634.14361,0.00372
3632.08344,0.00398
3630.02327,0.00412
3627.96310,0.00411
3625.90293,0.00400
3623.84275,0.00381
3621.78258,0.00351
3619.72241,0.00317
3617.66224,0.00295
3615.60207,0.00293
3613.54189,0.00305
3611.48172,0.00328
3609.42155,0.00360
3607.36138,0.00405
3605.30120,0.00462
3603.24103,0.00512
3601.18086,0.00542
3599.12069,0.00552
3597.06052,0.00556
3595.00034,0.00564
3592.94017,0.00576
3590.88000,0.00583
3588.81983,0.00581
3586.75966,0.00573
3584.69948,0.00566
3582.63931,0.00564
3580.57914,0.00570
3578.51897,0.00593
3576.45879,0.00634
3574.39862,0.00685
3572.33845,0.00718
3570.27828,0.00720
3568.21811,0.00700
3566.15793,0.00692
3564.09776,0.00717
3562.03759,0.00773
3559.97742,0.00841
3557.91725,0.00896
3555.85707,0.00926
3553.79690,0.00932
3551.73673,0.00919
3549.67656,0.00894
3547.61639,0.00867
3545.55621,0.00854
3543.49604,0.00869
3541.43587,0.00903
3539.37570,0.00943
3537.31552,0.00977
3535.25535,0.00995
3533.19518,0.00991
3531.13501,0.00982
3529.07484,0.00986
3527.01466,0.01010
3524.95449,0.01047
3522.89432,0.01079
3520.83415,0.01099
3518.77398,0.01105
3516.71380,0.01102
3514.65363,0.01095
3512.59346,0.01086
3510.53329,0.01073
3508.47312,0.01064
3506.41294,0.01077
3504.35277,0.01119
3502.29260,0.01174
3500.23243,0.01220
3498.17225,0.01247
3496.11208,0.01256
3494.05191,0.01256
3491.99174,0.01255
3489.93157,0.01258
3487.87139,0.01265
3485.81122,0.01271
3483.75105,0.01269
3481.69088,0.01269
3479.63071,0.01285
3477.57053,0.01309
3475.51036,0.01327
3473.45019,0.01337
3471.39002,0.01341
3469.32984,0.01338
3467.26967,0.01325
3465.20950,0.01309
3463.14933,0.01309
3461.08916,0.01334
3459.02898,0.01372
3456.96881,0.01404
3454.90864,0.01430
3452.84847,0.01454
3450.78830,0.01476
3448.72812,0.01494
3446.66795,0.01506
3444.60778,0.01510
3442.54761,0.01506
3440.48744,0.01507
3438.42726,0.01520
3436.36709,0.01536
3434.30692,0.01541
3432.24675,0.01543
3430.18657,0.01561
3428.12640,0.01595
3426.06623,0.01627
3424.00606,0.01645
3421.94589,0.01653
3419.88571,0.01662
3417.82554,0.01674
3415.76537,0.01682
3413.70520,0.01683
3411.64503,0.01682
3409.58485,0.01675
3407.52468,0.01663
3405.46451,0.01649
3403.40434,0.01636
3401.34416,0.01630
3399.28399,0.01641
3397.22382,0.01668
3395.16365,0.01696
3393.10348,0.01712
3391.04330,0.01723
3388.98313,0.01742
3386.92296,0.01775
3384.86279,0.01812
3382.80262,0.01838
3380.74244,0.01849
3378.68227,0.01847
3376.62210,0.01835
3374.56193,0.01822
3372.50176,0.01812
3370.44158,0.01802
3368.38141,0.01786
3366.32124,0.01770
3364.26107,0.01759
3362.20089,0.01757
3360.14072,0.01763
3358.08055,0.01777
3356.02038,0.01798
3353.96021,0.01820
3351.90003,0.01837
3349.83986,0.01846
3347.77969,0.01848
3345.71952,0.01849
3343.65935,0.01858
3341.59917,0.01876
3339.53900,0.01894
3337.47883,0.01900
3335.41866,0.01893
3333.35849,0.01879
3331.29831,0.01869
3329.23814,0.01867
3327.17797,0.01873
3325.11780,0.01886
3323.05762,0.01901
3320.99745,0.01914
3318.93728,0.01922
3316.87711,0.01927
3314.81694,0.01937
3312.75676,0.01948
3310.69659,0.01951
3308.63642,0.01936
3306.57625,0.01908
3304.51608,0.01875
3302.45590,0.01856
3300.39573,0.01863
3298.33556,0.01895
3296.27539,0.01935
3294.21521,0.01964
3292.15504,0.01969
3290.09487,0.01954
3288.03470,0.01935
3285.97453,0.01926
3283.91435,0.01931
3281.85418,0.01948
3279.79401,0.01971
3277.73384,0.02001
3275.67367,0.02033
3273.61349,0.02051
3271.55332,0.02044
3269.49315,0.02015
3267.43298,0.01982
3265.37281,0.01960
3263.31263,0.01953
3261.25246,0.01957
3259.19229,0.01964
3257.13212,0.01966
3255.07194,0.01958
3253.01177,0.01933
3250.95160,0.01896
3248.89143,0.01857
3246.83126,0.01832
3244.77108,0.01834
3242.71091,0.01857
3240.65074,0.01888
3238.59057,0.01907
3236.53040,0.01902
3234.47022,0.01878
3232.41005,0.01850
3230.34988,0.01835
3228.28971,0.01836
3226.22954,0.01846
3224.16936,0.01852
3222.10919,0.01853
3220.04902,0.01850
3217.98885,0.01847
3215.92867,0.01840
3213.86850,0.01829
3211.80833,0.01816
3209.74816,0.01801
3207.68799,0.01786
3205.62781,0.01771
3203.56764,0.01760
3201.50747,0.01758
3199.44730,0.01759
3197.38713,0.01758
3195.32695,0.01756
3193.26678,0.01755
3191.20661,0.01755
3189.14644,0.01751
3187.08626,0.01732
3185.02609,0.01705
3182.96592,0.01687
3180.90575,0.01680
3178.84558,0.01669
3176.78540,0.01644
3174.72523,0.01615
3172.66506,0.01595
3170.60489,0.01589
3168.54472,0.01588
3166.48454,0.01582
3164.42437,0.01566
3162.36420,0.01547
3160.30403,0.01528
3158.24386,0.01506
3156.18368,0.01480
3154.12351,0.01458
3152.06334,0.01451
3150.00317,0.01459
3147.94299,0.01476
3145.88282,0.01496
3143.82265,0.01515
3141.76248,0.01521
3139.70231,0.01502
3137.64213,0.01457
3135.58196,0.01402
3133.52179,0.01354
3131.46162,0.01326
3129.40145,0.01320
3127.34127,0.01324
3125.28110,0.01322
3123.22093,0.01312
3121.16076,0.01303
3119.10058,0.01294
3117.04041,0.01274
3114.98024,0.01245
3112.92007,0.01221
3110.85990,0.01213
3108.79972,0.01221
3106.73955,0.01235
3104.67938,0.01239
3102.61921,0.01225
3100.55904,0.01201
3098.49886,0.01181
3096.43869,0.01170
3094.37852,0.01163
3092.31835,0.01153
3090.25818,0.01140
3088.19800,0.01134
3086.13783,0.01138
3084.07766,0.01141
3082.01749,0.01129
3079.95731,0.01107
3077.89714,0.01086
3075.83697,0.01071
3073.77680,0.01054
3071.71663,0.01028
3069.65645,0.00997
3067.59628,0.00973
3065.53611,0.00971
3063.47594,0.00993
3061.41577,0.01015
3059.35559,0.01018
3057.29542,0.00999
3055.23525,0.00975
3053.17508,0.00956
3051.11491,0.00940
3049.05473,0.00921
3046.99456,0.00901
3044.93439,0.00890
3042.87422,0.00892
3040.81404,0.00901
3038.75387,0.00907
3036.69370,0.00897
3034.63353,0.00871
3032.57336,0.00835
3030.51318,0.00802
3028.45301,0.00783
3026.39284,0.00783
3024.33267,0.00794
3022.27250,0.00799
3020.21232,0.00792
3018.15215,0.00778
3016.09198,0.00763
3014.03181,0.00750
3011.97163,0.00743
3009.91146,0.00745
3007.85129,0.00756
3005.79112,0.00771
3003.73095,0.00784
3001.67077,0.00779
2999.61060,0.00755
2997.55043,0.00728
2995.49026,0.00729
2993.43009,0.00751
2991.36991,0.00768
2989.30974,0.00777
2987.24957,0.00786
2985.18940,0.00795
2983.12923,0.00805
2981.06905,0.00821
2979.00888,0.00828
2976.94871,0.00821
2974.88854,0.00830
2972.82836,0.00867
2970.76819,0.00901
2968.70802,0.00904
2966.64785,0.00881
2964.58768,0.00859
2962.52750,0.00848
2960.46733,0.00848
2958.40716,0.00867
2956.34699,0.00905
2954.28682,0.00940
2952.22664,0.00966
2950.16647,0.01010
2948.10630,0.01060
2946.04613,0.01071
2943.98596,0.01052
2941.92578,0.01046
2939.86561,0.01062
2937.80544,0.01089
2935.74527,0.01114
2933.68509,0.01131
2931.62492,0.01135
2929.56475,0.01123
2927.50458,0.01103
2925.44441,0.01096
2923.38423,0.01102
2921.32406,0.01103
2919.26389,0.01100
2917.20372,0.01099
2915.14355,0.01084
2913.08337,0.01045
2911.02320,0.00998
2908.96303,0.00976
2906.90286,0.00985
2904.84268,0.01002
2902.78251,0.01013
2900.72234,0.01018
2898.66217,0.01008
2896.60200,0.00981
2894.54182,0.00954
2892.48165,0.00944
2890.42148,0.00945
2888.36131,0.00939
2886.30114,0.00919
2884.24096,0.00891
2882.18079,0.00872
2880.12062,0.00878
2878.06045,0.00901
2876.00028,0.00920
2873.94010,0.00926
2871.87993,0.00924
2869.81976,0.00919
2867.75959,0.00908
2865.69941,0.00891
2863.63924,0.00875
2861.57907,0.00858
2859.51890,0.00834
2857.45873,0.00819
2855.39855,0.00828
2853.33838,0.00844
2851.27821,0.00844
2849.21804,0.00831
2847.15787,0.00812
2845.09769,0.00792
2843.03752,0.00779
2840.97735,0.00767
2838.91718,0.00744
2836.85700,0.00715
2834.79683,0.00690
2832.73666,0.00673
2830.67649,0.00661
2828.61632,0.00652
2826.55614,0.00651
2824.49597,0.00653
2822.43580,0.00653
2820.37563,0.00663
2818.31546,0.00687
2816.25528,0.00711
2814.19511,0.00723
2812.13494,0.00719
2810.07477,0.00711
2808.01460,0.00716
2805.95442,0.00718
2803.89425,0.00689
2801.83408,0.00651
2799.77391,0.00634
2797.71373,0.00630
2795.65356,0.00625
2793.59339,0.00629
2791.53322,0.00642
2789.47305,0.00642
2787.41287,0.00625
2785.35270,0.00606
2783.29253,0.00593
2781.23236,0.00583
2779.17219,0.00577
2777.11201,0.00584
2775.05184,0.00594
2772.99167,0.00592
2770.93150,0.00579
2768.87133,0.00568
2766.81115,0.00566
2764.75098,0.00564
2762.69081,0.00560
2760.63064,0.00570
2758.57046,0.00580
2756.51029,0.00566
2754.45012,0.00537
2752.38995,0.00524
2750.32978,0.00538
2748.26960,0.00560
2746.20943,0.00568
2744.14926,0.00561
2742.08909,0.00555
2740.02892,0.00569
2737.96874,0.00597
2735.90857,0.00615
2733.84840,0.00615
2731.78823,0.00597
2729.72805,0.00565
2727.66788,0.00544
2725.60771,0.00549
2723.54754,0.00565
2721.48737,0.00581
2719.42719,0.00593
2717.36702,0.00593
2715.30685,0.00572
2713.24668,0.00541
2711.18651,0.00528
2709.12633,0.00548
2707.06616,0.00577
2705.00599,0.00580
2702.94582,0.00561
2700.88565,0.00547
2698.82547,0.00539
2696.76530,0.00527
2694.70513,0.00520
2692.64496,0.00534
2690.58478,0.00566
2688.52461,0.00600
2686.46444,0.00610
2684.40427,0.00581
2682.34410,0.00538
2680.28392,0.00516
2678.22375,0.00514
2676.16358,0.00510
2674.10341,0.00488
2672.04324,0.00472
2669.98306,0.00486
2667.92289,0.00517
2665.86272,0.00542
2663.80255,0.00561
2661.74238,0.00579
2659.68220,0.00590
2657.62203,0.00590
2655.56186,0.00580
2653.50169,0.00573
2651.44151,0.00574
2649.38134,0.00570
2647.32117,0.00553
2645.26100,0.00538
2643.20083,0.00532
2641.14065,0.00521
2639.08048,0.00501
2637.02031,0.00488
2634.96014,0.00489
2632.89997,0.00495
2630.83979,0.00504
2628.77962,0.00517
2626.71945,0.00527
2624.65928,0.00532
2622.59910,0.00541
2620.53893,0.00549
2618.47876,0.00531
2616.41859,0.00493
2614.35842,0.00472
2612.29824,0.00485
2610.23807,0.00502
2608.17790,0.00499
2606.11773,0.00498
2604.05756,0.00507
2601.99738,0.00502
2599.93721,0.00480
2597.87704,0.00456
2595.81687,0.00438
2593.75670,0.00424
2591.69652,0.00417
2589.63635,0.00432
2587.57618,0.00464
2585.51601,0.00495
2583.45583,0.00514
2581.39566,0.00508
2579.33549,0.00463
2577.27532,0.00401
2575.21515,0.00363
2573.15497,0.00363
2571.09480,0.00371
2569.03463,0.00369
2566.97446,0.00375
2564.91429,0.00396
2562.85411,0.00419
2560.79394,0.00430
2558.73377,0.00420
2556.67360,0.00391
2554.61342,0.00361
2552.55325,0.00340
2550.49308,0.00329
2548.43291,0.00350
2546.37274,0.00414
2544.31256,0.00472
2542.25239,0.00482
2540.19222,0.00457
2538.13205,0.00433
2536.07188,0.00429
2534.01170,0.00445
2531.95153,0.00463
2529.89136,0.00463
2527.83119,0.00442
2525.77102,0.00417
2523.71084,0.00404
2521.65067,0.00399
2519.59050,0.00389
2517.53033,0.00365
2515.47015,0.00338
2513.40998,0.00324
2511.34981,0.00314
2509.28964,0.00309
2507.22947,0.00341
2505.16929,0.00393
2503.10912,0.00405
2501.04895,0.00374
2498.98878,0.00341
2496.92861,0.00344
2494.86843,0.00390
2492.80826,0.00433
2490.74809,0.00430
2488.68792,0.00418
2486.62775,0.00450
2484.56757,0.00492
2482.50740,0.00477
2480.44723,0.00415
2478.38706,0.00373
2476.32688,0.00378
2474.26671,0.00397
2472.20654,0.00401
2470.14637,0.00383
2468.08620,0.00359
2466.02602,0.00345
2463.96585,0.00346
2461.90568,0.00348
2459.84551,0.00341
2457.78534,0.00336
2455.72516,0.00364
2453.66499,0.00404
2451.60482,0.00399
2449.54465,0.00368
2447.48447,0.00386
2445.42430,0.00435
2443.36413,0.00445
2441.30396,0.00416
2439.24379,0.00399
2437.18361,0.00404
2435.12344,0.00400
2433.06327,0.00371
2431.00310,0.00346
2428.94293,0.00352
2426.88275,0.00376
2424.82258,0.00398
2422.76241,0.00405
2420.70224,0.00371
2418.64207,0.00309
2416.58189,0.00281
2414.52172,0.00315
2412.46155,0.00365
2410.40138,0.00375
2408.34120,0.00353
2406.28103,0.00331
2404.22086,0.00315
2402.16069,0.00307
2400.10052,0.00324
2398.04034,0.00363
2395.98017,0.00395
2393.92000,0.00397
2391.85983,0.00370
2389.79966,0.00337
2387.73948,0.00312
2385.67931,0.00298
2383.61914,0.00293
2381.55897,0.00297
2379.49880,0.00316
2377.43862,0.00354
2375.37845,0.00388
2373.31828,0.00376
2371.25811,0.00307
2369.19793,0.00255
2367.13776,0.00333
2365.07759,0.00537
2363.01742,0.00711
2360.95725,0.00710
2358.89707,0.00525
2356.83690,0.00272
2354.77673,0.00110
2352.71656,0.00116
2350.65639,0.00229
2348.59621,0.00326
2346.53604,0.00343
2344.47587,0.00297
2342.41570,0.00241
2340.35552,0.00216
2338.29535,0.00220
2336.23518,0.00228
2334.17501,0.00224
2332.11484,0.00210
2330.05466,0.00189
2327.99449,0.00180
2325.93432,0.00209
2323.87415,0.00281
2321.81398,0.00352
2319.75380,0.00367
2317.69363,0.00332
2315.63346,0.00291
2313.57329,0.00281
2311.51312,0.00305
2309.45294,0.00343
2307.39277,0.00370
2305.33260,0.00374
2303.27243,0.00359
2301.21225,0.00342
2299.15208,0.00336
2297.09191,0.00350
2295.03174,0.00386
2292.97157,0.00439
2290.91139,0.00502
2288.85122,0.00560
2286.79105,0.00589
2284.73088,0.00585
2282.67071,0.00566
2280.61053,0.00545
2278.55036,0.00510
2276.49019,0.00460
2274.43002,0.00412
2272.36984,0.00384
2270.30967,0.00381
2268.24950,0.00397
2266.18933,0.00430
2264.12916,0.00475
2262.06898,0.00519
2260.00881,0.00549
2257.94864,0.00563
2255.88847,0.00557
2253.82830,0.00536
2251.76812,0.00516
2249.70795,0.00520
2247.64778,0.00555
2245.58761,0.00589
2243.52744,0.00582
2241.46726,0.00561
2239.40709,0.00546
2237.34692,0.00515
2235.28675,0.00478
2233.22657,0.00467
2231.16640,0.00466
2229.10623,0.00458
2227.04606,0.00476
2224.98589,0.00527
2222.92571,0.00526
2220.86554,0.00456
2218.80537,0.00432
2216.74520,0.00502
2214.68503,0.00574
2212.62485,0.00555
2210.56468,0.00462
2208.50451,0.00403
2206.44434,0.00426
2204.38417,0.00468
2202.32399,0.00473
2200.26382,0.00421
2198.20365,0.00323
2196.14348,0.00269
2194.08330,0.00332
2192.02313,0.00469
2189.96296,0.00615
2187.90279,0.00684
2185.84262,0.00591
2183.78244,0.00423
2181.72227,0.00356
2179.66210,0.00399
2177.60193,0.00418
2175.54176,0.00338
2173.48158,0.00221
2171.42141,0.00192
2169.36124,0.00334
2167.30107,0.00594
2165.24089,0.00797
2163.18072,0.00797
2161.12055,0.00638
2159.06038,0.00497
2157.00021,0.00463
2154.94003,0.00486
2152.87986,0.00506
2150.81969,0.00498
2148.75952,0.00434
2146.69935,0.00317
2144.63917,0.00234
2142.57900,0.00235
2140.51883,0.00236
2138.45866,0.00159
2136.39849,0.00046
2134.33831,0.00000
2132.27814,0.00074
2130.21797,0.00217
2128.15780,0.00337
2126.09762,0.00426
2124.03745,0.00497
2121.97728,0.00498
2119.91711,0.00430
2117.85694,0.00392
2115.79676,0.00434
2113.73659,0.00511
2111.67642,0.00561
2109.61625,0.00543
2107.55608,0.00466
2105.49590,0.00412
2103.43573,0.00431
2101.37556,0.00466
2099.31539,0.00452
2097.25521,0.00412
2095.19504,0.00383
2093.13487,0.00374
2091.07470,0.00381
2089.01453,0.00401
2086.95435,0.00433
2084.89418,0.00468
2082.83401,0.00491
2080.77384,0.00482
2078.71367,0.00446
2076.65349,0.00406
2074.59332,0.00381
2072.53315,0.00367
2070.47298,0.00364
2068.41281,0.00386
2066.35263,0.00444
2064.29246,0.00526
2062.23229,0.00604
2060.17212,0.00655
2058.11194,0.00671
2056.05177,0.00653
2053.99160,0.00609
2051.93143,0.00551
2049.87126,0.00510
2047.81108,0.00513
2045.75091,0.00552
2043.69074,0.00596
2041.63057,0.00621
2039.57040,0.00612
2037.51022,0.00555
2035.45005,0.00439
2033.38988,0.00279
2031.32971,0.00125
2029.26954,0.00025
2027.20936,0.00000
2025.14919,0.00057
2023.08902,0.00169
2021.02885,0.00257
2018.96867,0.00259
2016.90850,0.00204
2014.84833,0.00175
2012.78816,0.00221
2010.72799,0.00316
2008.66781,0.00402
2006.60764,0.00455
2004.54747,0.00488
2002.48730,0.00505
2000.42713,0.00497
1998.36695,0.00461
1996.30678,0.00393
1994.24661,0.00305
1992.18644,0.00236
1990.12626,0.00229
1988.06609,0.00294
1986.00592,0.00409
1983.94575,0.00536
1981.88558,0.00633
1979.82540,0.00664
1977.76523,0.00617
1975.70506,0.00521
1973.64489,0.00423
1971.58472,0.00356
1969.52454,0.00327
1967.46437,0.00328
1965.40420,0.00364
1963.34403,0.00428
1961.28386,0.00465
1959.22368,0.00435
1957.16351,0.00351
1955.10334,0.00257
1953.04317,0.00189
1950.98299,0.00164
1948.92282,0.00167
1946.86265,0.00166
1944.80248,0.00150
1942.74231,0.00136
1940.68213,0.00142
1938.62196,0.00163
1936.56179,0.00180
1934.50162,0.00183
1932.44145,0.00187
1930.38127,0.00213
1928.32110,0.00259
1926.26093,0.00295
1924.20076,0.00290
1922.14059,0.00250
1920.08041,0.00206
1918.02024,0.00181
1915.96007,0.00174
1913.89990,0.00173
1911.83972,0.00169
1909.77955,0.00162
1907.71938,0.00152
1905.65921,0.00147
1903.59904,0.00158
1901.53886,0.00188
1899.47869,0.00221
1897.41852,0.00234
1895.35835,0.00218
1893.29818,0.00185
1891.23800,0.00160
1889.17783,0.00151
1887.11766,0.00161
1885.05749,0.00193
1882.99731,0.00239
1880.93714,0.00273
1878.87697,0.00276
1876.81680,0.00245
1874.75663,0.00191
1872.69645,0.00127
1870.63628,0.00070
1868.57611,0.00037
1866.51594,0.00040
1864.45577,0.00073
1862.39559,0.00116
1860.33542,0.00150
1858.27525,0.00169
1856.21508,0.00177
1854.15491,0.00183
1852.09473,0.00193
1850.03456,0.00210
1847.97439,0.00222
1845.91422,0.00211
1843.85404,0.00171
1841.79387,0.00128
1839.73370,0.00110
1837.67353,0.00121
1835.61336,0.00147
1833.55318,0.00175
1831.49301,0.00193
1829.43284,0.00192
1827.37267,0.00176
1825.31250,0.00153
1823.25232,0.00132
1821.19215,0.00116
1819.13198,0.00107
1817.07181,0.00104
1815.01163,0.00102
1812.95146,0.00099
1810.89129,0.00099
1808.83112,0.00107
1806.77095,0.00124
1804.71077,0.00141
1802.65060,0.00147
1800.59043,0.00136
1798.53026,0.00115
1796.47009,0.00095
1794.40991,0.00082
1792.34974,0.00075
1790.28957,0.00076
1788.22940,0.00087
1786.16923,0.00110
1784.10905,0.00137
1782.04888,0.00154
1779.98871,0.00153
1777.92854,0.00138
1775.86836,0.00116
1773.80819,0.00094
1771.74802,0.00083
1769.68785,0.00094
1767.62768,0.00131
1765.56750,0.00182
1763.50733,0.00231
1761.44716,0.00260
1759.38699,0.00266
1757.32682,0.00260
1755.26664,0.00261
1753.20647,0.00280
1751.14630,0.00311
1749.08613,0.00341
1747.02596,0.00363
1744.96578,0.00383
1742.90561,0.00408
1740.84544,0.00433
1738.78527,0.00450
1736.72509,0.00453
1734.66492,0.00444
1732.60475,0.00439
1730.54458,0.00445
1728.48441,0.00455
1726.42423,0.00459
1724.36406,0.00452
1722.30389,0.00441
1720.24372,0.00423
1718.18355,0.00396
1716.12337,0.00367
1714.06320,0.00348
1712.00303,0.00334
1709.94286,0.00313
1707.88268,0.00284
1705.82251,0.00258
1703.76234,0.00245
1701.70217,0.00246
1699.64200,0.00251
1697.58182,0.00260
1695.52165,0.00274
1693.46148,0.00292
1691.40131,0.00303
1689.34114,0.00299
1687.28096,0.00284
1685.22079,0.00269
1683.16062,0.00276
1681.10045,0.00314
1679.04028,0.00370
1676.98010,0.00420
1674.91993,0.00450
1672.85976,0.00466
1670.79959,0.00480
1668.73941,0.00502
1666.67924,0.00529
1664.61907,0.00555
1662.55890,0.00581
1660.49873,0.00607
1658.43855,0.00627
1656.37838,0.00640
1654.31821,0.00648
1652.25804,0.00658
1650.19787,0.00674
1648.13769,0.00701
1646.07752,0.00738
1644.01735,0.00774
1641.95718,0.00797
1639.89701,0.00806
1637.83683,0.00811
1635.77666,0.00820
1633.71649,0.00838
1631.65632,0.00858
1629.59614,0.00868
1627.53597,0.00869
1625.47580,0.00871
1623.41563,0.00882
1621.35546,0.00896
1619.29528,0.00904
1617.23511,0.00904
1615.17494,0.00902
1613.11477,0.00899
1611.05460,0.00895
1608.99442,0.00887
1606.93425,0.00872
1604.87408,0.00846
1602.81391,0.00807
1600.75373,0.00764
1598.69356,0.00725
1596.63339,0.00692
1594.57322,0.00662
1592.51305,0.00632
1590.45287,0.00599
1588.39270,0.00558
1586.33253,0.00508
1584.27236,0.00454
1582.21219,0.00399
1580.15201,0.00346
1578.09184,0.00297
1576.03167,0.00258
1573.97150,0.00237
1571.91133,0.00227
1569.85115,0.00222
1567.79098,0.00219
1565.73081,0.00209
1563.67064,0.00183
1561.61046,0.00141
1559.55029,0.00105
1557.49012,0.00103
1555.42995,0.00130
1553.36978,0.00154
1551.30960,0.00153
1549.24943,0.00130
1547.18926,0.00092
1545.12909,0.00047
1543.06892,0.00010
1541.00874,0.00000
1538.94857,0.00019
1536.88840,0.00051
1534.82823,0.00076
1532.76805,0.00092
1530.70788,0.00099
1528.64771,0.00094
1526.58754,0.00076
1524.52737,0.00048
1522.46719,0.00018
1520.40702,0.00000
1518.34685,0.00002
1516.28668,0.00016
1514.22651,0.00028
1512.16633,0.00023
1510.10616,0.00002
1508.04599,-0.00014
1505.98582,0.00001
1503.92565,0.00043
1501.86547,0.00083
1499.80530,0.00103
1497.74513,0.00108
1495.68496,0.00113
1493.62478,0.00116
1491.56461,0.00111
1489.50444,0.00109
1487.44427,0.00122
1485.38410,0.00146
1483.32392,0.00171
1481.26375,0.00192
1479.20358,0.00209
1477.14341,0.00220
1475.08324,0.00226
1473.02306,0.00238
1470.96289,0.00264
1468.90272,0.00298
1466.84255,0.00332
1464.78238,0.00361
1462.72220,0.00381
1460.66203,0.00383
1458.60186,0.00373
1456.54169,0.00369
1454.48151,0.00386
1452.42134,0.00419
1450.36117,0.00456
1448.30100,0.00489
1446.24083,0.00515
1444.18065,0.00534
1442.12048,0.00550
1440.06031,0.00566
1438.00014,0.00585
1435.93997,0.00604
1433.87979,0.00619
1431.81962,0.00633
1429.75945,0.00653
1427.69928,0.00675
1425.63910,0.00691
1423.57893,0.00698
1421.51876,0.00701
1419.45859,0.00703
1417.39842,0.00710
1415.33824,0.00724
1413.27807,0.00740
1411.21790,0.00747
1409.15773,0.00740
1407.09756,0.00724
1405.03738,0.00706
1402.97721,0.00683
1400.91704,0.00655
1398.85687,0.00628
1396.79670,0.00613
1394.73652,0.00611
1392.67635,0.00614
1390.61618,0.00611
1388.55601,0.00605
1386.49583,0.00609
1384.43566,0.00630
1382.37549,0.00662
1380.31532,0.00690
1378.25515,0.00705
1376.19497,0.00707
1374.13480,0.00704
1372.07463,0.00701
1370.01446,0.00698
1367.95429,0.00691
1365.89411,0.00684
1363.83394,0.00676
1361.77377,0.00671
1359.71360,0.00668
1357.65343,0.00667
1355.59325,0.00667
1353.53308,0.00668
1351.47291,0.00669
1349.41274,0.00665
1347.35256,0.00650
1345.29239,0.00627
1343.23222,0.00607
1341.17205,0.00595
1339.11188,0.00598
1337.05170,0.00608
1334.99153,0.00612
1332.93136,0.00605
1330.87119,0.00595
1328.81102,0.00592
1326.75084,0.00600
1324.69067,0.00612
1322.63050,0.00617
1320.57033,0.00613
1318.51015,0.00607
1316.44998,0.00600
1314.38981,0.00595
1312.32964,0.00590
1310.26947,0.00586
1308.20929,0.00583
1306.14912,0.00581
1304.08895,0.00576
1302.02878,0.00564
1299.96861,0.00545
1297.90843,0.00522
1295.84826,0.00503
1293.78809,0.00491
1291.72792,0.00482
1289.66775,0.00474
1287.60757,0.00468
1285.54740,0.00463
1283.48723,0.00460
1281.42706,0.00462
1279.36688,0.00471
1277.30671,0.00488
1275.24654,0.00511
1273.18637,0.00537
1271.12620,0.00560
1269.06602,0.00578
1267.00585,0.00589
1264.94568,0.00595
1262.88551,0.00605
1260.82534,0.00629
1258.76516,0.00662
1256.70499,0.00693
1254.64482,0.00716
1252.58465,0.00730
1250.52447,0.00735
1248.46430,0.00736
1246.40413,0.00731
1244.34396,0.00721
1242.28379,0.00707
1240.22361,0.00688
1238.16344,0.00663
1236.10327,0.00635
1234.04310,0.00608
1231.98293,0.00588
1229.92275,0.00570
1227.86258,0.00548
1225.80241,0.00525
1223.74224,0.00508
1221.68207,0.00495
1219.62189,0.00478
1217.56172,0.00454
1215.50155,0.00426
1213.44138,0.00398
1211.38120,0.00366
1209.32103,0.00325
1207.26086,0.00276
1205.20069,0.00223
1203.14052,0.00172
1201.08034,0.00127
1199.02017,0.00087
1196.96000,0.00056
1194.89983,0.00040
1192.83966,0.00034
1190.77948,0.00019
1188.71931,0.00000
1186.65914,-0.00003
1184.59897,0.00016
1182.53880,0.00032
1180.47862,0.00050
1178.41845,0.00096
1176.35828,0.00170
1174.29811,0.00244
1172.23793,0.00285
1170.17776,0.00289
1168.11759,0.00293
1166.05742,0.00328
1163.99725,0.00385
1161.93707,0.00446
1159.87690,0.00495
1157.81673,0.00523
1155.75656,0.00540
1153.69639,0.00572
1151.63621,0.00629
1149.57604,0.00695
1147.51587,0.00742
1145.45570,0.00764
1143.39552,0.00778
1141.33535,0.00795
1139.27518,0.00818
1137.21501,0.00844
1135.15484,0.00858
1133.09466,0.00851
1131.03449,0.00845
1128.97432,0.00867
1126.91415,0.00909
1124.85398,0.00941
1122.79380,0.00958
1120.73363,0.00987
1118.67346,0.01041
1116.61329,0.01100
1114.55312,0.01150
1112.49294,0.01185
1110.43277,0.01204
1108.37260,0.01221
1106.31243,0.01250
1104.25225,0.01290
1102.19208,0.01342
1100.13191,0.01407
1098.07174,0.01473
1096.01157,0.01537
1093.95139,0.01599
1091.89122,0.01645
1089.83105,0.01682
1087.77088,0.01736
1085.71071,0.01819
1083.65053,0.01906
1081.59036,0.01965
1079.53019,0.01997
1077.47002,0.02014
1075.40985,0.02033
1073.34967,0.02062
1071.28950,0.02095
1069.22933,0.02129
1067.16916,0.02177
1065.10898,0.02240
1063.04881,0.02289
1060.98864,0.02305
1058.92847,0.02305
1056.86830,0.02315
1054.80812,0.02338
1052.74795,0.02370
1050.68778,0.02411
1048.62761,0.02463
1046.56744,0.02514
1044.50726,0.02543
1042.44709,0.02549
1040.38692,0.02552
1038.32675,0.02568
1036.26657,0.02610
1034.20640,0.02667
1032.14623,0.02694
1030.08606,0.02677
1028.02589,0.02647
1025.96571,0.02629
1023.90554,0.02626
1021.84537,0.02628
1019.78520,0.02624
1017.72503,0.02617
1015.66485,0.02614
1013.60468,0.02638
1011.54451,0.02685
1009.48434,0.02722
1007.42417,0.02726
1005.36399,0.02704
1003.30382,0.02675
1001.24365,0.02655
999.18348,0.02643
997.12330,0.02622
995.06313,0.02582
993.00296,0.02535
990.94279,0.02482
988.88262,0.02420
986.82244,0.02370
984.76227,0.02354
982.70210,0.02354
980.64193,0.02347
978.58176,0.02336
976.52158,0.02310
974.46141,0.02258
972.40124,0.02208
970.34107,0.02186
968.28089,0.02171
966.22072,0.02130
964.16055,0.02091
962.10038,0.02083
960.04021,0.02085
957.98003,0.02073
955.91986,0.02048
953.85969,0.02009
951.79952,0.01961
949.73935,0.01920
947.67917,0.01889
945.61900,0.01852
943.55883,0.01793
941.49866,0.01723
939.43849,0.01656
937.37831,0.01577
935.31814,0.01467
933.25797,0.01351
931.19780,0.01257
929.13762,0.01169
927.07745,0.01054
925.01728,0.00940
922.95711,0.00862
920.89694,0.00815
918.83676,0.00784
916.77659,0.00764
914.71642,0.00743
912.65625,0.00719
910.59608,0.00688
908.53590,0.00649
906.47573,0.00616
904.41556,0.00592
902.35539,0.00568
900.29522,0.00562
898.23504,0.00597
896.17487,0.00637
894.11470,0.00622
892.05453,0.00556
889.99435,0.00503
887.93418,0.00503
885.87401,0.00528
883.81384,0.00535
881.75367,0.00524
879.69349,0.00505
877.63332,0.00468
875.57315,0.00423
873.51298,0.00396
871.45281,0.00400
869.39263,0.00413
867.33246,0.00406
865.27229,0.00382
863.21212,0.00367
861.15194,0.00368
859.09177,0.00362
857.03160,0.00334
854.97143,0.00302
852.91126,0.00287
850.85108,0.00269
848.79091,0.00237
846.73074,0.00224
844.67057,0.00240
842.61040,0.00257
840.55022,0.00244
838.49005,0.00206
836.42988,0.00181
834.36971,0.00188
832.30954,0.00208
830.24936,0.00214
828.18919,0.00196
826.12902,0.00161
824.06885,0.00115
822.00867,0.00085
819.94850,0.00091
817.88833,0.00096
815.82816,0.00071
813.76799,0.00065
811.70781,0.00128
809.64764,0.00213
807.58747,0.00259
805.52730,0.00257
803.46713,0.00218
801.40695,0.00160
799.34678,0.00100
797.28661,0.00066
795.22644,0.00090
793.16627,0.00158
791.10609,0.00217
789.04592,0.00224
786.98575,0.00169
784.92558,0.00075
782.86540,0.00000
780.80523,0.00007
778.74506,0.00113
776.68489,0.00251
774.62472,0.00324
772.56454,0.00298
770.50437,0.00226
768.44420,0.00179
766.38403,0.00176
764.32386,0.00190
762.26368,0.00219
760.20351,0.00248
758.14334,0.00223
756.08317,0.00143
754.02299,0.00087
751.96282,0.00091
749.90265,0.00121
747.84248,0.00151
745.78231,0.00179
743.72213,0.00204
741.66196,0.00241
739.60179,0.00285
737.54162,0.00322
735.48145,0.00374
733.42127,0.00433
731.36110,0.00430
729.30093,0.00361
727.24076,0.00270
725.18059,0.00183
723.12041,0.00136
721.06024,0.00144
719.00007,0.00198
716.93990,0.00267
714.87972,0.00311
712.81955,0.00311
710.75938,0.00283
708.69921,0.00255
706.63904,0.00240
704.57886,0.00226
702.51869,0.00215
700.45852,0.00233
698.39835,0.00285
696.33818,0.00353
694.27800,0.00424
692.21783,0.00499
690.15766,0.00583
688.09749,0.00671
686.03731,0.00741
683.97714,0.00777
681.91697,0.00780
679.85680,0.00744
677.79663,0.00668
675.73645,0.00589
673.67628,0.00551
671.61611,0.00551
669.55594,0.00551
667.49577,0.00512
665.43559,0.00427
663.37542,0.00339
661.31525,0.00294
659.25508,0.00302
657.19491,0.00359
655.13473,0.00470
653.07456,0.00611
651.01439,0.00712
648.95422,0.00703
646.89404,0.00596
644.83387,0.00507
642.77370,0.00531
640.71353,0.00643
638.65336,0.00743
636.59318,0.00753
634.53301,0.00658
632.47284,0.00521
630.41267,0.00443
628.35250,0.00487
626.29232,0.00629
624.23215,0.00742
622.17198,0.00805
620.11181,0.00852
618.05164,0.00865
615.99146,0.00789
613.93129,0.00559
611.87112,0.00211
609.81095,0.00000
607.75077,-0.00038
605.69060,0.00103
603.63043,0.00171
601.57026,0.00113
599.51009,0.00000
