3996.73391,0.00010
3994.67373,0.00000
3992.61356,0.00003
3990.55339,0.00029
3988.49322,0.00070
3986.43305,0.00105
3984.37287,0.00123
3982.31270,0.00132
3980.25253,0.00139
3978.19236,0.00140
3976.13219,0.00124
3974.07201,0.00090
3972.01184,0.00055
3969.95167,0.00038
3967.89150,0.00039
3965.83133,0.00044
3963.77115,0.00042
3961.71098,0.00035
3959.65081,0.00035
3957.59064,0.00053
3955.53046,0.00081
3953.47029,0.00114
3951.41012,0.00143
3949.34995,0.00161
3947.28978,0.00166
3945.22960,0.00165
3943.16943,0.00160
3941.10926,0.00143
3939.04909,0.00113
3936.98892,0.00086
3934.92874,0.00078
3932.86857,0.00092
3930.80840,0.00111
3928.74823,0.00119
3926.68805,0.00117
3924.62788,0.00108
3922.56771,0.00097
3920.50754,0.00087
3918.44737,0.00078
3916.38719,0.00069
3914.32702,0.00059
3912.26685,0.00049
3910.20668,0.00044
3908.14651,0.00046
3906.08633,0.00050
3904.02616,0.00054
3901.96599,0.00061
3899.90582,0.00076
3897.84565,0.00094
3895.78547,0.00105
3893.72530,0.00100
3891.66513,0.00088
3889.60496,0.00084
3887.54478,0.00096
3885.48461,0.00119
3883.42444,0.00139
3881.36427,0.00144
3879.30410,0.00127
3877.24392,0.00103
3875.18375,0.00096
3873.12358,0.00120
3871.06341,0.00164
3869.00324,0.00195
3866.94306,0.00200
3864.88289,0.00191
3862.82272,0.00178
3860.76255,0.00154
3858.70237,0.00112
3856.64220,0.00067
3854.58203,0.00042
3852.52186,0.00052
3850.46169,0.00084
3848.40151,0.00110
3846.34134,0.00117
3844.28117,0.00113
3842.22100,0.00113
3840.16083,0.00125
3838.10065,0.00144
3836.04048,0.00154
3833.98031,0.00151
3831.92014,0.00145
3829.85997,0.00143
3827.79979,0.00139
3825.73962,0.00125
3823.67945,0.00101
3821.61928,0.00077
3819.55910,0.00070
3817.49893,0.00083
3815.43876,0.00110
3813.37859,0.00137
3811.31842,0.00152
3809.25824,0.00153
3807.19807,0.00152
3805.13790,0.00158
3803.07773,0.00174
3801.01756,0.00184
3798.95738,0.00174
3796.89721,0.00147
3794.83704,0.00123
3792.77687,0.00116
3790.71670,0.00127
3788.65652,0.00147
3786.59635,0.00170
3784.53618,0.00192
3782.47601,0.00205
3780.41583,0.00208
3778.35566,0.00204
3776.29549,0.00198
3774.23532,0.00189
3772.17515,0.00174
3770.11497,0.00155
3768.05480,0.00137
3765.99463,0.00120
3763.93446,0.00099
3761.87429,0.00074
3759.81411,0.00057
3757.75394,0.00068
3755.69377,0.00118
3753.63360,0.00195
3751.57342,0.00257
3749.51325,0.00269
3747.45308,0.00233
3745.39291,0.00174
3743.33274,0.00128
3741.27256,0.00117
3739.21239,0.00141
3737.15222,0.00181
3735.09205,0.00219
3733.03188,0.00245
3730.97170,0.00248
3728.91153,0.00228
3726.85136,0.00205
3724.79119,0.00191
3722.73102,0.00176
3720.67084,0.00148
3718.61067,0.00120
3716.55050,0.00108
3714.49033,0.00116
3712.43015,0.00141
3710.36998,0.00173
3708.30981,0.00192
3706.24964,0.00186
3704.18947,0.00165
3702.12929,0.00145
3700.06912,0.00142
3698.00895,0.00155
3695.94878,0.00174
3693.88861,0.00194
3691.82843,0.00216
3689.76826,0.00236
3687.70809,0.00250
3685.64792,0.00257
3683.58775,0.00254
3681.52757,0.00237
3679.46740,0.00212
3677.40723,0.00186
3675.34706,0.00160
3673.28688,0.00127
3671.22671,0.00099
3669.16654,0.00092
3667.10637,0.00116
3665.04620,0.00164
3662.98602,0.00222
3660.92585,0.00277
3658.86568,0.00315
3656.80551,0.00320
3654.74534,0.00296
3652.68516,0.00264
3650.62499,0.00250
3648.56482,0.00267
3646.50465,0.00304
3644.44447,0.00338
3642.38430,0.00358
3640.32413,0.00364
3638.26396,0.00369
3636.20379,0.00383
3634.14361,0.00410
3632.08344,0.00442
3630.02327,0.00466
3627.96310,0.00471
3625.90293,0.00461
3623.84275,0.00443
3621.78258,0.00428
3619.72241,0.00417
3617.66224,0.00410
3615.60207,0.00406
3613.54189,0.00413
3611.48172,0.00433
3609.42155,0.00460
3607.36138,0.00483
3605.30120,0.00506
3603.24103,0.00526
3601.18086,0.00538
3599.12069,0.00548
3597.06052,0.00565
3595.00034,0.00578
3592.94017,0.00577
3590.88000,0.00572
3588.81983,0.00579
3586.75966,0.00601
3584.69948,0.00630
3582.63931,0.00655
3580.57914,0.00672
3578.51897,0.00692
3576.45879,0.00724
3574.39862,0.00772
3572.33845,0.00829
3570.27828,0.00879
3568.21811,0.00911
3566.15793,0.00920
3564.09776,0.00919
3562.03759,0.00923
3559.97742,0.00945
3557.91725,0.00987
3555.85707,0.01038
3553.79690,0.01082
3551.73673,0.01100
3549.67656,0.01090
3547.61639,0.01069
3545.55621,0.01060
3543.49604,0.01077
3541.43587,0.01106
3539.37570,0.01130
3537.31552,0.01144
3535.25535,0.01156
3533.19518,0.01170
3531.13501,0.01186
3529.07484,0.01207
3527.01466,0.01238
3524.95449,0.01271
3522.89432,0.01294
3520.83415,0.01304
3518.77398,0.01308
3516.71380,0.01310
3514.65363,0.01309
3512.59346,0.01308
3510.53329,0.01311
3508.47312,0.01320
3506.41294,0.01341
3504.35277,0.01372
3502.29260,0.01406
3500.23243,0.01435
3498.17225,0.01461
3496.11208,0.01488
3494.05191,0.01516
3491.99174,0.01539
3489.93157,0.01557
3487.87139,0.01574
3485.81122,0.01585
3483.75105,0.01581
3481.69088,0.01564
3479.63071,0.01550
3477.57053,0.01555
3475.51036,0.01581
3473.45019,0.01611
3471.39002,0.01628
3469.32984,0.01627
3467.26967,0.01616
3465.20950,0.01609
3463.14933,0.01627
3461.08916,0.01669
3459.02898,0.01709
3456.96881,0.01730
3454.90864,0.01746
3452.84847,0.01776
3450.78830,0.01819
3448.72812,0.01860
3446.66795,0.01888
3444.60778,0.01893
3442.54761,0.01881
3440.48744,0.01866
3438.42726,0.01863
3436.36709,0.01872
3434.30692,0.01886
3432.24675,0.01901
3430.18657,0.01923
3428.12640,0.01955
3426.06623,0.01993
3424.00606,0.02031
3421.94589,0.02053
3419.88571,0.02046
3417.82554,0.02016
3415.76537,0.01985
3413.70520,0.01973
3411.64503,0.01980
3409.58485,0.01993
3407.52468,0.02001
3405.46451,0.02003
3403.40434,0.02001
3401.34416,0.02003
3399.28399,0.02016
3397.22382,0.02038
3395.16365,0.02062
3393.10348,0.02084
3391.04330,0.02100
3388.98313,0.02113
3386.92296,0.02126
3384.86279,0.02141
3382.80262,0.02155
3380.74244,0.02167
3378.68227,0.02178
3376.62210,0.02186
3374.56193,0.02194
3372.50176,0.02203
3370.44158,0.02207
3368.38141,0.02198
3366.32124,0.02180
3364.26107,0.02167
3362.20089,0.02164
3360.14072,0.02168
3358.08055,0.02180
3356.02038,0.02206
3353.96021,0.02245
3351.90003,0.02280
3349.83986,0.02296
3347.77969,0.02292
3345.71952,0.02277
3343.65935,0.02257
3341.59917,0.02237
3339.53900,0.02223
3337.47883,0.02212
3335.41866,0.02205
3333.35849,0.02212
3331.29831,0.02236
3329.23814,0.02269
3327.17797,0.02299
3325.11780,0.02322
3323.05762,0.02338
3320.99745,0.02341
3318.93728,0.02332
3316.87711,0.02319
3314.81694,0.02313
3312.75676,0.02311
3310.69659,0.02310
3308.63642,0.02307
3306.57625,0.02302
3304.51608,0.02301
3302.45590,0.02309
3300.39573,0.02333
3298.33556,0.02368
3296.27539,0.02406
3294.21521,0.02435
3292.15504,0.02442
3290.09487,0.02421
3288.03470,0.02378
3285.97453,0.02339
3283.91435,0.02326
3281.85418,0.02342
3279.79401,0.02370
3277.73384,0.02392
3275.67367,0.02400
3273.61349,0.02399
3271.55332,0.02395
3269.49315,0.02391
3267.43298,0.02387
3265.37281,0.02381
3263.31263,0.02383
3261.25246,0.02392
3259.19229,0.02400
3257.13212,0.02395
3255.07194,0.02381
3253.01177,0.02370
3250.95160,0.02359
3248.89143,0.02340
3246.83126,0.02314
3244.77108,0.02294
3242.71091,0.02291
3240.65074,0.02308
3238.59057,0.02333
3236.53040,0.02348
3234.47022,0.02338
3232.41005,0.02308
3230.34988,0.02274
3228.28971,0.02254
3226.22954,0.02249
3224.16936,0.02254
3222.10919,0.02262
3220.04902,0.02274
3217.98885,0.02281
3215.92867,0.02272
3213.86850,0.02244
3211.80833,0.02209
3209.74816,0.02176
3207.68799,0.02146
3205.62781,0.02119
3203.56764,0.02099
3201.50747,0.02094
3199.44730,0.02102
3197.38713,0.02111
3195.32695,0.02119
3193.26678,0.02125
3191.20661,0.02127
3189.14644,0.02116
3187.08626,0.02091
3185.02609,0.02065
3182.96592,0.02056
3180.90575,0.02064
3178.84558,0.02069
3176.78540,0.02054
3174.72523,0.02018
3172.66506,0.01977
3170.60489,0.01949
3168.54472,0.01932
3166.48454,0.01913
3164.42437,0.01887
3162.36420,0.01864
3160.30403,0.01850
3158.24386,0.01843
3156.18368,0.01835
3154.12351,0.01828
3152.06334,0.01830
3150.00317,0.01842
3147.94299,0.01854
3145.88282,0.01853
3143.82265,0.01836
3141.76248,0.01807
3139.70231,0.01771
3137.64213,0.01734
3135.58196,0.01700
3133.52179,0.01670
3131.46162,0.01646
3129.40145,0.01634
3127.34127,0.01638
3125.28110,0.01649
3123.22093,0.01656
3121.16076,0.01652
3119.10058,0.01629
3117.04041,0.01582
3114.98024,0.01524
3112.92007,0.01476
3110.85990,0.01451
3108.79972,0.01447
3106.73955,0.01452
3104.67938,0.01450
3102.61921,0.01438
3100.55904,0.01425
3098.49886,0.01417
3096.43869,0.01404
3094.37852,0.01381
3092.31835,0.01357
3090.25818,0.01345
3088.19800,0.01347
3086.13783,0.01358
3084.07766,0.01364
3082.01749,0.01357
3079.95731,0.01339
3077.89714,0.01314
3075.83697,0.01288
3073.77680,0.01263
3071.71663,0.01240
3069.65645,0.01218
3067.59628,0.01204
3065.53611,0.01203
3063.47594,0.01209
3061.41577,0.01206
3059.35559,0.01187
3057.29542,0.01162
3055.23525,0.01146
3053.17508,0.01139
3051.11491,0.01134
3049.05473,0.01128
3046.99456,0.01120
3044.93439,0.01107
3042.87422,0.01087
3040.81404,0.01063
3038.75387,0.01045
3036.69370,0.01031
3034.63353,0.01010
3032.57336,0.00977
3030.51318,0.00940
3028.45301,0.00920
3026.39284,0.00925
3024.33267,0.00947
3022.27250,0.00972
3020.21232,0.00988
3018.15215,0.00989
3016.09198,0.00978
3014.03181,0.00964
3011.97163,0.00955
3009.91146,0.00959
3007.85129,0.00969
3005.79112,0.00975
3003.73095,0.00969
3001.67077,0.00948
2999.61060,0.00922
2997.55043,0.00912
2995.49026,0.00930
2993.43009,0.00960
2991.36991,0.00979
2989.30974,0.00984
2987.24957,0.00986
2985.18940,0.00980
2983.12923,0.00973
2981.06905,0.00983
2979.00888,0.01009
2976.94871,0.01029
2974.88854,0.01041
2972.82836,0.01056
2970.76819,0.01075
2968.70802,0.01085
2966.64785,0.01071
2964.58768,0.01047
2962.52750,0.01046
2960.46733,0.01076
2958.40716,0.01109
2956.34699,0.01123
2954.28682,0.01118
2952.22664,0.01119
2950.16647,0.01149
2948.10630,0.01202
2946.04613,0.01253
2943.98596,0.01291
2941.92578,0.01313
2939.86561,0.01323
2937.80544,0.01331
2935.74527,0.01338
2933.68509,0.01343
2931.62492,0.01346
2929.56475,0.01340
2927.50458,0.01314
2925.44441,0.01290
2923.38423,0.01293
2921.32406,0.01308
2919.26389,0.01305
2917.20372,0.01281
2915.14355,0.01249
2913.08337,0.01219
2911.02320,0.01203
2908.96303,0.01212
2906.90286,0.01224
2904.84268,0.01209
2902.78251,0.01180
2900.72234,0.01177
2898.66217,0.01195
2896.60200,0.01203
2894.54182,0.01193
2892.48165,0.01189
2890.42148,0.01188
2888.36131,0.01168
2886.30114,0.01132
2884.24096,0.01098
2882.18079,0.01079
2880.12062,0.01086
2878.06045,0.01111
2876.00028,0.01129
2873.94010,0.01131
2871.87993,0.01125
2869.81976,0.01120
2867.75959,0.01116
2865.69941,0.01109
2863.63924,0.01089
2861.57907,0.01058
2859.51890,0.01029
2857.45873,0.01009
2855.39855,0.00992
2853.33838,0.00976
2851.27821,0.00971
2849.21804,0.00985
2847.15787,0.00995
2845.09769,0.00980
2843.03752,0.00941
2840.97735,0.00901
2838.91718,0.00873
2836.85700,0.00858
2834.79683,0.00838
2832.73666,0.00815
2830.67649,0.00808
2828.61632,0.00823
2826.55614,0.00838
2824.49597,0.00828
2822.43580,0.00805
2820.37563,0.00799
2818.31546,0.00818
2816.25528,0.00849
2814.19511,0.00870
2812.13494,0.00869
2810.07477,0.00853
2808.01460,0.00835
2805.95442,0.00822
2803.89425,0.00813
2801.83408,0.00807
2799.77391,0.00797
2797.71373,0.00773
2795.65356,0.00754
2793.59339,0.00764
2791.53322,0.00795
2789.47305,0.00818
2787.41287,0.00809
2785.35270,0.00777
2783.29253,0.00751
2781.23236,0.00748
2779.17219,0.00761
2777.11201,0.00774
2775.05184,0.00773
2772.99167,0.00752
2770.93150,0.00716
2768.87133,0.00679
2766.81115,0.00664
2764.75098,0.00676
2762.69081,0.00697
2760.63064,0.00715
2758.57046,0.00724
2756.51029,0.00720
2754.45012,0.00716
2752.38995,0.00729
2750.32978,0.00749
2748.26960,0.00756
2746.20943,0.00748
2744.14926,0.00740
2742.08909,0.00734
2740.02892,0.00724
2737.96874,0.00715
2735.90857,0.00716
2733.84840,0.00724
2731.78823,0.00720
2729.72805,0.00695
2727.66788,0.00678
2725.60771,0.00698
2723.54754,0.00741
2721.48737,0.00766
2719.42719,0.00758
2717.36702,0.00740
2715.30685,0.00724
2713.24668,0.00711
2711.18651,0.00700
2709.12633,0.00692
2707.06616,0.00686
2705.00599,0.00680
2702.94582,0.00680
2700.88565,0.00693
2698.82547,0.00711
2696.76530,0.00713
2694.70513,0.00698
2692.64496,0.00688
2690.58478,0.00698
2688.52461,0.00722
2686.46444,0.00729
2684.40427,0.00704
2682.34410,0.00671
2680.28392,0.00661
2678.22375,0.00668
2676.16358,0.00669
2674.10341,0.00653
2672.04324,0.00643
2669.98306,0.00650
2667.92289,0.00663
2665.86272,0.00669
2663.80255,0.00668
2661.74238,0.00663
2659.68220,0.00662
2657.62203,0.00669
2655.56186,0.00677
2653.50169,0.00681
2651.44151,0.00681
2649.38134,0.00673
2647.32117,0.00660
2645.26100,0.00658
2643.20083,0.00665
2641.14065,0.00664
2639.08048,0.00646
2637.02031,0.00627
2634.96014,0.00621
2632.89997,0.00628
2630.83979,0.00639
2628.77962,0.00652
2626.71945,0.00656
2624.65928,0.00651
2622.59910,0.00657
2620.53893,0.00680
2618.47876,0.00693
2616.41859,0.00667
2614.35842,0.00615
2612.29824,0.00574
2610.23807,0.00550
2608.17790,0.00542
2606.11773,0.00554
2604.05756,0.00574
2601.99738,0.00578
2599.93721,0.00564
2597.87704,0.00540
2595.81687,0.00513
2593.75670,0.00494
2591.69652,0.00499
2589.63635,0.00528
2587.57618,0.00565
2585.51601,0.00589
2583.45583,0.00598
2581.39566,0.00603
2579.33549,0.00601
2577.27532,0.00568
2575.21515,0.00505
2573.15497,0.00456
2571.09480,0.00449
2569.03463,0.00477
2566.97446,0.00517
2564.91429,0.00548
2562.85411,0.00554
2560.79394,0.00552
2558.73377,0.00566
2556.67360,0.00578
2554.61342,0.00553
2552.55325,0.00504
2550.49308,0.00483
2548.43291,0.00523
2546.37274,0.00598
2544.31256,0.00649
2542.25239,0.00643
2540.19222,0.00599
2538.13205,0.00544
2536.07188,0.00503
2534.01170,0.00500
2531.95153,0.00524
2529.89136,0.00542
2527.83119,0.00522
2525.77102,0.00473
2523.71084,0.00446
2521.65067,0.00457
2519.59050,0.00465
2517.53033,0.00459
2515.47015,0.00460
2513.40998,0.00472
2511.34981,0.00477
2509.28964,0.00473
2507.22947,0.00492
2505.16929,0.00535
2503.10912,0.00559
2501.04895,0.00537
2498.98878,0.00484
2496.92861,0.00455
2494.86843,0.00482
2492.80826,0.00532
2490.74809,0.00562
2488.68792,0.00578
2486.62775,0.00590
2484.56757,0.00585
2482.50740,0.00564
2480.44723,0.00543
2478.38706,0.00538
2476.32688,0.00550
2474.26671,0.00563
2472.20654,0.00568
2470.14637,0.00548
2468.08620,0.00499
2466.02602,0.00436
2463.96585,0.00395
2461.90568,0.00393
2459.84551,0.00413
2457.78534,0.00437
2455.72516,0.00464
2453.66499,0.00473
2451.60482,0.00436
2449.54465,0.00404
2447.48447,0.00443
2445.42430,0.00507
2443.36413,0.00508
2441.30396,0.00455
2439.24379,0.00410
2437.18361,0.00409
2435.12344,0.00446
2433.06327,0.00484
2431.00310,0.00492
2428.94293,0.00482
2426.88275,0.00476
2424.82258,0.00484
2422.76241,0.00494
2420.70224,0.00490
2418.64207,0.00478
2416.58189,0.00465
2414.52172,0.00443
2412.46155,0.00427
2410.40138,0.00436
2408.34120,0.00461
2406.28103,0.00484
2404.22086,0.00492
2402.16069,0.00477
2400.10052,0.00454
2398.04034,0.00453
2395.98017,0.00468
2393.92000,0.00476
2391.85983,0.00462
2389.79966,0.00435
2387.73948,0.00407
2385.67931,0.00380
2383.61914,0.00354
2381.55897,0.00330
2379.49880,0.00317
2377.43862,0.00327
2375.37845,0.00368
2373.31828,0.00431
2371.25811,0.00493
2369.19793,0.00537
2367.13776,0.00562
2365.07759,0.00557
2363.01742,0.00501
2360.95725,0.00401
2358.89707,0.00305
2356.83690,0.00263
2354.77673,0.00293
2352.71656,0.00373
2350.65639,0.00455
2348.59621,0.00498
2346.53604,0.00498
2344.47587,0.00489
2342.41570,0.00502
2340.35552,0.00532
2338.29535,0.00537
2336.23518,0.00484
2334.17501,0.00393
2332.11484,0.00314
2330.05466,0.00269
2327.99449,0.00240
2325.93432,0.00214
2323.87415,0.00213
2321.81398,0.00238
2319.75380,0.00261
2317.69363,0.00274
2315.63346,0.00295
2313.57329,0.00345
2311.51312,0.00417
2309.45294,0.00478
2307.39277,0.00496
2305.33260,0.00469
2303.27243,0.00430
2301.21225,0.00414
2299.15208,0.00429
2297.09191,0.00451
2295.03174,0.00457
2292.97157,0.00451
2290.91139,0.00460
2288.85122,0.00495
2286.79105,0.00534
2284.73088,0.00548
2282.67071,0.00530
2280.61053,0.00493
2278.55036,0.00456
2276.49019,0.00439
2274.43002,0.00453
2272.36984,0.00485
2270.30967,0.00506
2268.24950,0.00512
2266.18933,0.00526
2264.12916,0.00553
2262.06898,0.00569
2260.00881,0.00565
2257.94864,0.00549
2255.88847,0.00529
2253.82830,0.00498
2251.76812,0.00465
2249.70795,0.00458
2247.64778,0.00496
2245.58761,0.00535
2243.52744,0.00550
2241.46726,0.00575
2239.40709,0.00570
2237.34692,0.00473
2235.28675,0.00364
2233.22657,0.00344
2231.16640,0.00395
2229.10623,0.00480
2227.04606,0.00597
2224.98589,0.00681
2222.92571,0.00641
2220.86554,0.00521
2218.80537,0.00445
2216.74520,0.00444
2214.68503,0.00435
2212.62485,0.00360
2210.56468,0.00288
2208.50451,0.00339
2206.44434,0.00498
2204.38417,0.00622
2202.32399,0.00642
2200.26382,0.00611
2198.20365,0.00569
2196.14348,0.00526
2194.08330,0.00484
2192.02313,0.00439
2189.96296,0.00453
2187.90279,0.00553
2185.84262,0.00606
2183.78244,0.00547
2181.72227,0.00518
2179.66210,0.00600
2177.60193,0.00660
2175.54176,0.00553
2173.48158,0.00344
2171.42141,0.00226
2169.36124,0.00279
2167.30107,0.00441
2165.24089,0.00583
2163.18072,0.00588
2161.12055,0.00464
2159.06038,0.00341
2157.00021,0.00314
2154.94003,0.00372
2152.87986,0.00448
2150.81969,0.00499
2148.75952,0.00493
2146.69935,0.00429
2144.63917,0.00383
2142.57900,0.00377
2140.51883,0.00331
2138.45866,0.00253
2136.39849,0.00243
2134.33831,0.00330
2132.27814,0.00451
2130.21797,0.00509
2128.15780,0.00495
2126.09762,0.00523
2124.03745,0.00623
2121.97728,0.00677
2119.91711,0.00628
2117.85694,0.00558
2115.79676,0.00542
2113.73659,0.00567
2111.67642,0.00587
2109.61625,0.00588
2107.55608,0.00595
2105.49590,0.00623
2103.43573,0.00630
2101.37556,0.00618
2099.31539,0.00633
2097.25521,0.00653
2095.19504,0.00635
2093.13487,0.00574
2091.07470,0.00502
2089.01453,0.00460
2086.95435,0.00456
2084.89418,0.00472
2082.83401,0.00486
2080.77384,0.00492
2078.71367,0.00492
2076.65349,0.00494
2074.59332,0.00504
2072.53315,0.00524
2070.47298,0.00554
2068.41281,0.00597
2066.35263,0.00642
2064.29246,0.00666
2062.23229,0.00656
2060.17212,0.00635
2058.11194,0.00633
2056.05177,0.00639
2053.99160,0.00613
2051.93143,0.00549
2049.87126,0.00493
2047.81108,0.00496
2045.75091,0.00560
2043.69074,0.00636
2041.63057,0.00691
2039.57040,0.00714
2037.51022,0.00672
2035.45005,0.00530
2033.38988,0.00315
2031.32971,0.00118
2029.26954,0.00012
2027.20936,0.00000
2025.14919,0.00039
2023.08902,0.00094
2021.02885,0.00144
2018.96867,0.00172
2016.90850,0.00176
2014.84833,0.00185
2012.78816,0.00220
2010.72799,0.00258
2008.66781,0.00270
2006.60764,0.00269
2004.54747,0.00280
2002.48730,0.00307
2000.42713,0.00349
1998.36695,0.00395
1996.30678,0.00420
1994.24661,0.00413
1992.18644,0.00393
1990.12626,0.00387
1988.06609,0.00396
1986.00592,0.00413
1983.94575,0.00457
1981.88558,0.00537
1979.82540,0.00604
1977.76523,0.00594
1975.70506,0.00498
1973.64489,0.00369
1971.58472,0.00265
1969.52454,0.00218
1967.46437,0.00234
1965.40420,0.00288
1963.34403,0.00341
1961.28386,0.00360
1959.22368,0.00335
1957.16351,0.00275
1955.10334,0.00215
1953.04317,0.00204
1950.98299,0.00265
1948.92282,0.00355
1946.86265,0.00403
1944.80248,0.00374
1942.74231,0.00291
1940.68213,0.00211
1938.62196,0.00172
1936.56179,0.00167
1934.50162,0.00178
1932.44145,0.00201
1930.38127,0.00228
1928.32110,0.00249
1926.26093,0.00260
1924.20076,0.00262
1922.14059,0.00269
1920.08041,0.00281
1918.02024,0.00283
1915.96007,0.00271
1913.89990,0.00260
1911.83972,0.00263
1909.77955,0.00268
1907.71938,0.00267
1905.65921,0.00263
1903.59904,0.00271
1901.53886,0.00290
1899.47869,0.00301
1897.41852,0.00294
1895.35835,0.00273
1893.29818,0.00246
1891.23800,0.00215
1889.17783,0.00190
1887.11766,0.00185
1885.05749,0.00206
1882.99731,0.00243
1880.93714,0.00278
1878.87697,0.00296
1876.81680,0.00302
1874.75663,0.00301
1872.69645,0.00294
1870.63628,0.00276
1868.57611,0.00248
1866.51594,0.00226
1864.45577,0.00222
1862.39559,0.00233
1860.33542,0.00250
1858.27525,0.00270
1856.21508,0.00290
1854.15491,0.00308
1852.09473,0.00326
1850.03456,0.00339
1847.97439,0.00335
1845.91422,0.00307
1843.85404,0.00258
1841.79387,0.00216
1839.73370,0.00204
1837.67353,0.00225
1835.61336,0.00256
1833.55318,0.00277
1831.49301,0.00283
1829.43284,0.00280
1827.37267,0.00279
1825.31250,0.00278
1823.25232,0.00268
1821.19215,0.00252
1819.13198,0.00235
1817.07181,0.00223
1815.01163,0.00214
1812.95146,0.00208
1810.89129,0.00210
1808.83112,0.00218
1806.77095,0.00229
1804.71077,0.00238
1802.65060,0.00236
1800.59043,0.00218
1798.53026,0.00187
1796.47009,0.00160
1794.40991,0.00155
1792.34974,0.00170
1790.28957,0.00195
1788.22940,0.00221
1786.16923,0.00246
1784.10905,0.00267
1782.04888,0.00278
1779.98871,0.00277
1777.92854,0.00269
1775.86836,0.00263
1773.80819,0.00259
1771.74802,0.00252
1769.68785,0.00241
1767.62768,0.00236
1765.56750,0.00249
1763.50733,0.00280
1761.44716,0.00314
1759.38699,0.00335
1757.32682,0.00341
1755.26664,0.00351
1753.20647,0.00387
1751.14630,0.00449
1749.08613,0.00518
1747.02596,0.00564
1744.96578,0.00578
1742.90561,0.00577
1740.84544,0.00581
1738.78527,0.00599
1736.72509,0.00621
1734.66492,0.00630
1732.60475,0.00622
1730.54458,0.00605
1728.48441,0.00591
1726.42423,0.00578
1724.36406,0.00565
1722.30389,0.00553
1720.24372,0.00544
1718.18355,0.00531
1716.12337,0.00508
1714.06320,0.00484
1712.00303,0.00465
1709.94286,0.00448
1707.88268,0.00425
1705.82251,0.00398
1703.76234,0.00378
1701.70217,0.00371
1699.64200,0.00373
1697.58182,0.00376
1695.52165,0.00382
1693.46148,0.00391
1691.40131,0.00398
1689.34114,0.00400
1687.28096,0.00404
1685.22079,0.00417
1683.16062,0.00437
1681.10045,0.00458
1679.04028,0.00484
1676.98010,0.00514
1674.91993,0.00548
1672.85976,0.00584
1670.79959,0.00616
1668.73941,0.00642
1666.67924,0.00669
1664.61907,0.00707
1662.55890,0.00753
1660.49873,0.00786
1658.43855,0.00797
1656.37838,0.00795
1654.31821,0.00799
1652.25804,0.00817
1650.19787,0.00849
1648.13769,0.00883
1646.07752,0.00908
1644.01735,0.00925
1641.95718,0.00946
1639.89701,0.00976
1637.83683,0.01004
1635.77666,0.01014
1633.71649,0.01008
1631.65632,0.01003
1629.59614,0.01006
1627.53597,0.01010
1625.47580,0.01014
1623.41563,0.01021
1621.35546,0.01034
1619.29528,0.01048
1617.23511,0.01059
1615.17494,0.01060
1613.11477,0.01053
1611.05460,0.01036
1608.99442,0.01009
1606.93425,0.00973
1604.87408,0.00930
1602.81391,0.00881
1600.75373,0.00831
1598.69356,0.00782
1596.63339,0.00738
1594.57322,0.00700
1592.51305,0.00664
1590.45287,0.00624
1588.39270,0.00575
1586.33253,0.00521
1584.27236,0.00470
1582.21219,0.00428
1580.15201,0.00395
1578.09184,0.00369
1576.03167,0.00347
1573.97150,0.00328
1571.91133,0.00316
1569.85115,0.00306
1567.79098,0.00292
1565.73081,0.00268
1563.67064,0.00235
1561.61046,0.00199
1559.55029,0.00171
1557.49012,0.00161
1555.42995,0.00165
1553.36978,0.00165
1551.30960,0.00151
1549.24943,0.00125
1547.18926,0.00091
1545.12909,0.00057
1543.06892,0.00035
1541.00874,0.00031
1538.94857,0.00047
1536.88840,0.00071
1534.82823,0.00094
1532.76805,0.00107
1530.70788,0.00107
1528.64771,0.00099
1526.58754,0.00087
1524.52737,0.00075
1522.46719,0.00066
1520.40702,0.00063
1518.34685,0.00064
1516.28668,0.00062
1514.22651,0.00063
1512.16633,0.00072
1510.10616,0.00091
1508.04599,0.00111
1505.98582,0.00119
1503.92565,0.00116
1501.86547,0.00112
1499.80530,0.00111
1497.74513,0.00111
1495.68496,0.00115
1493.62478,0.00124
1491.56461,0.00138
1489.50444,0.00149
1487.44427,0.00156
1485.38410,0.00159
1483.32392,0.00165
1481.26375,0.00178
1479.20358,0.00198
1477.14341,0.00222
1475.08324,0.00248
1473.02306,0.00279
1470.96289,0.00320
1468.90272,0.00367
1466.84255,0.00411
1464.78238,0.00442
1462.72220,0.00461
1460.66203,0.00472
1458.60186,0.00480
1456.54169,0.00484
1454.48151,0.00488
1452.42134,0.00501
1450.36117,0.00520
1448.30100,0.00535
1446.24083,0.00540
1444.18065,0.00542
1442.12048,0.00552
1440.06031,0.00579
1438.00014,0.00620
1435.93997,0.00662
1433.87979,0.00693
1431.81962,0.00716
1429.75945,0.00734
1427.69928,0.00751
1425.63910,0.00765
1423.57893,0.00778
1421.51876,0.00793
1419.45859,0.00808
1417.39842,0.00813
1415.33824,0.00814
1413.27807,0.00817
1411.21790,0.00818
1409.15773,0.00812
1407.09756,0.00800
1405.03738,0.00788
1402.97721,0.00776
1400.91704,0.00762
1398.85687,0.00746
1396.79670,0.00732
1394.73652,0.00727
1392.67635,0.00727
1390.61618,0.00726
1388.55601,0.00721
1386.49583,0.00716
1384.43566,0.00720
1382.37549,0.00734
1380.31532,0.00752
1378.25515,0.00767
1376.19497,0.00777
1374.13480,0.00786
1372.07463,0.00792
1370.01446,0.00792
1367.95429,0.00782
1365.89411,0.00769
1363.83394,0.00756
1361.77377,0.00746
1359.71360,0.00736
1357.65343,0.00725
1355.59325,0.00713
1353.53308,0.00703
1351.47291,0.00698
1349.41274,0.00694
1347.35256,0.00689
1345.29239,0.00683
1343.23222,0.00676
1341.17205,0.00670
1339.11188,0.00666
1337.05170,0.00664
1334.99153,0.00660
1332.93136,0.00649
1330.87119,0.00635
1328.81102,0.00629
1326.75084,0.00637
1324.69067,0.00655
1322.63050,0.00668
1320.57033,0.00668
1318.51015,0.00657
1316.44998,0.00643
1314.38981,0.00632
1312.32964,0.00624
1310.26947,0.00622
1308.20929,0.00626
1306.14912,0.00627
1304.08895,0.00622
1302.02878,0.00609
1299.96861,0.00592
1297.90843,0.00575
1295.84826,0.00560
1293.78809,0.00547
1291.72792,0.00534
1289.66775,0.00521
1287.60757,0.00511
1285.54740,0.00503
1283.48723,0.00499
1281.42706,0.00501
1279.36688,0.00509
1277.30671,0.00521
1275.24654,0.00531
1273.18637,0.00543
1271.12620,0.00558
1269.06602,0.00575
1267.00585,0.00591
1264.94568,0.00612
1262.88551,0.00644
1260.82534,0.00687
1258.76516,0.00733
1256.70499,0.00770
1254.64482,0.00792
1252.58465,0.00798
1250.52447,0.00797
1248.46430,0.00795
1246.40413,0.00797
1244.34396,0.00801
1242.28379,0.00799
1240.22361,0.00781
1238.16344,0.00743
1236.10327,0.00694
1234.04310,0.00649
1231.98293,0.00619
1229.92275,0.00599
1227.86258,0.00585
1225.80241,0.00573
1223.74224,0.00560
1221.68207,0.00543
1219.62189,0.00516
1217.56172,0.00482
1215.50155,0.00446
1213.44138,0.00411
1211.38120,0.00377
1209.32103,0.00344
1207.26086,0.00311
1205.20069,0.00274
1203.14052,0.00229
1201.08034,0.00175
1199.02017,0.00121
1196.96000,0.00076
1194.89983,0.00048
1192.83966,0.00032
1190.77948,0.00016
1188.71931,0.00000
1186.65914,-0.00004
1184.59897,0.00018
1182.53880,0.00048
1180.47862,0.00070
1178.41845,0.00099
1176.35828,0.00156
1174.29811,0.00230
1172.23793,0.00279
1170.17776,0.00284
1168.11759,0.00287
1166.05742,0.00333
1163.99725,0.00416
1161.93707,0.00498
1159.87690,0.00550
1157.81673,0.00575
1155.75656,0.00590
1153.69639,0.00609
1151.63621,0.00649
1149.57604,0.00715
1147.51587,0.00791
1145.45570,0.00846
1143.39552,0.00859
1141.33535,0.00846
1139.27518,0.00842
1137.21501,0.00864
1135.15484,0.00898
1133.09466,0.00920
1131.03449,0.00926
1128.97432,0.00941
1126.91415,0.00980
1124.85398,0.01031
1122.79380,0.01073
1120.73363,0.01110
1118.67346,0.01154
1116.61329,0.01203
1114.55312,0.01248
1112.49294,0.01278
1110.43277,0.01295
1108.37260,0.01313
1106.31243,0.01347
1104.25225,0.01399
1102.19208,0.01459
1100.13191,0.01510
1098.07174,0.01550
1096.01157,0.01600
1093.95139,0.01678
1091.89122,0.01766
1089.83105,0.01846
1087.77088,0.01920
1085.71071,0.01985
1083.65053,0.02025
1081.59036,0.02044
1079.53019,0.02060
1077.47002,0.02080
1075.40985,0.02115
1073.34967,0.02166
1071.28950,0.02216
1069.22933,0.02255
1067.16916,0.02297
1065.10898,0.02346
1063.04881,0.02385
1060.98864,0.02404
1058.92847,0.02415
1056.86830,0.02425
1054.80812,0.02440
1052.74795,0.02459
1050.68778,0.02475
1048.62761,0.02493
1046.56744,0.02527
1044.50726,0.02576
1042.44709,0.02628
1040.38692,0.02674
1038.32675,0.02703
1036.26657,0.02721
1034.20640,0.02743
1032.14623,0.02754
1030.08606,0.02740
1028.02589,0.02713
1025.96571,0.02694
1023.90554,0.02691
1021.84537,0.02709
1019.78520,0.02738
1017.72503,0.02765
1015.66485,0.02779
1013.60468,0.02780
1011.54451,0.02774
1009.48434,0.02758
1007.42417,0.02719
1005.36399,0.02668
1003.30382,0.02634
1001.24365,0.02621
999.18348,0.02610
997.12330,0.02592
995.06313,0.02573
993.00296,0.02543
990.94279,0.02489
988.88262,0.02429
986.82244,0.02390
984.76227,0.02373
982.70210,0.02353
980.64193,0.02326
978.58176,0.02302
976.52158,0.02280
974.46141,0.02246
972.40124,0.02212
970.34107,0.02196
968.28089,0.02185
966.22072,0.02157
964.16055,0.02114
962.10038,0.02079
960.04021,0.02064
957.98003,0.02050
955.91986,0.02019
953.85969,0.01979
951.79952,0.01948
949.73935,0.01930
947.67917,0.01899
945.61900,0.01838
943.55883,0.01759
941.49866,0.01684
939.43849,0.01612
937.37831,0.01528
935.31814,0.01434
933.25797,0.01340
931.19780,0.01252
929.13762,0.01158
927.07745,0.01047
925.01728,0.00941
922.95711,0.00867
920.89694,0.00820
918.83676,0.00784
916.77659,0.00751
914.71642,0.00723
912.65625,0.00691
910.59608,0.00649
908.53590,0.00609
906.47573,0.00577
904.41556,0.00547
902.35539,0.00509
900.29522,0.00470
898.23504,0.00461
896.17487,0.00500
894.11470,0.00551
892.05453,0.00555
889.99435,0.00504
887.93418,0.00455
885.87401,0.00452
883.81384,0.00470
881.75367,0.00469
879.69349,0.00440
877.63332,0.00399
875.57315,0.00356
873.51298,0.00338
871.45281,0.00362
869.39263,0.00389
867.33246,0.00370
865.27229,0.00319
863.21212,0.00268
861.15194,0.00225
859.09177,0.00206
857.03160,0.00201
854.97143,0.00187
852.91126,0.00184
850.85108,0.00193
848.79091,0.00179
846.73074,0.00145
844.67057,0.00108
842.61040,0.00086
840.55022,0.00095
838.49005,0.00123
836.42988,0.00134
834.36971,0.00119
832.30954,0.00104
830.24936,0.00108
828.18919,0.00128
826.12902,0.00140
824.06885,0.00105
822.00867,0.00036
819.94850,0.00000
817.88833,0.00003
815.82816,0.00005
813.76799,0.00019
811.70781,0.00080
809.64764,0.00160
807.58747,0.00204
805.52730,0.00201
803.46713,0.00188
801.40695,0.00178
799.34678,0.00155
797.28661,0.00113
795.22644,0.00072
793.16627,0.00080
791.10609,0.00146
789.04592,0.00208
786.98575,0.00212
784.92558,0.00158
782.86540,0.00078
780.80523,0.00031
778.74506,0.00062
776.68489,0.00160
774.62472,0.00259
772.56454,0.00277
770.50437,0.00193
768.44420,0.00097
766.38403,0.00056
764.32386,0.00050
762.26368,0.00055
760.20351,0.00047
758.14334,0.00004
756.08317,-0.00039
754.02299,-0.00034
751.96282,0.00000
749.90265,0.00022
747.84248,0.00040
745.78231,0.00065
743.72213,0.00085
741.66196,0.00088
739.60179,0.00081
737.54162,0.00095
735.48145,0.00164
733.42127,0.00245
731.36110,0.00285
729.30093,0.00306
727.24076,0.00315
725.18059,0.00255
723.12041,0.00116
721.06024,-0.00017
719.00007,-0.00069
716.93990,-0.00043
714.87972,0.00017
712.81955,0.00083
710.75938,0.00149
708.69921,0.00205
706.63904,0.00240
704.57886,0.00246
702.51869,0.00231
700.45852,0.00218
698.39835,0.00220
696.33818,0.00230
694.27800,0.00240
692.21783,0.00262
690.15766,0.00295
688.09749,0.00314
686.03731,0.00303
683.97714,0.00281
681.91697,0.00269
679.85680,0.00264
677.79663,0.00276
675.73645,0.00336
673.67628,0.00446
671.61611,0.00551
669.55594,0.00593
667.49577,0.00556
665.43559,0.00467
663.37542,0.00368
661.31525,0.00293
659.25508,0.00280
657.19491,0.00367
655.13473,0.00542
653.07456,0.00731
651.01439,0.00843
648.95422,0.00831
646.89404,0.00702
644.83387,0.00531
642.77370,0.00420
640.71353,0.00422
638.65336,0.00495
636.59318,0.00562
634.53301,0.00589
632.47284,0.00590
630.41267,0.00593
628.35250,0.00614
626.29232,0.00640
624.23215,0.00629
622.17198,0.00550
620.11181,0.00411
618.05164,0.00346
615.99146,0.00455
613.93129,0.00580
611.87112,0.00489
609.81095,0.00212
607.75077,0.00000
605.69060,-0.00155
603.63043,-0.00111
601.57026,-0.00039
599.51009,0.00000
