3996.73391,0.00000
3994.67373,0.00022
3992.61356,0.00038
3990.55339,0.00043
3988.49322,0.00038
3986.43305,0.00035
3984.37287,0.00044
3982.31270,0.00061
3980.25253,0.00079
3978.19236,0.00096
3976.13219,0.00106
3974.07201,0.00107
3972.01184,0.00105
3969.95167,0.00102
3967.89150,0.00099
3965.83133,0.00095
3963.77115,0.00095
3961.71098,0.00105
3959.65081,0.00122
3957.59064,0.00139
3955.53046,0.00149
3953.47029,0.00151
3951.41012,0.00148
3949.34995,0.00137
3947.28978,0.00115
3945.22960,0.00081
3943.16943,0.00047
3941.10926,0.00028
3939.04909,0.00032
3936.98892,0.00047
3934.92874,0.00058
3932.86857,0.00059
3930.80840,0.00054
3928.74823,0.00050
3926.68805,0.00051
3924.62788,0.00058
3922.56771,0.00070
3920.50754,0.00084
3918.44737,0.00099
3916.38719,0.00110
3914.32702,0.00110
3912.26685,0.00095
3910.20668,0.00071
3908.14651,0.00046
3906.08633,0.00025
3904.02616,0.00017
3901.96599,0.00024
3899.90582,0.00046
3897.84565,0.00074
3895.78547,0.00091
3893.72530,0.00088
3891.66513,0.00080
3889.60496,0.00086
3887.54478,0.00104
3885.48461,0.00126
3883.42444,0.00149
3881.36427,0.00162
3879.30410,0.00152
3877.24392,0.00114
3875.18375,0.00066
3873.12358,0.00029
3871.06341,0.00019
3869.00324,0.00040
3866.94306,0.00075
3864.88289,0.00095
3862.82272,0.00088
3860.76255,0.00068
3858.70237,0.00057
3856.64220,0.00062
3854.58203,0.00075
3852.52186,0.00081
3850.46169,0.00072
3848.40151,0.00052
3846.34134,0.00037
3844.28117,0.00033
3842.22100,0.00032
3840.16083,0.00022
3838.10065,0.00012
3836.04048,0.00022
3833.98031,0.00050
3831.92014,0.00080
3829.85997,0.00091
3827.79979,0.00077
3825.73962,0.00048
3823.67945,0.00020
3821.61928,0.00001
3819.55910,0.00001
3817.49893,0.00021
3815.43876,0.00052
3813.37859,0.00082
3811.31842,0.00097
3809.25824,0.00090
3807.19807,0.00066
3805.13790,0.00040
3803.07773,0.00023
3801.01756,0.00024
3798.95738,0.00046
3796.89721,0.00081
3794.83704,0.00118
3792.77687,0.00150
3790.71670,0.00173
3788.65652,0.00182
3786.59635,0.00177
3784.53618,0.00158
3782.47601,0.00132
3780.41583,0.00107
3778.35566,0.00089
3776.29549,0.00076
3774.23532,0.00064
3772.17515,0.00051
3770.11497,0.00041
3768.05480,0.00042
3765.99463,0.00058
3763.93446,0.00088
3761.87429,0.00122
3759.81411,0.00154
3757.75394,0.00189
3755.69377,0.00222
3753.63360,0.00246
3751.57342,0.00240
3749.51325,0.00190
3747.45308,0.00107
3745.39291,0.00029
3743.33274,0.00000
3741.27256,0.00032
3739.21239,0.00098
3737.15222,0.00156
3735.09205,0.00184
3733.03188,0.00191
3730.97170,0.00191
3728.91153,0.00192
3726.85136,0.00199
3724.79119,0.00213
3722.73102,0.00222
3720.67084,0.00214
3718.61067,0.00192
3716.55050,0.00164
3714.49033,0.00131
3712.43015,0.00101
3710.36998,0.00091
3708.30981,0.00101
3706.24964,0.00115
3704.18947,0.00123
3702.12929,0.00132
3700.06912,0.00150
3698.00895,0.00176
3695.94878,0.00193
3693.88861,0.00183
3691.82843,0.00148
3689.76826,0.00108
3687.70809,0.00090
3685.64792,0.00103
3683.58775,0.00126
3681.52757,0.00138
3679.46740,0.00127
3677.40723,0.00100
3675.34706,0.00072
3673.28688,0.00065
3671.22671,0.00088
3669.16654,0.00138
3667.10637,0.00196
3665.04620,0.00240
3662.98602,0.00264
3660.92585,0.00275
3658.86568,0.00283
3656.80551,0.00285
3654.74534,0.00281
3652.68516,0.00275
3650.62499,0.00276
3648.56482,0.00289
3646.50465,0.00306
3644.44447,0.00318
3642.38430,0.00326
3640.32413,0.00344
3638.26396,0.00374
3636.20379,0.00403
3634.14361,0.00406
3632.08344,0.00375
3630.02327,0.00337
3627.96310,0.00334
3625.90293,0.00373
3623.84275,0.00423
3621.78258,0.00458
3619.72241,0.00476
3617.66224,0.00482
3615.60207,0.00481
3613.54189,0.00480
3611.48172,0.00488
3609.42155,0.00512
3607.36138,0.00550
3605.30120,0.00596
3603.24103,0.00636
3601.18086,0.00662
3599.12069,0.00673
3597.06052,0.00674
3595.00034,0.00678
3592.94017,0.00696
3590.88000,0.00727
3588.81983,0.00757
3586.75966,0.00773
3584.69948,0.00776
3582.63931,0.00775
3580.57914,0.00774
3578.51897,0.00782
3576.45879,0.00807
3574.39862,0.00846
3572.33845,0.00879
3570.27828,0.00890
3568.21811,0.00889
3566.15793,0.00897
3564.09776,0.00918
3562.03759,0.00943
3559.97742,0.00967
3557.91725,0.00984
3555.85707,0.00996
3553.79690,0.01018
3551.73673,0.01057
3549.67656,0.01103
3547.61639,0.01143
3545.55621,0.01177
3543.49604,0.01210
3541.43587,0.01238
3539.37570,0.01260
3537.31552,0.01281
3535.25535,0.01302
3533.19518,0.01319
3531.13501,0.01331
3529.07484,0.01333
3527.01466,0.01325
3524.95449,0.01318
3522.89432,0.01331
3520.83415,0.01365
3518.77398,0.01404
3516.71380,0.01443
3514.65363,0.01477
3512.59346,0.01503
3510.53329,0.01527
3508.47312,0.01555
3506.41294,0.01583
3504.35277,0.01606
3502.29260,0.01624
3500.23243,0.01643
3498.17225,0.01663
3496.11208,0.01680
3494.05191,0.01689
3491.99174,0.01694
3489.93157,0.01699
3487.87139,0.01707
3485.81122,0.01720
3483.75105,0.01742
3481.69088,0.01775
3479.63071,0.01814
3477.57053,0.01842
3475.51036,0.01844
3473.45019,0.01826
3471.39002,0.01811
3469.32984,0.01817
3467.26967,0.01844
3465.20950,0.01881
3463.14933,0.01918
3461.08916,0.01949
3459.02898,0.01969
3456.96881,0.01977
3454.90864,0.01984
3452.84847,0.01999
3450.78830,0.02024
3448.72812,0.02052
3446.66795,0.02084
3444.60778,0.02119
3442.54761,0.02153
3440.48744,0.02178
3438.42726,0.02195
3436.36709,0.02203
3434.30692,0.02201
3432.24675,0.02192
3430.18657,0.02181
3428.12640,0.02170
3426.06623,0.02158
3424.00606,0.02151
3421.94589,0.02162
3419.88571,0.02193
3417.82554,0.02230
3415.76537,0.02256
3413.70520,0.02272
3411.64503,0.02288
3409.58485,0.02312
3407.52468,0.02340
3405.46451,0.02362
3403.40434,0.02377
3401.34416,0.02390
3399.28399,0.02408
3397.22382,0.02429
3395.16365,0.02448
3393.10348,0.02460
3391.04330,0.02470
3388.98313,0.02477
3386.92296,0.02478
3384.86279,0.02482
3382.80262,0.02494
3380.74244,0.02504
3378.68227,0.02500
3376.62210,0.02483
3374.56193,0.02470
3372.50176,0.02479
3370.44158,0.02509
3368.38141,0.02543
3366.32124,0.02569
3364.26107,0.02579
3362.20089,0.02578
3360.14072,0.02569
3358.08055,0.02560
3356.02038,0.02559
3353.96021,0.02572
3351.90003,0.02596
3349.83986,0.02622
3347.77969,0.02643
3345.71952,0.02659
3343.65935,0.02673
3341.59917,0.02686
3339.53900,0.02692
3337.47883,0.02686
3335.41866,0.02672
3333.35849,0.02662
3331.29831,0.02664
3329.23814,0.02674
3327.17797,0.02682
3325.11780,0.02686
3323.05762,0.02689
3320.99745,0.02694
3318.93728,0.02698
3316.87711,0.02699
3314.81694,0.02700
3312.75676,0.02705
3310.69659,0.02720
3308.63642,0.02741
3306.57625,0.02755
3304.51608,0.02749
3302.45590,0.02722
3300.39573,0.02689
3298.33556,0.02673
3296.27539,0.02682
3294.21521,0.02707
3292.15504,0.02739
3290.09487,0.02766
3288.03470,0.02776
3285.97453,0.02765
3283.91435,0.02738
3281.85418,0.02710
3279.79401,0.02689
3277.73384,0.02682
3275.67367,0.02688
3273.61349,0.02698
3271.55332,0.02706
3269.49315,0.02712
3267.43298,0.02720
3265.37281,0.02730
3263.31263,0.02730
3261.25246,0.02713
3259.19229,0.02685
3257.13212,0.02667
3255.07194,0.02674
3253.01177,0.02693
3250.95160,0.02710
3248.89143,0.02720
3246.83126,0.02727
3244.77108,0.02723
3242.71091,0.02703
3240.65074,0.02673
3238.59057,0.02649
3236.53040,0.02635
3234.47022,0.02627
3232.41005,0.02619
3230.34988,0.02615
3228.28971,0.02613
3226.22954,0.02604
3224.16936,0.02581
3222.10919,0.02549
3220.04902,0.02520
3217.98885,0.02500
3215.92867,0.02494
3213.86850,0.02504
3211.80833,0.02525
3209.74816,0.02544
3207.68799,0.02547
3205.62781,0.02534
3203.56764,0.02514
3201.50747,0.02496
3199.44730,0.02481
3197.38713,0.02464
3195.32695,0.02443
3193.26678,0.02423
3191.20661,0.02406
3189.14644,0.02394
3187.08626,0.02383
3185.02609,0.02365
3182.96592,0.02336
3180.90575,0.02302
3178.84558,0.02274
3176.78540,0.02255
3174.72523,0.02246
3172.66506,0.02240
3170.60489,0.02232
3168.54472,0.02216
3166.48454,0.02191
3164.42437,0.02161
3162.36420,0.02133
3160.30403,0.02110
3158.24386,0.02093
3156.18368,0.02086
3154.12351,0.02086
3152.06334,0.02089
3150.00317,0.02091
3147.94299,0.02087
3145.88282,0.02067
3143.82265,0.02030
3141.76248,0.01982
3139.70231,0.01941
3137.64213,0.01915
3135.58196,0.01903
3133.52179,0.01895
3131.46162,0.01886
3129.40145,0.01876
3127.34127,0.01865
3125.28110,0.01853
3123.22093,0.01837
3121.16076,0.01816
3119.10058,0.01789
3117.04041,0.01758
3114.98024,0.01724
3112.92007,0.01695
3110.85990,0.01677
3108.79972,0.01671
3106.73955,0.01667
3104.67938,0.01652
3102.61921,0.01620
3100.55904,0.01581
3098.49886,0.01543
3096.43869,0.01512
3094.37852,0.01489
3092.31835,0.01472
3090.25818,0.01457
3088.19800,0.01445
3086.13783,0.01441
3084.07766,0.01443
3082.01749,0.01442
3079.95731,0.01433
3077.89714,0.01423
3075.83697,0.01420
3073.77680,0.01428
3071.71663,0.01436
3069.65645,0.01426
3067.59628,0.01394
3065.53611,0.01346
3063.47594,0.01298
3061.41577,0.01261
3059.35559,0.01246
3057.29542,0.01248
3055.23525,0.01252
3053.17508,0.01244
3051.11491,0.01223
3049.05473,0.01200
3046.99456,0.01182
3044.93439,0.01170
3042.87422,0.01161
3040.81404,0.01157
3038.75387,0.01155
3036.69370,0.01154
3034.63353,0.01149
3032.57336,0.01138
3030.51318,0.01117
3028.45301,0.01089
3026.39284,0.01059
3024.33267,0.01035
3022.27250,0.01018
3020.21232,0.01008
3018.15215,0.01005
3016.09198,0.01005
3014.03181,0.01001
3011.97163,0.00988
3009.91146,0.00969
3007.85129,0.00956
3005.79112,0.00955
3003.73095,0.00964
3001.67077,0.00974
2999.61060,0.00975
2997.55043,0.00967
2995.49026,0.00961
2993.43009,0.00967
2991.36991,0.00985
2989.30974,0.00998
2987.24957,0.00989
2985.18940,0.00963
2983.12923,0.00937
2981.06905,0.00931
2979.00888,0.00949
2976.94871,0.00989
2974.88854,0.01029
2972.82836,0.01049
2970.76819,0.01056
2968.70802,0.01061
2966.64785,0.01073
2964.58768,0.01098
2962.52750,0.01128
2960.46733,0.01154
2958.40716,0.01175
2956.34699,0.01191
2954.28682,0.01211
2952.22664,0.01240
2950.16647,0.01268
2948.10630,0.01288
2946.04613,0.01304
2943.98596,0.01328
2941.92578,0.01353
2939.86561,0.01372
2937.80544,0.01385
2935.74527,0.01400
2933.68509,0.01413
2931.62492,0.01414
2929.56475,0.01402
2927.50458,0.01383
2925.44441,0.01362
2923.38423,0.01346
2921.32406,0.01347
2919.26389,0.01351
2917.20372,0.01336
2915.14355,0.01304
2913.08337,0.01279
2911.02320,0.01266
2908.96303,0.01253
2906.90286,0.01235
2904.84268,0.01221
2902.78251,0.01218
2900.72234,0.01219
2898.66217,0.01219
2896.60200,0.01213
2894.54182,0.01200
2892.48165,0.01193
2890.42148,0.01203
2888.36131,0.01220
2886.30114,0.01236
2884.24096,0.01239
2882.18079,0.01226
2880.12062,0.01209
2878.06045,0.01197
2876.00028,0.01179
2873.94010,0.01144
2871.87993,0.01103
2869.81976,0.01073
2867.75959,0.01066
2865.69941,0.01078
2863.63924,0.01090
2861.57907,0.01086
2859.51890,0.01063
2857.45873,0.01030
2855.39855,0.01001
2853.33838,0.00981
2851.27821,0.00969
2849.21804,0.00959
2847.15787,0.00935
2845.09769,0.00892
2843.03752,0.00862
2840.97735,0.00870
2838.91718,0.00898
2836.85700,0.00910
2834.79683,0.00895
2832.73666,0.00876
2830.67649,0.00861
2828.61632,0.00842
2826.55614,0.00824
2824.49597,0.00827
2822.43580,0.00850
2820.37563,0.00862
2818.31546,0.00850
2816.25528,0.00832
2814.19511,0.00818
2812.13494,0.00806
2810.07477,0.00796
2808.01460,0.00784
2805.95442,0.00771
2803.89425,0.00759
2801.83408,0.00739
2799.77391,0.00717
2797.71373,0.00714
2795.65356,0.00735
2793.59339,0.00757
2791.53322,0.00760
2789.47305,0.00743
2787.41287,0.00719
2785.35270,0.00697
2783.29253,0.00689
2781.23236,0.00699
2779.17219,0.00715
2777.11201,0.00728
2775.05184,0.00740
2772.99167,0.00755
2770.93150,0.00763
2768.87133,0.00760
2766.81115,0.00750
2764.75098,0.00740
2762.69081,0.00731
2760.63064,0.00723
2758.57046,0.00710
2756.51029,0.00693
2754.45012,0.00679
2752.38995,0.00671
2750.32978,0.00667
2748.26960,0.00665
2746.20943,0.00669
2744.14926,0.00681
2742.08909,0.00698
2740.02892,0.00705
2737.96874,0.00696
2735.90857,0.00680
2733.84840,0.00672
2731.78823,0.00677
2729.72805,0.00688
2727.66788,0.00696
2725.60771,0.00701
2723.54754,0.00704
2721.48737,0.00701
2719.42719,0.00689
2717.36702,0.00680
2715.30685,0.00677
2713.24668,0.00669
2711.18651,0.00646
2709.12633,0.00614
2707.06616,0.00590
2705.00599,0.00596
2702.94582,0.00626
2700.88565,0.00649
2698.82547,0.00645
2696.76530,0.00627
2694.70513,0.00609
2692.64496,0.00599
2690.58478,0.00606
2688.52461,0.00622
2686.46444,0.00623
2684.40427,0.00604
2682.34410,0.00588
2680.28392,0.00593
2678.22375,0.00609
2676.16358,0.00621
2674.10341,0.00624
2672.04324,0.00622
2669.98306,0.00619
2667.92289,0.00625
2665.86272,0.00640
2663.80255,0.00644
2661.74238,0.00633
2659.68220,0.00617
2657.62203,0.00606
2655.56186,0.00598
2653.50169,0.00583
2651.44151,0.00565
2649.38134,0.00561
2647.32117,0.00563
2645.26100,0.00552
2643.20083,0.00532
2641.14065,0.00522
2639.08048,0.00521
2637.02031,0.00506
2634.96014,0.00492
2632.89997,0.00518
2630.83979,0.00568
2628.77962,0.00586
2626.71945,0.00559
2624.65928,0.00523
2622.59910,0.00504
2620.53893,0.00493
2618.47876,0.00479
2616.41859,0.00476
2614.35842,0.00496
2612.29824,0.00515
2610.23807,0.00512
2608.17790,0.00492
2606.11773,0.00480
2604.05756,0.00481
2601.99738,0.00484
2599.93721,0.00495
2597.87704,0.00522
2595.81687,0.00544
2593.75670,0.00539
2591.69652,0.00515
2589.63635,0.00489
2587.57618,0.00467
2585.51601,0.00445
2583.45583,0.00429
2581.39566,0.00438
2579.33549,0.00461
2577.27532,0.00473
2575.21515,0.00469
2573.15497,0.00457
2571.09480,0.00444
2569.03463,0.00429
2566.97446,0.00416
2564.91429,0.00414
2562.85411,0.00420
2560.79394,0.00425
2558.73377,0.00419
2556.67360,0.00414
2554.61342,0.00440
2552.55325,0.00481
2550.49308,0.00482
2548.43291,0.00440
2546.37274,0.00412
2544.31256,0.00442
2542.25239,0.00504
2540.19222,0.00533
2538.13205,0.00504
2536.07188,0.00460
2534.01170,0.00444
2531.95153,0.00458
2529.89136,0.00474
2527.83119,0.00468
2525.77102,0.00433
2523.71084,0.00396
2521.65067,0.00383
2519.59050,0.00381
2517.53033,0.00366
2515.47015,0.00350
2513.40998,0.00363
2511.34981,0.00394
2509.28964,0.00404
2507.22947,0.00379
2505.16929,0.00356
2503.10912,0.00370
2501.04895,0.00401
2498.98878,0.00424
2496.92861,0.00430
2494.86843,0.00400
2492.80826,0.00355
2490.74809,0.00350
2488.68792,0.00370
2486.62775,0.00363
2484.56757,0.00347
2482.50740,0.00369
2480.44723,0.00407
2478.38706,0.00426
2476.32688,0.00435
2474.26671,0.00447
2472.20654,0.00438
2470.14637,0.00400
2468.08620,0.00376
2466.02602,0.00382
2463.96585,0.00384
2461.90568,0.00381
2459.84551,0.00385
2457.78534,0.00383
2455.72516,0.00382
2453.66499,0.00390
2451.60482,0.00384
2449.54465,0.00362
2447.48447,0.00357
2445.42430,0.00372
2443.36413,0.00374
2441.30396,0.00351
2439.24379,0.00329
2437.18361,0.00327
2435.12344,0.00337
2433.06327,0.00350
2431.00310,0.00365
2428.94293,0.00373
2426.88275,0.00373
2424.82258,0.00367
2422.76241,0.00372
2420.70224,0.00390
2418.64207,0.00399
2416.58189,0.00382
2414.52172,0.00348
2412.46155,0.00330
2410.40138,0.00344
2408.34120,0.00361
2406.28103,0.00354
2404.22086,0.00338
2402.16069,0.00335
2400.10052,0.00346
2398.04034,0.00343
2395.98017,0.00322
2393.92000,0.00292
2391.85983,0.00268
2389.79966,0.00261
2387.73948,0.00277
2385.67931,0.00310
2383.61914,0.00349
2381.55897,0.00382
2379.49880,0.00395
2377.43862,0.00373
2375.37845,0.00309
2373.31828,0.00227
2371.25811,0.00173
2369.19793,0.00174
2367.13776,0.00219
2365.07759,0.00286
2363.01742,0.00355
2360.95725,0.00406
2358.89707,0.00419
2356.83690,0.00398
2354.77673,0.00366
2352.71656,0.00334
2350.65639,0.00295
2348.59621,0.00243
2346.53604,0.00199
2344.47587,0.00191
2342.41570,0.00229
2340.35552,0.00295
2338.29535,0.00356
2336.23518,0.00396
2334.17501,0.00424
2332.11484,0.00436
2330.05466,0.00414
2327.99449,0.00353
2325.93432,0.00281
2323.87415,0.00242
2321.81398,0.00264
2319.75380,0.00328
2317.69363,0.00387
2315.63346,0.00407
2313.57329,0.00400
2311.51312,0.00388
2309.45294,0.00381
2307.39277,0.00383
2305.33260,0.00392
2303.27243,0.00399
2301.21225,0.00398
2299.15208,0.00393
2297.09191,0.00388
2295.03174,0.00389
2292.97157,0.00403
2290.91139,0.00434
2288.85122,0.00465
2286.79105,0.00475
2284.73088,0.00457
2282.67071,0.00425
2280.61053,0.00404
2278.55036,0.00409
2276.49019,0.00437
2274.43002,0.00467
2272.36984,0.00468
2270.30967,0.00421
2268.24950,0.00348
2266.18933,0.00287
2264.12916,0.00251
2262.06898,0.00237
2260.00881,0.00245
2257.94864,0.00274
2255.88847,0.00309
2253.82830,0.00325
2251.76812,0.00318
2249.70795,0.00306
2247.64778,0.00312
2245.58761,0.00328
2243.52744,0.00326
2241.46726,0.00286
2239.40709,0.00253
2237.34692,0.00252
2235.28675,0.00241
2233.22657,0.00235
2231.16640,0.00281
2229.10623,0.00350
2227.04606,0.00376
2224.98589,0.00369
2222.92571,0.00383
2220.86554,0.00411
2218.80537,0.00440
2216.74520,0.00474
2214.68503,0.00505
2212.62485,0.00508
2210.56468,0.00445
2208.50451,0.00322
2206.44434,0.00230
2204.38417,0.00250
2202.32399,0.00322
2200.26382,0.00315
2198.20365,0.00226
2196.14348,0.00186
2194.08330,0.00249
2192.02313,0.00336
2189.96296,0.00384
2187.90279,0.00391
2185.84262,0.00342
2183.78244,0.00235
2181.72227,0.00110
2179.66210,0.00016
2177.60193,0.00014
2175.54176,0.00112
2173.48158,0.00230
2171.42141,0.00316
2169.36124,0.00358
2167.30107,0.00305
2165.24089,0.00188
2163.18072,0.00081
2161.12055,0.00000
2159.06038,0.00019
2157.00021,0.00142
2154.94003,0.00216
2152.87986,0.00238
2150.81969,0.00291
2148.75952,0.00316
2146.69935,0.00298
2144.63917,0.00309
2142.57900,0.00310
2140.51883,0.00239
2138.45866,0.00172
2136.39849,0.00204
2134.33831,0.00273
2132.27814,0.00285
2130.21797,0.00280
2128.15780,0.00299
2126.09762,0.00309
2124.03745,0.00321
2121.97728,0.00369
2119.91711,0.00441
2117.85694,0.00473
2115.79676,0.00419
2113.73659,0.00313
2111.67642,0.00235
2109.61625,0.00217
2107.55608,0.00250
2105.49590,0.00320
2103.43573,0.00399
2101.37556,0.00424
2099.31539,0.00373
2097.25521,0.00295
2095.19504,0.00233
2093.13487,0.00204
2091.07470,0.00207
2089.01453,0.00238
2086.95435,0.00292
2084.89418,0.00354
2082.83401,0.00415
2080.77384,0.00474
2078.71367,0.00524
2076.65349,0.00546
2074.59332,0.00527
2072.53315,0.00466
2070.47298,0.00375
2068.41281,0.00286
2066.35263,0.00231
2064.29246,0.00211
2062.23229,0.00204
2060.17212,0.00193
2058.11194,0.00175
2056.05177,0.00162
2053.99160,0.00165
2051.93143,0.00188
2049.87126,0.00230
2047.81108,0.00288
2045.75091,0.00352
2043.69074,0.00399
2041.63057,0.00406
2039.57040,0.00361
2037.51022,0.00276
2035.45005,0.00184
2033.38988,0.00131
2031.32971,0.00131
2029.26954,0.00160
2027.20936,0.00191
2025.14919,0.00220
2023.08902,0.00230
2021.02885,0.00191
2018.96867,0.00109
2016.90850,0.00031
2014.84833,0.00010
2012.78816,0.00071
2010.72799,0.00177
2008.66781,0.00261
2006.60764,0.00284
2004.54747,0.00258
2002.48730,0.00210
2000.42713,0.00170
1998.36695,0.00157
1996.30678,0.00165
1994.24661,0.00194
1992.18644,0.00249
1990.12626,0.00320
1988.06609,0.00379
1986.00592,0.00404
1983.94575,0.00389
1981.88558,0.00350
1979.82540,0.00317
1977.76523,0.00318
1975.70506,0.00347
1973.64489,0.00358
1971.58472,0.00321
1969.52454,0.00254
1967.46437,0.00191
1965.40420,0.00161
1963.34403,0.00181
1961.28386,0.00223
1959.22368,0.00239
1957.16351,0.00203
1955.10334,0.00127
1953.04317,0.00047
1950.98299,0.00000
1948.92282,-0.00002
1946.86265,0.00025
1944.80248,0.00058
1942.74231,0.00096
1940.68213,0.00144
1938.62196,0.00190
1936.56179,0.00206
1934.50162,0.00192
1932.44145,0.00175
1930.38127,0.00173
1928.32110,0.00171
1926.26093,0.00153
1924.20076,0.00124
1922.14059,0.00101
1920.08041,0.00097
1918.02024,0.00113
1915.96007,0.00143
1913.89990,0.00168
1911.83972,0.00168
1909.77955,0.00154
1907.71938,0.00147
1905.65921,0.00153
1903.59904,0.00156
1901.53886,0.00149
1899.47869,0.00136
1897.41852,0.00129
1895.35835,0.00127
1893.29818,0.00124
1891.23800,0.00122
1889.17783,0.00124
1887.11766,0.00121
1885.05749,0.00104
1882.99731,0.00076
1880.93714,0.00052
1878.87697,0.00047
1876.81680,0.00059
1874.75663,0.00077
1872.69645,0.00098
1870.63628,0.00122
1868.57611,0.00149
1866.51594,0.00173
1864.45577,0.00184
1862.39559,0.00175
1860.33542,0.00149
1858.27525,0.00117
1856.21508,0.00095
1854.15491,0.00090
1852.09473,0.00094
1850.03456,0.00095
1847.97439,0.00085
1845.91422,0.00072
1843.85404,0.00069
1841.79387,0.00073
1839.73370,0.00074
1837.67353,0.00073
1835.61336,0.00079
1833.55318,0.00092
1831.49301,0.00103
1829.43284,0.00109
1827.37267,0.00110
1825.31250,0.00107
1823.25232,0.00107
1821.19215,0.00113
1819.13198,0.00117
1817.07181,0.00107
1815.01163,0.00080
1812.95146,0.00049
1810.89129,0.00027
1808.83112,0.00022
1806.77095,0.00030
1804.71077,0.00044
1802.65060,0.00059
1800.59043,0.00077
1798.53026,0.00096
1796.47009,0.00108
1794.40991,0.00104
1792.34974,0.00088
1790.28957,0.00076
1788.22940,0.00077
1786.16923,0.00086
1784.10905,0.00090
1782.04888,0.00082
1779.98871,0.00063
1777.92854,0.00044
1775.86836,0.00035
1773.80819,0.00040
1771.74802,0.00060
1769.68785,0.00084
1767.62768,0.00107
1765.56750,0.00128
1763.50733,0.00154
1761.44716,0.00186
1759.38699,0.00219
1757.32682,0.00248
1755.26664,0.00269
1753.20647,0.00283
1751.14630,0.00299
1749.08613,0.00329
1747.02596,0.00377
1744.96578,0.00433
1742.90561,0.00479
1740.84544,0.00506
1738.78527,0.00513
1736.72509,0.00509
1734.66492,0.00509
1732.60475,0.00525
1730.54458,0.00552
1728.48441,0.00578
1726.42423,0.00594
1724.36406,0.00594
1722.30389,0.00577
1720.24372,0.00545
1718.18355,0.00503
1716.12337,0.00463
1714.06320,0.00435
1712.00303,0.00413
1709.94286,0.00390
1707.88268,0.00363
1705.82251,0.00338
1703.76234,0.00319
1701.70217,0.00311
1699.64200,0.00311
1697.58182,0.00313
1695.52165,0.00313
1693.46148,0.00313
1691.40131,0.00313
1689.34114,0.00314
1687.28096,0.00318
1685.22079,0.00331
1683.16062,0.00357
1681.10045,0.00388
1679.04028,0.00418
1676.98010,0.00454
1674.91993,0.00498
1672.85976,0.00546
1670.79959,0.00594
1668.73941,0.00644
1666.67924,0.00695
1664.61907,0.00745
1662.55890,0.00792
1660.49873,0.00833
1658.43855,0.00862
1656.37838,0.00879
1654.31821,0.00890
1652.25804,0.00899
1650.19787,0.00908
1648.13769,0.00924
1646.07752,0.00960
1644.01735,0.01009
1641.95718,0.01048
1639.89701,0.01061
1637.83683,0.01057
1635.77666,0.01064
1633.71649,0.01092
1631.65632,0.01128
1629.59614,0.01161
1627.53597,0.01191
1625.47580,0.01217
1623.41563,0.01236
1621.35546,0.01242
1619.29528,0.01234
1617.23511,0.01220
1615.17494,0.01213
1613.11477,0.01211
1611.05460,0.01203
1608.99442,0.01182
1606.93425,0.01152
1604.87408,0.01113
1602.81391,0.01065
1600.75373,0.01005
1598.69356,0.00938
1596.63339,0.00869
1594.57322,0.00805
1592.51305,0.00748
1590.45287,0.00695
1588.39270,0.00641
1586.33253,0.00588
1584.27236,0.00536
1582.21219,0.00484
1580.15201,0.00429
1578.09184,0.00375
1576.03167,0.00333
1573.97150,0.00307
1571.91133,0.00290
1569.85115,0.00278
1567.79098,0.00269
1565.73081,0.00255
1563.67064,0.00225
1561.61046,0.00183
1559.55029,0.00147
1557.49012,0.00137
1555.42995,0.00149
1553.36978,0.00163
1551.30960,0.00169
1549.24943,0.00158
1547.18926,0.00131
1545.12909,0.00087
1543.06892,0.00036
1541.00874,0.00000
1538.94857,-0.00003
1536.88840,0.00018
1534.82823,0.00039
1532.76805,0.00052
1530.70788,0.00056
1528.64771,0.00050
1526.58754,0.00033
1524.52737,0.00012
1522.46719,0.00000
1520.40702,0.00005
1518.34685,0.00023
1516.28668,0.00036
1514.22651,0.00040
1512.16633,0.00039
1510.10616,0.00040
1508.04599,0.00054
1505.98582,0.00082
1503.92565,0.00109
1501.86547,0.00120
1499.80530,0.00115
1497.74513,0.00105
1495.68496,0.00098
1493.62478,0.00093
1491.56461,0.00089
1489.50444,0.00097
1487.44427,0.00121
1485.38410,0.00156
1483.32392,0.00185
1481.26375,0.00201
1479.20358,0.00211
1477.14341,0.00225
1475.08324,0.00254
1473.02306,0.00302
1470.96289,0.00361
1468.90272,0.00416
1466.84255,0.00455
1464.78238,0.00482
1462.72220,0.00500
1460.66203,0.00513
1458.60186,0.00533
1456.54169,0.00569
1454.48151,0.00611
1452.42134,0.00644
1450.36117,0.00667
1448.30100,0.00688
1446.24083,0.00714
1444.18065,0.00738
1442.12048,0.00757
1440.06031,0.00773
1438.00014,0.00792
1435.93997,0.00818
1433.87979,0.00844
1431.81962,0.00867
1429.75945,0.00889
1427.69928,0.00911
1425.63910,0.00930
1423.57893,0.00946
1421.51876,0.00962
1419.45859,0.00980
1417.39842,0.00996
1415.33824,0.01004
1413.27807,0.01001
1411.21790,0.00989
1409.15773,0.00977
1407.09756,0.00965
1405.03738,0.00952
1402.97721,0.00937
1400.91704,0.00918
1398.85687,0.00899
1396.79670,0.00885
1394.73652,0.00872
1392.67635,0.00861
1390.61618,0.00852
1388.55601,0.00854
1386.49583,0.00873
1384.43566,0.00903
1382.37549,0.00932
1380.31532,0.00950
1378.25515,0.00962
1376.19497,0.00970
1374.13480,0.00978
1372.07463,0.00987
1370.01446,0.00992
1367.95429,0.00990
1365.89411,0.00976
1363.83394,0.00955
1361.77377,0.00939
1359.71360,0.00928
1357.65343,0.00919
1355.59325,0.00906
1353.53308,0.00888
1351.47291,0.00867
1349.41274,0.00849
1347.35256,0.00834
1345.29239,0.00821
1343.23222,0.00806
1341.17205,0.00791
1339.11188,0.00780
1337.05170,0.00774
1334.99153,0.00775
1332.93136,0.00782
1330.87119,0.00793
1328.81102,0.00806
1326.75084,0.00820
1324.69067,0.00832
1322.63050,0.00838
1320.57033,0.00839
1318.51015,0.00837
1316.44998,0.00834
1314.38981,0.00828
1312.32964,0.00821
1310.26947,0.00818
1308.20929,0.00814
1306.14912,0.00804
1304.08895,0.00787
1302.02878,0.00765
1299.96861,0.00742
1297.90843,0.00720
1295.84826,0.00703
1293.78809,0.00691
1291.72792,0.00682
1289.66775,0.00669
1287.60757,0.00651
1285.54740,0.00632
1283.48723,0.00619
1281.42706,0.00619
1279.36688,0.00630
1277.30671,0.00646
1275.24654,0.00664
1273.18637,0.00681
1271.12620,0.00701
1269.06602,0.00728
1267.00585,0.00764
1264.94568,0.00806
1262.88551,0.00851
1260.82534,0.00896
1258.76516,0.00938
1256.70499,0.00970
1254.64482,0.00989
1252.58465,0.01000
1250.52447,0.01005
1248.46430,0.01004
1246.40413,0.00995
1244.34396,0.00980
1242.28379,0.00961
1240.22361,0.00943
1238.16344,0.00924
1236.10327,0.00902
1234.04310,0.00870
1231.98293,0.00832
1229.92275,0.00790
1227.86258,0.00751
1225.80241,0.00716
1223.74224,0.00687
1221.68207,0.00660
1219.62189,0.00631
1217.56172,0.00599
1215.50155,0.00565
1213.44138,0.00525
1211.38120,0.00474
1209.32103,0.00411
1207.26086,0.00343
1205.20069,0.00282
1203.14052,0.00233
1201.08034,0.00190
1199.02017,0.00144
1196.96000,0.00083
1194.89983,0.00027
1192.83966,0.00000
1190.77948,-0.00005
1188.71931,-0.00002
1186.65914,0.00005
1184.59897,0.00014
1182.53880,0.00026
1180.47862,0.00041
1178.41845,0.00066
1176.35828,0.00104
1174.29811,0.00153
1172.23793,0.00213
1170.17776,0.00293
1168.11759,0.00391
1166.05742,0.00489
1163.99725,0.00571
1161.93707,0.00639
1159.87690,0.00698
1157.81673,0.00756
1155.75656,0.00811
1153.69639,0.00861
1151.63621,0.00902
1149.57604,0.00947
1147.51587,0.00995
1145.45570,0.01027
1143.39552,0.01033
1141.33535,0.01027
1139.27518,0.01034
1137.21501,0.01059
1135.15484,0.01091
1133.09466,0.01122
1131.03449,0.01154
1128.97432,0.01194
1126.91415,0.01242
1124.85398,0.01298
1122.79380,0.01365
1120.73363,0.01434
1118.67346,0.01490
1116.61329,0.01529
1114.55312,0.01564
1112.49294,0.01604
1110.43277,0.01652
1108.37260,0.01708
1106.31243,0.01766
1104.25225,0.01825
1102.19208,0.01902
1100.13191,0.02008
1098.07174,0.02121
1096.01157,0.02213
1093.95139,0.02274
1091.89122,0.02324
1089.83105,0.02389
1087.77088,0.02466
1085.71071,0.02544
1083.65053,0.02624
1081.59036,0.02708
1079.53019,0.02785
1077.47002,0.02849
1075.40985,0.02905
1073.34967,0.02958
1071.28950,0.03016
1069.22933,0.03081
1067.16916,0.03141
1065.10898,0.03179
1063.04881,0.03190
1060.98864,0.03195
1058.92847,0.03215
1056.86830,0.03260
1054.80812,0.03324
1052.74795,0.03389
1050.68778,0.03450
1048.62761,0.03512
1046.56744,0.03568
1044.50726,0.03615
1042.44709,0.03657
1040.38692,0.03704
1038.32675,0.03751
1036.26657,0.03785
1034.20640,0.03814
1032.14623,0.03847
1030.08606,0.03869
1028.02589,0.03870
1025.96571,0.03863
1023.90554,0.03853
1021.84537,0.03850
1019.78520,0.03859
1017.72503,0.03862
1015.66485,0.03857
1013.60468,0.03867
1011.54451,0.03890
1009.48434,0.03896
1007.42417,0.03872
1005.36399,0.03832
1003.30382,0.03782
1001.24365,0.03730
999.18348,0.03693
997.12330,0.03678
995.06313,0.03667
993.00296,0.03637
990.94279,0.03583
988.88262,0.03524
986.82244,0.03490
984.76227,0.03479
982.70210,0.03463
980.64193,0.03427
978.58176,0.03374
976.52158,0.03330
974.46141,0.03306
972.40124,0.03280
970.34107,0.03244
968.28089,0.03203
966.22072,0.03150
964.16055,0.03090
962.10038,0.03041
960.04021,0.03001
957.98003,0.02971
955.91986,0.02959
953.85969,0.02933
951.79952,0.02872
949.73935,0.02802
947.67917,0.02745
945.61900,0.02684
943.55883,0.02595
941.49866,0.02471
939.43849,0.02318
937.37831,0.02150
935.31814,0.01991
933.25797,0.01864
931.19780,0.01754
929.13762,0.01629
927.07745,0.01493
925.01728,0.01373
922.95711,0.01271
920.89694,0.01176
918.83676,0.01075
916.77659,0.00966
914.71642,0.00878
912.65625,0.00837
910.59608,0.00831
908.53590,0.00831
906.47573,0.00823
904.41556,0.00806
902.35539,0.00778
900.29522,0.00747
898.23504,0.00747
896.17487,0.00782
894.11470,0.00801
892.05453,0.00768
889.99435,0.00709
887.93418,0.00679
885.87401,0.00689
883.81384,0.00693
881.75367,0.00651
879.69349,0.00575
877.63332,0.00514
875.57315,0.00487
873.51298,0.00466
871.45281,0.00443
869.39263,0.00429
867.33246,0.00416
865.27229,0.00392
863.21212,0.00352
861.15194,0.00297
859.09177,0.00267
857.03160,0.00290
854.97143,0.00328
852.91126,0.00349
850.85108,0.00349
848.79091,0.00328
846.73074,0.00285
844.67057,0.00238
842.61040,0.00211
840.55022,0.00220
838.49005,0.00245
836.42988,0.00242
834.36971,0.00177
832.30954,0.00076
830.24936,0.00000
828.18919,-0.00009
826.12902,0.00045
824.06885,0.00107
822.00867,0.00125
819.94850,0.00093
817.88833,0.00064
815.82816,0.00087
813.76799,0.00153
811.70781,0.00218
809.64764,0.00246
807.58747,0.00234
805.52730,0.00214
803.46713,0.00202
801.40695,0.00192
799.34678,0.00182
797.28661,0.00176
795.22644,0.00161
793.16627,0.00127
791.10609,0.00093
789.04592,0.00094
786.98575,0.00136
784.92558,0.00183
782.86540,0.00198
780.80523,0.00182
778.74506,0.00162
776.68489,0.00166
774.62472,0.00173
772.56454,0.00151
770.50437,0.00129
768.44420,0.00125
766.38403,0.00102
764.32386,0.00050
762.26368,0.00018
760.20351,0.00030
758.14334,0.00067
756.08317,0.00095
754.02299,0.00105
751.96282,0.00105
749.90265,0.00094
747.84248,0.00065
745.78231,0.00024
743.72213,0.00000
741.66196,0.00015
739.60179,0.00067
737.54162,0.00097
735.48145,0.00073
733.42127,0.00012
731.36110,-0.00040
729.30093,-0.00058
727.24076,-0.00052
725.18059,-0.00040
723.12041,-0.00014
721.06024,0.00017
719.00007,0.00034
716.93990,0.00035
714.87972,0.00042
712.81955,0.00066
710.75938,0.00097
708.69921,0.00119
706.63904,0.00133
704.57886,0.00148
702.51869,0.00179
700.45852,0.00230
698.39835,0.00287
696.33818,0.00320
694.27800,0.00305
692.21783,0.00251
690.15766,0.00193
688.09749,0.00159
686.03731,0.00135
683.97714,0.00103
681.91697,0.00071
679.85680,0.00059
677.79663,0.00061
675.73645,0.00059
673.67628,0.00049
671.61611,0.00031
669.55594,0.00015
667.49577,0.00023
665.43559,0.00059
663.37542,0.00084
661.31525,0.00067
659.25508,0.00010
657.19491,-0.00063
655.13473,-0.00117
653.07456,-0.00121
651.01439,-0.00063
648.95422,0.00033
646.89404,0.00111
644.83387,0.00135
642.77370,0.00113
640.71353,0.00074
638.65336,0.00026
636.59318,-0.00025
634.53301,-0.00065
632.47284,-0.00087
630.41267,-0.00097
628.35250,-0.00095
626.29232,-0.00052
624.23215,0.00095
622.17198,0.00288
620.11181,0.00452
618.05164,0.00519
615.99146,0.00383
613.93129,0.00146
611.87112,0.00052
609.81095,0.00139
607.75077,0.00255
605.69060,0.00259
603.63043,0.00138
601.57026,0.00023
599.51009,0.00000
