3996.73391,0.00074
3994.67373,0.00036
3992.61356,0.00010
3990.55339,0.00000
3988.49322,0.00005
3986.43305,0.00015
3984.37287,0.00028
3982.31270,0.00040
3980.25253,0.00051
3978.19236,0.00061
3976.13219,0.00072
3974.07201,0.00083
3972.01184,0.00092
3969.95167,0.00100
3967.89150,0.00102
3965.83133,0.00094
3963.77115,0.00082
3961.71098,0.00068
3959.65081,0.00056
3957.59064,0.00048
3955.53046,0.00045
3953.47029,0.00052
3951.41012,0.00071
3949.34995,0.00091
3947.28978,0.00099
3945.22960,0.00093
3943.16943,0.00081
3941.10926,0.00068
3939.04909,0.00058
3936.98892,0.00051
3934.92874,0.00049
3932.86857,0.00052
3930.80840,0.00057
3928.74823,0.00057
3926.68805,0.00052
3924.62788,0.00045
3922.56771,0.00044
3920.50754,0.00056
3918.44737,0.00085
3916.38719,0.00117
3914.32702,0.00136
3912.26685,0.00130
3910.20668,0.00100
3908.14651,0.00059
3906.08633,0.00024
3904.02616,0.00004
3901.96599,0.00000
3899.90582,0.00001
3897.84565,0.00005
3895.78547,0.00017
3893.72530,0.00044
3891.66513,0.00076
3889.60496,0.00091
3887.54478,0.00084
3885.48461,0.00074
3883.42444,0.00082
3881.36427,0.00104
3879.30410,0.00124
3877.24392,0.00131
3875.18375,0.00124
3873.12358,0.00113
3871.06341,0.00107
3869.00324,0.00107
3866.94306,0.00113
3864.88289,0.00129
3862.82272,0.00148
3860.76255,0.00156
3858.70237,0.00149
3856.64220,0.00137
3854.58203,0.00132
3852.52186,0.00135
3850.46169,0.00131
3848.40151,0.00110
3846.34134,0.00085
3844.28117,0.00077
3842.22100,0.00096
3840.16083,0.00133
3838.10065,0.00156
3836.04048,0.00140
3833.98031,0.00098
3831.92014,0.00062
3829.85997,0.00048
3827.79979,0.00051
3825.73962,0.00061
3823.67945,0.00078
3821.61928,0.00105
3819.55910,0.00133
3817.49893,0.00147
3815.43876,0.00149
3813.37859,0.00141
3811.31842,0.00126
3809.25824,0.00115
3807.19807,0.00120
3805.13790,0.00138
3803.07773,0.00144
3801.01756,0.00117
3798.95738,0.00065
3796.89721,0.00023
3794.83704,0.00016
3792.77687,0.00045
3790.71670,0.00089
3788.65652,0.00125
3786.59635,0.00144
3784.53618,0.00148
3782.47601,0.00147
3780.41583,0.00143
3778.35566,0.00144
3776.29549,0.00151
3774.23532,0.00164
3772.17515,0.00176
3770.11497,0.00185
3768.05480,0.00186
3765.99463,0.00180
3763.93446,0.00172
3761.87429,0.00166
3759.81411,0.00164
3757.75394,0.00157
3755.69377,0.00138
3753.63360,0.00118
3751.57342,0.00105
3749.51325,0.00093
3747.45308,0.00076
3745.39291,0.00066
3743.33274,0.00070
3741.27256,0.00081
3739.21239,0.00088
3737.15222,0.00104
3735.09205,0.00140
3733.03188,0.00187
3730.97170,0.00218
3728.91153,0.00221
3726.85136,0.00207
3724.79119,0.00199
3722.73102,0.00195
3720.67084,0.00173
3718.61067,0.00134
3716.55050,0.00098
3714.49033,0.00086
3712.43015,0.00100
3710.36998,0.00125
3708.30981,0.00140
3706.24964,0.00131
3704.18947,0.00105
3702.12929,0.00090
3700.06912,0.00103
3698.00895,0.00137
3695.94878,0.00168
3693.88861,0.00181
3691.82843,0.00171
3689.76826,0.00145
3687.70809,0.00112
3685.64792,0.00081
3683.58775,0.00060
3681.52757,0.00054
3679.46740,0.00067
3677.40723,0.00096
3675.34706,0.00133
3673.28688,0.00163
3671.22671,0.00176
3669.16654,0.00179
3667.10637,0.00176
3665.04620,0.00168
3662.98602,0.00165
3660.92585,0.00168
3658.86568,0.00172
3656.80551,0.00167
3654.74534,0.00154
3652.68516,0.00142
3650.62499,0.00137
3648.56482,0.00137
3646.50465,0.00131
3644.44447,0.00125
3642.38430,0.00126
3640.32413,0.00137
3638.26396,0.00153
3636.20379,0.00163
3634.14361,0.00154
3632.08344,0.00124
3630.02327,0.00097
3627.96310,0.00098
3625.90293,0.00114
3623.84275,0.00123
3621.78258,0.00131
3619.72241,0.00150
3617.66224,0.00175
3615.60207,0.00197
3613.54189,0.00218
3611.48172,0.00238
3609.42155,0.00248
3607.36138,0.00251
3605.30120,0.00256
3603.24103,0.00267
3601.18086,0.00271
3599.12069,0.00261
3597.06052,0.00242
3595.00034,0.00225
3592.94017,0.00214
3590.88000,0.00207
3588.81983,0.00200
3586.75966,0.00198
3584.69948,0.00203
3582.63931,0.00210
3580.57914,0.00211
3578.51897,0.00206
3576.45879,0.00201
3574.39862,0.00195
3572.33845,0.00186
3570.27828,0.00180
3568.21811,0.00187
3566.15793,0.00204
3564.09776,0.00218
3562.03759,0.00224
3559.97742,0.00234
3557.91725,0.00260
3555.85707,0.00297
3553.79690,0.00330
3551.73673,0.00344
3549.67656,0.00340
3547.61639,0.00322
3545.55621,0.00297
3543.49604,0.00271
3541.43587,0.00255
3539.37570,0.00251
3537.31552,0.00252
3535.25535,0.00252
3533.19518,0.00255
3531.13501,0.00267
3529.07484,0.00289
3527.01466,0.00315
3524.95449,0.00330
3522.89432,0.00330
3520.83415,0.00322
3518.77398,0.00319
3516.71380,0.00326
3514.65363,0.00339
3512.59346,0.00351
3510.53329,0.00359
3508.47312,0.00363
3506.41294,0.00367
3504.35277,0.00377
3502.29260,0.00388
3500.23243,0.00398
3498.17225,0.00402
3496.11208,0.00401
3494.05191,0.00393
3491.99174,0.00384
3489.93157,0.00379
3487.87139,0.00381
3485.81122,0.00382
3483.75105,0.00378
3481.69088,0.00373
3479.63071,0.00374
3477.57053,0.00386
3475.51036,0.00406
3473.45019,0.00425
3471.39002,0.00433
3469.32984,0.00434
3467.26967,0.00429
3465.20950,0.00427
3463.14933,0.00431
3461.08916,0.00441
3459.02898,0.00455
3456.96881,0.00467
3454.90864,0.00469
3452.84847,0.00459
3450.78830,0.00444
3448.72812,0.00440
3446.66795,0.00455
3444.60778,0.00480
3442.54761,0.00498
3440.48744,0.00505
3438.42726,0.00506
3436.36709,0.00508
3434.30692,0.00507
3432.24675,0.00499
3430.18657,0.00495
3428.12640,0.00500
3426.06623,0.00516
3424.00606,0.00536
3421.94589,0.00551
3419.88571,0.00549
3417.82554,0.00532
3415.76537,0.00517
3413.70520,0.00515
3411.64503,0.00524
3409.58485,0.00529
3407.52468,0.00520
3405.46451,0.00502
3403.40434,0.00482
3401.34416,0.00464
3399.28399,0.00452
3397.22382,0.00450
3395.16365,0.00462
3393.10348,0.00484
3391.04330,0.00510
3388.98313,0.00535
3386.92296,0.00557
3384.86279,0.00572
3382.80262,0.00574
3380.74244,0.00562
3378.68227,0.00545
3376.62210,0.00540
3374.56193,0.00555
3372.50176,0.00580
3370.44158,0.00598
3368.38141,0.00596
3366.32124,0.00577
3364.26107,0.00552
3362.20089,0.00537
3360.14072,0.00539
3358.08055,0.00558
3356.02038,0.00584
3353.96021,0.00609
3351.90003,0.00632
3349.83986,0.00648
3347.77969,0.00644
3345.71952,0.00616
3343.65935,0.00576
3341.59917,0.00543
3339.53900,0.00532
3337.47883,0.00541
3335.41866,0.00560
3333.35849,0.00580
3331.29831,0.00596
3329.23814,0.00600
3327.17797,0.00594
3325.11780,0.00585
3323.05762,0.00580
3320.99745,0.00579
3318.93728,0.00583
3316.87711,0.00592
3314.81694,0.00596
3312.75676,0.00584
3310.69659,0.00563
3308.63642,0.00552
3306.57625,0.00564
3304.51608,0.00587
3302.45590,0.00608
3300.39573,0.00619
3298.33556,0.00618
3296.27539,0.00611
3294.21521,0.00606
3292.15504,0.00610
3290.09487,0.00616
3288.03470,0.00615
3285.97453,0.00604
3283.91435,0.00590
3281.85418,0.00579
3279.79401,0.00568
3277.73384,0.00559
3275.67367,0.00558
3273.61349,0.00566
3271.55332,0.00572
3269.49315,0.00569
3267.43298,0.00563
3265.37281,0.00569
3263.31263,0.00589
3261.25246,0.00617
3259.19229,0.00641
3257.13212,0.00650
3255.07194,0.00642
3253.01177,0.00624
3250.95160,0.00606
3248.89143,0.00596
3246.83126,0.00597
3244.77108,0.00600
3242.71091,0.00599
3240.65074,0.00592
3238.59057,0.00584
3236.53040,0.00576
3234.47022,0.00568
3232.41005,0.00560
3230.34988,0.00554
3228.28971,0.00551
3226.22954,0.00549
3224.16936,0.00550
3222.10919,0.00553
3220.04902,0.00551
3217.98885,0.00543
3215.92867,0.00531
3213.86850,0.00520
3211.80833,0.00513
3209.74816,0.00515
3207.68799,0.00527
3205.62781,0.00541
3203.56764,0.00549
3201.50747,0.00550
3199.44730,0.00548
3197.38713,0.00550
3195.32695,0.00561
3193.26678,0.00573
3191.20661,0.00574
3189.14644,0.00559
3187.08626,0.00536
3185.02609,0.00512
3182.96592,0.00488
3180.90575,0.00471
3178.84558,0.00469
3176.78540,0.00482
3174.72523,0.00494
3172.66506,0.00491
3170.60489,0.00473
3168.54472,0.00455
3166.48454,0.00451
3164.42437,0.00458
3162.36420,0.00469
3160.30403,0.00476
3158.24386,0.00480
3156.18368,0.00489
3154.12351,0.00502
3152.06334,0.00506
3150.00317,0.00494
3147.94299,0.00478
3145.88282,0.00469
3143.82265,0.00468
3141.76248,0.00466
3139.70231,0.00462
3137.64213,0.00454
3135.58196,0.00441
3133.52179,0.00424
3131.46162,0.00408
3129.40145,0.00397
3127.34127,0.00392
3125.28110,0.00388
3123.22093,0.00384
3121.16076,0.00384
3119.10058,0.00389
3117.04041,0.00395
3114.98024,0.00399
3112.92007,0.00398
3110.85990,0.00394
3108.79972,0.00391
3106.73955,0.00390
3104.67938,0.00394
3102.61921,0.00405
3100.55904,0.00415
3098.49886,0.00413
3096.43869,0.00399
3094.37852,0.00382
3092.31835,0.00373
3090.25818,0.00369
3088.19800,0.00369
3086.13783,0.00371
3084.07766,0.00374
3082.01749,0.00373
3079.95731,0.00363
3077.89714,0.00346
3075.83697,0.00330
3073.77680,0.00324
3071.71663,0.00333
3069.65645,0.00349
3067.59628,0.00364
3065.53611,0.00378
3063.47594,0.00383
3061.41577,0.00373
3059.35559,0.00351
3057.29542,0.00325
3055.23525,0.00310
3053.17508,0.00311
3051.11491,0.00324
3049.05473,0.00340
3046.99456,0.00354
3044.93439,0.00361
3042.87422,0.00361
3040.81404,0.00355
3038.75387,0.00346
3036.69370,0.00337
3034.63353,0.00327
3032.57336,0.00320
3030.51318,0.00313
3028.45301,0.00301
3026.39284,0.00286
3024.33267,0.00274
3022.27250,0.00269
3020.21232,0.00267
3018.15215,0.00265
3016.09198,0.00263
3014.03181,0.00263
3011.97163,0.00261
3009.91146,0.00259
3007.85129,0.00256
3005.79112,0.00258
3003.73095,0.00267
3001.67077,0.00281
2999.61060,0.00292
2997.55043,0.00287
2995.49026,0.00269
2993.43009,0.00253
2991.36991,0.00252
2989.30974,0.00267
2987.24957,0.00287
2985.18940,0.00302
2983.12923,0.00306
2981.06905,0.00299
2979.00888,0.00292
2976.94871,0.00298
2974.88854,0.00323
2972.82836,0.00344
2970.76819,0.00343
2968.70802,0.00341
2966.64785,0.00353
2964.58768,0.00360
2962.52750,0.00351
2960.46733,0.00342
2958.40716,0.00343
2956.34699,0.00348
2954.28682,0.00352
2952.22664,0.00356
2950.16647,0.00365
2948.10630,0.00377
2946.04613,0.00387
2943.98596,0.00386
2941.92578,0.00380
2939.86561,0.00376
2937.80544,0.00384
2935.74527,0.00396
2933.68509,0.00397
2931.62492,0.00391
2929.56475,0.00397
2927.50458,0.00410
2925.44441,0.00417
2923.38423,0.00414
2921.32406,0.00403
2919.26389,0.00386
2917.20372,0.00377
2915.14355,0.00387
2913.08337,0.00398
2911.02320,0.00391
2908.96303,0.00369
2906.90286,0.00347
2904.84268,0.00336
2902.78251,0.00338
2900.72234,0.00346
2898.66217,0.00347
2896.60200,0.00342
2894.54182,0.00334
2892.48165,0.00328
2890.42148,0.00329
2888.36131,0.00341
2886.30114,0.00357
2884.24096,0.00365
2882.18079,0.00368
2880.12062,0.00376
2878.06045,0.00378
2876.00028,0.00366
2873.94010,0.00354
2871.87993,0.00358
2869.81976,0.00362
2867.75959,0.00345
2865.69941,0.00321
2863.63924,0.00314
2861.57907,0.00323
2859.51890,0.00327
2857.45873,0.00326
2855.39855,0.00332
2853.33838,0.00339
2851.27821,0.00334
2849.21804,0.00324
2847.15787,0.00308
2845.09769,0.00295
2843.03752,0.00297
2840.97735,0.00312
2838.91718,0.00327
2836.85700,0.00334
2834.79683,0.00323
2832.73666,0.00293
2830.67649,0.00269
2828.61632,0.00280
2826.55614,0.00317
2824.49597,0.00347
2822.43580,0.00351
2820.37563,0.00332
2818.31546,0.00304
2816.25528,0.00288
2814.19511,0.00293
2812.13494,0.00305
2810.07477,0.00318
2808.01460,0.00330
2805.95442,0.00337
2803.89425,0.00333
2801.83408,0.00322
2799.77391,0.00306
2797.71373,0.00287
2795.65356,0.00272
2793.59339,0.00267
2791.53322,0.00271
2789.47305,0.00268
2787.41287,0.00252
2785.35270,0.00243
2783.29253,0.00257
2781.23236,0.00283
2779.17219,0.00299
2777.11201,0.00293
2775.05184,0.00267
2772.99167,0.00243
2770.93150,0.00241
2768.87133,0.00258
2766.81115,0.00269
2764.75098,0.00268
2762.69081,0.00271
2760.63064,0.00284
2758.57046,0.00295
2756.51029,0.00294
2754.45012,0.00282
2752.38995,0.00271
2750.32978,0.00272
2748.26960,0.00281
2746.20943,0.00285
2744.14926,0.00286
2742.08909,0.00288
2740.02892,0.00289
2737.96874,0.00290
2735.90857,0.00298
2733.84840,0.00313
2731.78823,0.00321
2729.72805,0.00308
2727.66788,0.00286
2725.60771,0.00279
2723.54754,0.00291
2721.48737,0.00297
2719.42719,0.00282
2717.36702,0.00262
2715.30685,0.00252
2713.24668,0.00248
2711.18651,0.00245
2709.12633,0.00247
2707.06616,0.00250
2705.00599,0.00249
2702.94582,0.00242
2700.88565,0.00234
2698.82547,0.00236
2696.76530,0.00252
2694.70513,0.00269
2692.64496,0.00282
2690.58478,0.00283
2688.52461,0.00271
2686.46444,0.00260
2684.40427,0.00255
2682.34410,0.00253
2680.28392,0.00259
2678.22375,0.00280
2676.16358,0.00303
2674.10341,0.00308
2672.04324,0.00292
2669.98306,0.00268
2667.92289,0.00252
2665.86272,0.00254
2663.80255,0.00269
2661.74238,0.00280
2659.68220,0.00289
2657.62203,0.00302
2655.56186,0.00311
2653.50169,0.00310
2651.44151,0.00308
2649.38134,0.00311
2647.32117,0.00306
2645.26100,0.00294
2643.20083,0.00289
2641.14065,0.00294
2639.08048,0.00297
2637.02031,0.00290
2634.96014,0.00274
2632.89997,0.00252
2630.83979,0.00234
2628.77962,0.00229
2626.71945,0.00238
2624.65928,0.00256
2622.59910,0.00280
2620.53893,0.00297
2618.47876,0.00294
2616.41859,0.00272
2614.35842,0.00252
2612.29824,0.00255
2610.23807,0.00266
2608.17790,0.00268
2606.11773,0.00277
2604.05756,0.00308
2601.99738,0.00335
2599.93721,0.00323
2597.87704,0.00287
2595.81687,0.00265
2593.75670,0.00257
2591.69652,0.00234
2589.63635,0.00206
2587.57618,0.00226
2585.51601,0.00291
2583.45583,0.00329
2581.39566,0.00317
2579.33549,0.00284
2577.27532,0.00253
2575.21515,0.00232
2573.15497,0.00220
2571.09480,0.00208
2569.03463,0.00199
2566.97446,0.00213
2564.91429,0.00253
2562.85411,0.00278
2560.79394,0.00265
2558.73377,0.00241
2556.67360,0.00241
2554.61342,0.00259
2552.55325,0.00264
2550.49308,0.00255
2548.43291,0.00265
2546.37274,0.00290
2544.31256,0.00302
2542.25239,0.00304
2540.19222,0.00300
2538.13205,0.00280
2536.07188,0.00253
2534.01170,0.00248
2531.95153,0.00269
2529.89136,0.00291
2527.83119,0.00294
2525.77102,0.00278
2523.71084,0.00259
2521.65067,0.00244
2519.59050,0.00241
2517.53033,0.00263
2515.47015,0.00291
2513.40998,0.00285
2511.34981,0.00243
2509.28964,0.00209
2507.22947,0.00214
2505.16929,0.00250
2503.10912,0.00296
2501.04895,0.00326
2498.98878,0.00314
2496.92861,0.00275
2494.86843,0.00255
2492.80826,0.00266
2490.74809,0.00273
2488.68792,0.00257
2486.62775,0.00246
2484.56757,0.00272
2482.50740,0.00295
2480.44723,0.00272
2478.38706,0.00238
2476.32688,0.00241
2474.26671,0.00278
2472.20654,0.00314
2470.14637,0.00319
2468.08620,0.00298
2466.02602,0.00275
2463.96585,0.00252
2461.90568,0.00230
2459.84551,0.00222
2457.78534,0.00228
2455.72516,0.00233
2453.66499,0.00235
2451.60482,0.00233
2449.54465,0.00225
2447.48447,0.00233
2445.42430,0.00263
2443.36413,0.00283
2441.30396,0.00273
2439.24379,0.00249
2437.18361,0.00232
2435.12344,0.00226
2433.06327,0.00233
2431.00310,0.00249
2428.94293,0.00257
2426.88275,0.00251
2424.82258,0.00242
2422.76241,0.00233
2420.70224,0.00229
2418.64207,0.00249
2416.58189,0.00283
2414.52172,0.00304
2412.46155,0.00304
2410.40138,0.00300
2408.34120,0.00301
2406.28103,0.00291
2404.22086,0.00267
2402.16069,0.00241
2400.10052,0.00230
2398.04034,0.00228
2395.98017,0.00226
2393.92000,0.00223
2391.85983,0.00226
2389.79966,0.00239
2387.73948,0.00250
2385.67931,0.00250
2383.61914,0.00240
2381.55897,0.00236
2379.49880,0.00247
2377.43862,0.00272
2375.37845,0.00296
2373.31828,0.00311
2371.25811,0.00302
2369.19793,0.00253
2367.13776,0.00155
2365.07759,0.00049
2363.01742,0.00007
2360.95725,0.00075
2358.89707,0.00212
2356.83690,0.00319
2354.77673,0.00348
2352.71656,0.00322
2350.65639,0.00278
2348.59621,0.00216
2346.53604,0.00144
2344.47587,0.00103
2342.41570,0.00120
2340.35552,0.00187
2338.29535,0.00274
2336.23518,0.00365
2334.17501,0.00448
2332.11484,0.00503
2330.05466,0.00514
2327.99449,0.00485
2325.93432,0.00442
2323.87415,0.00408
2321.81398,0.00395
2319.75380,0.00401
2317.69363,0.00406
2315.63346,0.00391
2313.57329,0.00358
2311.51312,0.00324
2309.45294,0.00302
2307.39277,0.00291
2305.33260,0.00282
2303.27243,0.00272
2301.21225,0.00262
2299.15208,0.00253
2297.09191,0.00243
2295.03174,0.00234
2292.97157,0.00238
2290.91139,0.00249
2288.85122,0.00252
2286.79105,0.00241
2284.73088,0.00222
2282.67071,0.00209
2280.61053,0.00212
2278.55036,0.00233
2276.49019,0.00253
2274.43002,0.00242
2272.36984,0.00197
2270.30967,0.00148
2268.24950,0.00134
2266.18933,0.00169
2264.12916,0.00236
2262.06898,0.00307
2260.00881,0.00352
2257.94864,0.00354
2255.88847,0.00331
2253.82830,0.00306
2251.76812,0.00276
2249.70795,0.00223
2247.64778,0.00151
2245.58761,0.00112
2243.52744,0.00142
2241.46726,0.00215
2239.40709,0.00272
2237.34692,0.00288
2235.28675,0.00284
2233.22657,0.00277
2231.16640,0.00236
2229.10623,0.00149
2227.04606,0.00076
2224.98589,0.00073
2222.92571,0.00122
2220.86554,0.00169
2218.80537,0.00205
2216.74520,0.00237
2214.68503,0.00265
2212.62485,0.00287
2210.56468,0.00302
2208.50451,0.00302
2206.44434,0.00300
2204.38417,0.00305
2202.32399,0.00318
2200.26382,0.00336
2198.20365,0.00339
2196.14348,0.00333
2194.08330,0.00329
2192.02313,0.00323
2189.96296,0.00323
2187.90279,0.00315
2185.84262,0.00300
2183.78244,0.00337
2181.72227,0.00385
2179.66210,0.00334
2177.60193,0.00245
2175.54176,0.00224
2173.48158,0.00259
2171.42141,0.00278
2169.36124,0.00228
2167.30107,0.00134
2165.24089,0.00094
2163.18072,0.00156
2161.12055,0.00213
2159.06038,0.00156
2157.00021,0.00071
2154.94003,0.00084
2152.87986,0.00195
2150.81969,0.00313
2148.75952,0.00311
2146.69935,0.00172
2144.63917,0.00032
2142.57900,0.00000
2140.51883,0.00064
2138.45866,0.00148
2136.39849,0.00187
2134.33831,0.00207
2132.27814,0.00272
2130.21797,0.00357
2128.15780,0.00378
2126.09762,0.00333
2124.03745,0.00305
2121.97728,0.00325
2119.91711,0.00324
2117.85694,0.00273
2115.79676,0.00242
2113.73659,0.00269
2111.67642,0.00322
2109.61625,0.00364
2107.55608,0.00393
2105.49590,0.00388
2103.43573,0.00314
2101.37556,0.00220
2099.31539,0.00201
2097.25521,0.00244
2095.19504,0.00297
2093.13487,0.00323
2091.07470,0.00313
2089.01453,0.00284
2086.95435,0.00255
2084.89418,0.00239
2082.83401,0.00229
2080.77384,0.00206
2078.71367,0.00149
2076.65349,0.00074
2074.59332,0.00025
2072.53315,0.00030
2070.47298,0.00077
2068.41281,0.00128
2066.35263,0.00155
2064.29246,0.00148
2062.23229,0.00118
2060.17212,0.00085
2058.11194,0.00070
2056.05177,0.00076
2053.99160,0.00080
2051.93143,0.00067
2049.87126,0.00058
2047.81108,0.00077
2045.75091,0.00112
2043.69074,0.00138
2041.63057,0.00142
2039.57040,0.00129
2037.51022,0.00119
2035.45005,0.00126
2033.38988,0.00154
2031.32971,0.00206
2029.26954,0.00269
2027.20936,0.00322
2025.14919,0.00352
2023.08902,0.00349
2021.02885,0.00299
2018.96867,0.00224
2016.90850,0.00169
2014.84833,0.00166
2012.78816,0.00202
2010.72799,0.00243
2008.66781,0.00272
2006.60764,0.00293
2004.54747,0.00299
2002.48730,0.00292
2000.42713,0.00299
1998.36695,0.00335
1996.30678,0.00375
1994.24661,0.00388
1992.18644,0.00357
1990.12626,0.00293
1988.06609,0.00230
1986.00592,0.00186
1983.94575,0.00156
1981.88558,0.00130
1979.82540,0.00093
1977.76523,0.00044
1975.70506,0.00016
1973.64489,0.00030
1971.58472,0.00063
1969.52454,0.00086
1967.46437,0.00102
1965.40420,0.00139
1963.34403,0.00195
1961.28386,0.00235
1959.22368,0.00231
1957.16351,0.00201
1955.10334,0.00181
1953.04317,0.00170
1950.98299,0.00150
1948.92282,0.00115
1946.86265,0.00075
1944.80248,0.00045
1942.74231,0.00035
1940.68213,0.00051
1938.62196,0.00091
1936.56179,0.00144
1934.50162,0.00182
1932.44145,0.00181
1930.38127,0.00144
1928.32110,0.00091
1926.26093,0.00041
1924.20076,0.00018
1922.14059,0.00035
1920.08041,0.00076
1918.02024,0.00108
1915.96007,0.00126
1913.89990,0.00149
1911.83972,0.00175
1909.77955,0.00177
1907.71938,0.00145
1905.65921,0.00099
1903.59904,0.00066
1901.53886,0.00057
1899.47869,0.00065
1897.41852,0.00079
1895.35835,0.00096
1893.29818,0.00113
1891.23800,0.00121
1889.17783,0.00117
1887.11766,0.00115
1885.05749,0.00126
1882.99731,0.00141
1880.93714,0.00142
1878.87697,0.00116
1876.81680,0.00068
1874.75663,0.00024
1872.69645,0.00002
1870.63628,0.00000
1868.57611,0.00009
1866.51594,0.00026
1864.45577,0.00044
1862.39559,0.00055
1860.33542,0.00057
1858.27525,0.00055
1856.21508,0.00062
1854.15491,0.00082
1852.09473,0.00108
1850.03456,0.00132
1847.97439,0.00147
1845.91422,0.00154
1843.85404,0.00155
1841.79387,0.00149
1839.73370,0.00135
1837.67353,0.00113
1835.61336,0.00095
1833.55318,0.00089
1831.49301,0.00099
1829.43284,0.00119
1827.37267,0.00141
1825.31250,0.00153
1823.25232,0.00152
1821.19215,0.00136
1819.13198,0.00111
1817.07181,0.00084
1815.01163,0.00063
1812.95146,0.00052
1810.89129,0.00048
1808.83112,0.00045
1806.77095,0.00040
1804.71077,0.00040
1802.65060,0.00052
1800.59043,0.00074
1798.53026,0.00095
1796.47009,0.00109
1794.40991,0.00120
1792.34974,0.00132
1790.28957,0.00142
1788.22940,0.00143
1786.16923,0.00133
1784.10905,0.00116
1782.04888,0.00092
1779.98871,0.00072
1777.92854,0.00067
1775.86836,0.00084
1773.80819,0.00114
1771.74802,0.00139
1769.68785,0.00150
1767.62768,0.00147
1765.56750,0.00138
1763.50733,0.00123
1761.44716,0.00108
1759.38699,0.00099
1757.32682,0.00099
1755.26664,0.00109
1753.20647,0.00124
1751.14630,0.00136
1749.08613,0.00147
1747.02596,0.00161
1744.96578,0.00179
1742.90561,0.00199
1740.84544,0.00217
1738.78527,0.00224
1736.72509,0.00212
1734.66492,0.00190
1732.60475,0.00173
1730.54458,0.00171
1728.48441,0.00178
1726.42423,0.00182
1724.36406,0.00179
1722.30389,0.00173
1720.24372,0.00169
1718.18355,0.00169
1716.12337,0.00171
1714.06320,0.00167
1712.00303,0.00157
1709.94286,0.00146
1707.88268,0.00139
1705.82251,0.00137
1703.76234,0.00133
1701.70217,0.00124
1699.64200,0.00111
1697.58182,0.00104
1695.52165,0.00104
1693.46148,0.00109
1691.40131,0.00120
1689.34114,0.00140
1687.28096,0.00164
1685.22079,0.00183
1683.16062,0.00187
1681.10045,0.00177
1679.04028,0.00159
1676.98010,0.00140
1674.91993,0.00123
1672.85976,0.00110
1670.79959,0.00109
1668.73941,0.00129
1666.67924,0.00161
1664.61907,0.00193
1662.55890,0.00218
1660.49873,0.00237
1658.43855,0.00253
1656.37838,0.00263
1654.31821,0.00262
1652.25804,0.00248
1650.19787,0.00224
1648.13769,0.00207
1646.07752,0.00206
1644.01735,0.00217
1641.95718,0.00231
1639.89701,0.00241
1637.83683,0.00245
1635.77666,0.00242
1633.71649,0.00241
1631.65632,0.00243
1629.59614,0.00250
1627.53597,0.00261
1625.47580,0.00277
1623.41563,0.00294
1621.35546,0.00307
1619.29528,0.00317
1617.23511,0.00326
1615.17494,0.00330
1613.11477,0.00321
1611.05460,0.00300
1608.99442,0.00278
1606.93425,0.00267
1604.87408,0.00268
1602.81391,0.00269
1600.75373,0.00261
1598.69356,0.00244
1596.63339,0.00223
1594.57322,0.00200
1592.51305,0.00178
1590.45287,0.00163
1588.39270,0.00159
1586.33253,0.00161
1584.27236,0.00161
1582.21219,0.00155
1580.15201,0.00145
1578.09184,0.00138
1576.03167,0.00136
1573.97150,0.00133
1571.91133,0.00123
1569.85115,0.00110
1567.79098,0.00101
1565.73081,0.00094
1563.67064,0.00087
1561.61046,0.00080
1559.55029,0.00072
1557.49012,0.00065
1555.42995,0.00061
1553.36978,0.00065
1551.30960,0.00077
1549.24943,0.00089
1547.18926,0.00092
1545.12909,0.00077
1543.06892,0.00055
1541.00874,0.00042
1538.94857,0.00046
1536.88840,0.00058
1534.82823,0.00065
1532.76805,0.00064
1530.70788,0.00056
1528.64771,0.00046
1526.58754,0.00039
1524.52737,0.00034
1522.46719,0.00030
1520.40702,0.00028
1518.34685,0.00027
1516.28668,0.00023
1514.22651,0.00016
1512.16633,0.00007
1510.10616,0.00000
1508.04599,0.00001
1505.98582,0.00013
1503.92565,0.00030
1501.86547,0.00042
1499.80530,0.00045
1497.74513,0.00043
1495.68496,0.00041
1493.62478,0.00039
1491.56461,0.00039
1489.50444,0.00043
1487.44427,0.00053
1485.38410,0.00063
1483.32392,0.00069
1481.26375,0.00068
1479.20358,0.00062
1477.14341,0.00058
1475.08324,0.00064
1473.02306,0.00080
1470.96289,0.00098
1468.90272,0.00111
1466.84255,0.00120
1464.78238,0.00125
1462.72220,0.00127
1460.66203,0.00122
1458.60186,0.00113
1456.54169,0.00111
1454.48151,0.00123
1452.42134,0.00144
1450.36117,0.00164
1448.30100,0.00177
1446.24083,0.00184
1444.18065,0.00184
1442.12048,0.00181
1440.06031,0.00178
1438.00014,0.00178
1435.93997,0.00181
1433.87979,0.00187
1431.81962,0.00189
1429.75945,0.00192
1427.69928,0.00200
1425.63910,0.00213
1423.57893,0.00228
1421.51876,0.00239
1419.45859,0.00242
1417.39842,0.00239
1415.33824,0.00234
1413.27807,0.00229
1411.21790,0.00224
1409.15773,0.00220
1407.09756,0.00222
1405.03738,0.00228
1402.97721,0.00231
1400.91704,0.00227
1398.85687,0.00219
1396.79670,0.00209
1394.73652,0.00196
1392.67635,0.00184
1390.61618,0.00174
1388.55601,0.00168
1386.49583,0.00166
1384.43566,0.00170
1382.37549,0.00183
1380.31532,0.00202
1378.25515,0.00219
1376.19497,0.00227
1374.13480,0.00223
1372.07463,0.00216
1370.01446,0.00208
1367.95429,0.00200
1365.89411,0.00190
1363.83394,0.00179
1361.77377,0.00172
1359.71360,0.00171
1357.65343,0.00173
1355.59325,0.00177
1353.53308,0.00179
1351.47291,0.00180
1349.41274,0.00180
1347.35256,0.00181
1345.29239,0.00185
1343.23222,0.00186
1341.17205,0.00183
1339.11188,0.00175
1337.05170,0.00168
1334.99153,0.00162
1332.93136,0.00157
1330.87119,0.00154
1328.81102,0.00155
1326.75084,0.00159
1324.69067,0.00167
1322.63050,0.00176
1320.57033,0.00184
1318.51015,0.00190
1316.44998,0.00193
1314.38981,0.00191
1312.32964,0.00188
1310.26947,0.00186
1308.20929,0.00185
1306.14912,0.00183
1304.08895,0.00176
1302.02878,0.00167
1299.96861,0.00163
1297.90843,0.00163
1295.84826,0.00163
1293.78809,0.00160
1291.72792,0.00155
1289.66775,0.00151
1287.60757,0.00147
1285.54740,0.00142
1283.48723,0.00136
1281.42706,0.00128
1279.36688,0.00119
1277.30671,0.00114
1275.24654,0.00113
1273.18637,0.00118
1271.12620,0.00127
1269.06602,0.00141
1267.00585,0.00154
1264.94568,0.00163
1262.88551,0.00166
1260.82534,0.00171
1258.76516,0.00179
1256.70499,0.00188
1254.64482,0.00195
1252.58465,0.00196
1250.52447,0.00191
1248.46430,0.00184
1246.40413,0.00179
1244.34396,0.00180
1242.28379,0.00184
1240.22361,0.00187
1238.16344,0.00190
1236.10327,0.00192
1234.04310,0.00191
1231.98293,0.00185
1229.92275,0.00176
1227.86258,0.00169
1225.80241,0.00164
1223.74224,0.00162
1221.68207,0.00156
1219.62189,0.00144
1217.56172,0.00126
1215.50155,0.00107
1213.44138,0.00096
1211.38120,0.00093
1209.32103,0.00093
1207.26086,0.00090
1205.20069,0.00076
1203.14052,0.00053
1201.08034,0.00025
1199.02017,0.00005
1196.96000,0.00000
1194.89983,0.00001
1192.83966,0.00006
1190.77948,0.00017
1188.71931,0.00022
1186.65914,0.00019
1184.59897,0.00016
1182.53880,0.00008
1180.47862,-0.00006
1178.41845,-0.00012
1176.35828,-0.00000
1174.29811,0.00023
1172.23793,0.00046
1170.17776,0.00062
1168.11759,0.00079
1166.05742,0.00097
1163.99725,0.00108
1161.93707,0.00124
1159.87690,0.00162
1157.81673,0.00207
1155.75656,0.00236
1153.69639,0.00246
1151.63621,0.00247
1149.57604,0.00241
1147.51587,0.00233
1145.45570,0.00241
1143.39552,0.00264
1141.33535,0.00277
1139.27518,0.00274
1137.21501,0.00278
1135.15484,0.00298
1133.09466,0.00325
1131.03449,0.00340
1128.97432,0.00334
1126.91415,0.00318
1124.85398,0.00317
1122.79380,0.00340
1120.73363,0.00378
1118.67346,0.00424
1116.61329,0.00458
1114.55312,0.00463
1112.49294,0.00449
1110.43277,0.00448
1108.37260,0.00475
1106.31243,0.00513
1104.25225,0.00546
1102.19208,0.00568
1100.13191,0.00580
1098.07174,0.00586
1096.01157,0.00602
1093.95139,0.00634
1091.89122,0.00671
1089.83105,0.00700
1087.77088,0.00725
1085.71071,0.00757
1083.65053,0.00788
1081.59036,0.00808
1079.53019,0.00832
1077.47002,0.00866
1075.40985,0.00894
1073.34967,0.00901
1071.28950,0.00893
1069.22933,0.00891
1067.16916,0.00911
1065.10898,0.00942
1063.04881,0.00967
1060.98864,0.00979
1058.92847,0.00981
1056.86830,0.00979
1054.80812,0.00980
1052.74795,0.00983
1050.68778,0.00995
1048.62761,0.01022
1046.56744,0.01040
1044.50726,0.01034
1042.44709,0.01035
1040.38692,0.01064
1038.32675,0.01099
1036.26657,0.01113
1034.20640,0.01109
1032.14623,0.01099
1030.08606,0.01087
1028.02589,0.01076
1025.96571,0.01068
1023.90554,0.01064
1021.84537,0.01056
1019.78520,0.01045
1017.72503,0.01040
1015.66485,0.01038
1013.60468,0.01027
1011.54451,0.01006
1009.48434,0.00998
1007.42417,0.01007
1005.36399,0.01006
1003.30382,0.00979
1001.24365,0.00943
999.18348,0.00915
997.12330,0.00891
995.06313,0.00862
993.00296,0.00841
990.94279,0.00845
988.88262,0.00859
986.82244,0.00867
984.76227,0.00853
982.70210,0.00820
980.64193,0.00796
978.58176,0.00795
976.52158,0.00809
974.46141,0.00822
972.40124,0.00820
970.34107,0.00800
968.28089,0.00775
966.22072,0.00756
964.16055,0.00734
962.10038,0.00707
960.04021,0.00681
957.98003,0.00659
955.91986,0.00649
953.85969,0.00660
951.79952,0.00678
949.73935,0.00677
947.67917,0.00647
945.61900,0.00607
943.55883,0.00578
941.49866,0.00551
939.43849,0.00510
937.37831,0.00463
935.31814,0.00419
933.25797,0.00380
931.19780,0.00351
929.13762,0.00336
927.07745,0.00326
925.01728,0.00319
922.95711,0.00320
920.89694,0.00322
918.83676,0.00312
916.77659,0.00294
914.71642,0.00281
912.65625,0.00271
910.59608,0.00273
908.53590,0.00289
906.47573,0.00290
904.41556,0.00265
902.35539,0.00241
900.29522,0.00222
898.23504,0.00195
896.17487,0.00172
894.11470,0.00178
892.05453,0.00222
889.99435,0.00281
887.93418,0.00308
885.87401,0.00288
883.81384,0.00247
881.75367,0.00211
879.69349,0.00179
877.63332,0.00161
875.57315,0.00172
873.51298,0.00184
871.45281,0.00174
869.39263,0.00152
867.33246,0.00145
865.27229,0.00160
863.21212,0.00183
861.15194,0.00206
859.09177,0.00230
857.03160,0.00246
854.97143,0.00243
852.91126,0.00216
850.85108,0.00178
848.79091,0.00161
846.73074,0.00171
844.67057,0.00178
842.61040,0.00164
840.55022,0.00139
838.49005,0.00123
836.42988,0.00114
834.36971,0.00095
832.30954,0.00067
830.24936,0.00064
828.18919,0.00098
826.12902,0.00150
824.06885,0.00202
822.00867,0.00237
819.94850,0.00228
817.88833,0.00178
815.82816,0.00138
813.76799,0.00154
811.70781,0.00190
809.64764,0.00187
807.58747,0.00142
805.52730,0.00094
803.46713,0.00073
801.40695,0.00081
799.34678,0.00111
797.28661,0.00143
795.22644,0.00155
793.16627,0.00126
791.10609,0.00056
789.04592,0.00000
786.98575,-0.00001
784.92558,0.00046
782.86540,0.00111
780.80523,0.00155
778.74506,0.00146
776.68489,0.00100
774.62472,0.00069
772.56454,0.00073
770.50437,0.00091
768.44420,0.00096
766.38403,0.00105
764.32386,0.00135
762.26368,0.00147
760.20351,0.00121
758.14334,0.00103
756.08317,0.00129
754.02299,0.00171
751.96282,0.00182
749.90265,0.00163
747.84248,0.00144
745.78231,0.00130
743.72213,0.00107
741.66196,0.00093
739.60179,0.00124
737.54162,0.00192
735.48145,0.00263
733.42127,0.00304
731.36110,0.00298
729.30093,0.00258
727.24076,0.00213
725.18059,0.00187
723.12041,0.00182
721.06024,0.00192
719.00007,0.00213
716.93990,0.00242
714.87972,0.00262
712.81955,0.00255
710.75938,0.00222
708.69921,0.00186
706.63904,0.00174
704.57886,0.00196
702.51869,0.00237
700.45852,0.00273
698.39835,0.00293
696.33818,0.00298
694.27800,0.00291
692.21783,0.00275
690.15766,0.00257
688.09749,0.00242
686.03731,0.00229
683.97714,0.00215
681.91697,0.00196
679.85680,0.00181
677.79663,0.00177
675.73645,0.00175
673.67628,0.00151
671.61611,0.00093
669.55594,0.00025
667.49577,0.00000
665.43559,0.00034
663.37542,0.00085
661.31525,0.00133
659.25508,0.00199
657.19491,0.00294
655.13473,0.00375
653.07456,0.00392
651.01439,0.00342
648.95422,0.00281
646.89404,0.00261
644.83387,0.00265
642.77370,0.00239
640.71353,0.00168
638.65336,0.00081
636.59318,0.00021
634.53301,0.00049
632.47284,0.00197
630.41267,0.00405
628.35250,0.00535
626.29232,0.00484
624.23215,0.00341
622.17198,0.00227
620.11181,0.00118
618.05164,0.00021
615.99146,0.00082
613.93129,0.00293
611.87112,0.00398
609.81095,0.00284
607.75077,0.00138
605.69060,0.00103
603.63043,0.00102
601.57026,0.00063
599.51009,0.00000
