3996.73391,0.00034
3994.67373,0.00027
3992.61356,0.00016
3990.55339,0.00002
3988.49322,-0.00002
3986.43305,0.00007
3984.37287,0.00015
3982.31270,0.00009
3980.25253,0.00000
3978.19236,0.00004
3976.13219,0.00023
3974.07201,0.00046
3972.01184,0.00065
3969.95167,0.00075
3967.89150,0.00070
3965.83133,0.00054
3963.77115,0.00037
3961.71098,0.00026
3959.65081,0.00026
3957.59064,0.00033
3955.53046,0.00043
3953.47029,0.00051
3951.41012,0.00060
3949.34995,0.00067
3947.28978,0.00066
3945.22960,0.00058
3943.16943,0.00046
3941.10926,0.00029
3939.04909,0.00017
3936.98892,0.00021
3934.92874,0.00037
3932.86857,0.00049
3930.80840,0.00048
3928.74823,0.00042
3926.68805,0.00034
3924.62788,0.00021
3922.56771,0.00006
3920.50754,0.00000
3918.44737,0.00004
3916.38719,0.00016
3914.32702,0.00030
3912.26685,0.00040
3910.20668,0.00051
3908.14651,0.00070
3906.08633,0.00090
3904.02616,0.00094
3901.96599,0.00076
3899.90582,0.00054
3897.84565,0.00049
3895.78547,0.00067
3893.72530,0.00095
3891.66513,0.00109
3889.60496,0.00101
3887.54478,0.00086
3885.48461,0.00075
3883.42444,0.00071
3881.36427,0.00069
3879.30410,0.00067
3877.24392,0.00066
3875.18375,0.00076
3873.12358,0.00093
3871.06341,0.00107
3869.00324,0.00109
3866.94306,0.00097
3864.88289,0.00075
3862.82272,0.00052
3860.76255,0.00048
3858.70237,0.00077
3856.64220,0.00124
3854.58203,0.00157
3852.52186,0.00153
3850.46169,0.00124
3848.40151,0.00101
3846.34134,0.00099
3844.28117,0.00106
3842.22100,0.00107
3840.16083,0.00101
3838.10065,0.00095
3836.04048,0.00096
3833.98031,0.00099
3831.92014,0.00091
3829.85997,0.00072
3827.79979,0.00060
3825.73962,0.00059
3823.67945,0.00066
3821.61928,0.00072
3819.55910,0.00075
3817.49893,0.00081
3815.43876,0.00089
3813.37859,0.00096
3811.31842,0.00095
3809.25824,0.00089
3807.19807,0.00083
3805.13790,0.00085
3803.07773,0.00097
3801.01756,0.00107
3798.95738,0.00099
3796.89721,0.00077
3794.83704,0.00054
3792.77687,0.00041
3790.71670,0.00039
3788.65652,0.00037
3786.59635,0.00036
3784.53618,0.00041
3782.47601,0.00052
3780.41583,0.00056
3778.35566,0.00048
3776.29549,0.00041
3774.23532,0.00057
3772.17515,0.00100
3770.11497,0.00153
3768.05480,0.00189
3765.99463,0.00192
3763.93446,0.00172
3761.87429,0.00151
3759.81411,0.00147
3757.75394,0.00155
3755.69377,0.00167
3753.63360,0.00173
3751.57342,0.00154
3749.51325,0.00106
3747.45308,0.00050
3745.39291,0.00014
3743.33274,0.00008
3741.27256,0.00031
3739.21239,0.00071
3737.15222,0.00113
3735.09205,0.00146
3733.03188,0.00166
3730.97170,0.00183
3728.91153,0.00199
3726.85136,0.00206
3724.79119,0.00191
3722.73102,0.00158
3720.67084,0.00116
3718.61067,0.00080
3716.55050,0.00061
3714.49033,0.00064
3712.43015,0.00080
3710.36998,0.00095
3708.30981,0.00107
3706.24964,0.00121
3704.18947,0.00127
3702.12929,0.00116
3700.06912,0.00086
3698.00895,0.00048
3695.94878,0.00021
3693.88861,0.00015
3691.82843,0.00034
3689.76826,0.00073
3687.70809,0.00111
3685.64792,0.00131
3683.58775,0.00135
3681.52757,0.00137
3679.46740,0.00145
3677.40723,0.00162
3675.34706,0.00176
3673.28688,0.00175
3671.22671,0.00156
3669.16654,0.00123
3667.10637,0.00092
3665.04620,0.00073
3662.98602,0.00065
3660.92585,0.00072
3658.86568,0.00101
3656.80551,0.00140
3654.74534,0.00165
3652.68516,0.00166
3650.62499,0.00148
3648.56482,0.00122
3646.50465,0.00102
3644.44447,0.00090
3642.38430,0.00077
3640.32413,0.00068
3638.26396,0.00070
3636.20379,0.00084
3634.14361,0.00107
3632.08344,0.00137
3630.02327,0.00166
3627.96310,0.00179
3625.90293,0.00179
3623.84275,0.00185
3621.78258,0.00204
3619.72241,0.00222
3617.66224,0.00224
3615.60207,0.00215
3613.54189,0.00200
3611.48172,0.00178
3609.42155,0.00157
3607.36138,0.00143
3605.30120,0.00137
3603.24103,0.00135
3601.18086,0.00133
3599.12069,0.00126
3597.06052,0.00119
3595.00034,0.00121
3592.94017,0.00130
3590.88000,0.00138
3588.81983,0.00145
3586.75966,0.00157
3584.69948,0.00172
3582.63931,0.00184
3580.57914,0.00197
3578.51897,0.00214
3576.45879,0.00232
3574.39862,0.00243
3572.33845,0.00244
3570.27828,0.00244
3568.21811,0.00250
3566.15793,0.00263
3564.09776,0.00282
3562.03759,0.00298
3559.97742,0.00303
3557.91725,0.00299
3555.85707,0.00292
3553.79690,0.00283
3551.73673,0.00278
3549.67656,0.00281
3547.61639,0.00288
3545.55621,0.00294
3543.49604,0.00300
3541.43587,0.00304
3539.37570,0.00301
3537.31552,0.00293
3535.25535,0.00286
3533.19518,0.00281
3531.13501,0.00276
3529.07484,0.00266
3527.01466,0.00256
3524.95449,0.00258
3522.89432,0.00275
3520.83415,0.00293
3518.77398,0.00306
3516.71380,0.00319
3514.65363,0.00342
3512.59346,0.00372
3510.53329,0.00393
3508.47312,0.00400
3506.41294,0.00407
3504.35277,0.00431
3502.29260,0.00464
3500.23243,0.00481
3498.17225,0.00475
3496.11208,0.00450
3494.05191,0.00421
3491.99174,0.00395
3489.93157,0.00373
3487.87139,0.00351
3485.81122,0.00331
3483.75105,0.00321
3481.69088,0.00321
3479.63071,0.00327
3477.57053,0.00337
3475.51036,0.00350
3473.45019,0.00369
3471.39002,0.00390
3469.32984,0.00410
3467.26967,0.00418
3465.20950,0.00414
3463.14933,0.00406
3461.08916,0.00405
3459.02898,0.00413
3456.96881,0.00426
3454.90864,0.00435
3452.84847,0.00444
3450.78830,0.00455
3448.72812,0.00461
3446.66795,0.00456
3444.60778,0.00443
3442.54761,0.00426
3440.48744,0.00410
3438.42726,0.00399
3436.36709,0.00398
3434.30692,0.00410
3432.24675,0.00431
3430.18657,0.00456
3428.12640,0.00483
3426.06623,0.00508
3424.00606,0.00531
3421.94589,0.00549
3419.88571,0.00557
3417.82554,0.00554
3415.76537,0.00544
3413.70520,0.00531
3411.64503,0.00518
3409.58485,0.00509
3407.52468,0.00505
3405.46451,0.00509
3403.40434,0.00516
3401.34416,0.00519
3399.28399,0.00512
3397.22382,0.00502
3395.16365,0.00500
3393.10348,0.00508
3391.04330,0.00525
3388.98313,0.00542
3386.92296,0.00559
3384.86279,0.00576
3382.80262,0.00594
3380.74244,0.00604
3378.68227,0.00603
3376.62210,0.00587
3374.56193,0.00563
3372.50176,0.00540
3370.44158,0.00527
3368.38141,0.00531
3366.32124,0.00551
3364.26107,0.00580
3362.20089,0.00603
3360.14072,0.00608
3358.08055,0.00592
3356.02038,0.00562
3353.96021,0.00531
3351.90003,0.00509
3349.83986,0.00501
3347.77969,0.00508
3345.71952,0.00526
3343.65935,0.00551
3341.59917,0.00578
3339.53900,0.00599
3337.47883,0.00604
3335.41866,0.00592
3333.35849,0.00574
3331.29831,0.00567
3329.23814,0.00577
3327.17797,0.00595
3325.11780,0.00609
3323.05762,0.00612
3320.99745,0.00600
3318.93728,0.00577
3316.87711,0.00553
3314.81694,0.00542
3312.75676,0.00551
3310.69659,0.00571
3308.63642,0.00586
3306.57625,0.00592
3304.51608,0.00595
3302.45590,0.00601
3300.39573,0.00608
3298.33556,0.00608
3296.27539,0.00600
3294.21521,0.00592
3292.15504,0.00590
3290.09487,0.00591
3288.03470,0.00587
3285.97453,0.00576
3283.91435,0.00561
3281.85418,0.00547
3279.79401,0.00542
3277.73384,0.00550
3275.67367,0.00564
3273.61349,0.00574
3271.55332,0.00577
3269.49315,0.00575
3267.43298,0.00570
3265.37281,0.00562
3263.31263,0.00551
3261.25246,0.00540
3259.19229,0.00538
3257.13212,0.00552
3255.07194,0.00577
3253.01177,0.00600
3250.95160,0.00607
3248.89143,0.00600
3246.83126,0.00587
3244.77108,0.00574
3242.71091,0.00563
3240.65074,0.00554
3238.59057,0.00552
3236.53040,0.00563
3234.47022,0.00579
3232.41005,0.00584
3230.34988,0.00568
3228.28971,0.00539
3226.22954,0.00514
3224.16936,0.00504
3222.10919,0.00510
3220.04902,0.00526
3217.98885,0.00546
3215.92867,0.00559
3213.86850,0.00557
3211.80833,0.00546
3209.74816,0.00538
3207.68799,0.00539
3205.62781,0.00548
3203.56764,0.00556
3201.50747,0.00557
3199.44730,0.00551
3197.38713,0.00547
3195.32695,0.00548
3193.26678,0.00547
3191.20661,0.00538
3189.14644,0.00525
3187.08626,0.00517
3185.02609,0.00519
3182.96592,0.00524
3180.90575,0.00521
3178.84558,0.00504
3176.78540,0.00478
3174.72523,0.00457
3172.66506,0.00448
3170.60489,0.00446
3168.54472,0.00445
3166.48454,0.00447
3164.42437,0.00458
3162.36420,0.00472
3160.30403,0.00480
3158.24386,0.00477
3156.18368,0.00466
3154.12351,0.00456
3152.06334,0.00455
3150.00317,0.00463
3147.94299,0.00474
3145.88282,0.00485
3143.82265,0.00498
3141.76248,0.00509
3139.70231,0.00513
3137.64213,0.00508
3135.58196,0.00496
3133.52179,0.00482
3131.46162,0.00468
3129.40145,0.00456
3127.34127,0.00449
3125.28110,0.00448
3123.22093,0.00451
3121.16076,0.00458
3119.10058,0.00464
3117.04041,0.00468
3114.98024,0.00466
3112.92007,0.00457
3110.85990,0.00439
3108.79972,0.00423
3106.73955,0.00424
3104.67938,0.00442
3102.61921,0.00460
3100.55904,0.00462
3098.49886,0.00452
3096.43869,0.00441
3094.37852,0.00434
3092.31835,0.00433
3090.25818,0.00435
3088.19800,0.00437
3086.13783,0.00441
3084.07766,0.00450
3082.01749,0.00465
3079.95731,0.00477
3077.89714,0.00473
3075.83697,0.00454
3073.77680,0.00436
3071.71663,0.00429
3069.65645,0.00429
3067.59628,0.00430
3065.53611,0.00429
3063.47594,0.00428
3061.41577,0.00428
3059.35559,0.00423
3057.29542,0.00417
3055.23525,0.00412
3053.17508,0.00409
3051.11491,0.00405
3049.05473,0.00396
3046.99456,0.00386
3044.93439,0.00378
3042.87422,0.00373
3040.81404,0.00371
3038.75387,0.00374
3036.69370,0.00378
3034.63353,0.00383
3032.57336,0.00389
3030.51318,0.00396
3028.45301,0.00402
3026.39284,0.00403
3024.33267,0.00400
3022.27250,0.00395
3020.21232,0.00393
3018.15215,0.00397
3016.09198,0.00405
3014.03181,0.00414
3011.97163,0.00415
3009.91146,0.00406
3007.85129,0.00393
3005.79112,0.00386
3003.73095,0.00388
3001.67077,0.00392
2999.61060,0.00383
2997.55043,0.00354
2995.49026,0.00334
2993.43009,0.00344
2991.36991,0.00376
2989.30974,0.00406
2987.24957,0.00426
2985.18940,0.00437
2983.12923,0.00436
2981.06905,0.00425
2979.00888,0.00418
2976.94871,0.00418
2974.88854,0.00427
2972.82836,0.00442
2970.76819,0.00439
2968.70802,0.00413
2966.64785,0.00396
2964.58768,0.00400
2962.52750,0.00407
2960.46733,0.00420
2958.40716,0.00444
2956.34699,0.00463
2954.28682,0.00466
2952.22664,0.00458
2950.16647,0.00452
2948.10630,0.00443
2946.04613,0.00431
2943.98596,0.00424
2941.92578,0.00420
2939.86561,0.00413
2937.80544,0.00414
2935.74527,0.00439
2933.68509,0.00467
2931.62492,0.00476
2929.56475,0.00481
2927.50458,0.00500
2925.44441,0.00529
2923.38423,0.00544
2921.32406,0.00533
2919.26389,0.00513
2917.20372,0.00514
2915.14355,0.00527
2913.08337,0.00525
2911.02320,0.00508
2908.96303,0.00498
2906.90286,0.00494
2904.84268,0.00495
2902.78251,0.00491
2900.72234,0.00476
2898.66217,0.00457
2896.60200,0.00451
2894.54182,0.00463
2892.48165,0.00478
2890.42148,0.00492
2888.36131,0.00503
2886.30114,0.00503
2884.24096,0.00494
2882.18079,0.00488
2880.12062,0.00481
2878.06045,0.00469
2876.00028,0.00461
2873.94010,0.00470
2871.87993,0.00494
2869.81976,0.00509
2867.75959,0.00491
2865.69941,0.00454
2863.63924,0.00439
2861.57907,0.00452
2859.51890,0.00461
2857.45873,0.00456
2855.39855,0.00448
2853.33838,0.00446
2851.27821,0.00451
2849.21804,0.00456
2847.15787,0.00463
2845.09769,0.00469
2843.03752,0.00464
2840.97735,0.00449
2838.91718,0.00438
2836.85700,0.00438
2834.79683,0.00442
2832.73666,0.00441
2830.67649,0.00440
2828.61632,0.00447
2826.55614,0.00453
2824.49597,0.00445
2822.43580,0.00428
2820.37563,0.00407
2818.31546,0.00384
2816.25528,0.00364
2814.19511,0.00360
2812.13494,0.00371
2810.07477,0.00386
2808.01460,0.00397
2805.95442,0.00395
2803.89425,0.00383
2801.83408,0.00370
2799.77391,0.00359
2797.71373,0.00349
2795.65356,0.00350
2793.59339,0.00366
2791.53322,0.00390
2789.47305,0.00411
2787.41287,0.00427
2785.35270,0.00433
2783.29253,0.00431
2781.23236,0.00426
2779.17219,0.00428
2777.11201,0.00437
2775.05184,0.00442
2772.99167,0.00438
2770.93150,0.00436
2768.87133,0.00435
2766.81115,0.00425
2764.75098,0.00414
2762.69081,0.00407
2760.63064,0.00407
2758.57046,0.00417
2756.51029,0.00425
2754.45012,0.00413
2752.38995,0.00393
2750.32978,0.00389
2748.26960,0.00406
2746.20943,0.00429
2744.14926,0.00445
2742.08909,0.00451
2740.02892,0.00448
2737.96874,0.00440
2735.90857,0.00428
2733.84840,0.00418
2731.78823,0.00424
2729.72805,0.00445
2727.66788,0.00459
2725.60771,0.00449
2723.54754,0.00424
2721.48737,0.00406
2719.42719,0.00406
2717.36702,0.00424
2715.30685,0.00434
2713.24668,0.00420
2711.18651,0.00404
2709.12633,0.00410
2707.06616,0.00429
2705.00599,0.00439
2702.94582,0.00438
2700.88565,0.00438
2698.82547,0.00444
2696.76530,0.00446
2694.70513,0.00438
2692.64496,0.00422
2690.58478,0.00417
2688.52461,0.00431
2686.46444,0.00448
2684.40427,0.00444
2682.34410,0.00423
2680.28392,0.00400
2678.22375,0.00385
2676.16358,0.00384
2674.10341,0.00402
2672.04324,0.00433
2669.98306,0.00450
2667.92289,0.00441
2665.86272,0.00429
2663.80255,0.00441
2661.74238,0.00465
2659.68220,0.00477
2657.62203,0.00473
2655.56186,0.00467
2653.50169,0.00460
2651.44151,0.00447
2649.38134,0.00440
2647.32117,0.00442
2645.26100,0.00441
2643.20083,0.00439
2641.14065,0.00444
2639.08048,0.00443
2637.02031,0.00421
2634.96014,0.00399
2632.89997,0.00408
2630.83979,0.00444
2628.77962,0.00469
2626.71945,0.00463
2624.65928,0.00448
2622.59910,0.00439
2620.53893,0.00427
2618.47876,0.00419
2616.41859,0.00432
2614.35842,0.00470
2612.29824,0.00509
2610.23807,0.00508
2608.17790,0.00464
2606.11773,0.00418
2604.05756,0.00395
2601.99738,0.00393
2599.93721,0.00410
2597.87704,0.00438
2595.81687,0.00446
2593.75670,0.00421
2591.69652,0.00391
2589.63635,0.00384
2587.57618,0.00390
2585.51601,0.00387
2583.45583,0.00389
2581.39566,0.00407
2579.33549,0.00419
2577.27532,0.00410
2575.21515,0.00396
2573.15497,0.00397
2571.09480,0.00410
2569.03463,0.00430
2566.97446,0.00440
2564.91429,0.00424
2562.85411,0.00401
2560.79394,0.00395
2558.73377,0.00397
2556.67360,0.00396
2554.61342,0.00413
2552.55325,0.00464
2550.49308,0.00516
2548.43291,0.00526
2546.37274,0.00497
2544.31256,0.00465
2542.25239,0.00453
2540.19222,0.00436
2538.13205,0.00398
2536.07188,0.00381
2534.01170,0.00421
2531.95153,0.00482
2529.89136,0.00512
2527.83119,0.00509
2525.77102,0.00490
2523.71084,0.00460
2521.65067,0.00429
2519.59050,0.00421
2517.53033,0.00436
2515.47015,0.00439
2513.40998,0.00416
2511.34981,0.00387
2509.28964,0.00374
2507.22947,0.00393
2505.16929,0.00444
2503.10912,0.00496
2501.04895,0.00509
2498.98878,0.00487
2496.92861,0.00457
2494.86843,0.00442
2492.80826,0.00442
2490.74809,0.00444
2488.68792,0.00443
2486.62775,0.00444
2484.56757,0.00439
2482.50740,0.00429
2480.44723,0.00419
2478.38706,0.00410
2476.32688,0.00412
2474.26671,0.00447
2472.20654,0.00496
2470.14637,0.00515
2468.08620,0.00500
2466.02602,0.00478
2463.96585,0.00456
2461.90568,0.00440
2459.84551,0.00440
2457.78534,0.00437
2455.72516,0.00414
2453.66499,0.00385
2451.60482,0.00372
2449.54465,0.00372
2447.48447,0.00381
2445.42430,0.00399
2443.36413,0.00429
2441.30396,0.00463
2439.24379,0.00479
2437.18361,0.00455
2435.12344,0.00416
2433.06327,0.00408
2431.00310,0.00428
2428.94293,0.00432
2426.88275,0.00422
2424.82258,0.00431
2422.76241,0.00458
2420.70224,0.00478
2418.64207,0.00483
2416.58189,0.00477
2414.52172,0.00453
2412.46155,0.00425
2410.40138,0.00421
2408.34120,0.00435
2406.28103,0.00440
2404.22086,0.00423
2402.16069,0.00401
2400.10052,0.00386
2398.04034,0.00382
2395.98017,0.00392
2393.92000,0.00417
2391.85983,0.00453
2389.79966,0.00489
2387.73948,0.00514
2385.67931,0.00521
2383.61914,0.00515
2381.55897,0.00501
2379.49880,0.00491
2377.43862,0.00492
2375.37845,0.00502
2373.31828,0.00513
2371.25811,0.00525
2369.19793,0.00529
2367.13776,0.00495
2365.07759,0.00405
2363.01742,0.00308
2360.95725,0.00296
2358.89707,0.00385
2356.83690,0.00485
2354.77673,0.00521
2352.71656,0.00506
2350.65639,0.00499
2348.59621,0.00532
2346.53604,0.00578
2344.47587,0.00598
2342.41570,0.00587
2340.35552,0.00568
2338.29535,0.00557
2336.23518,0.00553
2334.17501,0.00548
2332.11484,0.00543
2330.05466,0.00549
2327.99449,0.00571
2325.93432,0.00609
2323.87415,0.00648
2321.81398,0.00663
2319.75380,0.00646
2317.69363,0.00615
2315.63346,0.00597
2313.57329,0.00605
2311.51312,0.00623
2309.45294,0.00630
2307.39277,0.00618
2305.33260,0.00593
2303.27243,0.00563
2301.21225,0.00538
2299.15208,0.00524
2297.09191,0.00521
2295.03174,0.00522
2292.97157,0.00522
2290.91139,0.00524
2288.85122,0.00531
2286.79105,0.00536
2284.73088,0.00527
2282.67071,0.00501
2280.61053,0.00472
2278.55036,0.00450
2276.49019,0.00441
2274.43002,0.00448
2272.36984,0.00470
2270.30967,0.00503
2268.24950,0.00537
2266.18933,0.00559
2264.12916,0.00570
2262.06898,0.00570
2260.00881,0.00557
2257.94864,0.00539
2255.88847,0.00533
2253.82830,0.00537
2251.76812,0.00535
2249.70795,0.00517
2247.64778,0.00487
2245.58761,0.00478
2243.52744,0.00525
2241.46726,0.00601
2239.40709,0.00615
2237.34692,0.00541
2235.28675,0.00467
2233.22657,0.00468
2231.16640,0.00504
2229.10623,0.00506
2227.04606,0.00480
2224.98589,0.00452
2222.92571,0.00433
2220.86554,0.00448
2218.80537,0.00502
2216.74520,0.00525
2214.68503,0.00480
2212.62485,0.00455
2210.56468,0.00491
2208.50451,0.00504
2206.44434,0.00472
2204.38417,0.00439
2202.32399,0.00425
2200.26382,0.00423
2198.20365,0.00432
2196.14348,0.00429
2194.08330,0.00378
2192.02313,0.00328
2189.96296,0.00370
2187.90279,0.00486
2185.84262,0.00555
2183.78244,0.00536
2181.72227,0.00528
2179.66210,0.00609
2177.60193,0.00687
2175.54176,0.00655
2173.48158,0.00550
2171.42141,0.00454
2169.36124,0.00430
2167.30107,0.00507
2165.24089,0.00614
2163.18072,0.00607
2161.12055,0.00401
2159.06038,0.00125
2157.00021,0.00000
2154.94003,0.00065
2152.87986,0.00242
2150.81969,0.00433
2148.75952,0.00534
2146.69935,0.00504
2144.63917,0.00422
2142.57900,0.00373
2140.51883,0.00349
2138.45866,0.00299
2136.39849,0.00253
2134.33831,0.00271
2132.27814,0.00328
2130.21797,0.00366
2128.15780,0.00383
2126.09762,0.00385
2124.03745,0.00380
2121.97728,0.00408
2119.91711,0.00489
2117.85694,0.00576
2115.79676,0.00628
2113.73659,0.00640
2111.67642,0.00621
2109.61625,0.00565
2107.55608,0.00488
2105.49590,0.00425
2103.43573,0.00389
2101.37556,0.00374
2099.31539,0.00382
2097.25521,0.00398
2095.19504,0.00405
2093.13487,0.00397
2091.07470,0.00384
2089.01453,0.00379
2086.95435,0.00379
2084.89418,0.00379
2082.83401,0.00384
2080.77384,0.00409
2078.71367,0.00450
2076.65349,0.00473
2074.59332,0.00465
2072.53315,0.00453
2070.47298,0.00469
2068.41281,0.00501
2066.35263,0.00513
2064.29246,0.00488
2062.23229,0.00435
2060.17212,0.00368
2058.11194,0.00299
2056.05177,0.00250
2053.99160,0.00243
2051.93143,0.00270
2049.87126,0.00304
2047.81108,0.00331
2045.75091,0.00348
2043.69074,0.00364
2041.63057,0.00405
2039.57040,0.00480
2037.51022,0.00552
2035.45005,0.00572
2033.38988,0.00534
2031.32971,0.00479
2029.26954,0.00428
2027.20936,0.00387
2025.14919,0.00374
2023.08902,0.00393
2021.02885,0.00417
2018.96867,0.00423
2016.90850,0.00410
2014.84833,0.00379
2012.78816,0.00329
2010.72799,0.00280
2008.66781,0.00249
2006.60764,0.00230
2004.54747,0.00212
2002.48730,0.00204
2000.42713,0.00215
1998.36695,0.00234
1996.30678,0.00248
1994.24661,0.00238
1992.18644,0.00201
1990.12626,0.00158
1988.06609,0.00150
1986.00592,0.00196
1983.94575,0.00280
1981.88558,0.00363
1979.82540,0.00419
1977.76523,0.00445
1975.70506,0.00451
1973.64489,0.00433
1971.58472,0.00386
1969.52454,0.00326
1967.46437,0.00278
1965.40420,0.00250
1963.34403,0.00244
1961.28386,0.00251
1959.22368,0.00258
1957.16351,0.00265
1955.10334,0.00286
1953.04317,0.00329
1950.98299,0.00380
1948.92282,0.00416
1946.86265,0.00428
1944.80248,0.00418
1942.74231,0.00386
1940.68213,0.00335
1938.62196,0.00281
1936.56179,0.00240
1934.50162,0.00215
1932.44145,0.00205
1930.38127,0.00209
1928.32110,0.00222
1926.26093,0.00235
1924.20076,0.00247
1922.14059,0.00267
1920.08041,0.00295
1918.02024,0.00312
1915.96007,0.00300
1913.89990,0.00263
1911.83972,0.00232
1909.77955,0.00227
1907.71938,0.00247
1905.65921,0.00270
1903.59904,0.00282
1901.53886,0.00286
1899.47869,0.00289
1897.41852,0.00288
1895.35835,0.00287
1893.29818,0.00294
1891.23800,0.00309
1889.17783,0.00321
1887.11766,0.00323
1885.05749,0.00314
1882.99731,0.00295
1880.93714,0.00270
1878.87697,0.00242
1876.81680,0.00214
1874.75663,0.00196
1872.69645,0.00197
1870.63628,0.00219
1868.57611,0.00253
1866.51594,0.00284
1864.45577,0.00298
1862.39559,0.00289
1860.33542,0.00263
1858.27525,0.00238
1856.21508,0.00228
1854.15491,0.00230
1852.09473,0.00229
1850.03456,0.00218
1847.97439,0.00203
1845.91422,0.00196
1843.85404,0.00197
1841.79387,0.00202
1839.73370,0.00211
1837.67353,0.00230
1835.61336,0.00256
1833.55318,0.00277
1831.49301,0.00283
1829.43284,0.00278
1827.37267,0.00273
1825.31250,0.00278
1823.25232,0.00290
1821.19215,0.00298
1819.13198,0.00295
1817.07181,0.00279
1815.01163,0.00258
1812.95146,0.00243
1810.89129,0.00240
1808.83112,0.00239
1806.77095,0.00232
1804.71077,0.00220
1802.65060,0.00210
1800.59043,0.00209
1798.53026,0.00227
1796.47009,0.00268
1794.40991,0.00312
1792.34974,0.00331
1790.28957,0.00319
1788.22940,0.00297
1786.16923,0.00279
1784.10905,0.00267
1782.04888,0.00257
1779.98871,0.00250
1777.92854,0.00243
1775.86836,0.00236
1773.80819,0.00228
1771.74802,0.00219
1769.68785,0.00207
1767.62768,0.00200
1765.56750,0.00213
1763.50733,0.00247
1761.44716,0.00286
1759.38699,0.00309
1757.32682,0.00311
1755.26664,0.00302
1753.20647,0.00296
1751.14630,0.00300
1749.08613,0.00311
1747.02596,0.00317
1744.96578,0.00310
1742.90561,0.00294
1740.84544,0.00284
1738.78527,0.00287
1736.72509,0.00297
1734.66492,0.00307
1732.60475,0.00312
1730.54458,0.00313
1728.48441,0.00312
1726.42423,0.00314
1724.36406,0.00320
1722.30389,0.00328
1720.24372,0.00336
1718.18355,0.00343
1716.12337,0.00341
1714.06320,0.00322
1712.00303,0.00296
1709.94286,0.00276
1707.88268,0.00267
1705.82251,0.00266
1703.76234,0.00270
1701.70217,0.00279
1699.64200,0.00290
1697.58182,0.00295
1695.52165,0.00291
1693.46148,0.00283
1691.40131,0.00282
1689.34114,0.00290
1687.28096,0.00302
1685.22079,0.00314
1683.16062,0.00322
1681.10045,0.00325
1679.04028,0.00327
1676.98010,0.00329
1674.91993,0.00328
1672.85976,0.00323
1670.79959,0.00318
1668.73941,0.00316
1666.67924,0.00317
1664.61907,0.00324
1662.55890,0.00335
1660.49873,0.00346
1658.43855,0.00360
1656.37838,0.00386
1654.31821,0.00421
1652.25804,0.00452
1650.19787,0.00468
1648.13769,0.00462
1646.07752,0.00430
1644.01735,0.00384
1641.95718,0.00349
1639.89701,0.00338
1637.83683,0.00346
1635.77666,0.00359
1633.71649,0.00368
1631.65632,0.00376
1629.59614,0.00385
1627.53597,0.00389
1625.47580,0.00382
1623.41563,0.00367
1621.35546,0.00356
1619.29528,0.00360
1617.23511,0.00370
1615.17494,0.00371
1613.11477,0.00361
1611.05460,0.00348
1608.99442,0.00339
1606.93425,0.00336
1604.87408,0.00336
1602.81391,0.00335
1600.75373,0.00328
1598.69356,0.00316
1596.63339,0.00300
1594.57322,0.00277
1592.51305,0.00252
1590.45287,0.00230
1588.39270,0.00217
1586.33253,0.00214
1584.27236,0.00215
1582.21219,0.00217
1580.15201,0.00227
1578.09184,0.00246
1576.03167,0.00269
1573.97150,0.00281
1571.91133,0.00279
1569.85115,0.00268
1567.79098,0.00254
1565.73081,0.00247
1563.67064,0.00255
1561.61046,0.00273
1559.55029,0.00282
1557.49012,0.00262
1555.42995,0.00226
1553.36978,0.00200
1551.30960,0.00192
1549.24943,0.00199
1547.18926,0.00215
1545.12909,0.00237
1543.06892,0.00255
1541.00874,0.00258
1538.94857,0.00243
1536.88840,0.00222
1534.82823,0.00205
1532.76805,0.00191
1530.70788,0.00181
1528.64771,0.00181
1526.58754,0.00189
1524.52737,0.00201
1522.46719,0.00208
1520.40702,0.00204
1518.34685,0.00191
1516.28668,0.00177
1514.22651,0.00171
1512.16633,0.00180
1510.10616,0.00200
1508.04599,0.00212
1505.98582,0.00198
1503.92565,0.00166
1501.86547,0.00143
1499.80530,0.00145
1497.74513,0.00166
1495.68496,0.00190
1493.62478,0.00207
1491.56461,0.00215
1489.50444,0.00210
1487.44427,0.00189
1485.38410,0.00163
1483.32392,0.00147
1481.26375,0.00145
1479.20358,0.00158
1477.14341,0.00180
1475.08324,0.00204
1473.02306,0.00220
1470.96289,0.00222
1468.90272,0.00218
1466.84255,0.00217
1464.78238,0.00220
1462.72220,0.00227
1460.66203,0.00240
1458.60186,0.00254
1456.54169,0.00255
1454.48151,0.00246
1452.42134,0.00236
1450.36117,0.00232
1448.30100,0.00232
1446.24083,0.00235
1444.18065,0.00239
1442.12048,0.00247
1440.06031,0.00261
1438.00014,0.00272
1435.93997,0.00274
1433.87979,0.00267
1431.81962,0.00260
1429.75945,0.00261
1427.69928,0.00274
1425.63910,0.00294
1423.57893,0.00317
1421.51876,0.00335
1419.45859,0.00340
1417.39842,0.00327
1415.33824,0.00302
1413.27807,0.00277
1411.21790,0.00260
1409.15773,0.00252
1407.09756,0.00252
1405.03738,0.00256
1402.97721,0.00261
1400.91704,0.00266
1398.85687,0.00269
1396.79670,0.00268
1394.73652,0.00264
1392.67635,0.00260
1390.61618,0.00257
1388.55601,0.00252
1386.49583,0.00243
1384.43566,0.00231
1382.37549,0.00223
1380.31532,0.00225
1378.25515,0.00235
1376.19497,0.00250
1374.13480,0.00260
1372.07463,0.00262
1370.01446,0.00263
1367.95429,0.00267
1365.89411,0.00274
1363.83394,0.00274
1361.77377,0.00262
1359.71360,0.00244
1357.65343,0.00229
1355.59325,0.00220
1353.53308,0.00216
1351.47291,0.00214
1349.41274,0.00218
1347.35256,0.00225
1345.29239,0.00235
1343.23222,0.00245
1341.17205,0.00249
1339.11188,0.00246
1337.05170,0.00234
1334.99153,0.00215
1332.93136,0.00197
1330.87119,0.00185
1328.81102,0.00183
1326.75084,0.00187
1324.69067,0.00195
1322.63050,0.00206
1320.57033,0.00218
1318.51015,0.00229
1316.44998,0.00237
1314.38981,0.00240
1312.32964,0.00237
1310.26947,0.00229
1308.20929,0.00221
1306.14912,0.00213
1304.08895,0.00203
1302.02878,0.00195
1299.96861,0.00188
1297.90843,0.00180
1295.84826,0.00169
1293.78809,0.00159
1291.72792,0.00155
1289.66775,0.00158
1287.60757,0.00163
1285.54740,0.00169
1283.48723,0.00171
1281.42706,0.00167
1279.36688,0.00157
1277.30671,0.00151
1275.24654,0.00156
1273.18637,0.00167
1271.12620,0.00179
1269.06602,0.00186
1267.00585,0.00192
1264.94568,0.00199
1262.88551,0.00210
1260.82534,0.00219
1258.76516,0.00222
1256.70499,0.00222
1254.64482,0.00225
1252.58465,0.00232
1250.52447,0.00240
1248.46430,0.00243
1246.40413,0.00240
1244.34396,0.00233
1242.28379,0.00227
1240.22361,0.00225
1238.16344,0.00227
1236.10327,0.00228
1234.04310,0.00224
1231.98293,0.00212
1229.92275,0.00194
1227.86258,0.00178
1225.80241,0.00168
1223.74224,0.00163
1221.68207,0.00155
1219.62189,0.00141
1217.56172,0.00123
1215.50155,0.00108
1213.44138,0.00098
1211.38120,0.00095
1209.32103,0.00095
1207.26086,0.00093
1205.20069,0.00084
1203.14052,0.00070
1201.08034,0.00052
1199.02017,0.00034
1196.96000,0.00020
1194.89983,0.00016
1192.83966,0.00015
1190.77948,0.00008
1188.71931,0.00000
1186.65914,0.00005
1184.59897,0.00017
1182.53880,0.00025
1180.47862,0.00035
1178.41845,0.00057
1176.35828,0.00075
1174.29811,0.00074
1172.23793,0.00070
1170.17776,0.00086
1168.11759,0.00118
1166.05742,0.00152
1163.99725,0.00185
1161.93707,0.00211
1159.87690,0.00228
1157.81673,0.00243
1155.75656,0.00257
1153.69639,0.00267
1151.63621,0.00275
1149.57604,0.00288
1147.51587,0.00314
1145.45570,0.00342
1143.39552,0.00358
1141.33535,0.00374
1139.27518,0.00390
1137.21501,0.00393
1135.15484,0.00384
1133.09466,0.00386
1131.03449,0.00400
1128.97432,0.00416
1126.91415,0.00438
1124.85398,0.00469
1122.79380,0.00499
1120.73363,0.00517
1118.67346,0.00525
1116.61329,0.00539
1114.55312,0.00571
1112.49294,0.00617
1110.43277,0.00664
1108.37260,0.00692
1106.31243,0.00703
1104.25225,0.00725
1102.19208,0.00766
1100.13191,0.00814
1098.07174,0.00861
1096.01157,0.00904
1093.95139,0.00935
1091.89122,0.00953
1089.83105,0.00972
1087.77088,0.01011
1085.71071,0.01066
1083.65053,0.01110
1081.59036,0.01136
1079.53019,0.01157
1077.47002,0.01180
1075.40985,0.01204
1073.34967,0.01216
1071.28950,0.01209
1069.22933,0.01199
1067.16916,0.01213
1065.10898,0.01252
1063.04881,0.01304
1060.98864,0.01352
1058.92847,0.01373
1056.86830,0.01371
1054.80812,0.01374
1052.74795,0.01388
1050.68778,0.01399
1048.62761,0.01393
1046.56744,0.01379
1044.50726,0.01374
1042.44709,0.01382
1040.38692,0.01405
1038.32675,0.01425
1036.26657,0.01417
1034.20640,0.01380
1032.14623,0.01346
1030.08606,0.01339
1028.02589,0.01343
1025.96571,0.01331
1023.90554,0.01299
1021.84537,0.01257
1019.78520,0.01223
1017.72503,0.01203
1015.66485,0.01201
1013.60468,0.01211
1011.54451,0.01210
1009.48434,0.01176
1007.42417,0.01118
1005.36399,0.01065
1003.30382,0.01029
1001.24365,0.01003
999.18348,0.00980
997.12330,0.00954
995.06313,0.00924
993.00296,0.00905
990.94279,0.00894
988.88262,0.00872
986.82244,0.00837
984.76227,0.00812
982.70210,0.00806
980.64193,0.00805
978.58176,0.00798
976.52158,0.00787
974.46141,0.00776
972.40124,0.00755
970.34107,0.00723
968.28089,0.00688
966.22072,0.00662
964.16055,0.00654
962.10038,0.00645
960.04021,0.00613
957.98003,0.00570
955.91986,0.00547
953.85969,0.00537
951.79952,0.00511
949.73935,0.00469
947.67917,0.00430
945.61900,0.00399
943.55883,0.00365
941.49866,0.00340
939.43849,0.00330
937.37831,0.00315
935.31814,0.00289
933.25797,0.00272
931.19780,0.00266
929.13762,0.00254
927.07745,0.00233
925.01728,0.00215
922.95711,0.00206
920.89694,0.00199
918.83676,0.00193
916.77659,0.00189
914.71642,0.00183
912.65625,0.00176
910.59608,0.00173
908.53590,0.00174
906.47573,0.00187
904.41556,0.00219
902.35539,0.00237
900.29522,0.00220
898.23504,0.00195
896.17487,0.00187
894.11470,0.00196
892.05453,0.00194
889.99435,0.00162
887.93418,0.00127
885.87401,0.00117
883.81384,0.00117
881.75367,0.00107
879.69349,0.00095
877.63332,0.00089
875.57315,0.00097
873.51298,0.00117
871.45281,0.00141
869.39263,0.00164
867.33246,0.00191
865.27229,0.00210
863.21212,0.00209
861.15194,0.00197
859.09177,0.00177
857.03160,0.00146
854.97143,0.00116
852.91126,0.00092
850.85108,0.00072
848.79091,0.00067
846.73074,0.00070
844.67057,0.00069
842.61040,0.00069
840.55022,0.00084
838.49005,0.00113
836.42988,0.00131
834.36971,0.00115
832.30954,0.00082
830.24936,0.00067
828.18919,0.00077
826.12902,0.00094
824.06885,0.00116
822.00867,0.00133
819.94850,0.00124
817.88833,0.00108
815.82816,0.00107
813.76799,0.00108
811.70781,0.00104
809.64764,0.00096
807.58747,0.00068
805.52730,0.00028
803.46713,0.00000
801.40695,-0.00005
799.34678,0.00026
797.28661,0.00065
795.22644,0.00070
793.16627,0.00079
791.10609,0.00134
789.04592,0.00182
786.98575,0.00173
784.92558,0.00135
782.86540,0.00108
780.80523,0.00108
778.74506,0.00150
776.68489,0.00214
774.62472,0.00258
772.56454,0.00263
770.50437,0.00223
768.44420,0.00152
766.38403,0.00099
764.32386,0.00100
762.26368,0.00134
760.20351,0.00173
758.14334,0.00186
756.08317,0.00166
754.02299,0.00146
751.96282,0.00160
749.90265,0.00196
747.84248,0.00213
745.78231,0.00184
743.72213,0.00127
741.66196,0.00080
739.60179,0.00069
737.54162,0.00085
735.48145,0.00112
733.42127,0.00165
731.36110,0.00233
729.30093,0.00257
727.24076,0.00210
725.18059,0.00141
723.12041,0.00112
721.06024,0.00117
719.00007,0.00142
716.93990,0.00185
714.87972,0.00242
712.81955,0.00279
710.75938,0.00266
708.69921,0.00216
706.63904,0.00183
704.57886,0.00190
702.51869,0.00212
700.45852,0.00222
698.39835,0.00228
696.33818,0.00246
694.27800,0.00281
692.21783,0.00321
690.15766,0.00358
688.09749,0.00395
686.03731,0.00421
683.97714,0.00408
681.91697,0.00352
679.85680,0.00286
677.79663,0.00246
675.73645,0.00242
673.67628,0.00268
671.61611,0.00317
669.55594,0.00359
667.49577,0.00353
665.43559,0.00302
663.37542,0.00248
661.31525,0.00216
659.25508,0.00206
657.19491,0.00221
655.13473,0.00259
653.07456,0.00297
651.01439,0.00306
648.95422,0.00278
646.89404,0.00242
644.83387,0.00217
642.77370,0.00177
640.71353,0.00101
638.65336,0.00025
636.59318,0.00000
634.53301,0.00011
632.47284,0.00043
630.41267,0.00049
628.35250,-0.00003
626.29232,-0.00091
624.23215,-0.00116
622.17198,-0.00021
620.11181,0.00157
618.05164,0.00226
615.99146,0.00109
613.93129,0.00025
611.87112,0.00105
609.81095,0.00209
607.75077,0.00193
605.69060,0.00061
603.63043,-0.00096
601.57026,-0.00138
599.51009,0.00000
