3996.73391,0.00084
3994.67373,0.00055
3992.61356,0.00023
3990.55339,0.00033
3988.49322,0.00077
3986.43305,0.00113
3984.37287,0.00125
3982.31270,0.00116
3980.25253,0.00112
3978.19236,0.00135
3976.13219,0.00151
3974.07201,0.00149
3972.01184,0.00148
3969.95167,0.00119
3967.89150,0.00055
3965.83133,0.00011
3963.77115,0.00000
3961.71098,0.00023
3959.65081,0.00087
3957.59064,0.00149
3955.53046,0.00168
3953.47029,0.00149
3951.41012,0.00108
3949.34995,0.00083
3947.28978,0.00083
3945.22960,0.00070
3943.16943,0.00052
3941.10926,0.00049
3939.04909,0.00038
3936.98892,0.00036
3934.92874,0.00079
3932.86857,0.00133
3930.80840,0.00133
3928.74823,0.00100
3926.68805,0.00096
3924.62788,0.00112
3922.56771,0.00123
3920.50754,0.00136
3918.44737,0.00145
3916.38719,0.00136
3914.32702,0.00138
3912.26685,0.00161
3910.20668,0.00164
3908.14651,0.00114
3906.08633,0.00038
3904.02616,0.00000
3901.96599,0.00031
3899.90582,0.00087
3897.84565,0.00127
3895.78547,0.00144
3893.72530,0.00140
3891.66513,0.00107
3889.60496,0.00055
3887.54478,0.00031
3885.48461,0.00068
3883.42444,0.00135
3881.36427,0.00173
3879.30410,0.00190
3877.24392,0.00195
3875.18375,0.00181
3873.12358,0.00149
3871.06341,0.00123
3869.00324,0.00136
3866.94306,0.00174
3864.88289,0.00175
3862.82272,0.00135
3860.76255,0.00127
3858.70237,0.00152
3856.64220,0.00132
3854.58203,0.00056
3852.52186,0.00030
3850.46169,0.00067
3848.40151,0.00084
3846.34134,0.00081
3844.28117,0.00085
3842.22100,0.00108
3840.16083,0.00158
3838.10065,0.00190
3836.04048,0.00153
3833.98031,0.00099
3831.92014,0.00092
3829.85997,0.00107
3827.79979,0.00117
3825.73962,0.00135
3823.67945,0.00161
3821.61928,0.00180
3819.55910,0.00174
3817.49893,0.00137
3815.43876,0.00111
3813.37859,0.00129
3811.31842,0.00166
3809.25824,0.00186
3807.19807,0.00171
3805.13790,0.00139
3803.07773,0.00138
3801.01756,0.00147
3798.95738,0.00109
3796.89721,0.00077
3794.83704,0.00096
3792.77687,0.00121
3790.71670,0.00114
3788.65652,0.00088
3786.59635,0.00067
3784.53618,0.00064
3782.47601,0.00088
3780.41583,0.00138
3778.35566,0.00169
3776.29549,0.00141
3774.23532,0.00085
3772.17515,0.00059
3770.11497,0.00095
3768.05480,0.00155
3765.99463,0.00172
3763.93446,0.00173
3761.87429,0.00210
3759.81411,0.00265
3757.75394,0.00278
3755.69377,0.00250
3753.63360,0.00227
3751.57342,0.00205
3749.51325,0.00167
3747.45308,0.00167
3745.39291,0.00238
3743.33274,0.00307
3741.27256,0.00295
3739.21239,0.00210
3737.15222,0.00084
3735.09205,0.00006
3733.03188,0.00049
3730.97170,0.00100
3728.91153,0.00087
3726.85136,0.00077
3724.79119,0.00111
3722.73102,0.00166
3720.67084,0.00201
3718.61067,0.00159
3716.55050,0.00062
3714.49033,0.00000
3712.43015,0.00013
3710.36998,0.00074
3708.30981,0.00108
3706.24964,0.00102
3704.18947,0.00100
3702.12929,0.00115
3700.06912,0.00111
3698.00895,0.00117
3695.94878,0.00153
3693.88861,0.00150
3691.82843,0.00091
3689.76826,0.00024
3687.70809,0.00000
3685.64792,0.00032
3683.58775,0.00096
3681.52757,0.00151
3679.46740,0.00166
3677.40723,0.00154
3675.34706,0.00166
3673.28688,0.00199
3671.22671,0.00222
3669.16654,0.00236
3667.10637,0.00218
3665.04620,0.00199
3662.98602,0.00216
3660.92585,0.00243
3658.86568,0.00258
3656.80551,0.00254
3654.74534,0.00224
3652.68516,0.00194
3650.62499,0.00206
3648.56482,0.00271
3646.50465,0.00334
3644.44447,0.00357
3642.38430,0.00348
3640.32413,0.00313
3638.26396,0.00281
3636.20379,0.00279
3634.14361,0.00301
3632.08344,0.00338
3630.02327,0.00388
3627.96310,0.00426
3625.90293,0.00430
3623.84275,0.00441
3621.78258,0.00468
3619.72241,0.00477
3617.66224,0.00480
3615.60207,0.00514
3613.54189,0.00554
3611.48172,0.00540
3609.42155,0.00526
3607.36138,0.00560
3605.30120,0.00585
3603.24103,0.00583
3601.18086,0.00606
3599.12069,0.00685
3597.06052,0.00780
3595.00034,0.00841
3592.94017,0.00853
3590.88000,0.00836
3588.81983,0.00813
3586.75966,0.00816
3584.69948,0.00827
3582.63931,0.00828
3580.57914,0.00860
3578.51897,0.00923
3576.45879,0.00972
3574.39862,0.01026
3572.33845,0.01119
3570.27828,0.01208
3568.21811,0.01231
3566.15793,0.01194
3564.09776,0.01179
3562.03759,0.01234
3559.97742,0.01315
3557.91725,0.01372
3555.85707,0.01399
3553.79690,0.01423
3551.73673,0.01472
3549.67656,0.01552
3547.61639,0.01645
3545.55621,0.01723
3543.49604,0.01761
3541.43587,0.01768
3539.37570,0.01780
3537.31552,0.01836
3535.25535,0.01918
3533.19518,0.01960
3531.13501,0.01946
3529.07484,0.01912
3527.01466,0.01911
3524.95449,0.01949
3522.89432,0.01984
3520.83415,0.02021
3518.77398,0.02105
3516.71380,0.02222
3514.65363,0.02303
3512.59346,0.02321
3510.53329,0.02327
3508.47312,0.02358
3506.41294,0.02385
3504.35277,0.02395
3502.29260,0.02425
3500.23243,0.02461
3498.17225,0.02468
3496.11208,0.02482
3494.05191,0.02551
3491.99174,0.02651
3489.93157,0.02725
3487.87139,0.02770
3485.81122,0.02807
3483.75105,0.02852
3481.69088,0.02908
3479.63071,0.02942
3477.57053,0.02940
3475.51036,0.02934
3473.45019,0.02940
3471.39002,0.02966
3469.32984,0.03037
3467.26967,0.03123
3465.20950,0.03153
3463.14933,0.03155
3461.08916,0.03213
3459.02898,0.03292
3456.96881,0.03339
3454.90864,0.03369
3452.84847,0.03397
3450.78830,0.03424
3448.72812,0.03458
3446.66795,0.03500
3444.60778,0.03523
3442.54761,0.03531
3440.48744,0.03557
3438.42726,0.03607
3436.36709,0.03658
3434.30692,0.03694
3432.24675,0.03740
3430.18657,0.03814
3428.12640,0.03889
3426.06623,0.03925
3424.00606,0.03921
3421.94589,0.03924
3419.88571,0.03959
3417.82554,0.03993
3415.76537,0.04023
3413.70520,0.04058
3411.64503,0.04082
3409.58485,0.04092
3407.52468,0.04125
3405.46451,0.04189
3403.40434,0.04238
3401.34416,0.04277
3399.28399,0.04320
3397.22382,0.04344
3395.16365,0.04345
3393.10348,0.04362
3391.04330,0.04382
3388.98313,0.04385
3386.92296,0.04415
3384.86279,0.04468
3382.80262,0.04483
3380.74244,0.04469
3378.68227,0.04472
3376.62210,0.04497
3374.56193,0.04551
3372.50176,0.04636
3370.44158,0.04705
3368.38141,0.04715
3366.32124,0.04665
3364.26107,0.04617
3362.20089,0.04632
3360.14072,0.04681
3358.08055,0.04726
3356.02038,0.04771
3353.96021,0.04815
3351.90003,0.04830
3349.83986,0.04827
3347.77969,0.04830
3345.71952,0.04833
3343.65935,0.04839
3341.59917,0.04853
3339.53900,0.04856
3337.47883,0.04840
3335.41866,0.04841
3333.35849,0.04872
3331.29831,0.04887
3329.23814,0.04870
3327.17797,0.04850
3325.11780,0.04869
3323.05762,0.04899
3320.99745,0.04884
3318.93728,0.04858
3316.87711,0.04868
3314.81694,0.04901
3312.75676,0.04945
3310.69659,0.04966
3308.63642,0.04932
3306.57625,0.04897
3304.51608,0.04919
3302.45590,0.04969
3300.39573,0.04984
3298.33556,0.04967
3296.27539,0.04958
3294.21521,0.04974
3292.15504,0.04991
3290.09487,0.04987
3288.03470,0.04986
3285.97453,0.04985
3283.91435,0.04949
3281.85418,0.04904
3279.79401,0.04897
3277.73384,0.04935
3275.67367,0.04973
3273.61349,0.04957
3271.55332,0.04921
3269.49315,0.04936
3267.43298,0.04980
3265.37281,0.04967
3263.31263,0.04905
3261.25246,0.04870
3259.19229,0.04863
3257.13212,0.04851
3255.07194,0.04837
3253.01177,0.04843
3250.95160,0.04850
3248.89143,0.04833
3246.83126,0.04817
3244.77108,0.04810
3242.71091,0.04798
3240.65074,0.04783
3238.59057,0.04783
3236.53040,0.04803
3234.47022,0.04813
3232.41005,0.04798
3230.34988,0.04762
3228.28971,0.04745
3226.22954,0.04775
3224.16936,0.04786
3222.10919,0.04717
3220.04902,0.04626
3217.98885,0.04582
3215.92867,0.04601
3213.86850,0.04643
3211.80833,0.04653
3209.74816,0.04635
3207.68799,0.04593
3205.62781,0.04523
3203.56764,0.04453
3201.50747,0.04416
3199.44730,0.04426
3197.38713,0.04473
3195.32695,0.04497
3193.26678,0.04464
3191.20661,0.04419
3189.14644,0.04383
3187.08626,0.04352
3185.02609,0.04313
3182.96592,0.04262
3180.90575,0.04229
3178.84558,0.04213
3176.78540,0.04176
3174.72523,0.04139
3172.66506,0.04128
3170.60489,0.04112
3168.54472,0.04081
3166.48454,0.04058
3164.42437,0.04041
3162.36420,0.04030
3160.30403,0.04037
3158.24386,0.04041
3156.18368,0.04032
3154.12351,0.04001
3152.06334,0.03941
3150.00317,0.03872
3147.94299,0.03818
3145.88282,0.03783
3143.82265,0.03777
3141.76248,0.03799
3139.70231,0.03805
3137.64213,0.03760
3135.58196,0.03699
3133.52179,0.03657
3131.46162,0.03619
3129.40145,0.03591
3127.34127,0.03577
3125.28110,0.03547
3123.22093,0.03499
3121.16076,0.03470
3119.10058,0.03473
3117.04041,0.03473
3114.98024,0.03431
3112.92007,0.03361
3110.85990,0.03310
3108.79972,0.03275
3106.73955,0.03225
3104.67938,0.03161
3102.61921,0.03119
3100.55904,0.03114
3098.49886,0.03120
3096.43869,0.03121
3094.37852,0.03132
3092.31835,0.03145
3090.25818,0.03120
3088.19800,0.03048
3086.13783,0.02969
3084.07766,0.02930
3082.01749,0.02939
3079.95731,0.02963
3077.89714,0.02958
3075.83697,0.02909
3073.77680,0.02855
3071.71663,0.02824
3069.65645,0.02798
3067.59628,0.02771
3065.53611,0.02747
3063.47594,0.02733
3061.41577,0.02723
3059.35559,0.02692
3057.29542,0.02643
3055.23525,0.02601
3053.17508,0.02552
3051.11491,0.02492
3049.05473,0.02447
3046.99456,0.02430
3044.93439,0.02438
3042.87422,0.02431
3040.81404,0.02407
3038.75387,0.02384
3036.69370,0.02362
3034.63353,0.02359
3032.57336,0.02376
3030.51318,0.02370
3028.45301,0.02335
3026.39284,0.02316
3024.33267,0.02313
3022.27250,0.02284
3020.21232,0.02248
3018.15215,0.02260
3016.09198,0.02295
3014.03181,0.02286
3011.97163,0.02256
3009.91146,0.02250
3007.85129,0.02245
3005.79112,0.02226
3003.73095,0.02204
3001.67077,0.02172
2999.61060,0.02137
2997.55043,0.02109
2995.49026,0.02080
2993.43009,0.02060
2991.36991,0.02067
2989.30974,0.02079
2987.24957,0.02085
2985.18940,0.02102
2983.12923,0.02142
2981.06905,0.02191
2979.00888,0.02232
2976.94871,0.02278
2974.88854,0.02332
2972.82836,0.02403
2970.76819,0.02487
2968.70802,0.02551
2966.64785,0.02617
2964.58768,0.02725
2962.52750,0.02874
2960.46733,0.03043
2958.40716,0.03192
2956.34699,0.03341
2954.28682,0.03538
2952.22664,0.03730
2950.16647,0.03884
2948.10630,0.04047
2946.04613,0.04236
2943.98596,0.04434
2941.92578,0.04644
2939.86561,0.04856
2937.80544,0.05069
2935.74527,0.05286
2933.68509,0.05499
2931.62492,0.05708
2929.56475,0.05902
2927.50458,0.06057
2925.44441,0.06181
2923.38423,0.06292
2921.32406,0.06365
2919.26389,0.06366
2917.20372,0.06284
2915.14355,0.06118
2913.08337,0.05890
2911.02320,0.05645
2908.96303,0.05397
2906.90286,0.05154
2904.84268,0.04954
2902.78251,0.04789
2900.72234,0.04622
2898.66217,0.04466
2896.60200,0.04341
2894.54182,0.04242
2892.48165,0.04173
2890.42148,0.04112
2888.36131,0.04014
2886.30114,0.03920
2884.24096,0.03868
2882.18079,0.03817
2880.12062,0.03764
2878.06045,0.03736
2876.00028,0.03739
2873.94010,0.03762
2871.87993,0.03799
2869.81976,0.03848
2867.75959,0.03891
2865.69941,0.03929
2863.63924,0.03992
2861.57907,0.04105
2859.51890,0.04286
2857.45873,0.04512
2855.39855,0.04717
2853.33838,0.04867
2851.27821,0.04934
2849.21804,0.04846
2847.15787,0.04577
2845.09769,0.04216
2843.03752,0.03879
2840.97735,0.03619
2838.91718,0.03428
2836.85700,0.03277
2834.79683,0.03142
2832.73666,0.03013
2830.67649,0.02887
2828.61632,0.02770
2826.55614,0.02688
2824.49597,0.02649
2822.43580,0.02615
2820.37563,0.02570
2818.31546,0.02524
2816.25528,0.02472
2814.19511,0.02418
2812.13494,0.02386
2810.07477,0.02370
2808.01460,0.02331
2805.95442,0.02265
2803.89425,0.02223
2801.83408,0.02217
2799.77391,0.02209
2797.71373,0.02183
2795.65356,0.02142
2793.59339,0.02091
2791.53322,0.02056
2789.47305,0.02039
2787.41287,0.02023
2785.35270,0.02009
2783.29253,0.02015
2781.23236,0.02033
2779.17219,0.02025
2777.11201,0.01976
2775.05184,0.01928
2772.99167,0.01905
2770.93150,0.01882
2768.87133,0.01856
2766.81115,0.01844
2764.75098,0.01840
2762.69081,0.01860
2760.63064,0.01889
2758.57046,0.01860
2756.51029,0.01801
2754.45012,0.01801
2752.38995,0.01833
2750.32978,0.01841
2748.26960,0.01838
2746.20943,0.01832
2744.14926,0.01815
2742.08909,0.01790
2740.02892,0.01769
2737.96874,0.01778
2735.90857,0.01785
2733.84840,0.01754
2731.78823,0.01731
2729.72805,0.01749
2727.66788,0.01772
2725.60771,0.01762
2723.54754,0.01744
2721.48737,0.01751
2719.42719,0.01761
2717.36702,0.01750
2715.30685,0.01720
2713.24668,0.01703
2711.18651,0.01720
2709.12633,0.01726
2707.06616,0.01704
2705.00599,0.01679
2702.94582,0.01654
2700.88565,0.01644
2698.82547,0.01658
2696.76530,0.01654
2694.70513,0.01627
2692.64496,0.01626
2690.58478,0.01640
2688.52461,0.01618
2686.46444,0.01583
2684.40427,0.01593
2682.34410,0.01631
2680.28392,0.01660
2678.22375,0.01672
2676.16358,0.01647
2674.10341,0.01593
2672.04324,0.01555
2669.98306,0.01550
2667.92289,0.01553
2665.86272,0.01553
2663.80255,0.01559
2661.74238,0.01562
2659.68220,0.01558
2657.62203,0.01558
2655.56186,0.01557
2653.50169,0.01550
2651.44151,0.01531
2649.38134,0.01500
2647.32117,0.01459
2645.26100,0.01440
2643.20083,0.01450
2641.14065,0.01463
2639.08048,0.01454
2637.02031,0.01427
2634.96014,0.01404
2632.89997,0.01384
2630.83979,0.01352
2628.77962,0.01326
2626.71945,0.01318
2624.65928,0.01313
2622.59910,0.01322
2620.53893,0.01362
2618.47876,0.01374
2616.41859,0.01339
2614.35842,0.01315
2612.29824,0.01309
2610.23807,0.01303
2608.17790,0.01338
2606.11773,0.01373
2604.05756,0.01340
2601.99738,0.01297
2599.93721,0.01271
2597.87704,0.01235
2595.81687,0.01223
2593.75670,0.01246
2591.69652,0.01254
2589.63635,0.01260
2587.57618,0.01312
2585.51601,0.01331
2583.45583,0.01244
2581.39566,0.01152
2579.33549,0.01153
2577.27532,0.01202
2575.21515,0.01234
2573.15497,0.01227
2571.09480,0.01184
2569.03463,0.01129
2566.97446,0.01094
2564.91429,0.01092
2562.85411,0.01093
2560.79394,0.01087
2558.73377,0.01090
2556.67360,0.01088
2554.61342,0.01089
2552.55325,0.01110
2550.49308,0.01118
2548.43291,0.01083
2546.37274,0.01066
2544.31256,0.01080
2542.25239,0.01086
2540.19222,0.01117
2538.13205,0.01147
2536.07188,0.01123
2534.01170,0.01061
2531.95153,0.01024
2529.89136,0.01035
2527.83119,0.01016
2525.77102,0.00966
2523.71084,0.00950
2521.65067,0.00962
2519.59050,0.00991
2517.53033,0.01034
2515.47015,0.01043
2513.40998,0.01025
2511.34981,0.01010
2509.28964,0.00973
2507.22947,0.00908
2505.16929,0.00885
2503.10912,0.00922
2501.04895,0.00948
2498.98878,0.00929
2496.92861,0.00893
2494.86843,0.00874
2492.80826,0.00874
2490.74809,0.00859
2488.68792,0.00821
2486.62775,0.00827
2484.56757,0.00907
2482.50740,0.00983
2480.44723,0.00973
2478.38706,0.00891
2476.32688,0.00872
2474.26671,0.00942
2472.20654,0.00963
2470.14637,0.00929
2468.08620,0.00903
2466.02602,0.00877
2463.96585,0.00859
2461.90568,0.00869
2459.84551,0.00881
2457.78534,0.00869
2455.72516,0.00866
2453.66499,0.00871
2451.60482,0.00821
2449.54465,0.00758
2447.48447,0.00780
2445.42430,0.00833
2443.36413,0.00829
2441.30396,0.00820
2439.24379,0.00840
2437.18361,0.00846
2435.12344,0.00844
2433.06327,0.00844
2431.00310,0.00829
2428.94293,0.00789
2426.88275,0.00735
2424.82258,0.00722
2422.76241,0.00774
2420.70224,0.00812
2418.64207,0.00801
2416.58189,0.00778
2414.52172,0.00767
2412.46155,0.00767
2410.40138,0.00752
2408.34120,0.00707
2406.28103,0.00685
2404.22086,0.00723
2402.16069,0.00783
2400.10052,0.00828
2398.04034,0.00836
2395.98017,0.00825
2393.92000,0.00791
2391.85983,0.00736
2389.79966,0.00696
2387.73948,0.00709
2385.67931,0.00748
2383.61914,0.00765
2381.55897,0.00777
2379.49880,0.00789
2377.43862,0.00728
2375.37845,0.00573
2373.31828,0.00482
2371.25811,0.00501
2369.19793,0.00543
2367.13776,0.00717
2365.07759,0.01023
2363.01742,0.01062
2360.95725,0.00825
2358.89707,0.00394
2356.83690,0.00177
2354.77673,0.00283
2352.71656,0.00467
2350.65639,0.00755
2348.59621,0.00879
2346.53604,0.00572
2344.47587,0.00565
2342.41570,0.00771
2340.35552,0.00871
2338.29535,0.00867
2336.23518,0.00857
2334.17501,0.00866
2332.11484,0.00795
2330.05466,0.00747
2327.99449,0.00777
2325.93432,0.00855
2323.87415,0.00799
2321.81398,0.00697
2319.75380,0.00595
2317.69363,0.00660
2315.63346,0.00799
2313.57329,0.00907
2311.51312,0.00938
2309.45294,0.00842
2307.39277,0.00668
2305.33260,0.00563
2303.27243,0.00606
2301.21225,0.00722
2299.15208,0.00816
2297.09191,0.00822
2295.03174,0.00760
2292.97157,0.00712
2290.91139,0.00704
2288.85122,0.00687
2286.79105,0.00646
2284.73088,0.00612
2282.67071,0.00593
2280.61053,0.00597
2278.55036,0.00622
2276.49019,0.00616
2274.43002,0.00590
2272.36984,0.00620
2270.30967,0.00657
2268.24950,0.00598
2266.18933,0.00514
2264.12916,0.00518
2262.06898,0.00580
2260.00881,0.00597
2257.94864,0.00528
2255.88847,0.00457
2253.82830,0.00472
2251.76812,0.00545
2249.70795,0.00599
2247.64778,0.00615
2245.58761,0.00606
2243.52744,0.00586
2241.46726,0.00599
2239.40709,0.00648
2237.34692,0.00631
2235.28675,0.00497
2233.22657,0.00335
2231.16640,0.00338
2229.10623,0.00510
2227.04606,0.00548
2224.98589,0.00431
2222.92571,0.00413
2220.86554,0.00473
2218.80537,0.00429
2216.74520,0.00343
2214.68503,0.00419
2212.62485,0.00546
2210.56468,0.00528
2208.50451,0.00426
2206.44434,0.00319
2204.38417,0.00276
2202.32399,0.00380
2200.26382,0.00499
2198.20365,0.00439
2196.14348,0.00357
2194.08330,0.00450
2192.02313,0.00589
2189.96296,0.00633
2187.90279,0.00544
2185.84262,0.00427
2183.78244,0.00427
2181.72227,0.00444
2179.66210,0.00390
2177.60193,0.00328
2175.54176,0.00287
2173.48158,0.00353
2171.42141,0.00519
2169.36124,0.00569
2167.30107,0.00459
2165.24089,0.00334
2163.18072,0.00308
2161.12055,0.00334
2159.06038,0.00286
2157.00021,0.00298
2154.94003,0.00458
2152.87986,0.00478
2150.81969,0.00263
2148.75952,0.00157
2146.69935,0.00256
2144.63917,0.00336
2142.57900,0.00357
2140.51883,0.00332
2138.45866,0.00250
2136.39849,0.00194
2134.33831,0.00191
2132.27814,0.00214
2130.21797,0.00261
2128.15780,0.00288
2126.09762,0.00334
2124.03745,0.00426
2121.97728,0.00505
2119.91711,0.00568
2117.85694,0.00583
2115.79676,0.00541
2113.73659,0.00567
2111.67642,0.00652
2109.61625,0.00659
2107.55608,0.00604
2105.49590,0.00512
2103.43573,0.00411
2101.37556,0.00348
2099.31539,0.00358
2097.25521,0.00425
2095.19504,0.00451
2093.13487,0.00387
2091.07470,0.00300
2089.01453,0.00291
2086.95435,0.00380
2084.89418,0.00464
2082.83401,0.00445
2080.77384,0.00391
2078.71367,0.00425
2076.65349,0.00504
2074.59332,0.00470
2072.53315,0.00363
2070.47298,0.00343
2068.41281,0.00379
2066.35263,0.00388
2064.29246,0.00328
2062.23229,0.00263
2060.17212,0.00314
2058.11194,0.00358
2056.05177,0.00303
2053.99160,0.00354
2051.93143,0.00520
2049.87126,0.00512
2047.81108,0.00292
2045.75091,0.00133
2043.69074,0.00149
2041.63057,0.00200
2039.57040,0.00147
2037.51022,0.00073
2035.45005,0.00157
2033.38988,0.00188
2031.32971,0.00043
2029.26954,0.00057
2027.20936,0.00182
2025.14919,0.00159
2023.08902,0.00054
2021.02885,0.00026
2018.96867,0.00206
2016.90850,0.00454
2014.84833,0.00391
2012.78816,0.00188
2010.72799,0.00206
2008.66781,0.00240
2006.60764,0.00110
2004.54747,0.00067
2002.48730,0.00164
2000.42713,0.00196
1998.36695,0.00184
1996.30678,0.00258
1994.24661,0.00341
1992.18644,0.00288
1990.12626,0.00174
1988.06609,0.00173
1986.00592,0.00275
1983.94575,0.00412
1981.88558,0.00539
1979.82540,0.00557
1977.76523,0.00420
1975.70506,0.00274
1973.64489,0.00208
1971.58472,0.00152
1969.52454,0.00146
1967.46437,0.00169
1965.40420,0.00088
1963.34403,0.00000
1961.28386,0.00005
1959.22368,0.00101
1957.16351,0.00254
1955.10334,0.00316
1953.04317,0.00290
1950.98299,0.00281
1948.92282,0.00238
1946.86265,0.00180
1944.80248,0.00200
1942.74231,0.00245
1940.68213,0.00223
1938.62196,0.00139
1936.56179,0.00055
1934.50162,0.00039
1932.44145,0.00073
1930.38127,0.00104
1928.32110,0.00133
1926.26093,0.00110
1924.20076,0.00024
1922.14059,0.00000
1920.08041,0.00102
1918.02024,0.00243
1915.96007,0.00326
1913.89990,0.00327
1911.83972,0.00285
1909.77955,0.00267
1907.71938,0.00272
1905.65921,0.00262
1903.59904,0.00232
1901.53886,0.00194
1899.47869,0.00172
1897.41852,0.00201
1895.35835,0.00256
1893.29818,0.00251
1891.23800,0.00166
1889.17783,0.00102
1887.11766,0.00125
1885.05749,0.00163
1882.99731,0.00174
1880.93714,0.00190
1878.87697,0.00203
1876.81680,0.00187
1874.75663,0.00174
1872.69645,0.00203
1870.63628,0.00250
1868.57611,0.00277
1866.51594,0.00272
1864.45577,0.00228
1862.39559,0.00166
1860.33542,0.00148
1858.27525,0.00167
1856.21508,0.00163
1854.15491,0.00143
1852.09473,0.00134
1850.03456,0.00104
1847.97439,0.00045
1845.91422,0.00019
1843.85404,0.00052
1841.79387,0.00102
1839.73370,0.00138
1837.67353,0.00153
1835.61336,0.00153
1833.55318,0.00158
1831.49301,0.00164
1829.43284,0.00156
1827.37267,0.00149
1825.31250,0.00127
1823.25232,0.00078
1821.19215,0.00027
1819.13198,0.00000
1817.07181,0.00003
1815.01163,0.00019
1812.95146,0.00026
1810.89129,0.00033
1808.83112,0.00051
1806.77095,0.00053
1804.71077,0.00028
1802.65060,0.00004
1800.59043,-0.00002
1798.53026,0.00001
1796.47009,0.00005
1794.40991,0.00027
1792.34974,0.00052
1790.28957,0.00036
1788.22940,-0.00005
1786.16923,-0.00030
1784.10905,-0.00029
1782.04888,0.00000
1779.98871,0.00030
1777.92854,0.00038
1775.86836,0.00031
1773.80819,0.00023
1771.74802,0.00017
1769.68785,0.00034
1767.62768,0.00077
1765.56750,0.00126
1763.50733,0.00189
1761.44716,0.00297
1759.38699,0.00437
1757.32682,0.00573
1755.26664,0.00710
1753.20647,0.00857
1751.14630,0.01017
1749.08613,0.01177
1747.02596,0.01314
1744.96578,0.01429
1742.90561,0.01515
1740.84544,0.01572
1738.78527,0.01615
1736.72509,0.01644
1734.66492,0.01644
1732.60475,0.01612
1730.54458,0.01595
1728.48441,0.01604
1726.42423,0.01604
1724.36406,0.01594
1722.30389,0.01607
1720.24372,0.01639
1718.18355,0.01633
1716.12337,0.01597
1714.06320,0.01606
1712.00303,0.01638
1709.94286,0.01648
1707.88268,0.01637
1705.82251,0.01626
1703.76234,0.01635
1701.70217,0.01646
1699.64200,0.01650
1697.58182,0.01670
1695.52165,0.01700
1693.46148,0.01733
1691.40131,0.01796
1689.34114,0.01902
1687.28096,0.02029
1685.22079,0.02198
1683.16062,0.02451
1681.10045,0.02699
1679.04028,0.02886
1676.98010,0.03022
1674.91993,0.03120
1672.85976,0.03187
1670.79959,0.03216
1668.73941,0.03195
1666.67924,0.03133
1664.61907,0.03058
1662.55890,0.02984
1660.49873,0.02926
1658.43855,0.02893
1656.37838,0.02865
1654.31821,0.02795
1652.25804,0.02708
1650.19787,0.02717
1648.13769,0.02778
1646.07752,0.02811
1644.01735,0.02814
1641.95718,0.02834
1639.89701,0.02868
1637.83683,0.02908
1635.77666,0.02979
1633.71649,0.03081
1631.65632,0.03169
1629.59614,0.03236
1627.53597,0.03275
1625.47580,0.03275
1623.41563,0.03264
1621.35546,0.03273
1619.29528,0.03296
1617.23511,0.03339
1615.17494,0.03417
1613.11477,0.03514
1611.05460,0.03628
1608.99442,0.03762
1606.93425,0.03879
1604.87408,0.03930
1602.81391,0.03888
1600.75373,0.03763
1598.69356,0.03594
1596.63339,0.03418
1594.57322,0.03260
1592.51305,0.03131
1590.45287,0.03024
1588.39270,0.02918
1586.33253,0.02814
1584.27236,0.02727
1582.21219,0.02655
1580.15201,0.02591
1578.09184,0.02520
1576.03167,0.02436
1573.97150,0.02368
1571.91133,0.02325
1569.85115,0.02264
1567.79098,0.02161
1565.73081,0.02044
1563.67064,0.01937
1561.61046,0.01848
1559.55029,0.01760
1557.49012,0.01659
1555.42995,0.01554
1553.36978,0.01465
1551.30960,0.01402
1549.24943,0.01341
1547.18926,0.01272
1545.12909,0.01203
1543.06892,0.01114
1541.00874,0.01005
1538.94857,0.00932
1536.88840,0.00904
1534.82823,0.00867
1532.76805,0.00797
1530.70788,0.00726
1528.64771,0.00694
1526.58754,0.00693
1524.52737,0.00696
1522.46719,0.00743
1520.40702,0.00883
1518.34685,0.01055
1516.28668,0.01199
1514.22651,0.01249
1512.16633,0.01181
1510.10616,0.01040
1508.04599,0.00847
1505.98582,0.00643
1503.92565,0.00530
1501.86547,0.00478
1499.80530,0.00419
1497.74513,0.00314
1495.68496,0.00199
1493.62478,0.00133
1491.56461,0.00098
1489.50444,0.00064
1487.44427,0.00048
1485.38410,0.00058
1483.32392,0.00085
1481.26375,0.00135
1479.20358,0.00198
1477.14341,0.00257
1475.08324,0.00351
1473.02306,0.00561
1470.96289,0.00854
1468.90272,0.01109
1466.84255,0.01327
1464.78238,0.01536
1462.72220,0.01682
1460.66203,0.01735
1458.60186,0.01756
1456.54169,0.01830
1454.48151,0.01949
1452.42134,0.02056
1450.36117,0.02154
1448.30100,0.02244
1446.24083,0.02312
1444.18065,0.02381
1442.12048,0.02473
1440.06031,0.02568
1438.00014,0.02652
1435.93997,0.02718
1433.87979,0.02748
1431.81962,0.02754
1429.75945,0.02763
1427.69928,0.02781
1425.63910,0.02810
1423.57893,0.02855
1421.51876,0.02909
1419.45859,0.02933
1417.39842,0.02901
1415.33824,0.02848
1413.27807,0.02809
1411.21790,0.02765
1409.15773,0.02698
1407.09756,0.02619
1405.03738,0.02534
1402.97721,0.02447
1400.91704,0.02370
1398.85687,0.02292
1396.79670,0.02204
1394.73652,0.02119
1392.67635,0.02069
1390.61618,0.02063
1388.55601,0.02090
1386.49583,0.02143
1384.43566,0.02226
1382.37549,0.02324
1380.31532,0.02414
1378.25515,0.02480
1376.19497,0.02512
1374.13480,0.02523
1372.07463,0.02529
1370.01446,0.02523
1367.95429,0.02499
1365.89411,0.02459
1363.83394,0.02398
1361.77377,0.02333
1359.71360,0.02304
1357.65343,0.02312
1355.59325,0.02310
1353.53308,0.02279
1351.47291,0.02252
1349.41274,0.02253
1347.35256,0.02265
1345.29239,0.02269
1343.23222,0.02268
1341.17205,0.02259
1339.11188,0.02235
1337.05170,0.02208
1334.99153,0.02193
1332.93136,0.02196
1330.87119,0.02212
1328.81102,0.02230
1326.75084,0.02242
1324.69067,0.02251
1322.63050,0.02270
1320.57033,0.02291
1318.51015,0.02287
1316.44998,0.02259
1314.38981,0.02224
1312.32964,0.02186
1310.26947,0.02146
1308.20929,0.02095
1306.14912,0.02027
1304.08895,0.01957
1302.02878,0.01895
1299.96861,0.01845
1297.90843,0.01814
1295.84826,0.01804
1293.78809,0.01806
1291.72792,0.01811
1289.66775,0.01822
1287.60757,0.01847
1285.54740,0.01882
1283.48723,0.01913
1281.42706,0.01934
1279.36688,0.01947
1277.30671,0.01968
1275.24654,0.01992
1273.18637,0.02004
1271.12620,0.02025
1269.06602,0.02078
1267.00585,0.02159
1264.94568,0.02241
1262.88551,0.02316
1260.82534,0.02404
1258.76516,0.02495
1256.70499,0.02560
1254.64482,0.02611
1252.58465,0.02668
1250.52447,0.02715
1248.46430,0.02754
1246.40413,0.02798
1244.34396,0.02822
1242.28379,0.02807
1240.22361,0.02783
1238.16344,0.02759
1236.10327,0.02715
1234.04310,0.02661
1231.98293,0.02604
1229.92275,0.02520
1227.86258,0.02415
1225.80241,0.02295
1223.74224,0.02162
1221.68207,0.02035
1219.62189,0.01919
1217.56172,0.01796
1215.50155,0.01658
1213.44138,0.01521
1211.38120,0.01403
1209.32103,0.01288
1207.26086,0.01161
1205.20069,0.01027
1203.14052,0.00888
1201.08034,0.00732
1199.02017,0.00554
1196.96000,0.00380
1194.89983,0.00247
1192.83966,0.00162
1190.77948,0.00093
1188.71931,0.00030
1186.65914,0.00000
1184.59897,0.00013
1182.53880,0.00054
1180.47862,0.00107
1178.41845,0.00188
1176.35828,0.00330
1174.29811,0.00542
1172.23793,0.00796
1170.17776,0.01041
1168.11759,0.01228
1166.05742,0.01344
1163.99725,0.01413
1161.93707,0.01470
1159.87690,0.01533
1157.81673,0.01593
1155.75656,0.01659
1153.69639,0.01773
1151.63621,0.01905
1149.57604,0.01994
1147.51587,0.02077
1145.45570,0.02190
1143.39552,0.02301
1141.33535,0.02397
1139.27518,0.02489
1137.21501,0.02561
1135.15484,0.02622
1133.09466,0.02701
1131.03449,0.02781
1128.97432,0.02849
1126.91415,0.02930
1124.85398,0.03044
1122.79380,0.03186
1120.73363,0.03344
1118.67346,0.03491
1116.61329,0.03621
1114.55312,0.03745
1112.49294,0.03846
1110.43277,0.03934
1108.37260,0.04039
1106.31243,0.04163
1104.25225,0.04299
1102.19208,0.04453
1100.13191,0.04618
1098.07174,0.04799
1096.01157,0.05008
1093.95139,0.05238
1091.89122,0.05453
1089.83105,0.05646
1087.77088,0.05860
1085.71071,0.06080
1083.65053,0.06261
1081.59036,0.06434
1079.53019,0.06633
1077.47002,0.06836
1075.40985,0.07027
1073.34967,0.07225
1071.28950,0.07434
1069.22933,0.07635
1067.16916,0.07797
1065.10898,0.07946
1063.04881,0.08118
1060.98864,0.08293
1058.92847,0.08447
1056.86830,0.08584
1054.80812,0.08727
1052.74795,0.08895
1050.68778,0.09084
1048.62761,0.09300
1046.56744,0.09555
1044.50726,0.09827
1042.44709,0.10102
1040.38692,0.10345
1038.32675,0.10516
1036.26657,0.10657
1034.20640,0.10779
1032.14623,0.10837
1030.08606,0.10839
1028.02589,0.10802
1025.96571,0.10750
1023.90554,0.10735
1021.84537,0.10750
1019.78520,0.10721
1017.72503,0.10651
1015.66485,0.10597
1013.60468,0.10567
1011.54451,0.10578
1009.48434,0.10622
1007.42417,0.10651
1005.36399,0.10650
1003.30382,0.10605
1001.24365,0.10503
999.18348,0.10375
997.12330,0.10234
995.06313,0.10055
993.00296,0.09844
990.94279,0.09635
988.88262,0.09443
986.82244,0.09263
984.76227,0.09106
982.70210,0.08970
980.64193,0.08828
978.58176,0.08697
976.52158,0.08587
974.46141,0.08434
972.40124,0.08214
970.34107,0.07970
968.28089,0.07755
966.22072,0.07585
964.16055,0.07413
962.10038,0.07235
960.04021,0.07096
957.98003,0.06996
955.91986,0.06869
953.85969,0.06662
951.79952,0.06431
949.73935,0.06259
947.67917,0.06114
945.61900,0.05926
943.55883,0.05698
941.49866,0.05422
939.43849,0.05084
937.37831,0.04741
935.31814,0.04418
933.25797,0.04106
931.19780,0.03815
929.13762,0.03525
927.07745,0.03233
925.01728,0.03000
922.95711,0.02849
920.89694,0.02707
918.83676,0.02525
916.77659,0.02330
914.71642,0.02135
912.65625,0.01956
910.59608,0.01819
908.53590,0.01713
906.47573,0.01626
904.41556,0.01542
902.35539,0.01488
900.29522,0.01478
898.23504,0.01469
896.17487,0.01472
894.11470,0.01513
892.05453,0.01545
889.99435,0.01520
887.93418,0.01468
885.87401,0.01426
883.81384,0.01380
881.75367,0.01263
879.69349,0.01055
877.63332,0.00867
875.57315,0.00787
873.51298,0.00753
871.45281,0.00722
869.39263,0.00718
867.33246,0.00701
865.27229,0.00653
863.21212,0.00620
861.15194,0.00593
859.09177,0.00556
857.03160,0.00537
854.97143,0.00542
852.91126,0.00562
850.85108,0.00604
848.79091,0.00616
846.73074,0.00567
844.67057,0.00547
842.61040,0.00562
840.55022,0.00537
838.49005,0.00499
836.42988,0.00490
834.36971,0.00487
832.30954,0.00472
830.24936,0.00439
828.18919,0.00379
826.12902,0.00371
824.06885,0.00396
822.00867,0.00366
819.94850,0.00320
817.88833,0.00260
815.82816,0.00184
813.76799,0.00140
811.70781,0.00142
809.64764,0.00183
807.58747,0.00226
805.52730,0.00250
803.46713,0.00294
801.40695,0.00341
799.34678,0.00325
797.28661,0.00245
795.22644,0.00184
793.16627,0.00158
791.10609,0.00101
789.04592,0.00028
786.98575,0.00000
784.92558,-0.00004
782.86540,-0.00001
780.80523,0.00039
778.74506,0.00107
776.68489,0.00107
774.62472,0.00061
772.56454,0.00072
770.50437,0.00111
768.44420,0.00114
766.38403,0.00071
764.32386,-0.00004
762.26368,-0.00001
760.20351,0.00138
758.14334,0.00250
756.08317,0.00200
754.02299,0.00078
751.96282,0.00000
749.90265,-0.00023
747.84248,-0.00034
745.78231,-0.00037
743.72213,0.00015
741.66196,0.00079
739.60179,0.00098
737.54162,0.00094
735.48145,0.00124
733.42127,0.00147
731.36110,0.00078
729.30093,0.00016
727.24076,0.00080
725.18059,0.00126
723.12041,0.00130
721.06024,0.00134
719.00007,0.00223
716.93990,0.00299
714.87972,0.00323
712.81955,0.00331
710.75938,0.00391
708.69921,0.00549
706.63904,0.00744
704.57886,0.00877
702.51869,0.00923
700.45852,0.00929
698.39835,0.00908
696.33818,0.00864
694.27800,0.00863
692.21783,0.00862
690.15766,0.00733
688.09749,0.00545
686.03731,0.00466
683.97714,0.00582
681.91697,0.00816
679.85680,0.00914
677.79663,0.00772
675.73645,0.00642
673.67628,0.00805
671.61611,0.01074
669.55594,0.00636
667.49577,0.00000
665.43559,0.00495
663.37542,0.00646
661.31525,0.00782
659.25508,0.00941
657.19491,0.00910
655.13473,0.00703
653.07456,0.00474
651.01439,0.00363
648.95422,0.00352
646.89404,0.00337
644.83387,0.00256
642.77370,0.00182
640.71353,0.00230
638.65336,0.00531
636.59318,0.00951
634.53301,0.01122
632.47284,0.00932
630.41267,0.00605
628.35250,0.00322
626.29232,0.00110
624.23215,-0.00123
622.17198,-0.00322
620.11181,-0.00187
618.05164,0.00279
615.99146,0.00609
613.93129,0.00569
611.87112,0.00338
609.81095,0.00187
607.75077,0.00258
605.69060,0.00167
603.63043,-0.00206
601.57026,-0.00311
599.51009,0.00000
