3996.73391,0.00045
3994.67373,0.00036
3992.61356,-0.00000
3990.55339,-0.00026
3988.49322,-0.00012
3986.43305,0.00034
3984.37287,0.00078
3982.31270,0.00078
3980.25253,0.00061
3978.19236,0.00078
3976.13219,0.00092
3974.07201,0.00070
3972.01184,0.00065
3969.95167,0.00077
3967.89150,0.00055
3965.83133,0.00012
3963.77115,0.00000
3961.71098,0.00033
3959.65081,0.00093
3957.59064,0.00146
3955.53046,0.00179
3953.47029,0.00186
3951.41012,0.00159
3949.34995,0.00124
3947.28978,0.00101
3945.22960,0.00072
3943.16943,0.00049
3941.10926,0.00050
3939.04909,0.00055
3936.98892,0.00077
3934.92874,0.00140
3932.86857,0.00202
3930.80840,0.00190
3928.74823,0.00138
3926.68805,0.00126
3924.62788,0.00153
3922.56771,0.00179
3920.50754,0.00185
3918.44737,0.00173
3916.38719,0.00187
3914.32702,0.00247
3912.26685,0.00297
3910.20668,0.00281
3908.14651,0.00189
3906.08633,0.00067
3904.02616,0.00000
3901.96599,0.00061
3899.90582,0.00201
3897.84565,0.00291
3895.78547,0.00288
3893.72530,0.00232
3891.66513,0.00180
3889.60496,0.00153
3887.54478,0.00140
3885.48461,0.00150
3883.42444,0.00189
3881.36427,0.00223
3879.30410,0.00240
3877.24392,0.00259
3875.18375,0.00289
3873.12358,0.00320
3871.06341,0.00317
3869.00324,0.00279
3866.94306,0.00234
3864.88289,0.00191
3862.82272,0.00175
3860.76255,0.00209
3858.70237,0.00246
3856.64220,0.00223
3854.58203,0.00159
3852.52186,0.00147
3850.46169,0.00193
3848.40151,0.00219
3846.34134,0.00206
3844.28117,0.00177
3842.22100,0.00165
3840.16083,0.00206
3838.10065,0.00282
3836.04048,0.00296
3833.98031,0.00240
3831.92014,0.00191
3829.85997,0.00166
3827.79979,0.00157
3825.73962,0.00172
3823.67945,0.00195
3821.61928,0.00201
3819.55910,0.00185
3817.49893,0.00160
3815.43876,0.00158
3813.37859,0.00186
3811.31842,0.00216
3809.25824,0.00223
3807.19807,0.00207
3805.13790,0.00203
3803.07773,0.00243
3801.01756,0.00264
3798.95738,0.00195
3796.89721,0.00118
3794.83704,0.00106
3792.77687,0.00121
3790.71670,0.00135
3788.65652,0.00151
3786.59635,0.00157
3784.53618,0.00144
3782.47601,0.00126
3780.41583,0.00144
3778.35566,0.00194
3776.29549,0.00205
3774.23532,0.00159
3772.17515,0.00128
3770.11497,0.00175
3768.05480,0.00272
3765.99463,0.00318
3763.93446,0.00297
3761.87429,0.00283
3759.81411,0.00298
3757.75394,0.00298
3755.69377,0.00279
3753.63360,0.00283
3751.57342,0.00290
3749.51325,0.00255
3747.45308,0.00226
3745.39291,0.00243
3743.33274,0.00271
3741.27256,0.00261
3739.21239,0.00197
3737.15222,0.00080
3735.09205,0.00000
3733.03188,0.00063
3730.97170,0.00145
3728.91153,0.00137
3726.85136,0.00099
3724.79119,0.00100
3722.73102,0.00147
3720.67084,0.00211
3718.61067,0.00218
3716.55050,0.00134
3714.49033,0.00054
3712.43015,0.00069
3710.36998,0.00141
3708.30981,0.00188
3706.24964,0.00181
3704.18947,0.00156
3702.12929,0.00141
3700.06912,0.00139
3698.00895,0.00175
3695.94878,0.00227
3693.88861,0.00243
3691.82843,0.00199
3689.76826,0.00116
3687.70809,0.00048
3685.64792,0.00043
3683.58775,0.00094
3681.52757,0.00184
3679.46740,0.00251
3677.40723,0.00239
3675.34706,0.00191
3673.28688,0.00196
3671.22671,0.00253
3669.16654,0.00313
3667.10637,0.00307
3665.04620,0.00260
3662.98602,0.00240
3660.92585,0.00261
3658.86568,0.00293
3656.80551,0.00290
3654.74534,0.00242
3652.68516,0.00212
3650.62499,0.00252
3648.56482,0.00318
3646.50465,0.00329
3644.44447,0.00329
3642.38430,0.00349
3640.32413,0.00361
3638.26396,0.00359
3636.20379,0.00366
3634.14361,0.00384
3632.08344,0.00410
3630.02327,0.00439
3627.96310,0.00447
3625.90293,0.00438
3623.84275,0.00461
3621.78258,0.00503
3619.72241,0.00505
3617.66224,0.00495
3615.60207,0.00553
3613.54189,0.00623
3611.48172,0.00623
3609.42155,0.00592
3607.36138,0.00592
3605.30120,0.00612
3603.24103,0.00628
3601.18086,0.00648
3599.12069,0.00694
3597.06052,0.00766
3595.00034,0.00834
3592.94017,0.00863
3590.88000,0.00848
3588.81983,0.00822
3586.75966,0.00814
3584.69948,0.00822
3582.63931,0.00831
3580.57914,0.00857
3578.51897,0.00903
3576.45879,0.00951
3574.39862,0.01032
3572.33845,0.01153
3570.27828,0.01227
3568.21811,0.01198
3566.15793,0.01136
3564.09776,0.01149
3562.03759,0.01237
3559.97742,0.01352
3557.91725,0.01463
3555.85707,0.01536
3553.79690,0.01556
3551.73673,0.01567
3549.67656,0.01600
3547.61639,0.01632
3545.55621,0.01656
3543.49604,0.01701
3541.43587,0.01761
3539.37570,0.01809
3537.31552,0.01867
3535.25535,0.01928
3533.19518,0.01956
3531.13501,0.01953
3529.07484,0.01941
3527.01466,0.01935
3524.95449,0.01950
3522.89432,0.01993
3520.83415,0.02070
3518.77398,0.02176
3516.71380,0.02272
3514.65363,0.02298
3512.59346,0.02273
3510.53329,0.02293
3508.47312,0.02380
3506.41294,0.02447
3504.35277,0.02463
3502.29260,0.02482
3500.23243,0.02515
3498.17225,0.02526
3496.11208,0.02530
3494.05191,0.02573
3491.99174,0.02652
3489.93157,0.02727
3487.87139,0.02780
3485.81122,0.02817
3483.75105,0.02854
3481.69088,0.02910
3479.63071,0.02958
3477.57053,0.02973
3475.51036,0.02972
3473.45019,0.02979
3471.39002,0.03010
3469.32984,0.03083
3467.26967,0.03152
3465.20950,0.03163
3463.14933,0.03165
3461.08916,0.03217
3459.02898,0.03293
3456.96881,0.03348
3454.90864,0.03376
3452.84847,0.03401
3450.78830,0.03441
3448.72812,0.03478
3446.66795,0.03513
3444.60778,0.03562
3442.54761,0.03600
3440.48744,0.03620
3438.42726,0.03641
3436.36709,0.03670
3434.30692,0.03690
3432.24675,0.03714
3430.18657,0.03787
3428.12640,0.03895
3426.06623,0.03948
3424.00606,0.03913
3421.94589,0.03884
3419.88571,0.03927
3417.82554,0.03995
3415.76537,0.04048
3413.70520,0.04086
3411.64503,0.04104
3409.58485,0.04085
3407.52468,0.04083
3405.46451,0.04160
3403.40434,0.04226
3401.34416,0.04230
3399.28399,0.04228
3397.22382,0.04252
3395.16365,0.04291
3393.10348,0.04325
3391.04330,0.04352
3388.98313,0.04374
3386.92296,0.04403
3384.86279,0.04458
3382.80262,0.04498
3380.74244,0.04492
3378.68227,0.04488
3376.62210,0.04522
3374.56193,0.04583
3372.50176,0.04658
3370.44158,0.04712
3368.38141,0.04710
3366.32124,0.04679
3364.26107,0.04672
3362.20089,0.04704
3360.14072,0.04747
3358.08055,0.04774
3356.02038,0.04793
3353.96021,0.04826
3351.90003,0.04839
3349.83986,0.04828
3347.77969,0.04836
3345.71952,0.04847
3343.65935,0.04835
3341.59917,0.04818
3339.53900,0.04821
3337.47883,0.04825
3335.41866,0.04835
3333.35849,0.04890
3331.29831,0.04946
3329.23814,0.04931
3327.17797,0.04878
3325.11780,0.04870
3323.05762,0.04897
3320.99745,0.04905
3318.93728,0.04910
3316.87711,0.04940
3314.81694,0.04970
3312.75676,0.04985
3310.69659,0.04987
3308.63642,0.04965
3306.57625,0.04938
3304.51608,0.04952
3302.45590,0.05003
3300.39573,0.05032
3298.33556,0.05025
3296.27539,0.05004
3294.21521,0.04989
3292.15504,0.04979
3290.09487,0.04963
3288.03470,0.04967
3285.97453,0.04981
3283.91435,0.04977
3281.85418,0.04952
3279.79401,0.04919
3277.73384,0.04929
3275.67367,0.04977
3273.61349,0.04958
3271.55332,0.04884
3269.49315,0.04865
3267.43298,0.04907
3265.37281,0.04932
3263.31263,0.04915
3261.25246,0.04888
3259.19229,0.04865
3257.13212,0.04836
3255.07194,0.04819
3253.01177,0.04834
3250.95160,0.04848
3248.89143,0.04842
3246.83126,0.04837
3244.77108,0.04835
3242.71091,0.04836
3240.65074,0.04821
3238.59057,0.04784
3236.53040,0.04765
3234.47022,0.04770
3232.41005,0.04768
3230.34988,0.04749
3228.28971,0.04740
3226.22954,0.04755
3224.16936,0.04758
3222.10919,0.04708
3220.04902,0.04640
3217.98885,0.04620
3215.92867,0.04658
3213.86850,0.04690
3211.80833,0.04670
3209.74816,0.04635
3207.68799,0.04584
3205.62781,0.04507
3203.56764,0.04452
3201.50747,0.04446
3199.44730,0.04466
3197.38713,0.04493
3195.32695,0.04502
3193.26678,0.04478
3191.20661,0.04440
3189.14644,0.04402
3187.08626,0.04360
3185.02609,0.04307
3182.96592,0.04249
3180.90575,0.04233
3178.84558,0.04271
3176.78540,0.04273
3174.72523,0.04213
3172.66506,0.04170
3170.60489,0.04141
3168.54472,0.04085
3166.48454,0.04048
3164.42437,0.04036
3162.36420,0.04024
3160.30403,0.04023
3158.24386,0.04018
3156.18368,0.03996
3154.12351,0.03975
3152.06334,0.03951
3150.00317,0.03912
3147.94299,0.03866
3145.88282,0.03817
3143.82265,0.03785
3141.76248,0.03790
3139.70231,0.03799
3137.64213,0.03769
3135.58196,0.03713
3133.52179,0.03683
3131.46162,0.03672
3129.40145,0.03642
3127.34127,0.03588
3125.28110,0.03530
3123.22093,0.03500
3121.16076,0.03497
3119.10058,0.03496
3117.04041,0.03489
3114.98024,0.03454
3112.92007,0.03397
3110.85990,0.03357
3108.79972,0.03325
3106.73955,0.03278
3104.67938,0.03214
3102.61921,0.03166
3100.55904,0.03152
3098.49886,0.03142
3096.43869,0.03137
3094.37852,0.03149
3092.31835,0.03151
3090.25818,0.03112
3088.19800,0.03036
3086.13783,0.02966
3084.07766,0.02943
3082.01749,0.02969
3079.95731,0.03016
3077.89714,0.03018
3075.83697,0.02961
3073.77680,0.02903
3071.71663,0.02862
3069.65645,0.02809
3067.59628,0.02761
3065.53611,0.02736
3063.47594,0.02720
3061.41577,0.02701
3059.35559,0.02681
3057.29542,0.02655
3055.23525,0.02623
3053.17508,0.02577
3051.11491,0.02524
3049.05473,0.02489
3046.99456,0.02474
3044.93439,0.02474
3042.87422,0.02461
3040.81404,0.02435
3038.75387,0.02415
3036.69370,0.02403
3034.63353,0.02425
3032.57336,0.02459
3030.51318,0.02428
3028.45301,0.02351
3026.39284,0.02314
3024.33267,0.02313
3022.27250,0.02284
3020.21232,0.02247
3018.15215,0.02256
3016.09198,0.02275
3014.03181,0.02268
3011.97163,0.02260
3009.91146,0.02268
3007.85129,0.02273
3005.79112,0.02266
3003.73095,0.02235
3001.67077,0.02189
2999.61060,0.02162
2997.55043,0.02152
2995.49026,0.02128
2993.43009,0.02115
2991.36991,0.02129
2989.30974,0.02134
2987.24957,0.02128
2985.18940,0.02142
2983.12923,0.02183
2981.06905,0.02235
2979.00888,0.02274
2976.94871,0.02300
2974.88854,0.02344
2972.82836,0.02434
2970.76819,0.02534
2968.70802,0.02593
2966.64785,0.02649
2964.58768,0.02752
2962.52750,0.02908
2960.46733,0.03079
2958.40716,0.03211
2956.34699,0.03331
2954.28682,0.03506
2952.22664,0.03700
2950.16647,0.03864
2948.10630,0.04027
2946.04613,0.04211
2943.98596,0.04418
2941.92578,0.04640
2939.86561,0.04849
2937.80544,0.05045
2935.74527,0.05250
2933.68509,0.05468
2931.62492,0.05698
2929.56475,0.05916
2927.50458,0.06090
2925.44441,0.06241
2923.38423,0.06353
2921.32406,0.06393
2919.26389,0.06382
2917.20372,0.06288
2915.14355,0.06078
2913.08337,0.05825
2911.02320,0.05589
2908.96303,0.05360
2906.90286,0.05127
2904.84268,0.04941
2902.78251,0.04805
2900.72234,0.04658
2898.66217,0.04494
2896.60200,0.04341
2894.54182,0.04218
2892.48165,0.04156
2890.42148,0.04126
2888.36131,0.04061
2886.30114,0.03970
2884.24096,0.03885
2882.18079,0.03809
2880.12062,0.03756
2878.06045,0.03737
2876.00028,0.03758
2873.94010,0.03812
2871.87993,0.03860
2869.81976,0.03885
2867.75959,0.03907
2865.69941,0.03957
2863.63924,0.04055
2861.57907,0.04179
2859.51890,0.04329
2857.45873,0.04522
2855.39855,0.04716
2853.33838,0.04849
2851.27821,0.04898
2849.21804,0.04823
2847.15787,0.04583
2845.09769,0.04237
2843.03752,0.03909
2840.97735,0.03655
2838.91718,0.03452
2836.85700,0.03287
2834.79683,0.03147
2832.73666,0.03005
2830.67649,0.02885
2828.61632,0.02803
2826.55614,0.02749
2824.49597,0.02711
2822.43580,0.02658
2820.37563,0.02578
2818.31546,0.02511
2816.25528,0.02473
2814.19511,0.02441
2812.13494,0.02410
2810.07477,0.02395
2808.01460,0.02372
2805.95442,0.02321
2803.89425,0.02276
2801.83408,0.02250
2799.77391,0.02225
2797.71373,0.02203
2795.65356,0.02177
2793.59339,0.02135
2791.53322,0.02097
2789.47305,0.02083
2787.41287,0.02079
2785.35270,0.02065
2783.29253,0.02053
2781.23236,0.02057
2779.17219,0.02043
2777.11201,0.01991
2775.05184,0.01958
2772.99167,0.01960
2770.93150,0.01944
2768.87133,0.01892
2766.81115,0.01840
2764.75098,0.01828
2762.69081,0.01867
2760.63064,0.01912
2758.57046,0.01895
2756.51029,0.01833
2754.45012,0.01824
2752.38995,0.01862
2750.32978,0.01878
2748.26960,0.01881
2746.20943,0.01880
2744.14926,0.01870
2742.08909,0.01843
2740.02892,0.01804
2737.96874,0.01797
2735.90857,0.01796
2733.84840,0.01764
2731.78823,0.01747
2729.72805,0.01776
2727.66788,0.01797
2725.60771,0.01772
2723.54754,0.01751
2721.48737,0.01781
2719.42719,0.01820
2717.36702,0.01809
2715.30685,0.01768
2713.24668,0.01749
2711.18651,0.01758
2709.12633,0.01759
2707.06616,0.01739
2705.00599,0.01716
2702.94582,0.01684
2700.88565,0.01659
2698.82547,0.01669
2696.76530,0.01671
2694.70513,0.01647
2692.64496,0.01653
2690.58478,0.01689
2688.52461,0.01686
2686.46444,0.01657
2684.40427,0.01661
2682.34410,0.01678
2680.28392,0.01682
2678.22375,0.01679
2676.16358,0.01646
2674.10341,0.01602
2672.04324,0.01595
2669.98306,0.01607
2667.92289,0.01605
2665.86272,0.01601
2663.80255,0.01594
2661.74238,0.01583
2659.68220,0.01584
2657.62203,0.01581
2655.56186,0.01568
2653.50169,0.01568
2651.44151,0.01575
2649.38134,0.01564
2647.32117,0.01526
2645.26100,0.01497
2643.20083,0.01497
2641.14065,0.01494
2639.08048,0.01467
2637.02031,0.01438
2634.96014,0.01419
2632.89997,0.01397
2630.83979,0.01379
2628.77962,0.01372
2626.71945,0.01364
2624.65928,0.01353
2622.59910,0.01360
2620.53893,0.01391
2618.47876,0.01399
2616.41859,0.01367
2614.35842,0.01345
2612.29824,0.01352
2610.23807,0.01354
2608.17790,0.01356
2606.11773,0.01366
2604.05756,0.01360
2601.99738,0.01340
2599.93721,0.01318
2597.87704,0.01301
2595.81687,0.01292
2593.75670,0.01293
2591.69652,0.01302
2589.63635,0.01312
2587.57618,0.01326
2585.51601,0.01306
2583.45583,0.01233
2581.39566,0.01189
2579.33549,0.01213
2577.27532,0.01249
2575.21515,0.01257
2573.15497,0.01232
2571.09480,0.01203
2569.03463,0.01176
2566.97446,0.01159
2564.91429,0.01174
2562.85411,0.01175
2560.79394,0.01138
2558.73377,0.01113
2556.67360,0.01125
2554.61342,0.01178
2552.55325,0.01245
2550.49308,0.01235
2548.43291,0.01132
2546.37274,0.01069
2544.31256,0.01082
2542.25239,0.01110
2540.19222,0.01142
2538.13205,0.01141
2536.07188,0.01108
2534.01170,0.01060
2531.95153,0.01020
2529.89136,0.01010
2527.83119,0.00994
2525.77102,0.00985
2523.71084,0.01008
2521.65067,0.01023
2519.59050,0.01031
2517.53033,0.01061
2515.47015,0.01063
2513.40998,0.01036
2511.34981,0.01037
2509.28964,0.01029
2507.22947,0.00977
2505.16929,0.00947
2503.10912,0.00971
2501.04895,0.00987
2498.98878,0.00977
2496.92861,0.00981
2494.86843,0.01002
2492.80826,0.01015
2490.74809,0.00987
2488.68792,0.00901
2486.62775,0.00853
2484.56757,0.00907
2482.50740,0.00964
2480.44723,0.00943
2478.38706,0.00877
2476.32688,0.00874
2474.26671,0.00960
2472.20654,0.00995
2470.14637,0.00944
2468.08620,0.00909
2466.02602,0.00902
2463.96585,0.00908
2461.90568,0.00928
2459.84551,0.00914
2457.78534,0.00879
2455.72516,0.00907
2453.66499,0.00961
2451.60482,0.00943
2449.54465,0.00887
2447.48447,0.00886
2445.42430,0.00909
2443.36413,0.00892
2441.30396,0.00884
2439.24379,0.00904
2437.18361,0.00911
2435.12344,0.00917
2433.06327,0.00899
2431.00310,0.00863
2428.94293,0.00849
2426.88275,0.00802
2424.82258,0.00756
2422.76241,0.00786
2420.70224,0.00814
2418.64207,0.00792
2416.58189,0.00766
2414.52172,0.00762
2412.46155,0.00782
2410.40138,0.00812
2408.34120,0.00815
2406.28103,0.00795
2404.22086,0.00790
2402.16069,0.00808
2400.10052,0.00832
2398.04034,0.00863
2395.98017,0.00884
2393.92000,0.00847
2391.85983,0.00761
2389.79966,0.00702
2387.73948,0.00719
2385.67931,0.00783
2383.61914,0.00830
2381.55897,0.00853
2379.49880,0.00863
2377.43862,0.00830
2375.37845,0.00779
2373.31828,0.00739
2371.25811,0.00711
2369.19793,0.00746
2367.13776,0.00856
2365.07759,0.01011
2363.01742,0.01120
2360.95725,0.00844
2358.89707,0.00334
2356.83690,0.00103
2354.77673,0.00339
2352.71656,0.00658
2350.65639,0.00694
2348.59621,0.00602
2346.53604,0.00677
2344.47587,0.00762
2342.41570,0.00891
2340.35552,0.00931
2338.29535,0.00870
2336.23518,0.00849
2334.17501,0.00870
2332.11484,0.00857
2330.05466,0.00822
2327.99449,0.00888
2325.93432,0.00920
2323.87415,0.00858
2321.81398,0.00718
2319.75380,0.00618
2317.69363,0.00629
2315.63346,0.00769
2313.57329,0.00901
2311.51312,0.00935
2309.45294,0.00860
2307.39277,0.00721
2305.33260,0.00630
2303.27243,0.00653
2301.21225,0.00764
2299.15208,0.00868
2297.09191,0.00886
2295.03174,0.00802
2292.97157,0.00699
2290.91139,0.00682
2288.85122,0.00732
2286.79105,0.00767
2284.73088,0.00742
2282.67071,0.00673
2280.61053,0.00626
2278.55036,0.00631
2276.49019,0.00631
2274.43002,0.00614
2272.36984,0.00653
2270.30967,0.00707
2268.24950,0.00673
2266.18933,0.00606
2264.12916,0.00595
2262.06898,0.00590
2260.00881,0.00536
2257.94864,0.00460
2255.88847,0.00424
2253.82830,0.00467
2251.76812,0.00558
2249.70795,0.00646
2247.64778,0.00712
2245.58761,0.00760
2243.52744,0.00790
2241.46726,0.00776
2239.40709,0.00713
2237.34692,0.00631
2235.28675,0.00541
2233.22657,0.00429
2231.16640,0.00382
2229.10623,0.00487
2227.04606,0.00600
2224.98589,0.00595
2222.92571,0.00571
2220.86554,0.00579
2218.80537,0.00502
2216.74520,0.00407
2214.68503,0.00496
2212.62485,0.00638
2210.56468,0.00590
2208.50451,0.00429
2206.44434,0.00314
2204.38417,0.00293
2202.32399,0.00408
2200.26382,0.00566
2198.20365,0.00551
2196.14348,0.00452
2194.08330,0.00486
2192.02313,0.00539
2189.96296,0.00512
2187.90279,0.00377
2185.84262,0.00225
2183.78244,0.00299
2181.72227,0.00501
2179.66210,0.00569
2177.60193,0.00478
2175.54176,0.00363
2173.48158,0.00366
2171.42141,0.00488
2169.36124,0.00573
2167.30107,0.00535
2165.24089,0.00477
2163.18072,0.00555
2161.12055,0.00631
2159.06038,0.00505
2157.00021,0.00377
2154.94003,0.00371
2152.87986,0.00328
2150.81969,0.00240
2148.75952,0.00257
2146.69935,0.00341
2144.63917,0.00396
2142.57900,0.00449
2140.51883,0.00426
2138.45866,0.00297
2136.39849,0.00235
2134.33831,0.00271
2132.27814,0.00331
2130.21797,0.00385
2128.15780,0.00418
2126.09762,0.00488
2124.03745,0.00537
2121.97728,0.00522
2119.91711,0.00550
2117.85694,0.00586
2115.79676,0.00541
2113.73659,0.00546
2111.67642,0.00643
2109.61625,0.00683
2107.55608,0.00642
2105.49590,0.00573
2103.43573,0.00521
2101.37556,0.00500
2099.31539,0.00505
2097.25521,0.00545
2095.19504,0.00568
2093.13487,0.00535
2091.07470,0.00487
2089.01453,0.00459
2086.95435,0.00455
2084.89418,0.00488
2082.83401,0.00503
2080.77384,0.00466
2078.71367,0.00439
2076.65349,0.00440
2074.59332,0.00405
2072.53315,0.00367
2070.47298,0.00433
2068.41281,0.00533
2066.35263,0.00505
2064.29246,0.00307
2062.23229,0.00169
2060.17212,0.00261
2058.11194,0.00374
2056.05177,0.00352
2053.99160,0.00358
2051.93143,0.00497
2049.87126,0.00568
2047.81108,0.00390
2045.75091,0.00136
2043.69074,0.00085
2041.63057,0.00243
2039.57040,0.00337
2037.51022,0.00270
2035.45005,0.00300
2033.38988,0.00320
2031.32971,0.00090
2029.26954,0.00000
2027.20936,0.00241
2025.14919,0.00427
2023.08902,0.00422
2021.02885,0.00349
2018.96867,0.00269
2016.90850,0.00206
2014.84833,0.00090
2012.78816,0.00022
2010.72799,0.00121
2008.66781,0.00182
2006.60764,0.00128
2004.54747,0.00139
2002.48730,0.00237
2000.42713,0.00279
1998.36695,0.00302
1996.30678,0.00429
1994.24661,0.00519
1992.18644,0.00411
1990.12626,0.00236
1988.06609,0.00154
1986.00592,0.00159
1983.94575,0.00271
1981.88558,0.00458
1979.82540,0.00536
1977.76523,0.00430
1975.70506,0.00264
1973.64489,0.00114
1971.58472,0.00007
1969.52454,0.00021
1967.46437,0.00096
1965.40420,0.00096
1963.34403,0.00058
1961.28386,0.00025
1959.22368,0.00025
1957.16351,0.00128
1955.10334,0.00230
1953.04317,0.00231
1950.98299,0.00190
1948.92282,0.00115
1946.86265,0.00041
1944.80248,0.00066
1942.74231,0.00166
1940.68213,0.00191
1938.62196,0.00117
1936.56179,0.00071
1934.50162,0.00082
1932.44145,0.00083
1930.38127,0.00076
1928.32110,0.00104
1926.26093,0.00120
1924.20076,0.00061
1922.14059,0.00006
1920.08041,0.00064
1918.02024,0.00198
1915.96007,0.00311
1913.89990,0.00351
1911.83972,0.00317
1909.77955,0.00281
1907.71938,0.00297
1905.65921,0.00306
1903.59904,0.00264
1901.53886,0.00206
1899.47869,0.00179
1897.41852,0.00212
1895.35835,0.00275
1893.29818,0.00291
1891.23800,0.00230
1889.17783,0.00164
1887.11766,0.00168
1885.05749,0.00208
1882.99731,0.00231
1880.93714,0.00237
1878.87697,0.00230
1876.81680,0.00205
1874.75663,0.00180
1872.69645,0.00193
1870.63628,0.00232
1868.57611,0.00250
1866.51594,0.00244
1864.45577,0.00213
1862.39559,0.00171
1860.33542,0.00169
1858.27525,0.00195
1856.21508,0.00182
1854.15491,0.00134
1852.09473,0.00102
1850.03456,0.00088
1847.97439,0.00070
1845.91422,0.00058
1843.85404,0.00078
1841.79387,0.00125
1839.73370,0.00166
1837.67353,0.00179
1835.61336,0.00177
1833.55318,0.00182
1831.49301,0.00180
1829.43284,0.00162
1827.37267,0.00138
1825.31250,0.00098
1823.25232,0.00044
1821.19215,0.00003
1819.13198,0.00000
1817.07181,0.00041
1815.01163,0.00080
1812.95146,0.00082
1810.89129,0.00081
1808.83112,0.00097
1806.77095,0.00094
1804.71077,0.00057
1802.65060,0.00012
1800.59043,-0.00008
1798.53026,0.00007
1796.47009,0.00027
1794.40991,0.00030
1792.34974,0.00032
1790.28957,0.00028
1788.22940,0.00002
1786.16923,-0.00031
1784.10905,-0.00038
1782.04888,0.00000
1779.98871,0.00040
1777.92854,0.00040
1775.86836,0.00012
1773.80819,-0.00013
1771.74802,-0.00019
1769.68785,0.00006
1767.62768,0.00067
1765.56750,0.00142
1763.50733,0.00211
1761.44716,0.00308
1759.38699,0.00454
1757.32682,0.00602
1755.26664,0.00726
1753.20647,0.00837
1751.14630,0.00969
1749.08613,0.01125
1747.02596,0.01272
1744.96578,0.01386
1742.90561,0.01461
1740.84544,0.01524
1738.78527,0.01593
1736.72509,0.01649
1734.66492,0.01666
1732.60475,0.01637
1730.54458,0.01592
1728.48441,0.01565
1726.42423,0.01555
1724.36406,0.01556
1722.30389,0.01579
1720.24372,0.01612
1718.18355,0.01615
1716.12337,0.01587
1714.06320,0.01571
1712.00303,0.01567
1709.94286,0.01572
1707.88268,0.01588
1705.82251,0.01600
1703.76234,0.01583
1701.70217,0.01549
1699.64200,0.01548
1697.58182,0.01603
1695.52165,0.01665
1693.46148,0.01713
1691.40131,0.01763
1689.34114,0.01839
1687.28096,0.01948
1685.22079,0.02121
1683.16062,0.02390
1681.10045,0.02652
1679.04028,0.02840
1676.98010,0.02966
1674.91993,0.03055
1672.85976,0.03113
1670.79959,0.03135
1668.73941,0.03127
1666.67924,0.03096
1664.61907,0.03031
1662.55890,0.02950
1660.49873,0.02893
1658.43855,0.02856
1656.37838,0.02796
1654.31821,0.02695
1652.25804,0.02620
1650.19787,0.02643
1648.13769,0.02704
1646.07752,0.02749
1644.01735,0.02765
1641.95718,0.02785
1639.89701,0.02823
1637.83683,0.02875
1635.77666,0.02954
1633.71649,0.03058
1631.65632,0.03141
1629.59614,0.03199
1627.53597,0.03248
1625.47580,0.03273
1623.41563,0.03267
1621.35546,0.03258
1619.29528,0.03264
1617.23511,0.03298
1615.17494,0.03374
1613.11477,0.03466
1611.05460,0.03568
1608.99442,0.03698
1606.93425,0.03831
1604.87408,0.03899
1602.81391,0.03858
1600.75373,0.03729
1598.69356,0.03562
1596.63339,0.03376
1594.57322,0.03201
1592.51305,0.03072
1590.45287,0.02989
1588.39270,0.02906
1586.33253,0.02805
1584.27236,0.02702
1582.21219,0.02616
1580.15201,0.02547
1578.09184,0.02480
1576.03167,0.02410
1573.97150,0.02361
1571.91133,0.02324
1569.85115,0.02251
1567.79098,0.02129
1565.73081,0.02006
1563.67064,0.01913
1561.61046,0.01824
1559.55029,0.01701
1557.49012,0.01582
1555.42995,0.01516
1553.36978,0.01455
1551.30960,0.01391
1549.24943,0.01326
1547.18926,0.01251
1545.12909,0.01152
1543.06892,0.01027
1541.00874,0.00907
1538.94857,0.00850
1536.88840,0.00840
1534.82823,0.00821
1532.76805,0.00786
1530.70788,0.00742
1528.64771,0.00708
1526.58754,0.00697
1524.52737,0.00696
1522.46719,0.00732
1520.40702,0.00855
1518.34685,0.01021
1516.28668,0.01167
1514.22651,0.01223
1512.16633,0.01164
1510.10616,0.01027
1508.04599,0.00828
1505.98582,0.00633
1503.92565,0.00542
1501.86547,0.00488
1499.80530,0.00402
1497.74513,0.00291
1495.68496,0.00187
1493.62478,0.00113
1491.56461,0.00051
1489.50444,0.00000
1487.44427,-0.00006
1485.38410,0.00024
1483.32392,0.00061
1481.26375,0.00106
1479.20358,0.00172
1477.14341,0.00251
1475.08324,0.00365
1473.02306,0.00568
1470.96289,0.00840
1468.90272,0.01079
1466.84255,0.01288
1464.78238,0.01494
1462.72220,0.01643
1460.66203,0.01699
1458.60186,0.01720
1456.54169,0.01792
1454.48151,0.01905
1452.42134,0.02005
1450.36117,0.02099
1448.30100,0.02198
1446.24083,0.02285
1444.18065,0.02363
1442.12048,0.02452
1440.06031,0.02537
1438.00014,0.02600
1435.93997,0.02647
1433.87979,0.02680
1431.81962,0.02697
1429.75945,0.02710
1427.69928,0.02724
1425.63910,0.02738
1423.57893,0.02762
1421.51876,0.02805
1419.45859,0.02836
1417.39842,0.02821
1415.33824,0.02790
1413.27807,0.02765
1411.21790,0.02725
1409.15773,0.02660
1407.09756,0.02580
1405.03738,0.02493
1402.97721,0.02407
1400.91704,0.02336
1398.85687,0.02269
1396.79670,0.02183
1394.73652,0.02091
1392.67635,0.02037
1390.61618,0.02034
1388.55601,0.02063
1386.49583,0.02111
1384.43566,0.02179
1382.37549,0.02269
1380.31532,0.02360
1378.25515,0.02425
1376.19497,0.02449
1374.13480,0.02452
1372.07463,0.02459
1370.01446,0.02463
1367.95429,0.02458
1365.89411,0.02438
1363.83394,0.02390
1361.77377,0.02332
1359.71360,0.02303
1357.65343,0.02300
1355.59325,0.02293
1353.53308,0.02268
1351.47291,0.02244
1349.41274,0.02240
1347.35256,0.02240
1345.29239,0.02228
1343.23222,0.02207
1341.17205,0.02192
1339.11188,0.02193
1337.05170,0.02194
1334.99153,0.02187
1332.93136,0.02180
1330.87119,0.02180
1328.81102,0.02188
1326.75084,0.02204
1324.69067,0.02223
1322.63050,0.02240
1320.57033,0.02248
1318.51015,0.02241
1316.44998,0.02222
1314.38981,0.02196
1312.32964,0.02167
1310.26947,0.02131
1308.20929,0.02079
1306.14912,0.02009
1304.08895,0.01933
1302.02878,0.01863
1299.96861,0.01814
1297.90843,0.01786
1295.84826,0.01761
1293.78809,0.01744
1291.72792,0.01751
1289.66775,0.01777
1287.60757,0.01822
1285.54740,0.01879
1283.48723,0.01923
1281.42706,0.01933
1279.36688,0.01924
1277.30671,0.01930
1275.24654,0.01952
1273.18637,0.01968
1271.12620,0.01994
1269.06602,0.02055
1267.00585,0.02133
1264.94568,0.02202
1262.88551,0.02270
1260.82534,0.02363
1258.76516,0.02470
1256.70499,0.02551
1254.64482,0.02594
1252.58465,0.02636
1250.52447,0.02696
1248.46430,0.02743
1246.40413,0.02771
1244.34396,0.02792
1242.28379,0.02788
1240.22361,0.02748
1238.16344,0.02701
1236.10327,0.02658
1234.04310,0.02619
1231.98293,0.02569
1229.92275,0.02493
1227.86258,0.02397
1225.80241,0.02278
1223.74224,0.02133
1221.68207,0.01997
1219.62189,0.01887
1217.56172,0.01781
1215.50155,0.01656
1213.44138,0.01515
1211.38120,0.01373
1209.32103,0.01241
1207.26086,0.01119
1205.20069,0.00992
1203.14052,0.00842
1201.08034,0.00674
1199.02017,0.00518
1196.96000,0.00381
1194.89983,0.00251
1192.83966,0.00154
1190.77948,0.00092
1188.71931,0.00033
1186.65914,0.00000
1184.59897,0.00018
1182.53880,0.00069
1180.47862,0.00113
1178.41845,0.00178
1176.35828,0.00315
1174.29811,0.00535
1172.23793,0.00792
1170.17776,0.01025
1168.11759,0.01214
1166.05742,0.01347
1163.99725,0.01410
1161.93707,0.01433
1159.87690,0.01473
1157.81673,0.01537
1155.75656,0.01618
1153.69639,0.01746
1151.63621,0.01889
1149.57604,0.01996
1147.51587,0.02095
1145.45570,0.02194
1143.39552,0.02284
1141.33535,0.02372
1139.27518,0.02450
1137.21501,0.02510
1135.15484,0.02587
1133.09466,0.02695
1131.03449,0.02777
1128.97432,0.02827
1126.91415,0.02914
1124.85398,0.03048
1122.79380,0.03180
1120.73363,0.03307
1118.67346,0.03445
1116.61329,0.03589
1114.55312,0.03724
1112.49294,0.03830
1110.43277,0.03925
1108.37260,0.04030
1106.31243,0.04139
1104.25225,0.04267
1102.19208,0.04412
1100.13191,0.04569
1098.07174,0.04764
1096.01157,0.04979
1093.95139,0.05185
1091.89122,0.05391
1089.83105,0.05604
1087.77088,0.05821
1085.71071,0.06022
1083.65053,0.06207
1081.59036,0.06403
1079.53019,0.06599
1077.47002,0.06787
1075.40985,0.06985
1073.34967,0.07210
1071.28950,0.07440
1069.22933,0.07628
1067.16916,0.07761
1065.10898,0.07886
1063.04881,0.08027
1060.98864,0.08166
1058.92847,0.08309
1056.86830,0.08471
1054.80812,0.08646
1052.74795,0.08830
1050.68778,0.09048
1048.62761,0.09309
1046.56744,0.09589
1044.50726,0.09851
1042.44709,0.10075
1040.38692,0.10262
1038.32675,0.10435
1036.26657,0.10616
1034.20640,0.10739
1032.14623,0.10765
1030.08606,0.10762
1028.02589,0.10761
1025.96571,0.10729
1023.90554,0.10678
1021.84537,0.10628
1019.78520,0.10557
1017.72503,0.10483
1015.66485,0.10437
1013.60468,0.10432
1011.54451,0.10477
1009.48434,0.10523
1007.42417,0.10537
1005.36399,0.10531
1003.30382,0.10493
1001.24365,0.10408
999.18348,0.10305
997.12330,0.10183
995.06313,0.10000
993.00296,0.09780
990.94279,0.09576
988.88262,0.09402
986.82244,0.09230
984.76227,0.09057
982.70210,0.08914
980.64193,0.08779
978.58176,0.08626
976.52158,0.08489
974.46141,0.08356
972.40124,0.08189
970.34107,0.07975
968.28089,0.07757
966.22072,0.07585
964.16055,0.07423
962.10038,0.07241
960.04021,0.07087
957.98003,0.06984
955.91986,0.06866
953.85969,0.06690
951.79952,0.06483
949.73935,0.06277
947.67917,0.06098
945.61900,0.05931
943.55883,0.05737
941.49866,0.05460
939.43849,0.05120
937.37831,0.04786
935.31814,0.04465
933.25797,0.04156
931.19780,0.03856
929.13762,0.03554
927.07745,0.03271
925.01728,0.03050
922.95711,0.02914
920.89694,0.02784
918.83676,0.02579
916.77659,0.02335
914.71642,0.02122
912.65625,0.01949
910.59608,0.01792
908.53590,0.01676
906.47573,0.01624
904.41556,0.01595
902.35539,0.01567
900.29522,0.01542
898.23504,0.01511
896.17487,0.01509
894.11470,0.01584
892.05453,0.01662
889.99435,0.01635
887.93418,0.01554
885.87401,0.01498
883.81384,0.01439
881.75367,0.01316
879.69349,0.01139
877.63332,0.00994
875.57315,0.00918
873.51298,0.00868
871.45281,0.00845
869.39263,0.00834
867.33246,0.00787
865.27229,0.00723
863.21212,0.00673
861.15194,0.00658
859.09177,0.00666
857.03160,0.00640
854.97143,0.00599
852.91126,0.00616
850.85108,0.00640
848.79091,0.00615
846.73074,0.00627
844.67057,0.00706
842.61040,0.00748
840.55022,0.00694
838.49005,0.00610
836.42988,0.00584
834.36971,0.00620
832.30954,0.00653
830.24936,0.00629
828.18919,0.00575
826.12902,0.00566
824.06885,0.00547
822.00867,0.00479
819.94850,0.00439
817.88833,0.00410
815.82816,0.00357
813.76799,0.00277
811.70781,0.00196
809.64764,0.00197
807.58747,0.00294
805.52730,0.00399
803.46713,0.00452
801.40695,0.00445
799.34678,0.00356
797.28661,0.00224
795.22644,0.00175
793.16627,0.00164
791.10609,0.00059
789.04592,0.00000
786.98575,0.00116
784.92558,0.00248
782.86540,0.00267
780.80523,0.00310
778.74506,0.00379
776.68489,0.00333
774.62472,0.00221
772.56454,0.00180
770.50437,0.00196
768.44420,0.00171
766.38403,0.00140
764.32386,0.00172
762.26368,0.00233
760.20351,0.00293
758.14334,0.00337
756.08317,0.00307
754.02299,0.00200
751.96282,0.00115
749.90265,0.00114
747.84248,0.00094
745.78231,0.00000
743.72213,-0.00038
741.66196,0.00046
739.60179,0.00146
737.54162,0.00155
735.48145,0.00104
733.42127,0.00069
731.36110,0.00007
729.30093,-0.00039
727.24076,0.00058
725.18059,0.00177
723.12041,0.00163
721.06024,0.00141
719.00007,0.00178
716.93990,0.00291
714.87972,0.00409
712.81955,0.00444
710.75938,0.00440
708.69921,0.00494
706.63904,0.00637
704.57886,0.00817
702.51869,0.00940
700.45852,0.00937
698.39835,0.00823
696.33818,0.00694
694.27800,0.00638
692.21783,0.00615
690.15766,0.00501
688.09749,0.00292
686.03731,0.00155
683.97714,0.00228
681.91697,0.00445
679.85680,0.00568
677.79663,0.00471
675.73645,0.00355
673.67628,0.00396
671.61611,0.00419
669.55594,0.00401
667.49577,0.00344
665.43559,0.00187
663.37542,0.00560
661.31525,0.00962
659.25508,0.01140
657.19491,0.01097
655.13473,0.00914
653.07456,0.00679
651.01439,0.00564
648.95422,0.00641
646.89404,0.00685
644.83387,0.00602
642.77370,0.00536
640.71353,0.00646
638.65336,0.00899
636.59318,0.01122
634.53301,0.01200
632.47284,0.01133
630.41267,0.00986
628.35250,0.00833
626.29232,0.00620
624.23215,0.00252
622.17198,0.00000
620.11181,0.00092
618.05164,0.00523
615.99146,0.00805
613.93129,0.00663
611.87112,0.00416
609.81095,0.00366
607.75077,0.00438
605.69060,0.00284
603.63043,-0.00101
601.57026,-0.00210
599.51009,0.00000
