3996.73391,-0.00020
3994.67373,-0.00018
3992.61356,-0.00014
3990.55339,-0.00006
3988.49322,0.00004
3986.43305,0.00010
3984.37287,0.00021
3982.31270,0.00046
3980.25253,0.00078
3978.19236,0.00095
3976.13219,0.00085
3974.07201,0.00059
3972.01184,0.00041
3969.95167,0.00046
3967.89150,0.00064
3965.83133,0.00069
3963.77115,0.00057
3961.71098,0.00039
3959.65081,0.00019
3957.59064,0.00001
3955.53046,0.00000
3953.47029,0.00033
3951.41012,0.00095
3949.34995,0.00156
3947.28978,0.00187
3945.22960,0.00178
3943.16943,0.00137
3941.10926,0.00081
3939.04909,0.00030
3936.98892,0.00000
3934.92874,0.00001
3932.86857,0.00030
3930.80840,0.00062
3928.74823,0.00080
3926.68805,0.00089
3924.62788,0.00096
3922.56771,0.00091
3920.50754,0.00072
3918.44737,0.00052
3916.38719,0.00053
3914.32702,0.00077
3912.26685,0.00101
3910.20668,0.00110
3908.14651,0.00114
3906.08633,0.00131
3904.02616,0.00170
3901.96599,0.00223
3899.90582,0.00262
3897.84565,0.00268
3895.78547,0.00248
3893.72530,0.00223
3891.66513,0.00207
3889.60496,0.00210
3887.54478,0.00234
3885.48461,0.00261
3883.42444,0.00262
3881.36427,0.00221
3879.30410,0.00152
3877.24392,0.00099
3875.18375,0.00099
3873.12358,0.00135
3871.06341,0.00158
3869.00324,0.00148
3866.94306,0.00138
3864.88289,0.00158
3862.82272,0.00189
3860.76255,0.00209
3858.70237,0.00238
3856.64220,0.00293
3854.58203,0.00355
3852.52186,0.00375
3850.46169,0.00332
3848.40151,0.00263
3846.34134,0.00217
3844.28117,0.00211
3842.22100,0.00228
3840.16083,0.00248
3838.10065,0.00260
3836.04048,0.00256
3833.98031,0.00231
3831.92014,0.00193
3829.85997,0.00156
3827.79979,0.00134
3825.73962,0.00127
3823.67945,0.00128
3821.61928,0.00128
3819.55910,0.00114
3817.49893,0.00088
3815.43876,0.00064
3813.37859,0.00056
3811.31842,0.00078
3809.25824,0.00129
3807.19807,0.00193
3805.13790,0.00252
3803.07773,0.00294
3801.01756,0.00295
3798.95738,0.00251
3796.89721,0.00192
3794.83704,0.00152
3792.77687,0.00150
3790.71670,0.00176
3788.65652,0.00195
3786.59635,0.00185
3784.53618,0.00147
3782.47601,0.00104
3780.41583,0.00087
3778.35566,0.00098
3776.29549,0.00122
3774.23532,0.00156
3772.17515,0.00191
3770.11497,0.00215
3768.05480,0.00227
3765.99463,0.00230
3763.93446,0.00229
3761.87429,0.00227
3759.81411,0.00221
3757.75394,0.00212
3755.69377,0.00215
3753.63360,0.00232
3751.57342,0.00239
3749.51325,0.00217
3747.45308,0.00187
3745.39291,0.00188
3743.33274,0.00230
3741.27256,0.00295
3739.21239,0.00355
3737.15222,0.00385
3735.09205,0.00374
3733.03188,0.00328
3730.97170,0.00272
3728.91153,0.00237
3726.85136,0.00243
3724.79119,0.00279
3722.73102,0.00306
3720.67084,0.00292
3718.61067,0.00250
3716.55050,0.00228
3714.49033,0.00251
3712.43015,0.00296
3710.36998,0.00310
3708.30981,0.00275
3706.24964,0.00223
3704.18947,0.00190
3702.12929,0.00184
3700.06912,0.00194
3698.00895,0.00216
3695.94878,0.00255
3693.88861,0.00293
3691.82843,0.00299
3689.76826,0.00249
3687.70809,0.00161
3685.64792,0.00078
3683.58775,0.00034
3681.52757,0.00049
3679.46740,0.00127
3677.40723,0.00245
3675.34706,0.00363
3673.28688,0.00442
3671.22671,0.00468
3669.16654,0.00441
3667.10637,0.00375
3665.04620,0.00295
3662.98602,0.00233
3660.92585,0.00209
3658.86568,0.00222
3656.80551,0.00254
3654.74534,0.00285
3652.68516,0.00309
3650.62499,0.00329
3648.56482,0.00342
3646.50465,0.00349
3644.44447,0.00355
3642.38430,0.00360
3640.32413,0.00362
3638.26396,0.00367
3636.20379,0.00390
3634.14361,0.00439
3632.08344,0.00507
3630.02327,0.00579
3627.96310,0.00618
3625.90293,0.00596
3623.84275,0.00536
3621.78258,0.00493
3619.72241,0.00500
3617.66224,0.00526
3615.60207,0.00527
3613.54189,0.00497
3611.48172,0.00459
3609.42155,0.00440
3607.36138,0.00448
3605.30120,0.00481
3603.24103,0.00529
3601.18086,0.00575
3599.12069,0.00606
3597.06052,0.00625
3595.00034,0.00641
3592.94017,0.00652
3590.88000,0.00660
3588.81983,0.00673
3586.75966,0.00691
3584.69948,0.00711
3582.63931,0.00731
3580.57914,0.00747
3578.51897,0.00748
3576.45879,0.00736
3574.39862,0.00721
3572.33845,0.00706
3570.27828,0.00698
3568.21811,0.00711
3566.15793,0.00748
3564.09776,0.00799
3562.03759,0.00856
3559.97742,0.00903
3557.91725,0.00922
3555.85707,0.00913
3553.79690,0.00899
3551.73673,0.00900
3549.67656,0.00927
3547.61639,0.00966
3545.55621,0.00993
3543.49604,0.00999
3541.43587,0.00998
3539.37570,0.01007
3537.31552,0.01024
3535.25535,0.01043
3533.19518,0.01065
3531.13501,0.01098
3529.07484,0.01136
3527.01466,0.01164
3524.95449,0.01172
3522.89432,0.01167
3520.83415,0.01165
3518.77398,0.01176
3516.71380,0.01199
3514.65363,0.01220
3512.59346,0.01235
3510.53329,0.01247
3508.47312,0.01268
3506.41294,0.01305
3504.35277,0.01349
3502.29260,0.01382
3500.23243,0.01392
3498.17225,0.01380
3496.11208,0.01361
3494.05191,0.01355
3491.99174,0.01369
3489.93157,0.01393
3487.87139,0.01412
3485.81122,0.01422
3483.75105,0.01436
3481.69088,0.01464
3479.63071,0.01500
3477.57053,0.01522
3475.51036,0.01527
3473.45019,0.01523
3471.39002,0.01524
3469.32984,0.01539
3467.26967,0.01567
3465.20950,0.01598
3463.14933,0.01619
3461.08916,0.01633
3459.02898,0.01646
3456.96881,0.01660
3454.90864,0.01669
3452.84847,0.01674
3450.78830,0.01680
3448.72812,0.01690
3446.66795,0.01701
3444.60778,0.01712
3442.54761,0.01729
3440.48744,0.01749
3438.42726,0.01769
3436.36709,0.01781
3434.30692,0.01777
3432.24675,0.01764
3430.18657,0.01756
3428.12640,0.01763
3426.06623,0.01782
3424.00606,0.01806
3421.94589,0.01827
3419.88571,0.01844
3417.82554,0.01864
3415.76537,0.01890
3413.70520,0.01919
3411.64503,0.01946
3409.58485,0.01970
3407.52468,0.01981
3405.46451,0.01977
3403.40434,0.01962
3401.34416,0.01952
3399.28399,0.01953
3397.22382,0.01959
3395.16365,0.01961
3393.10348,0.01955
3391.04330,0.01948
3388.98313,0.01948
3386.92296,0.01965
3384.86279,0.01994
3382.80262,0.02022
3380.74244,0.02044
3378.68227,0.02061
3376.62210,0.02081
3374.56193,0.02099
3372.50176,0.02106
3370.44158,0.02101
3368.38141,0.02088
3366.32124,0.02081
3364.26107,0.02087
3362.20089,0.02106
3360.14072,0.02130
3358.08055,0.02149
3356.02038,0.02156
3353.96021,0.02157
3351.90003,0.02162
3349.83986,0.02174
3347.77969,0.02191
3345.71952,0.02212
3343.65935,0.02234
3341.59917,0.02242
3339.53900,0.02232
3337.47883,0.02219
3335.41866,0.02220
3333.35849,0.02235
3331.29831,0.02250
3329.23814,0.02254
3327.17797,0.02243
3325.11780,0.02224
3323.05762,0.02206
3320.99745,0.02200
3318.93728,0.02210
3316.87711,0.02224
3314.81694,0.02237
3312.75676,0.02251
3310.69659,0.02268
3308.63642,0.02280
3306.57625,0.02287
3304.51608,0.02290
3302.45590,0.02284
3300.39573,0.02266
3298.33556,0.02246
3296.27539,0.02235
3294.21521,0.02234
3292.15504,0.02241
3290.09487,0.02249
3288.03470,0.02252
3285.97453,0.02245
3283.91435,0.02230
3281.85418,0.02220
3279.79401,0.02224
3277.73384,0.02243
3275.67367,0.02271
3273.61349,0.02294
3271.55332,0.02305
3269.49315,0.02305
3267.43298,0.02295
3265.37281,0.02279
3263.31263,0.02264
3261.25246,0.02257
3259.19229,0.02253
3257.13212,0.02244
3255.07194,0.02233
3253.01177,0.02227
3250.95160,0.02227
3248.89143,0.02226
3246.83126,0.02219
3244.77108,0.02205
3242.71091,0.02194
3240.65074,0.02195
3238.59057,0.02209
3236.53040,0.02224
3234.47022,0.02229
3232.41005,0.02223
3230.34988,0.02210
3228.28971,0.02195
3226.22954,0.02185
3224.16936,0.02183
3222.10919,0.02181
3220.04902,0.02168
3217.98885,0.02146
3215.92867,0.02124
3213.86850,0.02109
3211.80833,0.02098
3209.74816,0.02085
3207.68799,0.02063
3205.62781,0.02038
3203.56764,0.02023
3201.50747,0.02018
3199.44730,0.02014
3197.38713,0.02003
3195.32695,0.01992
3193.26678,0.01991
3191.20661,0.02008
3189.14644,0.02029
3187.08626,0.02034
3185.02609,0.02014
3182.96592,0.01979
3180.90575,0.01947
3178.84558,0.01929
3176.78540,0.01915
3174.72523,0.01895
3172.66506,0.01869
3170.60489,0.01841
3168.54472,0.01811
3166.48454,0.01781
3164.42437,0.01760
3162.36420,0.01754
3160.30403,0.01759
3158.24386,0.01766
3156.18368,0.01767
3154.12351,0.01756
3152.06334,0.01725
3150.00317,0.01681
3147.94299,0.01640
3145.88282,0.01622
3143.82265,0.01632
3141.76248,0.01657
3139.70231,0.01674
3137.64213,0.01671
3135.58196,0.01650
3133.52179,0.01621
3131.46162,0.01598
3129.40145,0.01588
3127.34127,0.01588
3125.28110,0.01588
3123.22093,0.01581
3121.16076,0.01566
3119.10058,0.01540
3117.04041,0.01507
3114.98024,0.01475
3112.92007,0.01449
3110.85990,0.01429
3108.79972,0.01418
3106.73955,0.01415
3104.67938,0.01411
3102.61921,0.01398
3100.55904,0.01371
3098.49886,0.01339
3096.43869,0.01316
3094.37852,0.01309
3092.31835,0.01314
3090.25818,0.01319
3088.19800,0.01311
3086.13783,0.01294
3084.07766,0.01273
3082.01749,0.01255
3079.95731,0.01240
3077.89714,0.01228
3075.83697,0.01220
3073.77680,0.01213
3071.71663,0.01205
3069.65645,0.01198
3067.59628,0.01189
3065.53611,0.01175
3063.47594,0.01153
3061.41577,0.01129
3059.35559,0.01112
3057.29542,0.01102
3055.23525,0.01091
3053.17508,0.01076
3051.11491,0.01064
3049.05473,0.01060
3046.99456,0.01060
3044.93439,0.01057
3042.87422,0.01049
3040.81404,0.01038
3038.75387,0.01029
3036.69370,0.01018
3034.63353,0.01002
3032.57336,0.00987
3030.51318,0.00985
3028.45301,0.00999
3026.39284,0.01013
3024.33267,0.01011
3022.27250,0.00986
3020.21232,0.00948
3018.15215,0.00918
3016.09198,0.00912
3014.03181,0.00925
3011.97163,0.00940
3009.91146,0.00943
3007.85129,0.00929
3005.79112,0.00905
3003.73095,0.00883
3001.67077,0.00873
2999.61060,0.00885
2997.55043,0.00921
2995.49026,0.00951
2993.43009,0.00938
2991.36991,0.00897
2989.30974,0.00867
2987.24957,0.00873
2985.18940,0.00912
2983.12923,0.00960
2981.06905,0.00988
2979.00888,0.00988
2976.94871,0.00974
2974.88854,0.00968
2972.82836,0.00985
2970.76819,0.01007
2968.70802,0.01012
2966.64785,0.01015
2964.58768,0.01040
2962.52750,0.01080
2960.46733,0.01109
2958.40716,0.01115
2956.34699,0.01109
2954.28682,0.01111
2952.22664,0.01129
2950.16647,0.01153
2948.10630,0.01174
2946.04613,0.01193
2943.98596,0.01211
2941.92578,0.01229
2939.86561,0.01248
2937.80544,0.01263
2935.74527,0.01262
2933.68509,0.01243
2931.62492,0.01225
2929.56475,0.01226
2927.50458,0.01237
2925.44441,0.01242
2923.38423,0.01249
2921.32406,0.01266
2919.26389,0.01269
2917.20372,0.01244
2915.14355,0.01217
2913.08337,0.01212
2911.02320,0.01224
2908.96303,0.01236
2906.90286,0.01231
2904.84268,0.01209
2902.78251,0.01187
2900.72234,0.01175
2898.66217,0.01176
2896.60200,0.01178
2894.54182,0.01173
2892.48165,0.01164
2890.42148,0.01152
2888.36131,0.01135
2886.30114,0.01125
2884.24096,0.01138
2882.18079,0.01155
2880.12062,0.01152
2878.06045,0.01133
2876.00028,0.01117
2873.94010,0.01105
2871.87993,0.01087
2869.81976,0.01067
2867.75959,0.01061
2865.69941,0.01074
2863.63924,0.01078
2861.57907,0.01046
2859.51890,0.00994
2857.45873,0.00952
2855.39855,0.00930
2853.33838,0.00930
2851.27821,0.00938
2849.21804,0.00936
2847.15787,0.00925
2845.09769,0.00924
2843.03752,0.00933
2840.97735,0.00933
2838.91718,0.00917
2836.85700,0.00907
2834.79683,0.00918
2832.73666,0.00934
2830.67649,0.00920
2828.61632,0.00873
2826.55614,0.00834
2824.49597,0.00830
2822.43580,0.00840
2820.37563,0.00834
2818.31546,0.00819
2816.25528,0.00814
2814.19511,0.00812
2812.13494,0.00806
2810.07477,0.00805
2808.01460,0.00816
2805.95442,0.00836
2803.89425,0.00862
2801.83408,0.00877
2799.77391,0.00861
2797.71373,0.00828
2795.65356,0.00797
2793.59339,0.00787
2791.53322,0.00801
2789.47305,0.00818
2787.41287,0.00823
2785.35270,0.00816
2783.29253,0.00800
2781.23236,0.00786
2779.17219,0.00789
2777.11201,0.00805
2775.05184,0.00812
2772.99167,0.00797
2770.93150,0.00773
2768.87133,0.00761
2766.81115,0.00770
2764.75098,0.00785
2762.69081,0.00792
2760.63064,0.00793
2758.57046,0.00790
2756.51029,0.00792
2754.45012,0.00805
2752.38995,0.00814
2750.32978,0.00805
2748.26960,0.00795
2746.20943,0.00794
2744.14926,0.00796
2742.08909,0.00799
2740.02892,0.00802
2737.96874,0.00792
2735.90857,0.00768
2733.84840,0.00739
2731.78823,0.00705
2729.72805,0.00674
2727.66788,0.00665
2725.60771,0.00678
2723.54754,0.00694
2721.48737,0.00705
2719.42719,0.00719
2717.36702,0.00743
2715.30685,0.00764
2713.24668,0.00771
2711.18651,0.00766
2709.12633,0.00761
2707.06616,0.00748
2705.00599,0.00719
2702.94582,0.00693
2700.88565,0.00687
2698.82547,0.00698
2696.76530,0.00713
2694.70513,0.00728
2692.64496,0.00737
2690.58478,0.00730
2688.52461,0.00715
2686.46444,0.00704
2684.40427,0.00694
2682.34410,0.00684
2680.28392,0.00682
2678.22375,0.00688
2676.16358,0.00694
2674.10341,0.00695
2672.04324,0.00694
2669.98306,0.00688
2667.92289,0.00671
2665.86272,0.00653
2663.80255,0.00660
2661.74238,0.00694
2659.68220,0.00722
2657.62203,0.00720
2655.56186,0.00709
2653.50169,0.00710
2651.44151,0.00713
2649.38134,0.00709
2647.32117,0.00702
2645.26100,0.00696
2643.20083,0.00681
2641.14065,0.00658
2639.08048,0.00642
2637.02031,0.00639
2634.96014,0.00637
2632.89997,0.00635
2630.83979,0.00643
2628.77962,0.00658
2626.71945,0.00658
2624.65928,0.00631
2622.59910,0.00602
2620.53893,0.00607
2618.47876,0.00648
2616.41859,0.00687
2614.35842,0.00681
2612.29824,0.00621
2610.23807,0.00559
2608.17790,0.00560
2606.11773,0.00620
2604.05756,0.00666
2601.99738,0.00657
2599.93721,0.00634
2597.87704,0.00640
2595.81687,0.00653
2593.75670,0.00631
2591.69652,0.00593
2589.63635,0.00591
2587.57618,0.00613
2585.51601,0.00615
2583.45583,0.00602
2581.39566,0.00608
2579.33549,0.00618
2577.27532,0.00601
2575.21515,0.00579
2573.15497,0.00591
2571.09480,0.00628
2569.03463,0.00647
2566.97446,0.00631
2564.91429,0.00597
2562.85411,0.00567
2560.79394,0.00551
2558.73377,0.00544
2556.67360,0.00544
2554.61342,0.00559
2552.55325,0.00586
2550.49308,0.00607
2548.43291,0.00607
2546.37274,0.00591
2544.31256,0.00576
2542.25239,0.00563
2540.19222,0.00546
2538.13205,0.00534
2536.07188,0.00548
2534.01170,0.00599
2531.95153,0.00655
2529.89136,0.00664
2527.83119,0.00609
2525.77102,0.00545
2523.71084,0.00521
2521.65067,0.00508
2519.59050,0.00486
2517.53033,0.00496
2515.47015,0.00553
2513.40998,0.00607
2511.34981,0.00617
2509.28964,0.00596
2507.22947,0.00587
2505.16929,0.00602
2503.10912,0.00606
2501.04895,0.00583
2498.98878,0.00559
2496.92861,0.00545
2494.86843,0.00522
2492.80826,0.00511
2490.74809,0.00532
2488.68792,0.00578
2486.62775,0.00632
2484.56757,0.00658
2482.50740,0.00622
2480.44723,0.00560
2478.38706,0.00542
2476.32688,0.00575
2474.26671,0.00603
2472.20654,0.00605
2470.14637,0.00616
2468.08620,0.00644
2466.02602,0.00635
2463.96585,0.00574
2461.90568,0.00513
2459.84551,0.00488
2457.78534,0.00499
2455.72516,0.00530
2453.66499,0.00548
2451.60482,0.00545
2449.54465,0.00553
2447.48447,0.00575
2445.42430,0.00594
2443.36413,0.00610
2441.30396,0.00611
2439.24379,0.00581
2437.18361,0.00552
2435.12344,0.00567
2433.06327,0.00609
2431.00310,0.00626
2428.94293,0.00605
2426.88275,0.00562
2424.82258,0.00521
2422.76241,0.00499
2420.70224,0.00509
2418.64207,0.00553
2416.58189,0.00601
2414.52172,0.00617
2412.46155,0.00601
2410.40138,0.00573
2408.34120,0.00548
2406.28103,0.00548
2404.22086,0.00579
2402.16069,0.00604
2400.10052,0.00586
2398.04034,0.00539
2395.98017,0.00491
2393.92000,0.00461
2391.85983,0.00459
2389.79966,0.00475
2387.73948,0.00488
2385.67931,0.00491
2383.61914,0.00492
2381.55897,0.00502
2379.49880,0.00511
2377.43862,0.00500
2375.37845,0.00468
2373.31828,0.00437
2371.25811,0.00414
2369.19793,0.00394
2367.13776,0.00409
2365.07759,0.00495
2363.01742,0.00615
2360.95725,0.00668
2358.89707,0.00606
2356.83690,0.00504
2354.77673,0.00464
2352.71656,0.00495
2350.65639,0.00540
2348.59621,0.00551
2346.53604,0.00534
2344.47587,0.00534
2342.41570,0.00560
2340.35552,0.00583
2338.29535,0.00596
2336.23518,0.00620
2334.17501,0.00669
2332.11484,0.00722
2330.05466,0.00745
2327.99449,0.00712
2325.93432,0.00626
2323.87415,0.00517
2321.81398,0.00432
2319.75380,0.00401
2317.69363,0.00432
2315.63346,0.00498
2313.57329,0.00560
2311.51312,0.00596
2309.45294,0.00613
2307.39277,0.00614
2305.33260,0.00590
2303.27243,0.00544
2301.21225,0.00504
2299.15208,0.00499
2297.09191,0.00528
2295.03174,0.00570
2292.97157,0.00602
2290.91139,0.00616
2288.85122,0.00619
2286.79105,0.00617
2284.73088,0.00614
2282.67071,0.00617
2280.61053,0.00623
2278.55036,0.00621
2276.49019,0.00600
2274.43002,0.00559
2272.36984,0.00512
2270.30967,0.00479
2268.24950,0.00464
2266.18933,0.00464
2264.12916,0.00490
2262.06898,0.00542
2260.00881,0.00591
2257.94864,0.00600
2255.88847,0.00568
2253.82830,0.00536
2251.76812,0.00544
2249.70795,0.00591
2247.64778,0.00630
2245.58761,0.00601
2243.52744,0.00543
2241.46726,0.00532
2239.40709,0.00534
2237.34692,0.00496
2235.28675,0.00485
2233.22657,0.00552
2231.16640,0.00622
2229.10623,0.00601
2227.04606,0.00484
2224.98589,0.00358
2222.92571,0.00293
2220.86554,0.00286
2218.80537,0.00363
2216.74520,0.00521
2214.68503,0.00630
2212.62485,0.00638
2210.56468,0.00661
2208.50451,0.00729
2206.44434,0.00779
2204.38417,0.00799
2202.32399,0.00778
2200.26382,0.00696
2198.20365,0.00620
2196.14348,0.00574
2194.08330,0.00484
2192.02313,0.00361
2189.96296,0.00330
2187.90279,0.00433
2185.84262,0.00573
2183.78244,0.00647
2181.72227,0.00649
2179.66210,0.00623
2177.60193,0.00597
2175.54176,0.00588
2173.48158,0.00594
2171.42141,0.00587
2169.36124,0.00555
2167.30107,0.00502
2165.24089,0.00400
2163.18072,0.00239
2161.12055,0.00081
2159.06038,0.00000
2157.00021,0.00029
2154.94003,0.00142
2152.87986,0.00292
2150.81969,0.00453
2148.75952,0.00566
2146.69935,0.00571
2144.63917,0.00474
2142.57900,0.00354
2140.51883,0.00315
2138.45866,0.00387
2136.39849,0.00469
2134.33831,0.00478
2132.27814,0.00461
2130.21797,0.00470
2128.15780,0.00509
2126.09762,0.00569
2124.03745,0.00595
2121.97728,0.00525
2119.91711,0.00410
2117.85694,0.00357
2115.79676,0.00399
2113.73659,0.00505
2111.67642,0.00601
2109.61625,0.00645
2107.55608,0.00675
2105.49590,0.00707
2103.43573,0.00688
2101.37556,0.00615
2099.31539,0.00523
2097.25521,0.00414
2095.19504,0.00308
2093.13487,0.00254
2091.07470,0.00275
2089.01453,0.00333
2086.95435,0.00376
2084.89418,0.00392
2082.83401,0.00412
2080.77384,0.00457
2078.71367,0.00508
2076.65349,0.00533
2074.59332,0.00539
2072.53315,0.00546
2070.47298,0.00535
2068.41281,0.00480
2066.35263,0.00400
2064.29246,0.00343
2062.23229,0.00334
2060.17212,0.00360
2058.11194,0.00403
2056.05177,0.00450
2053.99160,0.00490
2051.93143,0.00523
2049.87126,0.00546
2047.81108,0.00541
2045.75091,0.00499
2043.69074,0.00437
2041.63057,0.00385
2039.57040,0.00347
2037.51022,0.00314
2035.45005,0.00293
2033.38988,0.00301
2031.32971,0.00332
2029.26954,0.00351
2027.20936,0.00336
2025.14919,0.00289
2023.08902,0.00243
2021.02885,0.00243
2018.96867,0.00307
2016.90850,0.00411
2014.84833,0.00495
2012.78816,0.00499
2010.72799,0.00409
2008.66781,0.00276
2006.60764,0.00178
2004.54747,0.00159
2002.48730,0.00196
2000.42713,0.00230
1998.36695,0.00235
1996.30678,0.00222
1994.24661,0.00202
1992.18644,0.00176
1990.12626,0.00156
1988.06609,0.00160
1986.00592,0.00195
1983.94575,0.00255
1981.88558,0.00314
1979.82540,0.00335
1977.76523,0.00290
1975.70506,0.00202
1973.64489,0.00133
1971.58472,0.00107
1969.52454,0.00103
1967.46437,0.00110
1965.40420,0.00117
1963.34403,0.00112
1961.28386,0.00111
1959.22368,0.00139
1957.16351,0.00199
1955.10334,0.00272
1953.04317,0.00339
1950.98299,0.00379
1948.92282,0.00381
1946.86265,0.00346
1944.80248,0.00290
1942.74231,0.00222
1940.68213,0.00135
1938.62196,0.00046
1936.56179,0.00003
1934.50162,0.00048
1932.44145,0.00162
1930.38127,0.00270
1928.32110,0.00303
1926.26093,0.00256
1924.20076,0.00176
1922.14059,0.00117
1920.08041,0.00106
1918.02024,0.00136
1915.96007,0.00180
1913.89990,0.00216
1911.83972,0.00233
1909.77955,0.00227
1907.71938,0.00208
1905.65921,0.00184
1903.59904,0.00165
1901.53886,0.00163
1899.47869,0.00177
1897.41852,0.00190
1895.35835,0.00191
1893.29818,0.00188
1891.23800,0.00193
1889.17783,0.00194
1887.11766,0.00176
1885.05749,0.00153
1882.99731,0.00151
1880.93714,0.00169
1878.87697,0.00186
1876.81680,0.00185
1874.75663,0.00178
1872.69645,0.00177
1870.63628,0.00183
1868.57611,0.00179
1866.51594,0.00161
1864.45577,0.00149
1862.39559,0.00160
1860.33542,0.00183
1858.27525,0.00198
1856.21508,0.00192
1854.15491,0.00171
1852.09473,0.00151
1850.03456,0.00139
1847.97439,0.00133
1845.91422,0.00134
1843.85404,0.00145
1841.79387,0.00165
1839.73370,0.00186
1837.67353,0.00196
1835.61336,0.00187
1833.55318,0.00168
1831.49301,0.00153
1829.43284,0.00153
1827.37267,0.00163
1825.31250,0.00174
1823.25232,0.00177
1821.19215,0.00176
1819.13198,0.00176
1817.07181,0.00176
1815.01163,0.00177
1812.95146,0.00184
1810.89129,0.00190
1808.83112,0.00183
1806.77095,0.00159
1804.71077,0.00132
1802.65060,0.00117
1800.59043,0.00119
1798.53026,0.00131
1796.47009,0.00146
1794.40991,0.00154
1792.34974,0.00150
1790.28957,0.00130
1788.22940,0.00108
1786.16923,0.00094
1784.10905,0.00090
1782.04888,0.00084
1779.98871,0.00072
1777.92854,0.00068
1775.86836,0.00087
1773.80819,0.00126
1771.74802,0.00165
1769.68785,0.00186
1767.62768,0.00194
1765.56750,0.00207
1763.50733,0.00233
1761.44716,0.00260
1759.38699,0.00273
1757.32682,0.00281
1755.26664,0.00295
1753.20647,0.00330
1751.14630,0.00386
1749.08613,0.00445
1747.02596,0.00488
1744.96578,0.00511
1742.90561,0.00522
1740.84544,0.00532
1738.78527,0.00549
1736.72509,0.00581
1734.66492,0.00616
1732.60475,0.00621
1730.54458,0.00584
1728.48441,0.00528
1726.42423,0.00483
1724.36406,0.00464
1722.30389,0.00472
1720.24372,0.00499
1718.18355,0.00529
1716.12337,0.00529
1714.06320,0.00486
1712.00303,0.00423
1709.94286,0.00375
1707.88268,0.00359
1705.82251,0.00372
1703.76234,0.00407
1701.70217,0.00460
1699.64200,0.00500
1697.58182,0.00490
1695.52165,0.00432
1693.46148,0.00363
1691.40131,0.00327
1689.34114,0.00334
1687.28096,0.00372
1685.22079,0.00427
1683.16062,0.00478
1681.10045,0.00508
1679.04028,0.00523
1676.98010,0.00542
1674.91993,0.00573
1672.85976,0.00612
1670.79959,0.00643
1668.73941,0.00655
1666.67924,0.00653
1664.61907,0.00666
1662.55890,0.00702
1660.49873,0.00747
1658.43855,0.00794
1656.37838,0.00846
1654.31821,0.00899
1652.25804,0.00942
1650.19787,0.00976
1648.13769,0.01006
1646.07752,0.01015
1644.01735,0.01002
1641.95718,0.00999
1639.89701,0.01019
1637.83683,0.01045
1635.77666,0.01046
1633.71649,0.01013
1631.65632,0.00972
1629.59614,0.00955
1627.53597,0.00971
1625.47580,0.01011
1623.41563,0.01055
1621.35546,0.01091
1619.29528,0.01115
1617.23511,0.01125
1615.17494,0.01110
1613.11477,0.01076
1611.05460,0.01041
1608.99442,0.01007
1606.93425,0.00968
1604.87408,0.00924
1602.81391,0.00883
1600.75373,0.00843
1598.69356,0.00803
1596.63339,0.00759
1594.57322,0.00702
1592.51305,0.00629
1590.45287,0.00551
1588.39270,0.00482
1586.33253,0.00431
1584.27236,0.00396
1582.21219,0.00373
1580.15201,0.00360
1578.09184,0.00353
1576.03167,0.00338
1573.97150,0.00311
1571.91133,0.00284
1569.85115,0.00266
1567.79098,0.00252
1565.73081,0.00248
1563.67064,0.00261
1561.61046,0.00286
1559.55029,0.00297
1557.49012,0.00267
1555.42995,0.00211
1553.36978,0.00160
1551.30960,0.00126
1549.24943,0.00114
1547.18926,0.00131
1545.12909,0.00184
1543.06892,0.00252
1541.00874,0.00289
1538.94857,0.00264
1536.88840,0.00201
1534.82823,0.00148
1532.76805,0.00121
1530.70788,0.00113
1528.64771,0.00128
1526.58754,0.00161
1524.52737,0.00194
1522.46719,0.00215
1520.40702,0.00214
1518.34685,0.00192
1516.28668,0.00162
1514.22651,0.00138
1512.16633,0.00142
1510.10616,0.00172
1508.04599,0.00197
1505.98582,0.00181
1503.92565,0.00133
1501.86547,0.00095
1499.80530,0.00089
1497.74513,0.00106
1495.68496,0.00121
1493.62478,0.00131
1491.56461,0.00149
1489.50444,0.00169
1487.44427,0.00172
1485.38410,0.00153
1483.32392,0.00135
1481.26375,0.00139
1479.20358,0.00174
1477.14341,0.00234
1475.08324,0.00302
1473.02306,0.00346
1470.96289,0.00355
1468.90272,0.00356
1466.84255,0.00378
1464.78238,0.00426
1462.72220,0.00486
1460.66203,0.00555
1458.60186,0.00619
1456.54169,0.00650
1454.48151,0.00635
1452.42134,0.00607
1450.36117,0.00590
1448.30100,0.00586
1446.24083,0.00584
1444.18065,0.00587
1442.12048,0.00607
1440.06031,0.00646
1438.00014,0.00695
1435.93997,0.00738
1433.87979,0.00767
1431.81962,0.00794
1429.75945,0.00819
1427.69928,0.00833
1425.63910,0.00840
1423.57893,0.00857
1421.51876,0.00894
1419.45859,0.00936
1417.39842,0.00957
1415.33824,0.00954
1413.27807,0.00945
1411.21790,0.00940
1409.15773,0.00932
1407.09756,0.00910
1405.03738,0.00876
1402.97721,0.00841
1400.91704,0.00826
1398.85687,0.00832
1396.79670,0.00841
1394.73652,0.00838
1392.67635,0.00821
1390.61618,0.00802
1388.55601,0.00795
1386.49583,0.00797
1384.43566,0.00800
1382.37549,0.00808
1380.31532,0.00825
1378.25515,0.00848
1376.19497,0.00869
1374.13480,0.00881
1372.07463,0.00882
1370.01446,0.00875
1367.95429,0.00866
1365.89411,0.00861
1363.83394,0.00859
1361.77377,0.00851
1359.71360,0.00831
1357.65343,0.00807
1355.59325,0.00784
1353.53308,0.00760
1351.47291,0.00735
1349.41274,0.00715
1347.35256,0.00703
1345.29239,0.00703
1343.23222,0.00710
1341.17205,0.00720
1339.11188,0.00720
1337.05170,0.00703
1334.99153,0.00678
1332.93136,0.00657
1330.87119,0.00644
1328.81102,0.00639
1326.75084,0.00644
1324.69067,0.00659
1322.63050,0.00676
1320.57033,0.00693
1318.51015,0.00710
1316.44998,0.00727
1314.38981,0.00741
1312.32964,0.00748
1310.26947,0.00746
1308.20929,0.00737
1306.14912,0.00718
1304.08895,0.00691
1302.02878,0.00662
1299.96861,0.00641
1297.90843,0.00627
1295.84826,0.00614
1293.78809,0.00598
1291.72792,0.00584
1289.66775,0.00575
1287.60757,0.00571
1285.54740,0.00569
1283.48723,0.00570
1281.42706,0.00576
1279.36688,0.00584
1277.30671,0.00594
1275.24654,0.00608
1273.18637,0.00628
1271.12620,0.00652
1269.06602,0.00672
1267.00585,0.00687
1264.94568,0.00700
1262.88551,0.00721
1260.82534,0.00755
1258.76516,0.00798
1256.70499,0.00844
1254.64482,0.00885
1252.58465,0.00914
1250.52447,0.00926
1248.46430,0.00929
1246.40413,0.00933
1244.34396,0.00936
1242.28379,0.00927
1240.22361,0.00904
1238.16344,0.00871
1236.10327,0.00836
1234.04310,0.00803
1231.98293,0.00773
1229.92275,0.00746
1227.86258,0.00722
1225.80241,0.00703
1223.74224,0.00685
1221.68207,0.00657
1219.62189,0.00615
1217.56172,0.00562
1215.50155,0.00509
1213.44138,0.00460
1211.38120,0.00414
1209.32103,0.00369
1207.26086,0.00325
1205.20069,0.00282
1203.14052,0.00236
1201.08034,0.00185
1199.02017,0.00133
1196.96000,0.00089
1194.89983,0.00057
1192.83966,0.00030
1190.77948,0.00010
1188.71931,0.00000
1186.65914,-0.00002
1184.59897,0.00012
1182.53880,0.00048
1180.47862,0.00095
1178.41845,0.00137
1176.35828,0.00176
1174.29811,0.00213
1172.23793,0.00259
1170.17776,0.00326
1168.11759,0.00404
1166.05742,0.00470
1163.99725,0.00522
1161.93707,0.00577
1159.87690,0.00637
1157.81673,0.00699
1155.75656,0.00762
1153.69639,0.00817
1151.63621,0.00864
1149.57604,0.00911
1147.51587,0.00949
1145.45570,0.00960
1143.39552,0.00963
1141.33535,0.00985
1139.27518,0.01016
1137.21501,0.01037
1135.15484,0.01053
1133.09466,0.01074
1131.03449,0.01113
1128.97432,0.01173
1126.91415,0.01236
1124.85398,0.01291
1122.79380,0.01341
1120.73363,0.01394
1118.67346,0.01446
1116.61329,0.01486
1114.55312,0.01525
1112.49294,0.01586
1110.43277,0.01654
1108.37260,0.01705
1106.31243,0.01744
1104.25225,0.01789
1102.19208,0.01848
1100.13191,0.01922
1098.07174,0.02012
1096.01157,0.02113
1093.95139,0.02217
1091.89122,0.02305
1089.83105,0.02362
1087.77088,0.02405
1085.71071,0.02468
1083.65053,0.02553
1081.59036,0.02640
1079.53019,0.02707
1077.47002,0.02756
1075.40985,0.02814
1073.34967,0.02896
1071.28950,0.02977
1069.22933,0.03033
1067.16916,0.03064
1065.10898,0.03084
1063.04881,0.03107
1060.98864,0.03137
1058.92847,0.03178
1056.86830,0.03230
1054.80812,0.03277
1052.74795,0.03317
1050.68778,0.03356
1048.62761,0.03400
1046.56744,0.03453
1044.50726,0.03510
1042.44709,0.03565
1040.38692,0.03609
1038.32675,0.03634
1036.26657,0.03653
1034.20640,0.03681
1032.14623,0.03715
1030.08606,0.03740
1028.02589,0.03749
1025.96571,0.03735
1023.90554,0.03710
1021.84537,0.03704
1019.78520,0.03719
1017.72503,0.03729
1015.66485,0.03721
1013.60468,0.03716
1011.54451,0.03726
1009.48434,0.03735
1007.42417,0.03725
1005.36399,0.03690
1003.30382,0.03632
1001.24365,0.03574
999.18348,0.03531
997.12330,0.03501
995.06313,0.03480
993.00296,0.03455
990.94279,0.03408
988.88262,0.03351
986.82244,0.03297
984.76227,0.03247
982.70210,0.03200
980.64193,0.03157
978.58176,0.03124
976.52158,0.03101
974.46141,0.03070
972.40124,0.03004
970.34107,0.02922
968.28089,0.02875
966.22072,0.02880
964.16055,0.02896
962.10038,0.02871
960.04021,0.02801
957.98003,0.02726
955.91986,0.02680
953.85969,0.02661
951.79952,0.02645
949.73935,0.02609
947.67917,0.02537
945.61900,0.02423
943.55883,0.02281
941.49866,0.02132
939.43849,0.02001
937.37831,0.01892
935.31814,0.01780
933.25797,0.01650
931.19780,0.01518
929.13762,0.01411
927.07745,0.01324
925.01728,0.01243
922.95711,0.01168
920.89694,0.01099
918.83676,0.01030
916.77659,0.00965
914.71642,0.00903
912.65625,0.00836
910.59608,0.00760
908.53590,0.00687
906.47573,0.00645
904.41556,0.00649
902.35539,0.00678
900.29522,0.00695
898.23504,0.00678
896.17487,0.00633
894.11470,0.00602
892.05453,0.00619
889.99435,0.00656
887.93418,0.00656
885.87401,0.00612
883.81384,0.00574
881.75367,0.00552
879.69349,0.00511
877.63332,0.00449
875.57315,0.00389
873.51298,0.00355
871.45281,0.00372
869.39263,0.00427
867.33246,0.00463
865.27229,0.00446
863.21212,0.00401
861.15194,0.00369
859.09177,0.00363
857.03160,0.00360
854.97143,0.00323
852.91126,0.00265
850.85108,0.00245
848.79091,0.00257
846.73074,0.00241
844.67057,0.00185
842.61040,0.00119
840.55022,0.00076
838.49005,0.00065
836.42988,0.00045
834.36971,0.00008
832.30954,0.00000
830.24936,0.00047
828.18919,0.00122
826.12902,0.00173
824.06885,0.00176
822.00867,0.00130
819.94850,0.00069
817.88833,0.00057
815.82816,0.00110
813.76799,0.00170
811.70781,0.00187
809.64764,0.00204
807.58747,0.00271
805.52730,0.00326
803.46713,0.00286
801.40695,0.00190
799.34678,0.00132
797.28661,0.00117
795.22644,0.00093
793.16627,0.00062
791.10609,0.00067
789.04592,0.00106
786.98575,0.00131
784.92558,0.00113
782.86540,0.00076
780.80523,0.00067
778.74506,0.00077
776.68489,0.00077
774.62472,0.00099
772.56454,0.00143
770.50437,0.00139
768.44420,0.00067
766.38403,-0.00004
764.32386,-0.00025
762.26368,0.00000
760.20351,0.00060
758.14334,0.00117
756.08317,0.00134
754.02299,0.00121
751.96282,0.00111
749.90265,0.00118
747.84248,0.00128
745.78231,0.00124
743.72213,0.00105
741.66196,0.00092
739.60179,0.00119
737.54162,0.00191
735.48145,0.00245
733.42127,0.00235
731.36110,0.00201
729.30093,0.00179
727.24076,0.00158
725.18059,0.00141
723.12041,0.00130
721.06024,0.00129
719.00007,0.00143
716.93990,0.00179
714.87972,0.00238
712.81955,0.00305
710.75938,0.00339
708.69921,0.00309
706.63904,0.00248
704.57886,0.00225
702.51869,0.00277
700.45852,0.00381
698.39835,0.00491
696.33818,0.00574
694.27800,0.00612
692.21783,0.00592
690.15766,0.00520
688.09749,0.00432
686.03731,0.00366
683.97714,0.00331
681.91697,0.00324
679.85680,0.00341
677.79663,0.00375
675.73645,0.00405
673.67628,0.00425
671.61611,0.00453
669.55594,0.00479
667.49577,0.00457
665.43559,0.00388
663.37542,0.00347
661.31525,0.00391
659.25508,0.00501
657.19491,0.00611
655.13473,0.00684
653.07456,0.00711
651.01439,0.00674
648.95422,0.00562
646.89404,0.00423
644.83387,0.00319
642.77370,0.00266
640.71353,0.00258
638.65336,0.00283
636.59318,0.00301
634.53301,0.00249
632.47284,0.00116
630.41267,0.00000
628.35250,0.00019
626.29232,0.00315
624.23215,0.00641
622.17198,0.00762
620.11181,0.00674
618.05164,0.00468
615.99146,0.00321
613.93129,0.00370
611.87112,0.00550
609.81095,0.00646
607.75077,0.00509
605.69060,0.00267
603.63043,0.00134
601.57026,0.00093
599.51009,0.00000
