3996.73391,0.00004
3994.67373,-0.00001
3992.61356,-0.00001
3990.55339,0.00009
3988.49322,0.00026
3986.43305,0.00032
3984.37287,0.00011
3982.31270,-0.00013
3980.25253,-0.00005
3978.19236,0.00035
3976.13219,0.00059
3974.07201,0.00045
3972.01184,0.00019
3969.95167,0.00004
3967.89150,0.00011
3965.83133,0.00037
3963.77115,0.00054
3961.71098,0.00044
3959.65081,0.00018
3957.59064,-0.00000
3955.53046,0.00000
3953.47029,0.00008
3951.41012,0.00014
3949.34995,0.00017
3947.28978,0.00026
3945.22960,0.00043
3943.16943,0.00047
3941.10926,0.00029
3939.04909,0.00017
3936.98892,0.00034
3934.92874,0.00062
3932.86857,0.00063
3930.80840,0.00037
3928.74823,0.00037
3926.68805,0.00066
3924.62788,0.00074
3922.56771,0.00062
3920.50754,0.00069
3918.44737,0.00082
3916.38719,0.00061
3914.32702,0.00022
3912.26685,0.00000
3910.20668,0.00012
3908.14651,0.00056
3906.08633,0.00085
3904.02616,0.00064
3901.96599,0.00029
3899.90582,0.00012
3897.84565,0.00016
3895.78547,0.00043
3893.72530,0.00062
3891.66513,0.00054
3889.60496,0.00043
3887.54478,0.00049
3885.48461,0.00055
3883.42444,0.00056
3881.36427,0.00039
3879.30410,0.00013
3877.24392,0.00025
3875.18375,0.00065
3873.12358,0.00091
3871.06341,0.00088
3869.00324,0.00073
3866.94306,0.00064
3864.88289,0.00042
3862.82272,0.00014
3860.76255,0.00018
3858.70237,0.00059
3856.64220,0.00119
3854.58203,0.00135
3852.52186,0.00059
3850.46169,0.00005
3848.40151,0.00031
3846.34134,0.00077
3844.28117,0.00092
3842.22100,0.00085
3840.16083,0.00070
3838.10065,0.00030
3836.04048,0.00000
3833.98031,0.00029
3831.92014,0.00080
3829.85997,0.00095
3827.79979,0.00078
3825.73962,0.00065
3823.67945,0.00079
3821.61928,0.00090
3819.55910,0.00069
3817.49893,0.00036
3815.43876,0.00008
3813.37859,0.00023
3811.31842,0.00079
3809.25824,0.00130
3807.19807,0.00140
3805.13790,0.00119
3803.07773,0.00092
3801.01756,0.00049
3798.95738,0.00023
3796.89721,0.00031
3794.83704,0.00056
3792.77687,0.00090
3790.71670,0.00110
3788.65652,0.00109
3786.59635,0.00099
3784.53618,0.00098
3782.47601,0.00113
3780.41583,0.00107
3778.35566,0.00077
3776.29549,0.00076
3774.23532,0.00107
3772.17515,0.00122
3770.11497,0.00101
3768.05480,0.00069
3765.99463,0.00051
3763.93446,0.00046
3761.87429,0.00050
3759.81411,0.00053
3757.75394,0.00059
3755.69377,0.00086
3753.63360,0.00105
3751.57342,0.00069
3749.51325,0.00010
3747.45308,0.00020
3745.39291,0.00065
3743.33274,0.00069
3741.27256,0.00055
3739.21239,0.00067
3737.15222,0.00079
3735.09205,0.00058
3733.03188,0.00033
3730.97170,0.00056
3728.91153,0.00101
3726.85136,0.00120
3724.79119,0.00109
3722.73102,0.00088
3720.67084,0.00084
3718.61067,0.00106
3716.55050,0.00136
3714.49033,0.00143
3712.43015,0.00108
3710.36998,0.00057
3708.30981,0.00057
3706.24964,0.00097
3704.18947,0.00130
3702.12929,0.00147
3700.06912,0.00163
3698.00895,0.00173
3695.94878,0.00172
3693.88861,0.00167
3691.82843,0.00154
3689.76826,0.00121
3687.70809,0.00080
3685.64792,0.00054
3683.58775,0.00057
3681.52757,0.00093
3679.46740,0.00141
3677.40723,0.00156
3675.34706,0.00127
3673.28688,0.00114
3671.22671,0.00125
3669.16654,0.00122
3667.10637,0.00134
3665.04620,0.00179
3662.98602,0.00225
3660.92585,0.00251
3658.86568,0.00256
3656.80551,0.00233
3654.74534,0.00205
3652.68516,0.00217
3650.62499,0.00249
3648.56482,0.00241
3646.50465,0.00213
3644.44447,0.00218
3642.38430,0.00252
3640.32413,0.00285
3638.26396,0.00301
3636.20379,0.00316
3634.14361,0.00347
3632.08344,0.00392
3630.02327,0.00421
3627.96310,0.00415
3625.90293,0.00421
3623.84275,0.00462
3621.78258,0.00497
3619.72241,0.00486
3617.66224,0.00458
3615.60207,0.00477
3613.54189,0.00528
3611.48172,0.00556
3609.42155,0.00552
3607.36138,0.00544
3605.30120,0.00571
3603.24103,0.00614
3601.18086,0.00634
3599.12069,0.00653
3597.06052,0.00684
3595.00034,0.00701
3592.94017,0.00715
3590.88000,0.00748
3588.81983,0.00761
3586.75966,0.00742
3584.69948,0.00765
3582.63931,0.00840
3580.57914,0.00909
3578.51897,0.00940
3576.45879,0.00956
3574.39862,0.00988
3572.33845,0.01028
3570.27828,0.01046
3568.21811,0.01016
3566.15793,0.00966
3564.09776,0.00976
3562.03759,0.01050
3559.97742,0.01117
3557.91725,0.01142
3555.85707,0.01146
3553.79690,0.01159
3551.73673,0.01193
3549.67656,0.01226
3547.61639,0.01241
3545.55621,0.01247
3543.49604,0.01265
3541.43587,0.01299
3539.37570,0.01335
3537.31552,0.01358
3535.25535,0.01372
3533.19518,0.01384
3531.13501,0.01396
3529.07484,0.01407
3527.01466,0.01424
3524.95449,0.01457
3522.89432,0.01501
3520.83415,0.01517
3518.77398,0.01505
3516.71380,0.01511
3514.65363,0.01542
3512.59346,0.01565
3510.53329,0.01588
3508.47312,0.01641
3506.41294,0.01708
3504.35277,0.01754
3502.29260,0.01775
3500.23243,0.01792
3498.17225,0.01801
3496.11208,0.01788
3494.05191,0.01784
3491.99174,0.01816
3489.93157,0.01849
3487.87139,0.01855
3485.81122,0.01862
3483.75105,0.01889
3481.69088,0.01930
3479.63071,0.01974
3477.57053,0.01999
3475.51036,0.02004
3473.45019,0.02017
3471.39002,0.02058
3469.32984,0.02113
3467.26967,0.02142
3465.20950,0.02138
3463.14933,0.02140
3461.08916,0.02171
3459.02898,0.02188
3456.96881,0.02176
3454.90864,0.02189
3452.84847,0.02239
3450.78830,0.02273
3448.72812,0.02277
3446.66795,0.02286
3444.60778,0.02307
3442.54761,0.02316
3440.48744,0.02307
3438.42726,0.02308
3436.36709,0.02332
3434.30692,0.02363
3432.24675,0.02392
3430.18657,0.02415
3428.12640,0.02433
3426.06623,0.02455
3424.00606,0.02479
3421.94589,0.02498
3419.88571,0.02516
3417.82554,0.02520
3415.76537,0.02516
3413.70520,0.02528
3411.64503,0.02550
3409.58485,0.02560
3407.52468,0.02566
3405.46451,0.02579
3403.40434,0.02592
3401.34416,0.02610
3399.28399,0.02634
3397.22382,0.02663
3395.16365,0.02681
3393.10348,0.02665
3391.04330,0.02636
3388.98313,0.02645
3386.92296,0.02686
3384.86279,0.02713
3382.80262,0.02723
3380.74244,0.02736
3378.68227,0.02757
3376.62210,0.02778
3374.56193,0.02788
3372.50176,0.02794
3370.44158,0.02799
3368.38141,0.02792
3366.32124,0.02769
3364.26107,0.02762
3362.20089,0.02786
3360.14072,0.02816
3358.08055,0.02824
3356.02038,0.02823
3353.96021,0.02834
3351.90003,0.02847
3349.83986,0.02848
3347.77969,0.02841
3345.71952,0.02838
3343.65935,0.02846
3341.59917,0.02869
3339.53900,0.02893
3337.47883,0.02896
3335.41866,0.02891
3333.35849,0.02892
3331.29831,0.02892
3329.23814,0.02888
3327.17797,0.02883
3325.11780,0.02879
3323.05762,0.02881
3320.99745,0.02886
3318.93728,0.02888
3316.87711,0.02886
3314.81694,0.02890
3312.75676,0.02894
3310.69659,0.02899
3308.63642,0.02913
3306.57625,0.02923
3304.51608,0.02917
3302.45590,0.02901
3300.39573,0.02892
3298.33556,0.02906
3296.27539,0.02924
3294.21521,0.02934
3292.15504,0.02946
3290.09487,0.02959
3288.03470,0.02957
3285.97453,0.02951
3283.91435,0.02944
3281.85418,0.02923
3279.79401,0.02907
3277.73384,0.02920
3275.67367,0.02934
3273.61349,0.02918
3271.55332,0.02899
3269.49315,0.02894
3267.43298,0.02887
3265.37281,0.02873
3263.31263,0.02869
3261.25246,0.02872
3259.19229,0.02870
3257.13212,0.02870
3255.07194,0.02865
3253.01177,0.02851
3250.95160,0.02847
3248.89143,0.02842
3246.83126,0.02822
3244.77108,0.02806
3242.71091,0.02821
3240.65074,0.02848
3238.59057,0.02842
3236.53040,0.02817
3234.47022,0.02803
3232.41005,0.02788
3230.34988,0.02781
3228.28971,0.02790
3226.22954,0.02792
3224.16936,0.02762
3222.10919,0.02721
3220.04902,0.02712
3217.98885,0.02724
3215.92867,0.02717
3213.86850,0.02694
3211.80833,0.02674
3209.74816,0.02649
3207.68799,0.02632
3205.62781,0.02628
3203.56764,0.02622
3201.50747,0.02602
3199.44730,0.02576
3197.38713,0.02570
3195.32695,0.02586
3193.26678,0.02597
3191.20661,0.02584
3189.14644,0.02555
3187.08626,0.02517
3185.02609,0.02479
3182.96592,0.02450
3180.90575,0.02431
3178.84558,0.02423
3176.78540,0.02415
3174.72523,0.02393
3172.66506,0.02361
3170.60489,0.02343
3168.54472,0.02349
3166.48454,0.02356
3164.42437,0.02338
3162.36420,0.02309
3160.30403,0.02287
3158.24386,0.02260
3156.18368,0.02220
3154.12351,0.02179
3152.06334,0.02149
3150.00317,0.02133
3147.94299,0.02120
3145.88282,0.02106
3143.82265,0.02104
3141.76248,0.02107
3139.70231,0.02090
3137.64213,0.02063
3135.58196,0.02045
3133.52179,0.02032
3131.46162,0.02014
3129.40145,0.01982
3127.34127,0.01947
3125.28110,0.01919
3123.22093,0.01880
3121.16076,0.01840
3119.10058,0.01829
3117.04041,0.01836
3114.98024,0.01838
3112.92007,0.01820
3110.85990,0.01780
3108.79972,0.01739
3106.73955,0.01721
3104.67938,0.01720
3102.61921,0.01707
3100.55904,0.01684
3098.49886,0.01662
3096.43869,0.01635
3094.37852,0.01611
3092.31835,0.01597
3090.25818,0.01586
3088.19800,0.01575
3086.13783,0.01568
3084.07766,0.01553
3082.01749,0.01524
3079.95731,0.01508
3077.89714,0.01512
3075.83697,0.01505
3073.77680,0.01478
3071.71663,0.01449
3069.65645,0.01417
3067.59628,0.01389
3065.53611,0.01380
3063.47594,0.01376
3061.41577,0.01358
3059.35559,0.01331
3057.29542,0.01316
3055.23525,0.01303
3053.17508,0.01281
3051.11491,0.01275
3049.05473,0.01279
3046.99456,0.01269
3044.93439,0.01241
3042.87422,0.01218
3040.81404,0.01209
3038.75387,0.01203
3036.69370,0.01193
3034.63353,0.01182
3032.57336,0.01173
3030.51318,0.01168
3028.45301,0.01160
3026.39284,0.01145
3024.33267,0.01126
3022.27250,0.01113
3020.21232,0.01107
3018.15215,0.01098
3016.09198,0.01087
3014.03181,0.01072
3011.97163,0.01060
3009.91146,0.01049
3007.85129,0.01026
3005.79112,0.01010
3003.73095,0.01017
3001.67077,0.01028
2999.61060,0.01026
2997.55043,0.01018
2995.49026,0.01015
2993.43009,0.01015
2991.36991,0.01013
2989.30974,0.01015
2987.24957,0.01021
2985.18940,0.01025
2983.12923,0.01031
2981.06905,0.01045
2979.00888,0.01067
2976.94871,0.01088
2974.88854,0.01102
2972.82836,0.01106
2970.76819,0.01113
2968.70802,0.01132
2966.64785,0.01162
2964.58768,0.01199
2962.52750,0.01237
2960.46733,0.01263
2958.40716,0.01269
2956.34699,0.01277
2954.28682,0.01302
2952.22664,0.01330
2950.16647,0.01354
2948.10630,0.01379
2946.04613,0.01412
2943.98596,0.01447
2941.92578,0.01478
2939.86561,0.01514
2937.80544,0.01541
2935.74527,0.01540
2933.68509,0.01530
2931.62492,0.01530
2929.56475,0.01540
2927.50458,0.01550
2925.44441,0.01551
2923.38423,0.01533
2921.32406,0.01507
2919.26389,0.01488
2917.20372,0.01468
2915.14355,0.01443
2913.08337,0.01416
2911.02320,0.01396
2908.96303,0.01383
2906.90286,0.01374
2904.84268,0.01369
2902.78251,0.01373
2900.72234,0.01375
2898.66217,0.01356
2896.60200,0.01331
2894.54182,0.01325
2892.48165,0.01328
2890.42148,0.01335
2888.36131,0.01340
2886.30114,0.01327
2884.24096,0.01307
2882.18079,0.01296
2880.12062,0.01298
2878.06045,0.01295
2876.00028,0.01282
2873.94010,0.01266
2871.87993,0.01251
2869.81976,0.01240
2867.75959,0.01225
2865.69941,0.01200
2863.63924,0.01173
2861.57907,0.01163
2859.51890,0.01162
2857.45873,0.01153
2855.39855,0.01143
2853.33838,0.01132
2851.27821,0.01113
2849.21804,0.01087
2847.15787,0.01059
2845.09769,0.01045
2843.03752,0.01042
2840.97735,0.01023
2838.91718,0.00984
2836.85700,0.00951
2834.79683,0.00944
2832.73666,0.00947
2830.67649,0.00945
2828.61632,0.00937
2826.55614,0.00928
2824.49597,0.00926
2822.43580,0.00917
2820.37563,0.00893
2818.31546,0.00872
2816.25528,0.00864
2814.19511,0.00856
2812.13494,0.00849
2810.07477,0.00847
2808.01460,0.00844
2805.95442,0.00848
2803.89425,0.00861
2801.83408,0.00863
2799.77391,0.00855
2797.71373,0.00849
2795.65356,0.00840
2793.59339,0.00830
2791.53322,0.00831
2789.47305,0.00831
2787.41287,0.00816
2785.35270,0.00801
2783.29253,0.00796
2781.23236,0.00791
2779.17219,0.00777
2777.11201,0.00765
2775.05184,0.00764
2772.99167,0.00768
2770.93150,0.00764
2768.87133,0.00757
2766.81115,0.00748
2764.75098,0.00744
2762.69081,0.00745
2760.63064,0.00744
2758.57046,0.00743
2756.51029,0.00746
2754.45012,0.00758
2752.38995,0.00773
2750.32978,0.00774
2748.26960,0.00759
2746.20943,0.00743
2744.14926,0.00726
2742.08909,0.00713
2740.02892,0.00720
2737.96874,0.00738
2735.90857,0.00733
2733.84840,0.00710
2731.78823,0.00694
2729.72805,0.00687
2727.66788,0.00682
2725.60771,0.00685
2723.54754,0.00692
2721.48737,0.00697
2719.42719,0.00698
2717.36702,0.00693
2715.30685,0.00689
2713.24668,0.00686
2711.18651,0.00679
2709.12633,0.00681
2707.06616,0.00685
2705.00599,0.00686
2702.94582,0.00691
2700.88565,0.00690
2698.82547,0.00685
2696.76530,0.00687
2694.70513,0.00688
2692.64496,0.00681
2690.58478,0.00672
2688.52461,0.00662
2686.46444,0.00647
2684.40427,0.00641
2682.34410,0.00646
2680.28392,0.00652
2678.22375,0.00655
2676.16358,0.00659
2674.10341,0.00661
2672.04324,0.00648
2669.98306,0.00629
2667.92289,0.00626
2665.86272,0.00634
2663.80255,0.00635
2661.74238,0.00625
2659.68220,0.00618
2657.62203,0.00615
2655.56186,0.00618
2653.50169,0.00633
2651.44151,0.00648
2649.38134,0.00646
2647.32117,0.00632
2645.26100,0.00621
2643.20083,0.00613
2641.14065,0.00602
2639.08048,0.00595
2637.02031,0.00596
2634.96014,0.00594
2632.89997,0.00593
2630.83979,0.00597
2628.77962,0.00599
2626.71945,0.00594
2624.65928,0.00592
2622.59910,0.00593
2620.53893,0.00591
2618.47876,0.00590
2616.41859,0.00586
2614.35842,0.00575
2612.29824,0.00573
2610.23807,0.00570
2608.17790,0.00567
2606.11773,0.00577
2604.05756,0.00568
2601.99738,0.00539
2599.93721,0.00532
2597.87704,0.00541
2595.81687,0.00544
2593.75670,0.00539
2591.69652,0.00524
2589.63635,0.00517
2587.57618,0.00521
2585.51601,0.00517
2583.45583,0.00519
2581.39566,0.00542
2579.33549,0.00554
2577.27532,0.00527
2575.21515,0.00496
2573.15497,0.00493
2571.09480,0.00503
2569.03463,0.00515
2566.97446,0.00526
2564.91429,0.00534
2562.85411,0.00533
2560.79394,0.00530
2558.73377,0.00542
2556.67360,0.00538
2554.61342,0.00509
2552.55325,0.00494
2550.49308,0.00496
2548.43291,0.00490
2546.37274,0.00477
2544.31256,0.00462
2542.25239,0.00439
2540.19222,0.00433
2538.13205,0.00458
2536.07188,0.00487
2534.01170,0.00505
2531.95153,0.00507
2529.89136,0.00493
2527.83119,0.00486
2525.77102,0.00491
2523.71084,0.00493
2521.65067,0.00496
2519.59050,0.00498
2517.53033,0.00484
2515.47015,0.00482
2513.40998,0.00493
2511.34981,0.00480
2509.28964,0.00457
2507.22947,0.00450
2505.16929,0.00451
2503.10912,0.00465
2501.04895,0.00478
2498.98878,0.00466
2496.92861,0.00440
2494.86843,0.00421
2492.80826,0.00413
2490.74809,0.00420
2488.68792,0.00442
2486.62775,0.00462
2484.56757,0.00463
2482.50740,0.00449
2480.44723,0.00438
2478.38706,0.00440
2476.32688,0.00448
2474.26671,0.00456
2472.20654,0.00455
2470.14637,0.00434
2468.08620,0.00394
2466.02602,0.00376
2463.96585,0.00398
2461.90568,0.00424
2459.84551,0.00424
2457.78534,0.00417
2455.72516,0.00423
2453.66499,0.00430
2451.60482,0.00427
2449.54465,0.00430
2447.48447,0.00429
2445.42430,0.00400
2443.36413,0.00375
2441.30396,0.00393
2439.24379,0.00423
2437.18361,0.00422
2435.12344,0.00410
2433.06327,0.00418
2431.00310,0.00433
2428.94293,0.00418
2426.88275,0.00395
2424.82258,0.00413
2422.76241,0.00446
2420.70224,0.00433
2418.64207,0.00394
2416.58189,0.00379
2414.52172,0.00380
2412.46155,0.00374
2410.40138,0.00372
2408.34120,0.00381
2406.28103,0.00387
2404.22086,0.00385
2402.16069,0.00382
2400.10052,0.00385
2398.04034,0.00393
2395.98017,0.00408
2393.92000,0.00408
2391.85983,0.00398
2389.79966,0.00394
2387.73948,0.00401
2385.67931,0.00432
2383.61914,0.00482
2381.55897,0.00517
2379.49880,0.00514
2377.43862,0.00488
2375.37845,0.00469
2373.31828,0.00506
2371.25811,0.00576
2369.19793,0.00580
2367.13776,0.00529
2365.07759,0.00521
2363.01742,0.00538
2360.95725,0.00613
2358.89707,0.00684
2356.83690,0.00694
2354.77673,0.00601
2352.71656,0.00513
2350.65639,0.00560
2348.59621,0.00610
2346.53604,0.00489
2344.47587,0.00437
2342.41570,0.00418
2340.35552,0.00381
2338.29535,0.00375
2336.23518,0.00419
2334.17501,0.00504
2332.11484,0.00595
2330.05466,0.00668
2327.99449,0.00670
2325.93432,0.00622
2323.87415,0.00540
2321.81398,0.00508
2319.75380,0.00528
2317.69363,0.00584
2315.63346,0.00565
2313.57329,0.00486
2311.51312,0.00440
2309.45294,0.00443
2307.39277,0.00474
2305.33260,0.00518
2303.27243,0.00537
2301.21225,0.00513
2299.15208,0.00492
2297.09191,0.00495
2295.03174,0.00501
2292.97157,0.00505
2290.91139,0.00519
2288.85122,0.00530
2286.79105,0.00514
2284.73088,0.00485
2282.67071,0.00475
2280.61053,0.00483
2278.55036,0.00473
2276.49019,0.00434
2274.43002,0.00398
2272.36984,0.00384
2270.30967,0.00390
2268.24950,0.00402
2266.18933,0.00418
2264.12916,0.00440
2262.06898,0.00451
2260.00881,0.00434
2257.94864,0.00411
2255.88847,0.00385
2253.82830,0.00363
2251.76812,0.00382
2249.70795,0.00439
2247.64778,0.00487
2245.58761,0.00496
2243.52744,0.00471
2241.46726,0.00427
2239.40709,0.00413
2237.34692,0.00416
2235.28675,0.00373
2233.22657,0.00319
2231.16640,0.00333
2229.10623,0.00380
2227.04606,0.00388
2224.98589,0.00376
2222.92571,0.00371
2220.86554,0.00372
2218.80537,0.00377
2216.74520,0.00388
2214.68503,0.00426
2212.62485,0.00448
2210.56468,0.00420
2208.50451,0.00399
2206.44434,0.00412
2204.38417,0.00429
2202.32399,0.00424
2200.26382,0.00399
2198.20365,0.00423
2196.14348,0.00466
2194.08330,0.00427
2192.02313,0.00350
2189.96296,0.00296
2187.90279,0.00277
2185.84262,0.00308
2183.78244,0.00338
2181.72227,0.00322
2179.66210,0.00329
2177.60193,0.00334
2175.54176,0.00313
2173.48158,0.00308
2171.42141,0.00315
2169.36124,0.00341
2167.30107,0.00358
2165.24089,0.00320
2163.18072,0.00224
2161.12055,0.00092
2159.06038,0.00000
2157.00021,0.00013
2154.94003,0.00081
2152.87986,0.00121
2150.81969,0.00133
2148.75952,0.00166
2146.69935,0.00196
2144.63917,0.00215
2142.57900,0.00251
2140.51883,0.00255
2138.45866,0.00246
2136.39849,0.00274
2134.33831,0.00297
2132.27814,0.00273
2130.21797,0.00234
2128.15780,0.00223
2126.09762,0.00245
2124.03745,0.00307
2121.97728,0.00378
2119.91711,0.00396
2117.85694,0.00388
2115.79676,0.00407
2113.73659,0.00435
2111.67642,0.00451
2109.61625,0.00440
2107.55608,0.00402
2105.49590,0.00364
2103.43573,0.00335
2101.37556,0.00325
2099.31539,0.00329
2097.25521,0.00319
2095.19504,0.00327
2093.13487,0.00357
2091.07470,0.00371
2089.01453,0.00375
2086.95435,0.00362
2084.89418,0.00329
2082.83401,0.00320
2080.77384,0.00344
2078.71367,0.00358
2076.65349,0.00352
2074.59332,0.00353
2072.53315,0.00358
2070.47298,0.00340
2068.41281,0.00302
2066.35263,0.00299
2064.29246,0.00324
2062.23229,0.00323
2060.17212,0.00322
2058.11194,0.00331
2056.05177,0.00326
2053.99160,0.00339
2051.93143,0.00364
2049.87126,0.00350
2047.81108,0.00288
2045.75091,0.00228
2043.69074,0.00225
2041.63057,0.00250
2039.57040,0.00272
2037.51022,0.00278
2035.45005,0.00227
2033.38988,0.00170
2031.32971,0.00188
2029.26954,0.00236
2027.20936,0.00234
2025.14919,0.00207
2023.08902,0.00168
2021.02885,0.00050
2018.96867,0.00000
2016.90850,0.00144
2014.84833,0.00243
2012.78816,0.00191
2010.72799,0.00185
2008.66781,0.00249
2006.60764,0.00242
2004.54747,0.00154
2002.48730,0.00101
2000.42713,0.00146
1998.36695,0.00213
1996.30678,0.00214
1994.24661,0.00157
1992.18644,0.00122
1990.12626,0.00163
1988.06609,0.00205
1986.00592,0.00213
1983.94575,0.00213
1981.88558,0.00215
1979.82540,0.00246
1977.76523,0.00290
1975.70506,0.00325
1973.64489,0.00344
1971.58472,0.00284
1969.52454,0.00158
1967.46437,0.00088
1965.40420,0.00087
1963.34403,0.00053
1961.28386,0.00002
1959.22368,0.00012
1957.16351,0.00082
1955.10334,0.00153
1953.04317,0.00164
1950.98299,0.00119
1948.92282,0.00070
1946.86265,0.00023
1944.80248,0.00008
1942.74231,0.00070
1940.68213,0.00149
1938.62196,0.00162
1936.56179,0.00156
1934.50162,0.00176
1932.44145,0.00181
1930.38127,0.00156
1928.32110,0.00130
1926.26093,0.00109
1924.20076,0.00073
1922.14059,0.00034
1920.08041,0.00031
1918.02024,0.00063
1915.96007,0.00088
1913.89990,0.00083
1911.83972,0.00077
1909.77955,0.00094
1907.71938,0.00116
1905.65921,0.00125
1903.59904,0.00120
1901.53886,0.00102
1899.47869,0.00090
1897.41852,0.00083
1895.35835,0.00069
1893.29818,0.00046
1891.23800,0.00027
1889.17783,0.00037
1887.11766,0.00057
1885.05749,0.00056
1882.99731,0.00052
1880.93714,0.00069
1878.87697,0.00092
1876.81680,0.00094
1874.75663,0.00080
1872.69645,0.00073
1870.63628,0.00076
1868.57611,0.00075
1866.51594,0.00079
1864.45577,0.00096
1862.39559,0.00110
1860.33542,0.00108
1858.27525,0.00090
1856.21508,0.00078
1854.15491,0.00087
1852.09473,0.00103
1850.03456,0.00104
1847.97439,0.00080
1845.91422,0.00038
1843.85404,0.00003
1841.79387,0.00007
1839.73370,0.00034
1837.67353,0.00047
1835.61336,0.00054
1833.55318,0.00072
1831.49301,0.00084
1829.43284,0.00071
1827.37267,0.00053
1825.31250,0.00052
1823.25232,0.00064
1821.19215,0.00075
1819.13198,0.00076
1817.07181,0.00067
1815.01163,0.00056
1812.95146,0.00046
1810.89129,0.00034
1808.83112,0.00027
1806.77095,0.00037
1804.71077,0.00053
1802.65060,0.00049
1800.59043,0.00020
1798.53026,0.00000
1796.47009,0.00004
1794.40991,0.00016
1792.34974,0.00026
1790.28957,0.00033
1788.22940,0.00039
1786.16923,0.00033
1784.10905,0.00013
1782.04888,0.00000
1779.98871,0.00009
1777.92854,0.00029
1775.86836,0.00041
1773.80819,0.00035
1771.74802,0.00027
1769.68785,0.00044
1767.62768,0.00074
1765.56750,0.00105
1763.50733,0.00132
1761.44716,0.00156
1759.38699,0.00190
1757.32682,0.00228
1755.26664,0.00247
1753.20647,0.00248
1751.14630,0.00258
1749.08613,0.00301
1747.02596,0.00367
1744.96578,0.00413
1742.90561,0.00431
1740.84544,0.00444
1738.78527,0.00465
1736.72509,0.00498
1734.66492,0.00524
1732.60475,0.00527
1730.54458,0.00527
1728.48441,0.00538
1726.42423,0.00551
1724.36406,0.00556
1722.30389,0.00559
1720.24372,0.00557
1718.18355,0.00515
1716.12337,0.00443
1714.06320,0.00403
1712.00303,0.00396
1709.94286,0.00386
1707.88268,0.00353
1705.82251,0.00304
1703.76234,0.00273
1701.70217,0.00257
1699.64200,0.00223
1697.58182,0.00199
1695.52165,0.00224
1693.46148,0.00266
1691.40131,0.00291
1689.34114,0.00299
1687.28096,0.00303
1685.22079,0.00301
1683.16062,0.00310
1681.10045,0.00361
1679.04028,0.00435
1676.98010,0.00501
1674.91993,0.00542
1672.85976,0.00563
1670.79959,0.00583
1668.73941,0.00625
1666.67924,0.00690
1664.61907,0.00758
1662.55890,0.00816
1660.49873,0.00857
1658.43855,0.00890
1656.37838,0.00925
1654.31821,0.00961
1652.25804,0.01002
1650.19787,0.01038
1648.13769,0.01063
1646.07752,0.01091
1644.01735,0.01127
1641.95718,0.01156
1639.89701,0.01170
1637.83683,0.01165
1635.77666,0.01164
1633.71649,0.01194
1631.65632,0.01228
1629.59614,0.01247
1627.53597,0.01263
1625.47580,0.01277
1623.41563,0.01287
1621.35546,0.01298
1619.29528,0.01300
1617.23511,0.01286
1615.17494,0.01279
1613.11477,0.01288
1611.05460,0.01286
1608.99442,0.01261
1606.93425,0.01226
1604.87408,0.01190
1602.81391,0.01143
1600.75373,0.01085
1598.69356,0.01024
1596.63339,0.00962
1594.57322,0.00896
1592.51305,0.00828
1590.45287,0.00757
1588.39270,0.00693
1586.33253,0.00641
1584.27236,0.00598
1582.21219,0.00559
1580.15201,0.00521
1578.09184,0.00468
1576.03167,0.00396
1573.97150,0.00343
1571.91133,0.00310
1569.85115,0.00272
1567.79098,0.00250
1565.73081,0.00255
1563.67064,0.00255
1561.61046,0.00220
1559.55029,0.00140
1557.49012,0.00085
1555.42995,0.00108
1553.36978,0.00143
1551.30960,0.00148
1549.24943,0.00133
1547.18926,0.00120
1545.12909,0.00104
1543.06892,0.00062
1541.00874,0.00008
1538.94857,0.00010
1536.88840,0.00045
1534.82823,0.00061
1532.76805,0.00059
1530.70788,0.00053
1528.64771,0.00046
1526.58754,0.00032
1524.52737,0.00013
1522.46719,0.00000
1520.40702,0.00006
1518.34685,0.00023
1516.28668,0.00033
1514.22651,0.00037
1512.16633,0.00037
1510.10616,0.00029
1508.04599,0.00016
1505.98582,0.00019
1503.92565,0.00040
1501.86547,0.00057
1499.80530,0.00061
1497.74513,0.00065
1495.68496,0.00091
1493.62478,0.00118
1491.56461,0.00115
1489.50444,0.00093
1487.44427,0.00095
1485.38410,0.00124
1483.32392,0.00155
1481.26375,0.00185
1479.20358,0.00217
1477.14341,0.00244
1475.08324,0.00267
1473.02306,0.00315
1470.96289,0.00391
1468.90272,0.00451
1466.84255,0.00488
1464.78238,0.00518
1462.72220,0.00548
1460.66203,0.00572
1458.60186,0.00592
1456.54169,0.00622
1454.48151,0.00651
1452.42134,0.00670
1450.36117,0.00690
1448.30100,0.00710
1446.24083,0.00730
1444.18065,0.00751
1442.12048,0.00776
1440.06031,0.00805
1438.00014,0.00829
1435.93997,0.00847
1433.87979,0.00869
1431.81962,0.00891
1429.75945,0.00916
1427.69928,0.00956
1425.63910,0.01005
1423.57893,0.01044
1421.51876,0.01065
1419.45859,0.01070
1417.39842,0.01081
1415.33824,0.01102
1413.27807,0.01117
1411.21790,0.01119
1409.15773,0.01113
1407.09756,0.01101
1405.03738,0.01082
1402.97721,0.01061
1400.91704,0.01032
1398.85687,0.00992
1396.79670,0.00952
1394.73652,0.00923
1392.67635,0.00917
1390.61618,0.00930
1388.55601,0.00944
1386.49583,0.00953
1384.43566,0.00971
1382.37549,0.00996
1380.31532,0.01016
1378.25515,0.01028
1376.19497,0.01044
1374.13480,0.01068
1372.07463,0.01089
1370.01446,0.01098
1367.95429,0.01095
1365.89411,0.01078
1363.83394,0.01042
1361.77377,0.01005
1359.71360,0.00997
1357.65343,0.01007
1355.59325,0.01011
1353.53308,0.01007
1351.47291,0.00998
1349.41274,0.00980
1347.35256,0.00951
1345.29239,0.00921
1343.23222,0.00896
1341.17205,0.00878
1339.11188,0.00868
1337.05170,0.00872
1334.99153,0.00883
1332.93136,0.00888
1330.87119,0.00883
1328.81102,0.00882
1326.75084,0.00893
1324.69067,0.00911
1322.63050,0.00923
1320.57033,0.00930
1318.51015,0.00942
1316.44998,0.00952
1314.38981,0.00953
1312.32964,0.00944
1310.26947,0.00926
1308.20929,0.00900
1306.14912,0.00878
1304.08895,0.00864
1302.02878,0.00851
1299.96861,0.00832
1297.90843,0.00810
1295.84826,0.00796
1293.78809,0.00789
1291.72792,0.00777
1289.66775,0.00764
1287.60757,0.00756
1285.54740,0.00748
1283.48723,0.00740
1281.42706,0.00736
1279.36688,0.00735
1277.30671,0.00737
1275.24654,0.00746
1273.18637,0.00759
1271.12620,0.00780
1269.06602,0.00815
1267.00585,0.00861
1264.94568,0.00906
1262.88551,0.00945
1260.82534,0.00980
1258.76516,0.01019
1256.70499,0.01063
1254.64482,0.01103
1252.58465,0.01126
1250.52447,0.01130
1248.46430,0.01129
1246.40413,0.01127
1244.34396,0.01113
1242.28379,0.01090
1240.22361,0.01074
1238.16344,0.01060
1236.10327,0.01033
1234.04310,0.01003
1231.98293,0.00978
1229.92275,0.00942
1227.86258,0.00895
1225.80241,0.00857
1223.74224,0.00834
1221.68207,0.00806
1219.62189,0.00760
1217.56172,0.00712
1215.50155,0.00677
1213.44138,0.00634
1211.38120,0.00573
1209.32103,0.00502
1207.26086,0.00429
1205.20069,0.00364
1203.14052,0.00302
1201.08034,0.00234
1199.02017,0.00173
1196.96000,0.00126
1194.89983,0.00082
1192.83966,0.00040
1190.77948,0.00010
1188.71931,0.00000
1186.65914,0.00001
1184.59897,0.00012
1182.53880,0.00041
1180.47862,0.00080
1178.41845,0.00122
1176.35828,0.00177
1174.29811,0.00248
1172.23793,0.00318
1170.17776,0.00390
1168.11759,0.00466
1166.05742,0.00547
1163.99725,0.00630
1161.93707,0.00711
1159.87690,0.00785
1157.81673,0.00854
1155.75656,0.00921
1153.69639,0.00982
1151.63621,0.01028
1149.57604,0.01073
1147.51587,0.01120
1145.45570,0.01158
1143.39552,0.01186
1141.33535,0.01202
1139.27518,0.01216
1137.21501,0.01247
1135.15484,0.01285
1133.09466,0.01315
1131.03449,0.01356
1128.97432,0.01424
1126.91415,0.01504
1124.85398,0.01574
1122.79380,0.01637
1120.73363,0.01702
1118.67346,0.01751
1116.61329,0.01794
1114.55312,0.01848
1112.49294,0.01900
1110.43277,0.01948
1108.37260,0.02002
1106.31243,0.02058
1104.25225,0.02122
1102.19208,0.02206
1100.13191,0.02312
1098.07174,0.02420
1096.01157,0.02521
1093.95139,0.02632
1091.89122,0.02738
1089.83105,0.02822
1087.77088,0.02902
1085.71071,0.02986
1083.65053,0.03065
1081.59036,0.03144
1079.53019,0.03223
1077.47002,0.03299
1075.40985,0.03380
1073.34967,0.03460
1071.28950,0.03537
1069.22933,0.03604
1067.16916,0.03652
1065.10898,0.03694
1063.04881,0.03734
1060.98864,0.03765
1058.92847,0.03787
1056.86830,0.03813
1054.80812,0.03851
1052.74795,0.03903
1050.68778,0.03964
1048.62761,0.04033
1046.56744,0.04101
1044.50726,0.04156
1042.44709,0.04210
1040.38692,0.04274
1038.32675,0.04341
1036.26657,0.04394
1034.20640,0.04429
1032.14623,0.04450
1030.08606,0.04454
1028.02589,0.04451
1025.96571,0.04458
1023.90554,0.04464
1021.84537,0.04463
1019.78520,0.04464
1017.72503,0.04470
1015.66485,0.04469
1013.60468,0.04461
1011.54451,0.04453
1009.48434,0.04446
1007.42417,0.04449
1005.36399,0.04460
1003.30382,0.04442
1001.24365,0.04380
999.18348,0.04307
997.12330,0.04240
995.06313,0.04166
993.00296,0.04093
990.94279,0.04040
988.88262,0.04000
986.82244,0.03966
984.76227,0.03933
982.70210,0.03885
980.64193,0.03831
978.58176,0.03795
976.52158,0.03771
974.46141,0.03738
972.40124,0.03684
970.34107,0.03620
968.28089,0.03567
966.22072,0.03523
964.16055,0.03489
962.10038,0.03448
960.04021,0.03387
957.98003,0.03332
955.91986,0.03293
953.85969,0.03253
951.79952,0.03212
949.73935,0.03154
947.67917,0.03064
945.61900,0.02961
943.55883,0.02857
941.49866,0.02739
939.43849,0.02590
937.37831,0.02425
935.31814,0.02262
933.25797,0.02088
931.19780,0.01915
929.13762,0.01768
927.07745,0.01647
925.01728,0.01537
922.95711,0.01429
920.89694,0.01325
918.83676,0.01250
916.77659,0.01194
914.71642,0.01117
912.65625,0.01022
910.59608,0.00959
908.53590,0.00924
906.47573,0.00884
904.41556,0.00840
902.35539,0.00804
900.29522,0.00787
898.23504,0.00794
896.17487,0.00805
894.11470,0.00813
892.05453,0.00812
889.99435,0.00796
887.93418,0.00769
885.87401,0.00719
883.81384,0.00645
881.75367,0.00585
879.69349,0.00555
877.63332,0.00527
875.57315,0.00499
873.51298,0.00465
871.45281,0.00425
869.39263,0.00412
867.33246,0.00418
865.27229,0.00410
863.21212,0.00401
861.15194,0.00385
859.09177,0.00375
857.03160,0.00377
854.97143,0.00354
852.91126,0.00299
850.85108,0.00251
848.79091,0.00231
846.73074,0.00231
844.67057,0.00230
842.61040,0.00207
840.55022,0.00152
838.49005,0.00089
836.42988,0.00052
834.36971,0.00036
832.30954,0.00026
830.24936,0.00013
828.18919,0.00000
826.12902,0.00014
824.06885,0.00048
822.00867,0.00074
819.94850,0.00082
817.88833,0.00086
815.82816,0.00111
813.76799,0.00151
811.70781,0.00191
809.64764,0.00223
807.58747,0.00236
805.52730,0.00222
803.46713,0.00186
801.40695,0.00174
799.34678,0.00188
797.28661,0.00173
795.22644,0.00131
793.16627,0.00101
791.10609,0.00092
789.04592,0.00080
786.98575,0.00062
784.92558,0.00074
782.86540,0.00112
780.80523,0.00128
778.74506,0.00110
776.68489,0.00079
774.62472,0.00067
772.56454,0.00092
770.50437,0.00120
768.44420,0.00125
766.38403,0.00123
764.32386,0.00142
762.26368,0.00171
760.20351,0.00181
758.14334,0.00162
756.08317,0.00132
754.02299,0.00128
751.96282,0.00134
749.90265,0.00116
747.84248,0.00085
745.78231,0.00053
743.72213,0.00018
741.66196,0.00000
739.60179,-0.00002
737.54162,0.00002
735.48145,-0.00004
733.42127,-0.00034
731.36110,-0.00072
729.30093,-0.00052
727.24076,0.00007
725.18059,0.00032
723.12041,0.00032
721.06024,0.00006
719.00007,0.00019
716.93990,0.00044
714.87972,0.00073
712.81955,0.00116
710.75938,0.00154
708.69921,0.00179
706.63904,0.00180
704.57886,0.00175
702.51869,0.00208
700.45852,0.00248
698.39835,0.00233
696.33818,0.00207
694.27800,0.00224
692.21783,0.00216
690.15766,0.00151
688.09749,0.00118
686.03731,0.00142
683.97714,0.00149
681.91697,0.00124
679.85680,0.00127
677.79663,0.00146
675.73645,0.00133
673.67628,0.00132
671.61611,0.00169
669.55594,0.00029
667.49577,-0.00130
665.43559,0.00171
663.37542,0.00213
661.31525,0.00218
659.25508,0.00226
657.19491,0.00185
655.13473,0.00137
653.07456,0.00086
651.01439,0.00026
648.95422,0.00000
646.89404,0.00035
644.83387,0.00085
642.77370,0.00125
640.71353,0.00165
638.65336,0.00213
636.59318,0.00245
634.53301,0.00248
632.47284,0.00231
630.41267,0.00195
628.35250,0.00200
626.29232,0.00320
624.23215,0.00416
622.17198,0.00354
620.11181,0.00257
618.05164,0.00167
615.99146,0.00034
613.93129,-0.00037
611.87112,-0.00022
609.81095,-0.00017
607.75077,-0.00077
605.69060,-0.00043
603.63043,0.00118
601.57026,0.00117
599.51009,0.00000
