3996.73391,0.00049
3994.67373,0.00036
3992.61356,0.00036
3990.55339,0.00050
3988.49322,0.00055
3986.43305,0.00048
3984.37287,0.00039
3982.31270,0.00027
3980.25253,0.00016
3978.19236,0.00009
3976.13219,0.00013
3974.07201,0.00040
3972.01184,0.00069
3969.95167,0.00076
3967.89150,0.00067
3965.83133,0.00056
3963.77115,0.00044
3961.71098,0.00022
3959.65081,0.00000
3957.59064,0.00003
3955.53046,0.00015
3953.47029,0.00012
3951.41012,0.00006
3949.34995,0.00011
3947.28978,0.00015
3945.22960,0.00019
3943.16943,0.00035
3941.10926,0.00055
3939.04909,0.00066
3936.98892,0.00064
3934.92874,0.00045
3932.86857,0.00026
3930.80840,0.00024
3928.74823,0.00030
3926.68805,0.00047
3924.62788,0.00078
3922.56771,0.00093
3920.50754,0.00079
3918.44737,0.00055
3916.38719,0.00045
3914.32702,0.00044
3912.26685,0.00039
3910.20668,0.00037
3908.14651,0.00036
3906.08633,0.00031
3904.02616,0.00027
3901.96599,0.00038
3899.90582,0.00057
3897.84565,0.00064
3895.78547,0.00054
3893.72530,0.00044
3891.66513,0.00041
3889.60496,0.00040
3887.54478,0.00049
3885.48461,0.00070
3883.42444,0.00071
3881.36427,0.00054
3879.30410,0.00045
3877.24392,0.00039
3875.18375,0.00027
3873.12358,0.00021
3871.06341,0.00039
3869.00324,0.00068
3866.94306,0.00069
3864.88289,0.00040
3862.82272,0.00013
3860.76255,0.00017
3858.70237,0.00040
3856.64220,0.00062
3854.58203,0.00068
3852.52186,0.00049
3850.46169,0.00028
3848.40151,0.00019
3846.34134,0.00016
3844.28117,0.00025
3842.22100,0.00043
3840.16083,0.00048
3838.10065,0.00036
3836.04048,0.00019
3833.98031,0.00003
3831.92014,0.00000
3829.85997,0.00007
3827.79979,0.00014
3825.73962,0.00016
3823.67945,0.00030
3821.61928,0.00073
3819.55910,0.00092
3817.49893,0.00055
3815.43876,0.00024
3813.37859,0.00032
3811.31842,0.00033
3809.25824,0.00018
3807.19807,0.00017
3805.13790,0.00031
3803.07773,0.00037
3801.01756,0.00043
3798.95738,0.00052
3796.89721,0.00057
3794.83704,0.00058
3792.77687,0.00064
3790.71670,0.00066
3788.65652,0.00055
3786.59635,0.00046
3784.53618,0.00054
3782.47601,0.00073
3780.41583,0.00087
3778.35566,0.00068
3776.29549,0.00027
3774.23532,0.00005
3772.17515,0.00001
3770.11497,0.00001
3768.05480,0.00020
3765.99463,0.00052
3763.93446,0.00070
3761.87429,0.00081
3759.81411,0.00098
3757.75394,0.00088
3755.69377,0.00043
3753.63360,0.00015
3751.57342,0.00041
3749.51325,0.00098
3747.45308,0.00134
3745.39291,0.00127
3743.33274,0.00090
3741.27256,0.00061
3739.21239,0.00063
3737.15222,0.00072
3735.09205,0.00058
3733.03188,0.00033
3730.97170,0.00020
3728.91153,0.00022
3726.85136,0.00028
3724.79119,0.00033
3722.73102,0.00052
3720.67084,0.00073
3718.61067,0.00064
3716.55050,0.00044
3714.49033,0.00030
3712.43015,0.00015
3710.36998,0.00011
3708.30981,0.00027
3706.24964,0.00043
3704.18947,0.00042
3702.12929,0.00035
3700.06912,0.00032
3698.00895,0.00044
3695.94878,0.00074
3693.88861,0.00104
3691.82843,0.00129
3689.76826,0.00134
3687.70809,0.00104
3685.64792,0.00072
3683.58775,0.00065
3681.52757,0.00082
3679.46740,0.00109
3677.40723,0.00127
3675.34706,0.00136
3673.28688,0.00145
3671.22671,0.00152
3669.16654,0.00161
3667.10637,0.00176
3665.04620,0.00191
3662.98602,0.00197
3660.92585,0.00184
3658.86568,0.00152
3656.80551,0.00136
3654.74534,0.00149
3652.68516,0.00175
3650.62499,0.00212
3648.56482,0.00243
3646.50465,0.00242
3644.44447,0.00224
3642.38430,0.00219
3640.32413,0.00231
3638.26396,0.00243
3636.20379,0.00243
3634.14361,0.00251
3632.08344,0.00294
3630.02327,0.00359
3627.96310,0.00401
3625.90293,0.00401
3623.84275,0.00396
3621.78258,0.00412
3619.72241,0.00440
3617.66224,0.00461
3615.60207,0.00466
3613.54189,0.00458
3611.48172,0.00465
3609.42155,0.00513
3607.36138,0.00566
3605.30120,0.00593
3603.24103,0.00609
3601.18086,0.00622
3599.12069,0.00638
3597.06052,0.00662
3595.00034,0.00685
3592.94017,0.00707
3590.88000,0.00746
3588.81983,0.00786
3586.75966,0.00791
3584.69948,0.00768
3582.63931,0.00760
3580.57914,0.00790
3578.51897,0.00844
3576.45879,0.00875
3574.39862,0.00879
3572.33845,0.00895
3570.27828,0.00942
3568.21811,0.01004
3566.15793,0.01052
3564.09776,0.01076
3562.03759,0.01083
3559.97742,0.01082
3557.91725,0.01090
3555.85707,0.01115
3553.79690,0.01149
3551.73673,0.01171
3549.67656,0.01181
3547.61639,0.01191
3545.55621,0.01211
3543.49604,0.01235
3541.43587,0.01258
3539.37570,0.01291
3537.31552,0.01327
3535.25535,0.01348
3533.19518,0.01364
3531.13501,0.01383
3529.07484,0.01402
3527.01466,0.01429
3524.95449,0.01473
3522.89432,0.01507
3520.83415,0.01520
3518.77398,0.01531
3516.71380,0.01548
3514.65363,0.01565
3512.59346,0.01581
3510.53329,0.01596
3508.47312,0.01606
3506.41294,0.01631
3504.35277,0.01674
3502.29260,0.01708
3500.23243,0.01721
3498.17225,0.01737
3496.11208,0.01777
3494.05191,0.01832
3491.99174,0.01866
3489.93157,0.01852
3487.87139,0.01826
3485.81122,0.01834
3483.75105,0.01876
3481.69088,0.01928
3479.63071,0.01970
3477.57053,0.01982
3475.51036,0.01964
3473.45019,0.01943
3471.39002,0.01943
3469.32984,0.01967
3467.26967,0.02011
3465.20950,0.02053
3463.14933,0.02096
3461.08916,0.02143
3459.02898,0.02161
3456.96881,0.02140
3454.90864,0.02125
3452.84847,0.02135
3450.78830,0.02166
3448.72812,0.02213
3446.66795,0.02255
3444.60778,0.02273
3442.54761,0.02279
3440.48744,0.02287
3438.42726,0.02305
3436.36709,0.02332
3434.30692,0.02350
3432.24675,0.02352
3430.18657,0.02347
3428.12640,0.02356
3426.06623,0.02388
3424.00606,0.02425
3421.94589,0.02453
3419.88571,0.02471
3417.82554,0.02477
3415.76537,0.02485
3413.70520,0.02519
3411.64503,0.02545
3409.58485,0.02545
3407.52468,0.02549
3405.46451,0.02565
3403.40434,0.02571
3401.34416,0.02559
3399.28399,0.02545
3397.22382,0.02559
3395.16365,0.02589
3393.10348,0.02617
3391.04330,0.02632
3388.98313,0.02644
3386.92296,0.02662
3384.86279,0.02680
3382.80262,0.02690
3380.74244,0.02695
3378.68227,0.02710
3376.62210,0.02721
3374.56193,0.02714
3372.50176,0.02708
3370.44158,0.02714
3368.38141,0.02734
3366.32124,0.02754
3364.26107,0.02767
3362.20089,0.02783
3360.14072,0.02806
3358.08055,0.02822
3356.02038,0.02824
3353.96021,0.02809
3351.90003,0.02793
3349.83986,0.02803
3347.77969,0.02821
3345.71952,0.02816
3343.65935,0.02803
3341.59917,0.02804
3339.53900,0.02803
3337.47883,0.02801
3335.41866,0.02824
3333.35849,0.02859
3331.29831,0.02878
3329.23814,0.02885
3327.17797,0.02888
3325.11780,0.02888
3323.05762,0.02887
3320.99745,0.02891
3318.93728,0.02897
3316.87711,0.02905
3314.81694,0.02906
3312.75676,0.02900
3310.69659,0.02904
3308.63642,0.02912
3306.57625,0.02908
3304.51608,0.02902
3302.45590,0.02903
3300.39573,0.02899
3298.33556,0.02891
3296.27539,0.02905
3294.21521,0.02937
3292.15504,0.02951
3290.09487,0.02941
3288.03470,0.02929
3285.97453,0.02928
3283.91435,0.02934
3281.85418,0.02929
3279.79401,0.02912
3277.73384,0.02904
3275.67367,0.02916
3273.61349,0.02934
3271.55332,0.02935
3269.49315,0.02929
3267.43298,0.02926
3265.37281,0.02916
3263.31263,0.02905
3261.25246,0.02905
3259.19229,0.02911
3257.13212,0.02912
3255.07194,0.02904
3253.01177,0.02901
3250.95160,0.02896
3248.89143,0.02881
3246.83126,0.02870
3244.77108,0.02867
3242.71091,0.02854
3240.65074,0.02836
3238.59057,0.02821
3236.53040,0.02807
3234.47022,0.02790
3232.41005,0.02783
3230.34988,0.02784
3228.28971,0.02782
3226.22954,0.02779
3224.16936,0.02771
3222.10919,0.02747
3220.04902,0.02724
3217.98885,0.02715
3215.92867,0.02711
3213.86850,0.02699
3211.80833,0.02677
3209.74816,0.02655
3207.68799,0.02644
3205.62781,0.02639
3203.56764,0.02625
3201.50747,0.02598
3199.44730,0.02580
3197.38713,0.02574
3195.32695,0.02571
3193.26678,0.02566
3191.20661,0.02560
3189.14644,0.02556
3187.08626,0.02545
3185.02609,0.02514
3182.96592,0.02470
3180.90575,0.02442
3178.84558,0.02437
3176.78540,0.02429
3174.72523,0.02392
3172.66506,0.02352
3170.60489,0.02343
3168.54472,0.02355
3166.48454,0.02349
3164.42437,0.02319
3162.36420,0.02289
3160.30403,0.02261
3158.24386,0.02222
3156.18368,0.02186
3154.12351,0.02176
3152.06334,0.02184
3150.00317,0.02167
3147.94299,0.02121
3145.88282,0.02088
3143.82265,0.02062
3141.76248,0.02033
3139.70231,0.02028
3137.64213,0.02037
3135.58196,0.02027
3133.52179,0.01996
3131.46162,0.01965
3129.40145,0.01944
3127.34127,0.01910
3125.28110,0.01854
3123.22093,0.01816
3121.16076,0.01813
3119.10058,0.01823
3117.04041,0.01826
3114.98024,0.01816
3112.92007,0.01791
3110.85990,0.01752
3108.79972,0.01706
3106.73955,0.01676
3104.67938,0.01672
3102.61921,0.01675
3100.55904,0.01666
3098.49886,0.01636
3096.43869,0.01594
3094.37852,0.01558
3092.31835,0.01534
3090.25818,0.01510
3088.19800,0.01489
3086.13783,0.01471
3084.07766,0.01450
3082.01749,0.01428
3079.95731,0.01416
3077.89714,0.01413
3075.83697,0.01413
3073.77680,0.01404
3071.71663,0.01376
3069.65645,0.01345
3067.59628,0.01326
3065.53611,0.01320
3063.47594,0.01318
3061.41577,0.01310
3059.35559,0.01287
3057.29542,0.01253
3055.23525,0.01234
3053.17508,0.01230
3051.11491,0.01212
3049.05473,0.01185
3046.99456,0.01171
3044.93439,0.01168
3042.87422,0.01155
3040.81404,0.01129
3038.75387,0.01103
3036.69370,0.01094
3034.63353,0.01093
3032.57336,0.01082
3030.51318,0.01056
3028.45301,0.01034
3026.39284,0.01036
3024.33267,0.01047
3022.27250,0.01039
3020.21232,0.01021
3018.15215,0.01005
3016.09198,0.00989
3014.03181,0.00976
3011.97163,0.00966
3009.91146,0.00955
3007.85129,0.00936
3005.79112,0.00915
3003.73095,0.00900
3001.67077,0.00895
2999.61060,0.00909
2997.55043,0.00922
2995.49026,0.00927
2993.43009,0.00930
2991.36991,0.00927
2989.30974,0.00926
2987.24957,0.00939
2985.18940,0.00953
2983.12923,0.00957
2981.06905,0.00957
2979.00888,0.00961
2976.94871,0.00964
2974.88854,0.00961
2972.82836,0.00977
2970.76819,0.01017
2968.70802,0.01048
2966.64785,0.01064
2964.58768,0.01070
2962.52750,0.01080
2960.46733,0.01109
2958.40716,0.01147
2956.34699,0.01177
2954.28682,0.01195
2952.22664,0.01212
2950.16647,0.01238
2948.10630,0.01274
2946.04613,0.01309
2943.98596,0.01328
2941.92578,0.01329
2939.86561,0.01334
2937.80544,0.01347
2935.74527,0.01351
2933.68509,0.01347
2931.62492,0.01351
2929.56475,0.01361
2927.50458,0.01370
2925.44441,0.01368
2923.38423,0.01353
2921.32406,0.01348
2919.26389,0.01344
2917.20372,0.01319
2915.14355,0.01282
2913.08337,0.01253
2911.02320,0.01248
2908.96303,0.01255
2906.90286,0.01254
2904.84268,0.01242
2902.78251,0.01233
2900.72234,0.01228
2898.66217,0.01220
2896.60200,0.01210
2894.54182,0.01205
2892.48165,0.01201
2890.42148,0.01195
2888.36131,0.01191
2886.30114,0.01181
2884.24096,0.01162
2882.18079,0.01160
2880.12062,0.01171
2878.06045,0.01159
2876.00028,0.01132
2873.94010,0.01108
2871.87993,0.01084
2869.81976,0.01061
2867.75959,0.01043
2865.69941,0.01027
2863.63924,0.01018
2861.57907,0.01014
2859.51890,0.00998
2857.45873,0.00967
2855.39855,0.00935
2853.33838,0.00919
2851.27821,0.00919
2849.21804,0.00915
2847.15787,0.00893
2845.09769,0.00866
2843.03752,0.00847
2840.97735,0.00844
2838.91718,0.00841
2836.85700,0.00821
2834.79683,0.00803
2832.73666,0.00807
2830.67649,0.00813
2828.61632,0.00808
2826.55614,0.00795
2824.49597,0.00784
2822.43580,0.00779
2820.37563,0.00777
2818.31546,0.00771
2816.25528,0.00757
2814.19511,0.00738
2812.13494,0.00726
2810.07477,0.00718
2808.01460,0.00711
2805.95442,0.00705
2803.89425,0.00694
2801.83408,0.00685
2799.77391,0.00677
2797.71373,0.00666
2795.65356,0.00665
2793.59339,0.00673
2791.53322,0.00674
2789.47305,0.00669
2787.41287,0.00668
2785.35270,0.00666
2783.29253,0.00654
2781.23236,0.00640
2779.17219,0.00630
2777.11201,0.00620
2775.05184,0.00613
2772.99167,0.00608
2770.93150,0.00607
2768.87133,0.00611
2766.81115,0.00617
2764.75098,0.00613
2762.69081,0.00592
2760.63064,0.00573
2758.57046,0.00583
2756.51029,0.00607
2754.45012,0.00618
2752.38995,0.00615
2750.32978,0.00605
2748.26960,0.00592
2746.20943,0.00582
2744.14926,0.00576
2742.08909,0.00573
2740.02892,0.00569
2737.96874,0.00564
2735.90857,0.00566
2733.84840,0.00570
2731.78823,0.00568
2729.72805,0.00568
2727.66788,0.00580
2725.60771,0.00586
2723.54754,0.00565
2721.48737,0.00538
2719.42719,0.00534
2717.36702,0.00543
2715.30685,0.00546
2713.24668,0.00539
2711.18651,0.00531
2709.12633,0.00527
2707.06616,0.00524
2705.00599,0.00522
2702.94582,0.00525
2700.88565,0.00530
2698.82547,0.00531
2696.76530,0.00524
2694.70513,0.00517
2692.64496,0.00520
2690.58478,0.00526
2688.52461,0.00521
2686.46444,0.00508
2684.40427,0.00499
2682.34410,0.00505
2680.28392,0.00521
2678.22375,0.00524
2676.16358,0.00508
2674.10341,0.00493
2672.04324,0.00489
2669.98306,0.00495
2667.92289,0.00501
2665.86272,0.00499
2663.80255,0.00491
2661.74238,0.00484
2659.68220,0.00485
2657.62203,0.00483
2655.56186,0.00475
2653.50169,0.00481
2651.44151,0.00486
2649.38134,0.00467
2647.32117,0.00444
2645.26100,0.00440
2643.20083,0.00455
2641.14065,0.00477
2639.08048,0.00482
2637.02031,0.00463
2634.96014,0.00444
2632.89997,0.00443
2630.83979,0.00436
2628.77962,0.00408
2626.71945,0.00394
2624.65928,0.00411
2622.59910,0.00424
2620.53893,0.00420
2618.47876,0.00417
2616.41859,0.00412
2614.35842,0.00403
2612.29824,0.00395
2610.23807,0.00386
2608.17790,0.00382
2606.11773,0.00378
2604.05756,0.00373
2601.99738,0.00372
2599.93721,0.00368
2597.87704,0.00366
2595.81687,0.00374
2593.75670,0.00379
2591.69652,0.00376
2589.63635,0.00367
2587.57618,0.00359
2585.51601,0.00352
2583.45583,0.00339
2581.39566,0.00339
2579.33549,0.00349
2577.27532,0.00352
2575.21515,0.00358
2573.15497,0.00364
2571.09480,0.00349
2569.03463,0.00323
2566.97446,0.00302
2564.91429,0.00292
2562.85411,0.00302
2560.79394,0.00322
2558.73377,0.00318
2556.67360,0.00292
2554.61342,0.00266
2552.55325,0.00261
2550.49308,0.00298
2548.43291,0.00339
2546.37274,0.00337
2544.31256,0.00309
2542.25239,0.00283
2540.19222,0.00278
2538.13205,0.00304
2536.07188,0.00343
2534.01170,0.00357
2531.95153,0.00330
2529.89136,0.00291
2527.83119,0.00261
2525.77102,0.00245
2523.71084,0.00252
2521.65067,0.00279
2519.59050,0.00312
2517.53033,0.00326
2515.47015,0.00315
2513.40998,0.00301
2511.34981,0.00292
2509.28964,0.00274
2507.22947,0.00251
2505.16929,0.00252
2503.10912,0.00264
2501.04895,0.00260
2498.98878,0.00249
2496.92861,0.00238
2494.86843,0.00231
2492.80826,0.00241
2490.74809,0.00264
2488.68792,0.00286
2486.62775,0.00300
2484.56757,0.00290
2482.50740,0.00265
2480.44723,0.00255
2478.38706,0.00256
2476.32688,0.00260
2474.26671,0.00262
2472.20654,0.00256
2470.14637,0.00249
2468.08620,0.00252
2466.02602,0.00257
2463.96585,0.00243
2461.90568,0.00222
2459.84551,0.00228
2457.78534,0.00258
2455.72516,0.00283
2453.66499,0.00288
2451.60482,0.00265
2449.54465,0.00242
2447.48447,0.00254
2445.42430,0.00276
2443.36413,0.00281
2441.30396,0.00287
2439.24379,0.00284
2437.18361,0.00262
2435.12344,0.00248
2433.06327,0.00253
2431.00310,0.00259
2428.94293,0.00267
2426.88275,0.00270
2424.82258,0.00246
2422.76241,0.00223
2420.70224,0.00233
2418.64207,0.00242
2416.58189,0.00231
2414.52172,0.00226
2412.46155,0.00228
2410.40138,0.00216
2408.34120,0.00196
2406.28103,0.00185
2404.22086,0.00183
2402.16069,0.00177
2400.10052,0.00165
2398.04034,0.00164
2395.98017,0.00171
2393.92000,0.00178
2391.85983,0.00192
2389.79966,0.00207
2387.73948,0.00210
2385.67931,0.00217
2383.61914,0.00227
2381.55897,0.00230
2379.49880,0.00233
2377.43862,0.00237
2375.37845,0.00241
2373.31828,0.00274
2371.25811,0.00334
2369.19793,0.00381
2367.13776,0.00417
2365.07759,0.00378
2363.01742,0.00241
2360.95725,0.00239
2358.89707,0.00320
2356.83690,0.00342
2354.77673,0.00329
2352.71656,0.00333
2350.65639,0.00374
2348.59621,0.00338
2346.53604,0.00181
2344.47587,0.00222
2342.41570,0.00318
2340.35552,0.00293
2338.29535,0.00247
2336.23518,0.00253
2334.17501,0.00275
2332.11484,0.00283
2330.05466,0.00326
2327.99449,0.00388
2325.93432,0.00440
2323.87415,0.00427
2321.81398,0.00394
2319.75380,0.00375
2317.69363,0.00393
2315.63346,0.00386
2313.57329,0.00367
2311.51312,0.00359
2309.45294,0.00347
2307.39277,0.00332
2305.33260,0.00318
2303.27243,0.00312
2301.21225,0.00311
2299.15208,0.00306
2297.09191,0.00295
2295.03174,0.00298
2292.97157,0.00313
2290.91139,0.00312
2288.85122,0.00296
2286.79105,0.00280
2284.73088,0.00262
2282.67071,0.00245
2280.61053,0.00249
2278.55036,0.00272
2276.49019,0.00290
2274.43002,0.00297
2272.36984,0.00286
2270.30967,0.00254
2268.24950,0.00223
2266.18933,0.00217
2264.12916,0.00224
2262.06898,0.00235
2260.00881,0.00237
2257.94864,0.00232
2255.88847,0.00239
2253.82830,0.00244
2251.76812,0.00235
2249.70795,0.00227
2247.64778,0.00220
2245.58761,0.00229
2243.52744,0.00263
2241.46726,0.00280
2239.40709,0.00284
2237.34692,0.00269
2235.28675,0.00217
2233.22657,0.00173
2231.16640,0.00128
2229.10623,0.00096
2227.04606,0.00153
2224.98589,0.00246
2222.92571,0.00275
2220.86554,0.00274
2218.80537,0.00249
2216.74520,0.00176
2214.68503,0.00143
2212.62485,0.00161
2210.56468,0.00100
2208.50451,0.00017
2206.44434,0.00036
2204.38417,0.00108
2202.32399,0.00168
2200.26382,0.00198
2198.20365,0.00195
2196.14348,0.00182
2194.08330,0.00174
2192.02313,0.00193
2189.96296,0.00249
2187.90279,0.00287
2185.84262,0.00237
2183.78244,0.00123
2181.72227,0.00048
2179.66210,0.00042
2177.60193,0.00052
2175.54176,0.00088
2173.48158,0.00167
2171.42141,0.00252
2169.36124,0.00332
2167.30107,0.00366
2165.24089,0.00292
2163.18072,0.00188
2161.12055,0.00132
2159.06038,0.00089
2157.00021,0.00060
2154.94003,0.00110
2152.87986,0.00198
2150.81969,0.00256
2148.75952,0.00256
2146.69935,0.00182
2144.63917,0.00114
2142.57900,0.00088
2140.51883,0.00082
2138.45866,0.00112
2136.39849,0.00144
2134.33831,0.00166
2132.27814,0.00202
2130.21797,0.00228
2128.15780,0.00226
2126.09762,0.00211
2124.03745,0.00185
2121.97728,0.00161
2119.91711,0.00154
2117.85694,0.00152
2115.79676,0.00177
2113.73659,0.00254
2111.67642,0.00324
2109.61625,0.00317
2107.55608,0.00273
2105.49590,0.00229
2103.43573,0.00191
2101.37556,0.00219
2099.31539,0.00275
2097.25521,0.00261
2095.19504,0.00209
2093.13487,0.00192
2091.07470,0.00218
2089.01453,0.00218
2086.95435,0.00168
2084.89418,0.00157
2082.83401,0.00201
2080.77384,0.00235
2078.71367,0.00253
2076.65349,0.00267
2074.59332,0.00273
2072.53315,0.00266
2070.47298,0.00270
2068.41281,0.00313
2066.35263,0.00341
2064.29246,0.00299
2062.23229,0.00223
2060.17212,0.00175
2058.11194,0.00187
2056.05177,0.00253
2053.99160,0.00304
2051.93143,0.00304
2049.87126,0.00279
2047.81108,0.00212
2045.75091,0.00118
2043.69074,0.00074
2041.63057,0.00124
2039.57040,0.00205
2037.51022,0.00222
2035.45005,0.00150
2033.38988,0.00060
2031.32971,0.00086
2029.26954,0.00199
2027.20936,0.00273
2025.14919,0.00293
2023.08902,0.00260
2021.02885,0.00187
2018.96867,0.00137
2016.90850,0.00138
2014.84833,0.00186
2012.78816,0.00241
2010.72799,0.00252
2008.66781,0.00217
2006.60764,0.00127
2004.54747,0.00023
2002.48730,0.00000
2000.42713,0.00091
1998.36695,0.00234
1996.30678,0.00301
1994.24661,0.00268
1992.18644,0.00201
1990.12626,0.00135
1988.06609,0.00118
1986.00592,0.00188
1983.94575,0.00310
1981.88558,0.00391
1979.82540,0.00384
1977.76523,0.00309
1975.70506,0.00194
1973.64489,0.00090
1971.58472,0.00043
1969.52454,0.00069
1967.46437,0.00121
1965.40420,0.00140
1963.34403,0.00104
1961.28386,0.00039
1959.22368,0.00000
1957.16351,0.00014
1955.10334,0.00067
1953.04317,0.00091
1950.98299,0.00059
1948.92282,0.00033
1946.86265,0.00025
1944.80248,0.00027
1942.74231,0.00050
1940.68213,0.00065
1938.62196,0.00090
1936.56179,0.00130
1934.50162,0.00144
1932.44145,0.00125
1930.38127,0.00095
1928.32110,0.00077
1926.26093,0.00074
1924.20076,0.00080
1922.14059,0.00094
1920.08041,0.00097
1918.02024,0.00088
1915.96007,0.00094
1913.89990,0.00105
1911.83972,0.00092
1909.77955,0.00072
1907.71938,0.00073
1905.65921,0.00079
1903.59904,0.00069
1901.53886,0.00051
1899.47869,0.00050
1897.41852,0.00079
1895.35835,0.00105
1893.29818,0.00114
1891.23800,0.00135
1889.17783,0.00171
1887.11766,0.00184
1885.05749,0.00167
1882.99731,0.00139
1880.93714,0.00111
1878.87697,0.00079
1876.81680,0.00041
1874.75663,0.00019
1872.69645,0.00034
1870.63628,0.00073
1868.57611,0.00099
1866.51594,0.00099
1864.45577,0.00097
1862.39559,0.00096
1860.33542,0.00084
1858.27525,0.00061
1856.21508,0.00048
1854.15491,0.00049
1852.09473,0.00048
1850.03456,0.00050
1847.97439,0.00064
1845.91422,0.00079
1843.85404,0.00077
1841.79387,0.00061
1839.73370,0.00044
1837.67353,0.00025
1835.61336,0.00009
1833.55318,0.00005
1831.49301,0.00016
1829.43284,0.00039
1827.37267,0.00057
1825.31250,0.00058
1823.25232,0.00044
1821.19215,0.00026
1819.13198,0.00016
1817.07181,0.00005
1815.01163,-0.00005
1812.95146,-0.00006
1810.89129,0.00001
1808.83112,0.00012
1806.77095,0.00020
1804.71077,0.00013
1802.65060,-0.00004
1800.59043,-0.00008
1798.53026,0.00001
1796.47009,0.00004
1794.40991,0.00003
1792.34974,0.00014
1790.28957,0.00028
1788.22940,0.00030
1786.16923,0.00024
1784.10905,0.00018
1782.04888,0.00019
1779.98871,0.00017
1777.92854,0.00009
1775.86836,0.00014
1773.80819,0.00036
1771.74802,0.00048
1769.68785,0.00034
1767.62768,0.00018
1765.56750,0.00020
1763.50733,0.00048
1761.44716,0.00098
1759.38699,0.00142
1757.32682,0.00164
1755.26664,0.00181
1753.20647,0.00226
1751.14630,0.00300
1749.08613,0.00359
1747.02596,0.00374
1744.96578,0.00378
1742.90561,0.00407
1740.84544,0.00447
1738.78527,0.00477
1736.72509,0.00502
1734.66492,0.00536
1732.60475,0.00564
1730.54458,0.00571
1728.48441,0.00563
1726.42423,0.00538
1724.36406,0.00506
1722.30389,0.00493
1720.24372,0.00506
1718.18355,0.00502
1716.12337,0.00451
1714.06320,0.00391
1712.00303,0.00347
1709.94286,0.00318
1707.88268,0.00307
1705.82251,0.00304
1703.76234,0.00300
1701.70217,0.00293
1699.64200,0.00281
1697.58182,0.00277
1695.52165,0.00279
1693.46148,0.00272
1691.40131,0.00273
1689.34114,0.00296
1687.28096,0.00328
1685.22079,0.00365
1683.16062,0.00397
1681.10045,0.00418
1679.04028,0.00444
1676.98010,0.00487
1674.91993,0.00552
1672.85976,0.00621
1670.79959,0.00677
1668.73941,0.00702
1666.67924,0.00707
1664.61907,0.00731
1662.55890,0.00789
1660.49873,0.00852
1658.43855,0.00901
1656.37838,0.00951
1654.31821,0.01006
1652.25804,0.01037
1650.19787,0.01042
1648.13769,0.01055
1646.07752,0.01085
1644.01735,0.01114
1641.95718,0.01142
1639.89701,0.01180
1637.83683,0.01220
1635.77666,0.01239
1633.71649,0.01233
1631.65632,0.01233
1629.59614,0.01254
1627.53597,0.01282
1625.47580,0.01297
1623.41563,0.01298
1621.35546,0.01298
1619.29528,0.01311
1617.23511,0.01329
1615.17494,0.01324
1613.11477,0.01300
1611.05460,0.01274
1608.99442,0.01247
1606.93425,0.01218
1604.87408,0.01181
1602.81391,0.01129
1600.75373,0.01065
1598.69356,0.01000
1596.63339,0.00939
1594.57322,0.00875
1592.51305,0.00809
1590.45287,0.00745
1588.39270,0.00680
1586.33253,0.00616
1584.27236,0.00558
1582.21219,0.00505
1580.15201,0.00457
1578.09184,0.00415
1576.03167,0.00372
1573.97150,0.00332
1571.91133,0.00298
1569.85115,0.00273
1567.79098,0.00251
1565.73081,0.00230
1563.67064,0.00219
1561.61046,0.00234
1559.55029,0.00252
1557.49012,0.00212
1555.42995,0.00140
1553.36978,0.00089
1551.30960,0.00069
1549.24943,0.00070
1547.18926,0.00074
1545.12909,0.00076
1543.06892,0.00075
1541.00874,0.00066
1538.94857,0.00044
1536.88840,0.00031
1534.82823,0.00040
1532.76805,0.00048
1530.70788,0.00032
1528.64771,0.00009
1526.58754,0.00000
1524.52737,0.00009
1522.46719,0.00031
1520.40702,0.00042
1518.34685,0.00037
1516.28668,0.00033
1514.22651,0.00035
1512.16633,0.00042
1510.10616,0.00066
1508.04599,0.00090
1505.98582,0.00077
1503.92565,0.00039
1501.86547,0.00020
1499.80530,0.00024
1497.74513,0.00032
1495.68496,0.00035
1493.62478,0.00041
1491.56461,0.00067
1489.50444,0.00105
1487.44427,0.00125
1485.38410,0.00124
1483.32392,0.00123
1481.26375,0.00137
1479.20358,0.00170
1477.14341,0.00220
1475.08324,0.00281
1473.02306,0.00338
1470.96289,0.00374
1468.90272,0.00391
1466.84255,0.00414
1464.78238,0.00453
1462.72220,0.00495
1460.66203,0.00543
1458.60186,0.00604
1456.54169,0.00649
1454.48151,0.00656
1452.42134,0.00653
1450.36117,0.00664
1448.30100,0.00686
1446.24083,0.00702
1444.18065,0.00717
1442.12048,0.00742
1440.06031,0.00773
1438.00014,0.00806
1435.93997,0.00840
1433.87979,0.00867
1431.81962,0.00893
1429.75945,0.00929
1427.69928,0.00973
1425.63910,0.01017
1423.57893,0.01058
1421.51876,0.01098
1419.45859,0.01127
1417.39842,0.01127
1415.33824,0.01108
1413.27807,0.01098
1411.21790,0.01100
1409.15773,0.01102
1407.09756,0.01097
1405.03738,0.01082
1402.97721,0.01057
1400.91704,0.01032
1398.85687,0.01012
1396.79670,0.00992
1394.73652,0.00968
1392.67635,0.00942
1390.61618,0.00933
1388.55601,0.00950
1386.49583,0.00967
1384.43566,0.00968
1382.37549,0.00970
1380.31532,0.00987
1378.25515,0.01016
1376.19497,0.01047
1374.13480,0.01076
1372.07463,0.01089
1370.01446,0.01085
1367.95429,0.01073
1365.89411,0.01065
1363.83394,0.01063
1361.77377,0.01052
1359.71360,0.01027
1357.65343,0.01001
1355.59325,0.00985
1353.53308,0.00970
1351.47291,0.00947
1349.41274,0.00920
1347.35256,0.00895
1345.29239,0.00881
1343.23222,0.00889
1341.17205,0.00915
1339.11188,0.00926
1337.05170,0.00910
1334.99153,0.00894
1332.93136,0.00888
1330.87119,0.00884
1328.81102,0.00884
1326.75084,0.00895
1324.69067,0.00907
1322.63050,0.00911
1320.57033,0.00913
1318.51015,0.00918
1316.44998,0.00926
1314.38981,0.00929
1312.32964,0.00918
1310.26947,0.00896
1308.20929,0.00881
1306.14912,0.00874
1304.08895,0.00861
1302.02878,0.00841
1299.96861,0.00826
1297.90843,0.00809
1295.84826,0.00787
1293.78809,0.00775
1291.72792,0.00773
1289.66775,0.00763
1287.60757,0.00748
1285.54740,0.00735
1283.48723,0.00726
1281.42706,0.00721
1279.36688,0.00724
1277.30671,0.00741
1275.24654,0.00767
1273.18637,0.00794
1271.12620,0.00817
1269.06602,0.00840
1267.00585,0.00874
1264.94568,0.00917
1262.88551,0.00957
1260.82534,0.00995
1258.76516,0.01034
1256.70499,0.01067
1254.64482,0.01084
1252.58465,0.01091
1250.52447,0.01100
1248.46430,0.01112
1246.40413,0.01113
1244.34396,0.01105
1242.28379,0.01091
1240.22361,0.01067
1238.16344,0.01032
1236.10327,0.01000
1234.04310,0.00974
1231.98293,0.00940
1229.92275,0.00903
1227.86258,0.00868
1225.80241,0.00825
1223.74224,0.00785
1221.68207,0.00752
1219.62189,0.00721
1217.56172,0.00684
1215.50155,0.00641
1213.44138,0.00593
1211.38120,0.00543
1209.32103,0.00490
1207.26086,0.00432
1205.20069,0.00367
1203.14052,0.00297
1201.08034,0.00228
1199.02017,0.00175
1196.96000,0.00138
1194.89983,0.00095
1192.83966,0.00050
1190.77948,0.00016
1188.71931,0.00000
1186.65914,-0.00007
1184.59897,-0.00005
1182.53880,0.00019
1180.47862,0.00071
1178.41845,0.00130
1176.35828,0.00179
1174.29811,0.00236
1172.23793,0.00312
1170.17776,0.00397
1168.11759,0.00484
1166.05742,0.00570
1163.99725,0.00661
1161.93707,0.00748
1159.87690,0.00819
1157.81673,0.00877
1155.75656,0.00931
1153.69639,0.00991
1151.63621,0.01051
1149.57604,0.01093
1147.51587,0.01125
1145.45570,0.01166
1143.39552,0.01212
1141.33535,0.01246
1139.27518,0.01268
1137.21501,0.01282
1135.15484,0.01293
1133.09466,0.01310
1131.03449,0.01349
1128.97432,0.01404
1126.91415,0.01464
1124.85398,0.01529
1122.79380,0.01594
1120.73363,0.01653
1118.67346,0.01720
1116.61329,0.01790
1114.55312,0.01849
1112.49294,0.01900
1110.43277,0.01953
1108.37260,0.02007
1106.31243,0.02057
1104.25225,0.02114
1102.19208,0.02193
1100.13191,0.02290
1098.07174,0.02387
1096.01157,0.02485
1093.95139,0.02583
1091.89122,0.02674
1089.83105,0.02762
1087.77088,0.02851
1085.71071,0.02935
1083.65053,0.03014
1081.59036,0.03087
1079.53019,0.03165
1077.47002,0.03255
1075.40985,0.03338
1073.34967,0.03403
1071.28950,0.03461
1069.22933,0.03514
1067.16916,0.03570
1065.10898,0.03623
1063.04881,0.03653
1060.98864,0.03680
1058.92847,0.03729
1056.86830,0.03781
1054.80812,0.03826
1052.74795,0.03876
1050.68778,0.03926
1048.62761,0.03981
1046.56744,0.04052
1044.50726,0.04118
1042.44709,0.04167
1040.38692,0.04223
1038.32675,0.04281
1036.26657,0.04313
1034.20640,0.04330
1032.14623,0.04350
1030.08606,0.04373
1028.02589,0.04397
1025.96571,0.04418
1023.90554,0.04426
1021.84537,0.04432
1019.78520,0.04443
1017.72503,0.04449
1015.66485,0.04443
1013.60468,0.04425
1011.54451,0.04410
1009.48434,0.04414
1007.42417,0.04415
1005.36399,0.04385
1003.30382,0.04336
1001.24365,0.04294
999.18348,0.04253
997.12330,0.04197
995.06313,0.04136
993.00296,0.04077
990.94279,0.04011
988.88262,0.03949
986.82244,0.03905
984.76227,0.03850
982.70210,0.03786
980.64193,0.03749
978.58176,0.03729
976.52158,0.03701
974.46141,0.03666
972.40124,0.03621
970.34107,0.03561
968.28089,0.03500
966.22072,0.03457
964.16055,0.03421
962.10038,0.03371
960.04021,0.03306
957.98003,0.03253
955.91986,0.03218
953.85969,0.03175
951.79952,0.03111
949.73935,0.03033
947.67917,0.02949
945.61900,0.02860
943.55883,0.02763
941.49866,0.02640
939.43849,0.02483
937.37831,0.02310
935.31814,0.02135
933.25797,0.01969
931.19780,0.01809
929.13762,0.01659
927.07745,0.01535
925.01728,0.01422
922.95711,0.01313
920.89694,0.01219
918.83676,0.01141
916.77659,0.01068
914.71642,0.00988
912.65625,0.00909
910.59608,0.00851
908.53590,0.00811
906.47573,0.00794
904.41556,0.00794
902.35539,0.00783
900.29522,0.00767
898.23504,0.00762
896.17487,0.00752
894.11470,0.00734
892.05453,0.00724
889.99435,0.00706
887.93418,0.00660
885.87401,0.00612
883.81384,0.00585
881.75367,0.00557
879.69349,0.00521
877.63332,0.00486
875.57315,0.00449
873.51298,0.00409
871.45281,0.00371
869.39263,0.00359
867.33246,0.00370
865.27229,0.00364
863.21212,0.00333
861.15194,0.00309
859.09177,0.00302
857.03160,0.00275
854.97143,0.00229
852.91126,0.00234
850.85108,0.00277
848.79091,0.00268
846.73074,0.00210
844.67057,0.00150
842.61040,0.00096
840.55022,0.00062
838.49005,0.00035
836.42988,0.00010
834.36971,0.00000
832.30954,0.00006
830.24936,0.00029
828.18919,0.00048
826.12902,0.00052
824.06885,0.00052
822.00867,0.00061
819.94850,0.00082
817.88833,0.00098
815.82816,0.00111
813.76799,0.00125
811.70781,0.00143
809.64764,0.00182
807.58747,0.00212
805.52730,0.00210
803.46713,0.00209
801.40695,0.00209
799.34678,0.00175
797.28661,0.00128
795.22644,0.00100
793.16627,0.00082
791.10609,0.00068
789.04592,0.00073
786.98575,0.00099
784.92558,0.00122
782.86540,0.00109
780.80523,0.00071
778.74506,0.00046
776.68489,0.00039
774.62472,0.00046
772.56454,0.00074
770.50437,0.00085
768.44420,0.00054
766.38403,0.00012
764.32386,-0.00004
762.26368,0.00022
760.20351,0.00070
758.14334,0.00099
756.08317,0.00094
754.02299,0.00073
751.96282,0.00053
749.90265,0.00022
747.84248,0.00000
745.78231,0.00004
743.72213,0.00017
741.66196,0.00023
739.60179,0.00037
737.54162,0.00038
735.48145,-0.00003
733.42127,-0.00058
731.36110,-0.00095
729.30093,-0.00106
727.24076,-0.00061
725.18059,0.00015
723.12041,0.00062
721.06024,0.00048
719.00007,0.00044
716.93990,0.00075
714.87972,0.00127
712.81955,0.00166
710.75938,0.00175
708.69921,0.00172
706.63904,0.00163
704.57886,0.00146
702.51869,0.00133
700.45852,0.00145
698.39835,0.00174
696.33818,0.00173
694.27800,0.00139
692.21783,0.00138
690.15766,0.00192
688.09749,0.00238
686.03731,0.00226
683.97714,0.00190
681.91697,0.00178
679.85680,0.00158
677.79663,0.00122
675.73645,0.00114
673.67628,0.00163
671.61611,0.00242
669.55594,0.00090
667.49577,-0.00117
665.43559,0.00118
663.37542,0.00157
661.31525,0.00146
659.25508,0.00141
657.19491,0.00148
655.13473,0.00176
653.07456,0.00190
651.01439,0.00157
648.95422,0.00132
646.89404,0.00162
644.83387,0.00157
642.77370,0.00070
640.71353,0.00000
638.65336,0.00045
636.59318,0.00161
634.53301,0.00231
632.47284,0.00221
630.41267,0.00173
628.35250,0.00105
626.29232,0.00075
624.23215,0.00207
622.17198,0.00333
620.11181,0.00258
618.05164,0.00108
615.99146,0.00003
613.93129,0.00048
611.87112,0.00230
609.81095,0.00401
607.75077,0.00415
605.69060,0.00234
603.63043,0.00096
601.57026,0.00077
599.51009,0.00000
