3996.73391,0.00101
3994.67373,0.00076
3992.61356,0.00060
3990.55339,0.00060
3988.49322,0.00073
3986.43305,0.00087
3984.37287,0.00101
3982.31270,0.00117
3980.25253,0.00138
3978.19236,0.00155
3976.13219,0.00156
3974.07201,0.00137
3972.01184,0.00102
3969.95167,0.00058
3967.89150,0.00019
3965.83133,0.00000
3963.77115,0.00011
3961.71098,0.00047
3959.65081,0.00093
3957.59064,0.00126
3955.53046,0.00141
3953.47029,0.00150
3951.41012,0.00162
3949.34995,0.00174
3947.28978,0.00174
3945.22960,0.00153
3943.16943,0.00119
3941.10926,0.00089
3939.04909,0.00080
3936.98892,0.00087
3934.92874,0.00102
3932.86857,0.00121
3930.80840,0.00141
3928.74823,0.00157
3926.68805,0.00166
3924.62788,0.00169
3922.56771,0.00172
3920.50754,0.00173
3918.44737,0.00169
3916.38719,0.00157
3914.32702,0.00136
3912.26685,0.00109
3910.20668,0.00090
3908.14651,0.00091
3906.08633,0.00109
3904.02616,0.00130
3901.96599,0.00138
3899.90582,0.00125
3897.84565,0.00100
3895.78547,0.00076
3893.72530,0.00068
3891.66513,0.00084
3889.60496,0.00115
3887.54478,0.00139
3885.48461,0.00149
3883.42444,0.00157
3881.36427,0.00176
3879.30410,0.00201
3877.24392,0.00217
3875.18375,0.00212
3873.12358,0.00176
3871.06341,0.00119
3869.00324,0.00074
3866.94306,0.00075
3864.88289,0.00117
3862.82272,0.00171
3860.76255,0.00200
3858.70237,0.00190
3856.64220,0.00161
3854.58203,0.00146
3852.52186,0.00158
3850.46169,0.00188
3848.40151,0.00220
3846.34134,0.00238
3844.28117,0.00230
3842.22100,0.00202
3840.16083,0.00174
3838.10065,0.00163
3836.04048,0.00168
3833.98031,0.00182
3831.92014,0.00193
3829.85997,0.00191
3827.79979,0.00169
3825.73962,0.00126
3823.67945,0.00074
3821.61928,0.00030
3819.55910,0.00009
3817.49893,0.00013
3815.43876,0.00045
3813.37859,0.00095
3811.31842,0.00137
3809.25824,0.00154
3807.19807,0.00151
3805.13790,0.00138
3803.07773,0.00122
3801.01756,0.00108
3798.95738,0.00108
3796.89721,0.00134
3794.83704,0.00178
3792.77687,0.00218
3790.71670,0.00237
3788.65652,0.00237
3786.59635,0.00224
3784.53618,0.00201
3782.47601,0.00174
3780.41583,0.00155
3778.35566,0.00156
3776.29549,0.00172
3774.23532,0.00194
3772.17515,0.00217
3770.11497,0.00241
3768.05480,0.00266
3765.99463,0.00291
3763.93446,0.00304
3761.87429,0.00297
3759.81411,0.00272
3757.75394,0.00236
3755.69377,0.00187
3753.63360,0.00125
3751.57342,0.00078
3749.51325,0.00077
3747.45308,0.00113
3745.39291,0.00150
3743.33274,0.00174
3741.27256,0.00191
3739.21239,0.00202
3737.15222,0.00202
3735.09205,0.00202
3733.03188,0.00214
3730.97170,0.00228
3728.91153,0.00233
3726.85136,0.00228
3724.79119,0.00217
3722.73102,0.00204
3720.67084,0.00194
3718.61067,0.00183
3716.55050,0.00161
3714.49033,0.00137
3712.43015,0.00134
3710.36998,0.00167
3708.30981,0.00216
3706.24964,0.00250
3704.18947,0.00255
3702.12929,0.00246
3700.06912,0.00251
3698.00895,0.00272
3695.94878,0.00284
3693.88861,0.00267
3691.82843,0.00231
3689.76826,0.00216
3687.70809,0.00234
3685.64792,0.00262
3683.58775,0.00286
3681.52757,0.00306
3679.46740,0.00323
3677.40723,0.00324
3675.34706,0.00295
3673.28688,0.00242
3671.22671,0.00201
3669.16654,0.00209
3667.10637,0.00255
3665.04620,0.00298
3662.98602,0.00322
3660.92585,0.00328
3658.86568,0.00310
3656.80551,0.00253
3654.74534,0.00157
3652.68516,0.00055
3650.62499,0.00000
3648.56482,0.00030
3646.50465,0.00124
3644.44447,0.00220
3642.38430,0.00282
3640.32413,0.00309
3638.26396,0.00317
3636.20379,0.00327
3634.14361,0.00347
3632.08344,0.00367
3630.02327,0.00374
3627.96310,0.00362
3625.90293,0.00336
3623.84275,0.00307
3621.78258,0.00282
3619.72241,0.00266
3617.66224,0.00259
3615.60207,0.00250
3613.54189,0.00238
3611.48172,0.00234
3609.42155,0.00244
3607.36138,0.00260
3605.30120,0.00278
3603.24103,0.00289
3601.18086,0.00290
3599.12069,0.00288
3597.06052,0.00292
3595.00034,0.00308
3592.94017,0.00332
3590.88000,0.00355
3588.81983,0.00365
3586.75966,0.00365
3584.69948,0.00366
3582.63931,0.00371
3580.57914,0.00372
3578.51897,0.00365
3576.45879,0.00362
3574.39862,0.00371
3572.33845,0.00382
3570.27828,0.00384
3568.21811,0.00376
3566.15793,0.00363
3564.09776,0.00347
3562.03759,0.00331
3559.97742,0.00322
3557.91725,0.00321
3555.85707,0.00321
3553.79690,0.00324
3551.73673,0.00336
3549.67656,0.00352
3547.61639,0.00363
3545.55621,0.00369
3543.49604,0.00377
3541.43587,0.00380
3539.37570,0.00365
3537.31552,0.00327
3535.25535,0.00284
3533.19518,0.00255
3531.13501,0.00252
3529.07484,0.00276
3527.01466,0.00319
3524.95449,0.00368
3522.89432,0.00413
3520.83415,0.00450
3518.77398,0.00473
3516.71380,0.00478
3514.65363,0.00469
3512.59346,0.00451
3510.53329,0.00425
3508.47312,0.00394
3506.41294,0.00365
3504.35277,0.00349
3502.29260,0.00358
3500.23243,0.00386
3498.17225,0.00416
3496.11208,0.00435
3494.05191,0.00439
3491.99174,0.00424
3489.93157,0.00393
3487.87139,0.00359
3485.81122,0.00341
3483.75105,0.00348
3481.69088,0.00379
3479.63071,0.00420
3477.57053,0.00454
3475.51036,0.00478
3473.45019,0.00495
3471.39002,0.00511
3469.32984,0.00523
3467.26967,0.00524
3465.20950,0.00509
3463.14933,0.00484
3461.08916,0.00463
3459.02898,0.00452
3456.96881,0.00451
3454.90864,0.00454
3452.84847,0.00459
3450.78830,0.00463
3448.72812,0.00466
3446.66795,0.00467
3444.60778,0.00470
3442.54761,0.00478
3440.48744,0.00488
3438.42726,0.00488
3436.36709,0.00471
3434.30692,0.00446
3432.24675,0.00431
3430.18657,0.00427
3428.12640,0.00425
3426.06623,0.00415
3424.00606,0.00403
3421.94589,0.00402
3419.88571,0.00417
3417.82554,0.00442
3415.76537,0.00472
3413.70520,0.00496
3411.64503,0.00507
3409.58485,0.00506
3407.52468,0.00501
3405.46451,0.00498
3403.40434,0.00494
3401.34416,0.00485
3399.28399,0.00470
3397.22382,0.00455
3395.16365,0.00444
3393.10348,0.00438
3391.04330,0.00433
3388.98313,0.00423
3386.92296,0.00413
3384.86279,0.00415
3382.80262,0.00439
3380.74244,0.00476
3378.68227,0.00500
3376.62210,0.00504
3374.56193,0.00494
3372.50176,0.00480
3370.44158,0.00470
3368.38141,0.00471
3366.32124,0.00484
3364.26107,0.00505
3362.20089,0.00530
3360.14072,0.00556
3358.08055,0.00574
3356.02038,0.00573
3353.96021,0.00549
3351.90003,0.00513
3349.83986,0.00480
3347.77969,0.00463
3345.71952,0.00460
3343.65935,0.00457
3341.59917,0.00449
3339.53900,0.00439
3337.47883,0.00436
3335.41866,0.00442
3333.35849,0.00456
3331.29831,0.00470
3329.23814,0.00478
3327.17797,0.00474
3325.11780,0.00457
3323.05762,0.00435
3320.99745,0.00424
3318.93728,0.00433
3316.87711,0.00452
3314.81694,0.00470
3312.75676,0.00483
3310.69659,0.00495
3308.63642,0.00509
3306.57625,0.00524
3304.51608,0.00531
3302.45590,0.00524
3300.39573,0.00505
3298.33556,0.00488
3296.27539,0.00487
3294.21521,0.00505
3292.15504,0.00531
3290.09487,0.00555
3288.03470,0.00561
3285.97453,0.00543
3283.91435,0.00512
3281.85418,0.00486
3279.79401,0.00473
3277.73384,0.00465
3275.67367,0.00457
3273.61349,0.00456
3271.55332,0.00466
3269.49315,0.00480
3267.43298,0.00492
3265.37281,0.00503
3263.31263,0.00510
3261.25246,0.00502
3259.19229,0.00481
3257.13212,0.00463
3255.07194,0.00463
3253.01177,0.00481
3250.95160,0.00509
3248.89143,0.00530
3246.83126,0.00531
3244.77108,0.00516
3242.71091,0.00500
3240.65074,0.00494
3238.59057,0.00503
3236.53040,0.00521
3234.47022,0.00540
3232.41005,0.00550
3230.34988,0.00548
3228.28971,0.00535
3226.22954,0.00516
3224.16936,0.00496
3222.10919,0.00488
3220.04902,0.00497
3217.98885,0.00513
3215.92867,0.00519
3213.86850,0.00509
3211.80833,0.00492
3209.74816,0.00481
3207.68799,0.00477
3205.62781,0.00474
3203.56764,0.00471
3201.50747,0.00474
3199.44730,0.00485
3197.38713,0.00501
3195.32695,0.00519
3193.26678,0.00539
3191.20661,0.00558
3189.14644,0.00568
3187.08626,0.00562
3185.02609,0.00543
3182.96592,0.00521
3180.90575,0.00504
3178.84558,0.00493
3176.78540,0.00489
3174.72523,0.00491
3172.66506,0.00492
3170.60489,0.00488
3168.54472,0.00478
3166.48454,0.00462
3164.42437,0.00449
3162.36420,0.00446
3160.30403,0.00455
3158.24386,0.00470
3156.18368,0.00483
3154.12351,0.00490
3152.06334,0.00488
3150.00317,0.00474
3147.94299,0.00453
3145.88282,0.00433
3143.82265,0.00421
3141.76248,0.00417
3139.70231,0.00422
3137.64213,0.00431
3135.58196,0.00434
3133.52179,0.00428
3131.46162,0.00416
3129.40145,0.00404
3127.34127,0.00391
3125.28110,0.00381
3123.22093,0.00381
3121.16076,0.00392
3119.10058,0.00408
3117.04041,0.00428
3114.98024,0.00451
3112.92007,0.00478
3110.85990,0.00504
3108.79972,0.00522
3106.73955,0.00528
3104.67938,0.00523
3102.61921,0.00515
3100.55904,0.00510
3098.49886,0.00502
3096.43869,0.00489
3094.37852,0.00476
3092.31835,0.00469
3090.25818,0.00457
3088.19800,0.00431
3086.13783,0.00394
3084.07766,0.00363
3082.01749,0.00348
3079.95731,0.00344
3077.89714,0.00343
3075.83697,0.00343
3073.77680,0.00346
3071.71663,0.00358
3069.65645,0.00380
3067.59628,0.00407
3065.53611,0.00430
3063.47594,0.00440
3061.41577,0.00439
3059.35559,0.00439
3057.29542,0.00447
3055.23525,0.00459
3053.17508,0.00464
3051.11491,0.00456
3049.05473,0.00438
3046.99456,0.00418
3044.93439,0.00404
3042.87422,0.00396
3040.81404,0.00394
3038.75387,0.00390
3036.69370,0.00383
3034.63353,0.00377
3032.57336,0.00374
3030.51318,0.00373
3028.45301,0.00374
3026.39284,0.00383
3024.33267,0.00402
3022.27250,0.00425
3020.21232,0.00438
3018.15215,0.00435
3016.09198,0.00421
3014.03181,0.00407
3011.97163,0.00399
3009.91146,0.00399
3007.85129,0.00405
3005.79112,0.00417
3003.73095,0.00429
3001.67077,0.00431
2999.61060,0.00417
2997.55043,0.00395
2995.49026,0.00398
2993.43009,0.00422
2991.36991,0.00436
2989.30974,0.00432
2987.24957,0.00421
2985.18940,0.00414
2983.12923,0.00412
2981.06905,0.00410
2979.00888,0.00404
2976.94871,0.00400
2974.88854,0.00409
2972.82836,0.00428
2970.76819,0.00446
2968.70802,0.00450
2966.64785,0.00436
2964.58768,0.00418
2962.52750,0.00414
2960.46733,0.00420
2958.40716,0.00425
2956.34699,0.00433
2954.28682,0.00449
2952.22664,0.00459
2950.16647,0.00461
2948.10630,0.00461
2946.04613,0.00451
2943.98596,0.00432
2941.92578,0.00426
2939.86561,0.00448
2937.80544,0.00476
2935.74527,0.00482
2933.68509,0.00464
2931.62492,0.00441
2929.56475,0.00437
2927.50458,0.00461
2925.44441,0.00482
2923.38423,0.00474
2921.32406,0.00457
2919.26389,0.00451
2917.20372,0.00459
2915.14355,0.00474
2913.08337,0.00470
2911.02320,0.00438
2908.96303,0.00397
2906.90286,0.00382
2904.84268,0.00404
2902.78251,0.00440
2900.72234,0.00457
2898.66217,0.00447
2896.60200,0.00436
2894.54182,0.00444
2892.48165,0.00449
2890.42148,0.00434
2888.36131,0.00415
2886.30114,0.00415
2884.24096,0.00431
2882.18079,0.00445
2880.12062,0.00452
2878.06045,0.00458
2876.00028,0.00470
2873.94010,0.00490
2871.87993,0.00503
2869.81976,0.00489
2867.75959,0.00449
2865.69941,0.00408
2863.63924,0.00388
2861.57907,0.00390
2859.51890,0.00397
2857.45873,0.00395
2855.39855,0.00391
2853.33838,0.00396
2851.27821,0.00402
2849.21804,0.00395
2847.15787,0.00381
2845.09769,0.00376
2843.03752,0.00376
2840.97735,0.00377
2838.91718,0.00381
2836.85700,0.00390
2834.79683,0.00404
2832.73666,0.00419
2830.67649,0.00421
2828.61632,0.00407
2826.55614,0.00388
2824.49597,0.00384
2822.43580,0.00410
2820.37563,0.00450
2818.31546,0.00466
2816.25528,0.00452
2814.19511,0.00433
2812.13494,0.00421
2810.07477,0.00406
2808.01460,0.00387
2805.95442,0.00372
2803.89425,0.00371
2801.83408,0.00379
2799.77391,0.00385
2797.71373,0.00388
2795.65356,0.00392
2793.59339,0.00390
2791.53322,0.00380
2789.47305,0.00374
2787.41287,0.00384
2785.35270,0.00402
2783.29253,0.00412
2781.23236,0.00412
2779.17219,0.00413
2777.11201,0.00413
2775.05184,0.00395
2772.99167,0.00366
2770.93150,0.00364
2768.87133,0.00391
2766.81115,0.00406
2764.75098,0.00400
2762.69081,0.00397
2760.63064,0.00408
2758.57046,0.00418
2756.51029,0.00414
2754.45012,0.00405
2752.38995,0.00406
2750.32978,0.00418
2748.26960,0.00429
2746.20943,0.00432
2744.14926,0.00427
2742.08909,0.00423
2740.02892,0.00416
2737.96874,0.00395
2735.90857,0.00376
2733.84840,0.00380
2731.78823,0.00400
2729.72805,0.00415
2727.66788,0.00411
2725.60771,0.00388
2723.54754,0.00361
2721.48737,0.00347
2719.42719,0.00342
2717.36702,0.00332
2715.30685,0.00330
2713.24668,0.00346
2711.18651,0.00362
2709.12633,0.00365
2707.06616,0.00371
2705.00599,0.00387
2702.94582,0.00404
2700.88565,0.00413
2698.82547,0.00413
2696.76530,0.00405
2694.70513,0.00397
2692.64496,0.00398
2690.58478,0.00399
2688.52461,0.00395
2686.46444,0.00395
2684.40427,0.00403
2682.34410,0.00406
2680.28392,0.00394
2678.22375,0.00376
2676.16358,0.00377
2674.10341,0.00395
2672.04324,0.00408
2669.98306,0.00409
2667.92289,0.00407
2665.86272,0.00403
2663.80255,0.00400
2661.74238,0.00400
2659.68220,0.00403
2657.62203,0.00413
2655.56186,0.00427
2653.50169,0.00435
2651.44151,0.00431
2649.38134,0.00424
2647.32117,0.00419
2645.26100,0.00414
2643.20083,0.00406
2641.14065,0.00395
2639.08048,0.00393
2637.02031,0.00407
2634.96014,0.00423
2632.89997,0.00437
2630.83979,0.00453
2628.77962,0.00469
2626.71945,0.00469
2624.65928,0.00447
2622.59910,0.00422
2620.53893,0.00421
2618.47876,0.00438
2616.41859,0.00449
2614.35842,0.00443
2612.29824,0.00417
2610.23807,0.00377
2608.17790,0.00347
2606.11773,0.00356
2604.05756,0.00388
2601.99738,0.00406
2599.93721,0.00397
2597.87704,0.00374
2595.81687,0.00356
2593.75670,0.00359
2591.69652,0.00387
2589.63635,0.00416
2587.57618,0.00414
2585.51601,0.00383
2583.45583,0.00349
2581.39566,0.00333
2579.33549,0.00345
2577.27532,0.00358
2575.21515,0.00351
2573.15497,0.00345
2571.09480,0.00358
2569.03463,0.00368
2566.97446,0.00365
2564.91429,0.00372
2562.85411,0.00406
2560.79394,0.00441
2558.73377,0.00455
2556.67360,0.00464
2554.61342,0.00478
2552.55325,0.00472
2550.49308,0.00437
2548.43291,0.00403
2546.37274,0.00379
2544.31256,0.00339
2542.25239,0.00286
2540.19222,0.00255
2538.13205,0.00266
2536.07188,0.00313
2534.01170,0.00377
2531.95153,0.00445
2529.89136,0.00493
2527.83119,0.00482
2525.77102,0.00405
2523.71084,0.00328
2521.65067,0.00327
2519.59050,0.00386
2517.53033,0.00416
2515.47015,0.00392
2513.40998,0.00388
2511.34981,0.00446
2509.28964,0.00511
2507.22947,0.00518
2505.16929,0.00474
2503.10912,0.00420
2501.04895,0.00373
2498.98878,0.00331
2496.92861,0.00303
2494.86843,0.00317
2492.80826,0.00373
2490.74809,0.00428
2488.68792,0.00447
2486.62775,0.00452
2484.56757,0.00464
2482.50740,0.00472
2480.44723,0.00460
2478.38706,0.00434
2476.32688,0.00420
2474.26671,0.00431
2472.20654,0.00426
2470.14637,0.00366
2468.08620,0.00304
2466.02602,0.00301
2463.96585,0.00342
2461.90568,0.00393
2459.84551,0.00442
2457.78534,0.00473
2455.72516,0.00469
2453.66499,0.00435
2451.60482,0.00412
2449.54465,0.00424
2447.48447,0.00435
2445.42430,0.00409
2443.36413,0.00376
2441.30396,0.00378
2439.24379,0.00395
2437.18361,0.00400
2435.12344,0.00399
2433.06327,0.00390
2431.00310,0.00371
2428.94293,0.00358
2426.88275,0.00348
2424.82258,0.00333
2422.76241,0.00340
2420.70224,0.00387
2418.64207,0.00430
2416.58189,0.00445
2414.52172,0.00447
2412.46155,0.00435
2410.40138,0.00401
2408.34120,0.00367
2406.28103,0.00357
2404.22086,0.00370
2402.16069,0.00393
2400.10052,0.00416
2398.04034,0.00431
2395.98017,0.00434
2393.92000,0.00421
2391.85983,0.00389
2389.79966,0.00347
2387.73948,0.00321
2385.67931,0.00328
2383.61914,0.00359
2381.55897,0.00393
2379.49880,0.00419
2377.43862,0.00428
2375.37845,0.00403
2373.31828,0.00329
2371.25811,0.00225
2369.19793,0.00155
2367.13776,0.00171
2365.07759,0.00243
2363.01742,0.00299
2360.95725,0.00320
2358.89707,0.00330
2356.83690,0.00351
2354.77673,0.00390
2352.71656,0.00418
2350.65639,0.00400
2348.59621,0.00345
2346.53604,0.00290
2344.47587,0.00259
2342.41570,0.00252
2340.35552,0.00268
2338.29535,0.00316
2336.23518,0.00397
2334.17501,0.00494
2332.11484,0.00586
2330.05466,0.00646
2327.99449,0.00658
2325.93432,0.00613
2323.87415,0.00522
2321.81398,0.00431
2319.75380,0.00375
2317.69363,0.00358
2315.63346,0.00366
2313.57329,0.00386
2311.51312,0.00412
2309.45294,0.00438
2307.39277,0.00457
2305.33260,0.00461
2303.27243,0.00451
2301.21225,0.00441
2299.15208,0.00442
2297.09191,0.00451
2295.03174,0.00457
2292.97157,0.00464
2290.91139,0.00474
2288.85122,0.00491
2286.79105,0.00510
2284.73088,0.00518
2282.67071,0.00500
2280.61053,0.00455
2278.55036,0.00401
2276.49019,0.00367
2274.43002,0.00361
2272.36984,0.00372
2270.30967,0.00388
2268.24950,0.00402
2266.18933,0.00414
2264.12916,0.00425
2262.06898,0.00437
2260.00881,0.00449
2257.94864,0.00456
2255.88847,0.00444
2253.82830,0.00412
2251.76812,0.00381
2249.70795,0.00382
2247.64778,0.00418
2245.58761,0.00448
2243.52744,0.00489
2241.46726,0.00529
2239.40709,0.00529
2237.34692,0.00486
2235.28675,0.00419
2233.22657,0.00374
2231.16640,0.00382
2229.10623,0.00389
2227.04606,0.00365
2224.98589,0.00378
2222.92571,0.00428
2220.86554,0.00395
2218.80537,0.00320
2216.74520,0.00347
2214.68503,0.00431
2212.62485,0.00424
2210.56468,0.00310
2208.50451,0.00221
2206.44434,0.00286
2204.38417,0.00467
2202.32399,0.00605
2200.26382,0.00599
2198.20365,0.00491
2196.14348,0.00373
2194.08330,0.00284
2192.02313,0.00234
2189.96296,0.00228
2187.90279,0.00249
2185.84262,0.00271
2183.78244,0.00304
2181.72227,0.00365
2179.66210,0.00408
2177.60193,0.00333
2175.54176,0.00147
2173.48158,0.00018
2171.42141,0.00087
2169.36124,0.00309
2167.30107,0.00468
2165.24089,0.00431
2163.18072,0.00298
2161.12055,0.00175
2159.06038,0.00053
2157.00021,0.00000
2154.94003,0.00117
2152.87986,0.00308
2150.81969,0.00406
2148.75952,0.00413
2146.69935,0.00431
2144.63917,0.00465
2142.57900,0.00430
2140.51883,0.00324
2138.45866,0.00235
2136.39849,0.00224
2134.33831,0.00281
2132.27814,0.00350
2130.21797,0.00418
2128.15780,0.00495
2126.09762,0.00520
2124.03745,0.00437
2121.97728,0.00307
2119.91711,0.00253
2117.85694,0.00316
2115.79676,0.00418
2113.73659,0.00472
2111.67642,0.00481
2109.61625,0.00468
2107.55608,0.00430
2105.49590,0.00368
2103.43573,0.00298
2101.37556,0.00254
2099.31539,0.00263
2097.25521,0.00306
2095.19504,0.00357
2093.13487,0.00398
2091.07470,0.00422
2089.01453,0.00434
2086.95435,0.00444
2084.89418,0.00460
2082.83401,0.00479
2080.77384,0.00481
2078.71367,0.00449
2076.65349,0.00393
2074.59332,0.00351
2072.53315,0.00344
2070.47298,0.00360
2068.41281,0.00371
2066.35263,0.00356
2064.29246,0.00326
2062.23229,0.00325
2060.17212,0.00383
2058.11194,0.00483
2056.05177,0.00582
2053.99160,0.00649
2051.93143,0.00662
2049.87126,0.00624
2047.81108,0.00561
2045.75091,0.00514
2043.69074,0.00505
2041.63057,0.00526
2039.57040,0.00553
2037.51022,0.00572
2035.45005,0.00571
2033.38988,0.00559
2031.32971,0.00575
2029.26954,0.00648
2027.20936,0.00740
2025.14919,0.00799
2023.08902,0.00816
2021.02885,0.00808
2018.96867,0.00772
2016.90850,0.00685
2014.84833,0.00566
2012.78816,0.00474
2010.72799,0.00436
2008.66781,0.00430
2006.60764,0.00423
2004.54747,0.00396
2002.48730,0.00361
2000.42713,0.00336
1998.36695,0.00334
1996.30678,0.00357
1994.24661,0.00415
1992.18644,0.00514
1990.12626,0.00629
1988.06609,0.00722
1986.00592,0.00756
1983.94575,0.00707
1981.88558,0.00582
1979.82540,0.00414
1977.76523,0.00237
1975.70506,0.00086
1973.64489,0.00002
1971.58472,0.00000
1969.52454,0.00059
1967.46437,0.00150
1965.40420,0.00241
1963.34403,0.00300
1961.28386,0.00309
1959.22368,0.00282
1957.16351,0.00256
1955.10334,0.00265
1953.04317,0.00304
1950.98299,0.00335
1948.92282,0.00346
1946.86265,0.00358
1944.80248,0.00374
1942.74231,0.00379
1940.68213,0.00378
1938.62196,0.00396
1936.56179,0.00437
1934.50162,0.00470
1932.44145,0.00468
1930.38127,0.00434
1928.32110,0.00392
1926.26093,0.00360
1924.20076,0.00343
1922.14059,0.00336
1920.08041,0.00323
1918.02024,0.00292
1915.96007,0.00257
1913.89990,0.00232
1911.83972,0.00222
1909.77955,0.00226
1907.71938,0.00241
1905.65921,0.00257
1903.59904,0.00274
1901.53886,0.00293
1899.47869,0.00306
1897.41852,0.00314
1895.35835,0.00325
1893.29818,0.00339
1891.23800,0.00346
1889.17783,0.00336
1887.11766,0.00314
1885.05749,0.00302
1882.99731,0.00312
1880.93714,0.00336
1878.87697,0.00358
1876.81680,0.00366
1874.75663,0.00361
1872.69645,0.00351
1870.63628,0.00339
1868.57611,0.00326
1866.51594,0.00314
1864.45577,0.00301
1862.39559,0.00284
1860.33542,0.00261
1858.27525,0.00237
1856.21508,0.00220
1854.15491,0.00209
1852.09473,0.00206
1850.03456,0.00216
1847.97439,0.00238
1845.91422,0.00259
1843.85404,0.00269
1841.79387,0.00271
1839.73370,0.00265
1837.67353,0.00251
1835.61336,0.00239
1833.55318,0.00232
1831.49301,0.00227
1829.43284,0.00222
1827.37267,0.00223
1825.31250,0.00232
1823.25232,0.00245
1821.19215,0.00255
1819.13198,0.00258
1817.07181,0.00254
1815.01163,0.00239
1812.95146,0.00214
1810.89129,0.00190
1808.83112,0.00178
1806.77095,0.00178
1804.71077,0.00182
1802.65060,0.00181
1800.59043,0.00174
1798.53026,0.00162
1796.47009,0.00148
1794.40991,0.00139
1792.34974,0.00144
1790.28957,0.00166
1788.22940,0.00194
1786.16923,0.00214
1784.10905,0.00223
1782.04888,0.00228
1779.98871,0.00230
1777.92854,0.00226
1775.86836,0.00214
1773.80819,0.00204
1771.74802,0.00207
1769.68785,0.00226
1767.62768,0.00251
1765.56750,0.00267
1763.50733,0.00263
1761.44716,0.00244
1759.38699,0.00225
1757.32682,0.00216
1755.26664,0.00222
1753.20647,0.00240
1751.14630,0.00258
1749.08613,0.00268
1747.02596,0.00268
1744.96578,0.00262
1742.90561,0.00253
1740.84544,0.00235
1738.78527,0.00200
1736.72509,0.00151
1734.66492,0.00113
1732.60475,0.00116
1730.54458,0.00161
1728.48441,0.00223
1726.42423,0.00268
1724.36406,0.00283
1722.30389,0.00271
1720.24372,0.00245
1718.18355,0.00225
1716.12337,0.00221
1714.06320,0.00226
1712.00303,0.00224
1709.94286,0.00211
1707.88268,0.00191
1705.82251,0.00173
1703.76234,0.00161
1701.70217,0.00150
1699.64200,0.00137
1697.58182,0.00130
1695.52165,0.00138
1693.46148,0.00158
1691.40131,0.00175
1689.34114,0.00180
1687.28096,0.00169
1685.22079,0.00150
1683.16062,0.00144
1681.10045,0.00157
1679.04028,0.00179
1676.98010,0.00192
1674.91993,0.00189
1672.85976,0.00176
1670.79959,0.00166
1668.73941,0.00175
1666.67924,0.00203
1664.61907,0.00228
1662.55890,0.00235
1660.49873,0.00224
1658.43855,0.00193
1656.37838,0.00142
1654.31821,0.00090
1652.25804,0.00071
1650.19787,0.00093
1648.13769,0.00133
1646.07752,0.00178
1644.01735,0.00218
1641.95718,0.00244
1639.89701,0.00253
1637.83683,0.00252
1635.77666,0.00248
1633.71649,0.00246
1631.65632,0.00246
1629.59614,0.00246
1627.53597,0.00248
1625.47580,0.00244
1623.41563,0.00233
1621.35546,0.00218
1619.29528,0.00201
1617.23511,0.00189
1615.17494,0.00192
1613.11477,0.00203
1611.05460,0.00212
1608.99442,0.00218
1606.93425,0.00223
1604.87408,0.00229
1602.81391,0.00241
1600.75373,0.00258
1598.69356,0.00273
1596.63339,0.00272
1594.57322,0.00256
1592.51305,0.00236
1590.45287,0.00221
1588.39270,0.00216
1586.33253,0.00218
1584.27236,0.00222
1582.21219,0.00221
1580.15201,0.00211
1578.09184,0.00191
1576.03167,0.00171
1573.97150,0.00159
1571.91133,0.00152
1569.85115,0.00143
1567.79098,0.00128
1565.73081,0.00105
1563.67064,0.00072
1561.61046,0.00034
1559.55029,0.00007
1557.49012,0.00010
1555.42995,0.00035
1553.36978,0.00060
1551.30960,0.00076
1549.24943,0.00082
1547.18926,0.00079
1545.12909,0.00063
1543.06892,0.00037
1541.00874,0.00015
1538.94857,0.00015
1536.88840,0.00035
1534.82823,0.00056
1532.76805,0.00062
1530.70788,0.00057
1528.64771,0.00050
1526.58754,0.00047
1524.52737,0.00046
1522.46719,0.00042
1520.40702,0.00040
1518.34685,0.00041
1516.28668,0.00039
1514.22651,0.00033
1512.16633,0.00022
1510.10616,0.00010
1508.04599,0.00011
1505.98582,0.00034
1503.92565,0.00064
1501.86547,0.00086
1499.80530,0.00095
1497.74513,0.00096
1495.68496,0.00089
1493.62478,0.00069
1491.56461,0.00046
1489.50444,0.00038
1487.44427,0.00057
1485.38410,0.00090
1483.32392,0.00117
1481.26375,0.00125
1479.20358,0.00113
1477.14341,0.00091
1475.08324,0.00076
1473.02306,0.00082
1470.96289,0.00105
1468.90272,0.00123
1466.84255,0.00123
1464.78238,0.00111
1462.72220,0.00097
1460.66203,0.00090
1458.60186,0.00098
1456.54169,0.00128
1454.48151,0.00164
1452.42134,0.00185
1450.36117,0.00187
1448.30100,0.00174
1446.24083,0.00157
1444.18065,0.00143
1442.12048,0.00135
1440.06031,0.00131
1438.00014,0.00133
1435.93997,0.00144
1433.87979,0.00159
1431.81962,0.00168
1429.75945,0.00164
1427.69928,0.00151
1425.63910,0.00138
1423.57893,0.00128
1421.51876,0.00119
1419.45859,0.00115
1417.39842,0.00123
1415.33824,0.00141
1413.27807,0.00163
1411.21790,0.00181
1409.15773,0.00190
1407.09756,0.00188
1405.03738,0.00181
1402.97721,0.00172
1400.91704,0.00160
1398.85687,0.00144
1396.79670,0.00128
1394.73652,0.00118
1392.67635,0.00114
1390.61618,0.00113
1388.55601,0.00117
1386.49583,0.00128
1384.43566,0.00141
1382.37549,0.00147
1380.31532,0.00146
1378.25515,0.00140
1376.19497,0.00133
1374.13480,0.00127
1372.07463,0.00130
1370.01446,0.00141
1367.95429,0.00148
1365.89411,0.00146
1363.83394,0.00143
1361.77377,0.00148
1359.71360,0.00157
1357.65343,0.00164
1355.59325,0.00167
1353.53308,0.00169
1351.47291,0.00172
1349.41274,0.00174
1347.35256,0.00169
1345.29239,0.00153
1343.23222,0.00127
1341.17205,0.00100
1339.11188,0.00081
1337.05170,0.00077
1334.99153,0.00090
1332.93136,0.00114
1330.87119,0.00140
1328.81102,0.00159
1326.75084,0.00165
1324.69067,0.00160
1322.63050,0.00150
1320.57033,0.00139
1318.51015,0.00131
1316.44998,0.00125
1314.38981,0.00115
1312.32964,0.00103
1310.26947,0.00096
1308.20929,0.00098
1306.14912,0.00105
1304.08895,0.00111
1302.02878,0.00112
1299.96861,0.00111
1297.90843,0.00109
1295.84826,0.00107
1293.78809,0.00107
1291.72792,0.00113
1289.66775,0.00121
1287.60757,0.00125
1285.54740,0.00122
1283.48723,0.00116
1281.42706,0.00111
1279.36688,0.00107
1277.30671,0.00104
1275.24654,0.00103
1273.18637,0.00104
1271.12620,0.00104
1269.06602,0.00101
1267.00585,0.00100
1264.94568,0.00102
1262.88551,0.00106
1260.82534,0.00108
1258.76516,0.00113
1256.70499,0.00121
1254.64482,0.00132
1252.58465,0.00144
1250.52447,0.00152
1248.46430,0.00158
1246.40413,0.00161
1244.34396,0.00163
1242.28379,0.00159
1240.22361,0.00147
1238.16344,0.00129
1236.10327,0.00116
1234.04310,0.00115
1231.98293,0.00125
1229.92275,0.00139
1227.86258,0.00147
1225.80241,0.00146
1223.74224,0.00138
1221.68207,0.00128
1219.62189,0.00118
1217.56172,0.00109
1215.50155,0.00096
1213.44138,0.00079
1211.38120,0.00062
1209.32103,0.00045
1207.26086,0.00033
1205.20069,0.00032
1203.14052,0.00043
1201.08034,0.00056
1199.02017,0.00058
1196.96000,0.00044
1194.89983,0.00020
1192.83966,0.00000
1190.77948,0.00000
1188.71931,0.00010
1186.65914,0.00013
1184.59897,0.00012
1182.53880,0.00017
1180.47862,0.00026
1178.41845,0.00028
1176.35828,0.00022
1174.29811,0.00019
1172.23793,0.00024
1170.17776,0.00038
1168.11759,0.00055
1166.05742,0.00064
1163.99725,0.00070
1161.93707,0.00084
1159.87690,0.00097
1157.81673,0.00097
1155.75656,0.00083
1153.69639,0.00084
1151.63621,0.00114
1149.57604,0.00146
1147.51587,0.00158
1145.45570,0.00166
1143.39552,0.00178
1141.33535,0.00186
1139.27518,0.00184
1137.21501,0.00179
1135.15484,0.00178
1133.09466,0.00188
1131.03449,0.00198
1128.97432,0.00197
1126.91415,0.00201
1124.85398,0.00208
1122.79380,0.00203
1120.73363,0.00195
1118.67346,0.00205
1116.61329,0.00233
1114.55312,0.00258
1112.49294,0.00257
1110.43277,0.00227
1108.37260,0.00202
1106.31243,0.00216
1104.25225,0.00261
1102.19208,0.00299
1100.13191,0.00317
1098.07174,0.00335
1096.01157,0.00355
1093.95139,0.00359
1091.89122,0.00361
1089.83105,0.00394
1087.77088,0.00444
1085.71071,0.00470
1083.65053,0.00468
1081.59036,0.00470
1079.53019,0.00485
1077.47002,0.00496
1075.40985,0.00497
1073.34967,0.00499
1071.28950,0.00512
1069.22933,0.00532
1067.16916,0.00546
1065.10898,0.00542
1063.04881,0.00524
1060.98864,0.00515
1058.92847,0.00525
1056.86830,0.00541
1054.80812,0.00558
1052.74795,0.00581
1050.68778,0.00599
1048.62761,0.00598
1046.56744,0.00601
1044.50726,0.00617
1042.44709,0.00621
1040.38692,0.00602
1038.32675,0.00586
1036.26657,0.00586
1034.20640,0.00592
1032.14623,0.00594
1030.08606,0.00595
1028.02589,0.00609
1025.96571,0.00649
1023.90554,0.00705
1021.84537,0.00729
1019.78520,0.00703
1017.72503,0.00672
1015.66485,0.00658
1013.60468,0.00643
1011.54451,0.00626
1009.48434,0.00609
1007.42417,0.00583
1005.36399,0.00552
1003.30382,0.00538
1001.24365,0.00543
999.18348,0.00562
997.12330,0.00581
995.06313,0.00589
993.00296,0.00579
990.94279,0.00555
988.88262,0.00536
986.82244,0.00529
984.76227,0.00524
982.70210,0.00513
980.64193,0.00499
978.58176,0.00496
976.52158,0.00515
974.46141,0.00529
972.40124,0.00505
970.34107,0.00474
968.28089,0.00470
966.22072,0.00472
964.16055,0.00463
962.10038,0.00454
960.04021,0.00444
957.98003,0.00425
955.91986,0.00403
953.85969,0.00395
951.79952,0.00410
949.73935,0.00439
947.67917,0.00451
945.61900,0.00429
943.55883,0.00386
941.49866,0.00336
939.43849,0.00287
937.37831,0.00264
935.31814,0.00264
933.25797,0.00255
931.19780,0.00241
929.13762,0.00242
927.07745,0.00242
925.01728,0.00223
922.95711,0.00201
920.89694,0.00195
918.83676,0.00192
916.77659,0.00170
914.71642,0.00133
912.65625,0.00110
910.59608,0.00118
908.53590,0.00149
906.47573,0.00178
904.41556,0.00176
902.35539,0.00145
900.29522,0.00126
898.23504,0.00133
896.17487,0.00141
894.11470,0.00140
892.05453,0.00137
889.99435,0.00122
887.93418,0.00092
885.87401,0.00070
883.81384,0.00070
881.75367,0.00082
879.69349,0.00101
877.63332,0.00134
875.57315,0.00176
873.51298,0.00203
871.45281,0.00209
869.39263,0.00193
867.33246,0.00146
865.27229,0.00090
863.21212,0.00082
861.15194,0.00128
859.09177,0.00183
857.03160,0.00215
854.97143,0.00221
852.91126,0.00219
850.85108,0.00208
848.79091,0.00182
846.73074,0.00168
844.67057,0.00172
842.61040,0.00157
840.55022,0.00100
838.49005,0.00034
836.42988,0.00000
834.36971,0.00004
832.30954,0.00036
830.24936,0.00072
828.18919,0.00086
826.12902,0.00090
824.06885,0.00092
822.00867,0.00095
819.94850,0.00119
817.88833,0.00172
815.82816,0.00236
813.76799,0.00272
811.70781,0.00243
809.64764,0.00164
807.58747,0.00086
805.52730,0.00029
803.46713,0.00000
801.40695,0.00018
799.34678,0.00066
797.28661,0.00081
795.22644,0.00062
793.16627,0.00081
791.10609,0.00143
789.04592,0.00192
786.98575,0.00210
784.92558,0.00209
782.86540,0.00180
780.80523,0.00127
778.74506,0.00083
776.68489,0.00070
774.62472,0.00091
772.56454,0.00124
770.50437,0.00136
768.44420,0.00114
766.38403,0.00093
764.32386,0.00102
762.26368,0.00125
760.20351,0.00131
758.14334,0.00093
756.08317,0.00053
754.02299,0.00093
751.96282,0.00180
749.90265,0.00200
747.84248,0.00151
745.78231,0.00106
743.72213,0.00094
741.66196,0.00110
739.60179,0.00157
737.54162,0.00216
735.48145,0.00250
733.42127,0.00242
731.36110,0.00184
729.30093,0.00097
727.24076,0.00044
725.18059,0.00052
723.12041,0.00092
721.06024,0.00117
719.00007,0.00102
716.93990,0.00066
714.87972,0.00037
712.81955,0.00030
710.75938,0.00050
708.69921,0.00083
706.63904,0.00103
704.57886,0.00100
702.51869,0.00092
700.45852,0.00093
698.39835,0.00101
696.33818,0.00111
694.27800,0.00124
692.21783,0.00144
690.15766,0.00163
688.09749,0.00170
686.03731,0.00164
683.97714,0.00151
681.91697,0.00140
679.85680,0.00140
677.79663,0.00172
675.73645,0.00262
673.67628,0.00394
671.61611,0.00512
669.55594,0.00555
667.49577,0.00507
665.43559,0.00415
663.37542,0.00337
661.31525,0.00293
659.25508,0.00287
657.19491,0.00305
655.13473,0.00300
653.07456,0.00235
651.01439,0.00132
648.95422,0.00051
646.89404,0.00047
644.83387,0.00135
642.77370,0.00279
640.71353,0.00417
638.65336,0.00502
636.59318,0.00525
634.53301,0.00517
632.47284,0.00489
630.41267,0.00394
628.35250,0.00201
626.29232,0.00000
624.23215,-0.00017
622.17198,0.00125
620.11181,0.00198
618.05164,0.00231
615.99146,0.00383
613.93129,0.00643
611.87112,0.00824
609.81095,0.00713
607.75077,0.00352
605.69060,-0.00004
603.63043,-0.00208
601.57026,-0.00197
599.51009,0.00000
