3996.73391,0.00059
3994.67373,0.00054
3992.61356,0.00023
3990.55339,0.00000
3988.49322,0.00010
3986.43305,0.00029
3984.37287,0.00025
3982.31270,0.00017
3980.25253,0.00028
3978.19236,0.00034
3976.13219,0.00023
3974.07201,0.00010
3972.01184,0.00015
3969.95167,0.00044
3967.89150,0.00068
3965.83133,0.00059
3963.77115,0.00032
3961.71098,0.00023
3959.65081,0.00036
3957.59064,0.00055
3955.53046,0.00071
3953.47029,0.00087
3951.41012,0.00101
3949.34995,0.00109
3947.28978,0.00101
3945.22960,0.00077
3943.16943,0.00055
3941.10926,0.00037
3939.04909,0.00031
3936.98892,0.00050
3934.92874,0.00076
3932.86857,0.00070
3930.80840,0.00043
3928.74823,0.00025
3926.68805,0.00022
3924.62788,0.00021
3922.56771,0.00010
3920.50754,0.00002
3918.44737,0.00020
3916.38719,0.00052
3914.32702,0.00061
3912.26685,0.00054
3910.20668,0.00061
3908.14651,0.00069
3906.08633,0.00047
3904.02616,0.00010
3901.96599,0.00000
3899.90582,0.00027
3897.84565,0.00057
3895.78547,0.00062
3893.72530,0.00059
3891.66513,0.00080
3889.60496,0.00116
3887.54478,0.00124
3885.48461,0.00102
3883.42444,0.00081
3881.36427,0.00070
3879.30410,0.00060
3877.24392,0.00056
3875.18375,0.00064
3873.12358,0.00083
3871.06341,0.00095
3869.00324,0.00089
3866.94306,0.00085
3864.88289,0.00094
3862.82272,0.00096
3860.76255,0.00095
3858.70237,0.00109
3856.64220,0.00130
3854.58203,0.00135
3852.52186,0.00103
3850.46169,0.00062
3848.40151,0.00046
3846.34134,0.00053
3844.28117,0.00062
3842.22100,0.00049
3840.16083,0.00025
3838.10065,0.00015
3836.04048,0.00007
3833.98031,0.00009
3831.92014,0.00044
3829.85997,0.00080
3827.79979,0.00074
3825.73962,0.00043
3823.67945,0.00034
3821.61928,0.00044
3819.55910,0.00052
3817.49893,0.00063
3815.43876,0.00063
3813.37859,0.00045
3811.31842,0.00038
3809.25824,0.00046
3807.19807,0.00044
3805.13790,0.00033
3803.07773,0.00036
3801.01756,0.00052
3798.95738,0.00049
3796.89721,0.00034
3794.83704,0.00037
3792.77687,0.00052
3790.71670,0.00063
3788.65652,0.00074
3786.59635,0.00086
3784.53618,0.00084
3782.47601,0.00074
3780.41583,0.00071
3778.35566,0.00082
3776.29549,0.00089
3774.23532,0.00085
3772.17515,0.00085
3770.11497,0.00092
3768.05480,0.00102
3765.99463,0.00103
3763.93446,0.00082
3761.87429,0.00063
3759.81411,0.00074
3757.75394,0.00097
3755.69377,0.00102
3753.63360,0.00091
3751.57342,0.00070
3749.51325,0.00061
3747.45308,0.00084
3745.39291,0.00112
3743.33274,0.00122
3741.27256,0.00126
3739.21239,0.00122
3737.15222,0.00104
3735.09205,0.00083
3733.03188,0.00061
3730.97170,0.00058
3728.91153,0.00095
3726.85136,0.00140
3724.79119,0.00146
3722.73102,0.00120
3720.67084,0.00117
3718.61067,0.00129
3716.55050,0.00112
3714.49033,0.00071
3712.43015,0.00040
3710.36998,0.00040
3708.30981,0.00072
3706.24964,0.00113
3704.18947,0.00111
3702.12929,0.00074
3700.06912,0.00061
3698.00895,0.00083
3695.94878,0.00103
3693.88861,0.00087
3691.82843,0.00037
3689.76826,0.00000
3687.70809,0.00016
3685.64792,0.00046
3683.58775,0.00056
3681.52757,0.00058
3679.46740,0.00070
3677.40723,0.00075
3675.34706,0.00063
3673.28688,0.00068
3671.22671,0.00103
3669.16654,0.00135
3667.10637,0.00134
3665.04620,0.00111
3662.98602,0.00089
3660.92585,0.00067
3658.86568,0.00049
3656.80551,0.00056
3654.74534,0.00085
3652.68516,0.00108
3650.62499,0.00114
3648.56482,0.00101
3646.50465,0.00107
3644.44447,0.00149
3642.38430,0.00187
3640.32413,0.00191
3638.26396,0.00173
3636.20379,0.00171
3634.14361,0.00202
3632.08344,0.00235
3630.02327,0.00241
3627.96310,0.00238
3625.90293,0.00246
3623.84275,0.00260
3621.78258,0.00278
3619.72241,0.00307
3617.66224,0.00330
3615.60207,0.00339
3613.54189,0.00366
3611.48172,0.00395
3609.42155,0.00390
3607.36138,0.00358
3605.30120,0.00344
3603.24103,0.00369
3601.18086,0.00413
3599.12069,0.00440
3597.06052,0.00442
3595.00034,0.00438
3592.94017,0.00436
3590.88000,0.00436
3588.81983,0.00433
3586.75966,0.00444
3584.69948,0.00463
3582.63931,0.00466
3580.57914,0.00465
3578.51897,0.00473
3576.45879,0.00480
3574.39862,0.00492
3572.33845,0.00525
3570.27828,0.00568
3568.21811,0.00581
3566.15793,0.00569
3564.09776,0.00575
3562.03759,0.00603
3559.97742,0.00631
3557.91725,0.00643
3555.85707,0.00641
3553.79690,0.00638
3551.73673,0.00649
3549.67656,0.00667
3547.61639,0.00687
3545.55621,0.00708
3543.49604,0.00737
3541.43587,0.00769
3539.37570,0.00789
3537.31552,0.00796
3535.25535,0.00812
3533.19518,0.00825
3531.13501,0.00814
3529.07484,0.00797
3527.01466,0.00807
3524.95449,0.00842
3522.89432,0.00881
3520.83415,0.00914
3518.77398,0.00941
3516.71380,0.00965
3514.65363,0.00983
3512.59346,0.00989
3510.53329,0.00997
3508.47312,0.01016
3506.41294,0.01023
3504.35277,0.01007
3502.29260,0.01000
3500.23243,0.01018
3498.17225,0.01037
3496.11208,0.01053
3494.05191,0.01068
3491.99174,0.01077
3489.93157,0.01101
3487.87139,0.01137
3485.81122,0.01144
3483.75105,0.01116
3481.69088,0.01106
3479.63071,0.01138
3477.57053,0.01176
3475.51036,0.01201
3473.45019,0.01221
3471.39002,0.01239
3469.32984,0.01254
3467.26967,0.01266
3465.20950,0.01278
3463.14933,0.01281
3461.08916,0.01285
3459.02898,0.01299
3456.96881,0.01321
3454.90864,0.01345
3452.84847,0.01359
3450.78830,0.01365
3448.72812,0.01379
3446.66795,0.01399
3444.60778,0.01407
3442.54761,0.01404
3440.48744,0.01412
3438.42726,0.01426
3436.36709,0.01432
3434.30692,0.01447
3432.24675,0.01479
3430.18657,0.01500
3428.12640,0.01504
3426.06623,0.01512
3424.00606,0.01507
3421.94589,0.01490
3419.88571,0.01491
3417.82554,0.01505
3415.76537,0.01512
3413.70520,0.01506
3411.64503,0.01504
3409.58485,0.01526
3407.52468,0.01553
3405.46451,0.01565
3403.40434,0.01574
3401.34416,0.01595
3399.28399,0.01624
3397.22382,0.01627
3395.16365,0.01602
3393.10348,0.01586
3391.04330,0.01603
3388.98313,0.01631
3386.92296,0.01641
3384.86279,0.01637
3382.80262,0.01639
3380.74244,0.01642
3378.68227,0.01648
3376.62210,0.01667
3374.56193,0.01680
3372.50176,0.01677
3370.44158,0.01678
3368.38141,0.01692
3366.32124,0.01697
3364.26107,0.01704
3362.20089,0.01740
3360.14072,0.01763
3358.08055,0.01733
3356.02038,0.01698
3353.96021,0.01703
3351.90003,0.01728
3349.83986,0.01740
3347.77969,0.01739
3345.71952,0.01742
3343.65935,0.01750
3341.59917,0.01753
3339.53900,0.01747
3337.47883,0.01745
3335.41866,0.01755
3333.35849,0.01755
3331.29831,0.01740
3329.23814,0.01742
3327.17797,0.01760
3325.11780,0.01767
3323.05762,0.01745
3320.99745,0.01722
3318.93728,0.01734
3316.87711,0.01746
3314.81694,0.01722
3312.75676,0.01696
3310.69659,0.01707
3308.63642,0.01747
3306.57625,0.01782
3304.51608,0.01787
3302.45590,0.01783
3300.39573,0.01791
3298.33556,0.01798
3296.27539,0.01787
3294.21521,0.01757
3292.15504,0.01741
3290.09487,0.01752
3288.03470,0.01767
3285.97453,0.01783
3283.91435,0.01797
3281.85418,0.01786
3279.79401,0.01780
3277.73384,0.01796
3275.67367,0.01794
3273.61349,0.01763
3271.55332,0.01737
3269.49315,0.01729
3267.43298,0.01722
3265.37281,0.01710
3263.31263,0.01721
3261.25246,0.01752
3259.19229,0.01767
3257.13212,0.01753
3255.07194,0.01737
3253.01177,0.01734
3250.95160,0.01716
3248.89143,0.01695
3246.83126,0.01698
3244.77108,0.01701
3242.71091,0.01694
3240.65074,0.01695
3238.59057,0.01698
3236.53040,0.01685
3234.47022,0.01662
3232.41005,0.01649
3230.34988,0.01653
3228.28971,0.01662
3226.22954,0.01667
3224.16936,0.01677
3222.10919,0.01685
3220.04902,0.01675
3217.98885,0.01660
3215.92867,0.01647
3213.86850,0.01626
3211.80833,0.01604
3209.74816,0.01593
3207.68799,0.01591
3205.62781,0.01601
3203.56764,0.01611
3201.50747,0.01603
3199.44730,0.01591
3197.38713,0.01595
3195.32695,0.01597
3193.26678,0.01572
3191.20661,0.01535
3189.14644,0.01523
3187.08626,0.01533
3185.02609,0.01530
3182.96592,0.01514
3180.90575,0.01507
3178.84558,0.01504
3176.78540,0.01491
3174.72523,0.01467
3172.66506,0.01446
3170.60489,0.01450
3168.54472,0.01470
3166.48454,0.01466
3164.42437,0.01432
3162.36420,0.01409
3160.30403,0.01409
3158.24386,0.01419
3156.18368,0.01409
3154.12351,0.01372
3152.06334,0.01344
3150.00317,0.01351
3147.94299,0.01359
3145.88282,0.01346
3143.82265,0.01332
3141.76248,0.01326
3139.70231,0.01321
3137.64213,0.01319
3135.58196,0.01318
3133.52179,0.01310
3131.46162,0.01303
3129.40145,0.01305
3127.34127,0.01300
3125.28110,0.01280
3123.22093,0.01257
3121.16076,0.01248
3119.10058,0.01243
3117.04041,0.01234
3114.98024,0.01231
3112.92007,0.01225
3110.85990,0.01217
3108.79972,0.01208
3106.73955,0.01190
3104.67938,0.01167
3102.61921,0.01153
3100.55904,0.01158
3098.49886,0.01169
3096.43869,0.01164
3094.37852,0.01135
3092.31835,0.01104
3090.25818,0.01095
3088.19800,0.01095
3086.13783,0.01087
3084.07766,0.01073
3082.01749,0.01064
3079.95731,0.01061
3077.89714,0.01038
3075.83697,0.01024
3073.77680,0.01044
3071.71663,0.01058
3069.65645,0.01048
3067.59628,0.01040
3065.53611,0.01032
3063.47594,0.01014
3061.41577,0.01005
3059.35559,0.01011
3057.29542,0.01013
3055.23525,0.00998
3053.17508,0.00979
3051.11491,0.00973
3049.05473,0.00972
3046.99456,0.00971
3044.93439,0.00972
3042.87422,0.00974
3040.81404,0.00973
3038.75387,0.00965
3036.69370,0.00946
3034.63353,0.00924
3032.57336,0.00911
3030.51318,0.00905
3028.45301,0.00897
3026.39284,0.00882
3024.33267,0.00865
3022.27250,0.00856
3020.21232,0.00865
3018.15215,0.00884
3016.09198,0.00882
3014.03181,0.00862
3011.97163,0.00850
3009.91146,0.00846
3007.85129,0.00835
3005.79112,0.00826
3003.73095,0.00834
3001.67077,0.00845
2999.61060,0.00841
2997.55043,0.00830
2995.49026,0.00830
2993.43009,0.00841
2991.36991,0.00845
2989.30974,0.00852
2987.24957,0.00869
2985.18940,0.00878
2983.12923,0.00875
2981.06905,0.00880
2979.00888,0.00896
2976.94871,0.00912
2974.88854,0.00934
2972.82836,0.00970
2970.76819,0.00998
2968.70802,0.01007
2966.64785,0.01013
2964.58768,0.01046
2962.52750,0.01093
2960.46733,0.01121
2958.40716,0.01132
2956.34699,0.01130
2954.28682,0.01118
2952.22664,0.01111
2950.16647,0.01114
2948.10630,0.01123
2946.04613,0.01126
2943.98596,0.01124
2941.92578,0.01138
2939.86561,0.01161
2937.80544,0.01172
2935.74527,0.01180
2933.68509,0.01193
2931.62492,0.01208
2929.56475,0.01219
2927.50458,0.01207
2925.44441,0.01182
2923.38423,0.01177
2921.32406,0.01194
2919.26389,0.01202
2917.20372,0.01183
2915.14355,0.01162
2913.08337,0.01141
2911.02320,0.01112
2908.96303,0.01093
2906.90286,0.01095
2904.84268,0.01108
2902.78251,0.01117
2900.72234,0.01103
2898.66217,0.01076
2896.60200,0.01068
2894.54182,0.01076
2892.48165,0.01087
2890.42148,0.01085
2888.36131,0.01074
2886.30114,0.01069
2884.24096,0.01065
2882.18079,0.01056
2880.12062,0.01053
2878.06045,0.01064
2876.00028,0.01074
2873.94010,0.01074
2871.87993,0.01057
2869.81976,0.01034
2867.75959,0.01027
2865.69941,0.01023
2863.63924,0.01011
2861.57907,0.00997
2859.51890,0.00987
2857.45873,0.00982
2855.39855,0.00968
2853.33838,0.00951
2851.27821,0.00948
2849.21804,0.00945
2847.15787,0.00924
2845.09769,0.00884
2843.03752,0.00844
2840.97735,0.00828
2838.91718,0.00830
2836.85700,0.00825
2834.79683,0.00818
2832.73666,0.00820
2830.67649,0.00819
2828.61632,0.00807
2826.55614,0.00798
2824.49597,0.00807
2822.43580,0.00824
2820.37563,0.00816
2818.31546,0.00789
2816.25528,0.00779
2814.19511,0.00782
2812.13494,0.00780
2810.07477,0.00769
2808.01460,0.00755
2805.95442,0.00751
2803.89425,0.00760
2801.83408,0.00779
2799.77391,0.00789
2797.71373,0.00771
2795.65356,0.00746
2793.59339,0.00740
2791.53322,0.00745
2789.47305,0.00751
2787.41287,0.00758
2785.35270,0.00760
2783.29253,0.00753
2781.23236,0.00749
2779.17219,0.00749
2777.11201,0.00746
2775.05184,0.00736
2772.99167,0.00727
2770.93150,0.00714
2768.87133,0.00695
2766.81115,0.00682
2764.75098,0.00676
2762.69081,0.00680
2760.63064,0.00687
2758.57046,0.00682
2756.51029,0.00676
2754.45012,0.00685
2752.38995,0.00697
2750.32978,0.00691
2748.26960,0.00684
2746.20943,0.00696
2744.14926,0.00708
2742.08909,0.00701
2740.02892,0.00691
2737.96874,0.00692
2735.90857,0.00695
2733.84840,0.00692
2731.78823,0.00688
2729.72805,0.00685
2727.66788,0.00689
2725.60771,0.00694
2723.54754,0.00694
2721.48737,0.00685
2719.42719,0.00672
2717.36702,0.00673
2715.30685,0.00688
2713.24668,0.00694
2711.18651,0.00690
2709.12633,0.00685
2707.06616,0.00677
2705.00599,0.00672
2702.94582,0.00668
2700.88565,0.00662
2698.82547,0.00667
2696.76530,0.00674
2694.70513,0.00674
2692.64496,0.00675
2690.58478,0.00670
2688.52461,0.00658
2686.46444,0.00652
2684.40427,0.00651
2682.34410,0.00641
2680.28392,0.00631
2678.22375,0.00635
2676.16358,0.00637
2674.10341,0.00627
2672.04324,0.00616
2669.98306,0.00608
2667.92289,0.00608
2665.86272,0.00613
2663.80255,0.00609
2661.74238,0.00605
2659.68220,0.00612
2657.62203,0.00626
2655.56186,0.00633
2653.50169,0.00632
2651.44151,0.00634
2649.38134,0.00639
2647.32117,0.00639
2645.26100,0.00639
2643.20083,0.00628
2641.14065,0.00607
2639.08048,0.00593
2637.02031,0.00587
2634.96014,0.00586
2632.89997,0.00588
2630.83979,0.00586
2628.77962,0.00577
2626.71945,0.00571
2624.65928,0.00581
2622.59910,0.00593
2620.53893,0.00591
2618.47876,0.00587
2616.41859,0.00583
2614.35842,0.00576
2612.29824,0.00563
2610.23807,0.00551
2608.17790,0.00553
2606.11773,0.00557
2604.05756,0.00535
2601.99738,0.00505
2599.93721,0.00500
2597.87704,0.00510
2595.81687,0.00518
2593.75670,0.00531
2591.69652,0.00541
2589.63635,0.00530
2587.57618,0.00527
2585.51601,0.00534
2583.45583,0.00522
2581.39566,0.00517
2579.33549,0.00528
2577.27532,0.00521
2575.21515,0.00521
2573.15497,0.00541
2571.09480,0.00531
2569.03463,0.00496
2566.97446,0.00475
2564.91429,0.00488
2562.85411,0.00522
2560.79394,0.00544
2558.73377,0.00540
2556.67360,0.00526
2554.61342,0.00524
2552.55325,0.00533
2550.49308,0.00544
2548.43291,0.00530
2546.37274,0.00491
2544.31256,0.00458
2542.25239,0.00433
2540.19222,0.00437
2538.13205,0.00477
2536.07188,0.00518
2534.01170,0.00537
2531.95153,0.00522
2529.89136,0.00493
2527.83119,0.00491
2525.77102,0.00502
2523.71084,0.00474
2521.65067,0.00431
2519.59050,0.00422
2517.53033,0.00430
2515.47015,0.00427
2513.40998,0.00436
2511.34981,0.00474
2509.28964,0.00498
2507.22947,0.00475
2505.16929,0.00428
2503.10912,0.00413
2501.04895,0.00454
2498.98878,0.00493
2496.92861,0.00475
2494.86843,0.00440
2492.80826,0.00442
2490.74809,0.00471
2488.68792,0.00509
2486.62775,0.00529
2484.56757,0.00513
2482.50740,0.00495
2480.44723,0.00504
2478.38706,0.00519
2476.32688,0.00497
2474.26671,0.00441
2472.20654,0.00417
2470.14637,0.00434
2468.08620,0.00423
2466.02602,0.00381
2463.96585,0.00379
2461.90568,0.00416
2459.84551,0.00438
2457.78534,0.00441
2455.72516,0.00448
2453.66499,0.00466
2451.60482,0.00476
2449.54465,0.00461
2447.48447,0.00429
2445.42430,0.00403
2443.36413,0.00398
2441.30396,0.00406
2439.24379,0.00418
2437.18361,0.00437
2435.12344,0.00454
2433.06327,0.00457
2431.00310,0.00456
2428.94293,0.00461
2426.88275,0.00456
2424.82258,0.00430
2422.76241,0.00410
2420.70224,0.00414
2418.64207,0.00418
2416.58189,0.00411
2414.52172,0.00420
2412.46155,0.00440
2410.40138,0.00442
2408.34120,0.00436
2406.28103,0.00445
2404.22086,0.00452
2402.16069,0.00439
2400.10052,0.00430
2398.04034,0.00418
2395.98017,0.00407
2393.92000,0.00389
2391.85983,0.00377
2389.79966,0.00383
2387.73948,0.00410
2385.67931,0.00453
2383.61914,0.00503
2381.55897,0.00565
2379.49880,0.00641
2377.43862,0.00703
2375.37845,0.00713
2373.31828,0.00720
2371.25811,0.00780
2369.19793,0.00853
2367.13776,0.00909
2365.07759,0.00989
2363.01742,0.01076
2360.95725,0.01139
2358.89707,0.01072
2356.83690,0.01022
2354.77673,0.01017
2352.71656,0.01004
2350.65639,0.01054
2348.59621,0.01054
2346.53604,0.00897
2344.47587,0.00888
2342.41570,0.00937
2340.35552,0.00951
2338.29535,0.00960
2336.23518,0.00943
2334.17501,0.00917
2332.11484,0.00887
2330.05466,0.00907
2327.99449,0.00983
2325.93432,0.01065
2323.87415,0.01028
2321.81398,0.00911
2319.75380,0.00794
2317.69363,0.00751
2315.63346,0.00711
2313.57329,0.00671
2311.51312,0.00664
2309.45294,0.00656
2307.39277,0.00616
2305.33260,0.00581
2303.27243,0.00578
2301.21225,0.00571
2299.15208,0.00543
2297.09191,0.00518
2295.03174,0.00524
2292.97157,0.00538
2290.91139,0.00525
2288.85122,0.00502
2286.79105,0.00500
2284.73088,0.00505
2282.67071,0.00480
2280.61053,0.00426
2278.55036,0.00385
2276.49019,0.00379
2274.43002,0.00411
2272.36984,0.00487
2270.30967,0.00537
2268.24950,0.00497
2266.18933,0.00425
2264.12916,0.00380
2262.06898,0.00343
2260.00881,0.00316
2257.94864,0.00330
2255.88847,0.00376
2253.82830,0.00391
2251.76812,0.00369
2249.70795,0.00361
2247.64778,0.00396
2245.58761,0.00452
2243.52744,0.00461
2241.46726,0.00410
2239.40709,0.00383
2237.34692,0.00371
2235.28675,0.00357
2233.22657,0.00375
2231.16640,0.00384
2229.10623,0.00333
2227.04606,0.00280
2224.98589,0.00322
2222.92571,0.00400
2220.86554,0.00403
2218.80537,0.00338
2216.74520,0.00257
2214.68503,0.00223
2212.62485,0.00266
2210.56468,0.00321
2208.50451,0.00352
2206.44434,0.00403
2204.38417,0.00462
2202.32399,0.00489
2200.26382,0.00496
2198.20365,0.00471
2196.14348,0.00414
2194.08330,0.00369
2192.02313,0.00367
2189.96296,0.00405
2187.90279,0.00411
2185.84262,0.00353
2183.78244,0.00306
2181.72227,0.00348
2179.66210,0.00405
2177.60193,0.00331
2175.54176,0.00203
2173.48158,0.00211
2171.42141,0.00300
2169.36124,0.00306
2167.30107,0.00247
2165.24089,0.00221
2163.18072,0.00190
2161.12055,0.00097
2159.06038,0.00012
2157.00021,0.00000
2154.94003,0.00064
2152.87986,0.00160
2150.81969,0.00239
2148.75952,0.00275
2146.69935,0.00257
2144.63917,0.00217
2142.57900,0.00188
2140.51883,0.00173
2138.45866,0.00147
2136.39849,0.00108
2134.33831,0.00109
2132.27814,0.00164
2130.21797,0.00232
2128.15780,0.00275
2126.09762,0.00288
2124.03745,0.00307
2121.97728,0.00345
2119.91711,0.00354
2117.85694,0.00331
2115.79676,0.00307
2113.73659,0.00299
2111.67642,0.00326
2109.61625,0.00353
2107.55608,0.00332
2105.49590,0.00300
2103.43573,0.00307
2101.37556,0.00329
2099.31539,0.00342
2097.25521,0.00322
2095.19504,0.00284
2093.13487,0.00287
2091.07470,0.00301
2089.01453,0.00294
2086.95435,0.00285
2084.89418,0.00263
2082.83401,0.00254
2080.77384,0.00275
2078.71367,0.00282
2076.65349,0.00279
2074.59332,0.00293
2072.53315,0.00312
2070.47298,0.00298
2068.41281,0.00242
2066.35263,0.00190
2064.29246,0.00217
2062.23229,0.00320
2060.17212,0.00386
2058.11194,0.00337
2056.05177,0.00237
2053.99160,0.00197
2051.93143,0.00213
2049.87126,0.00236
2047.81108,0.00279
2045.75091,0.00302
2043.69074,0.00319
2041.63057,0.00405
2039.57040,0.00456
2037.51022,0.00365
2035.45005,0.00237
2033.38988,0.00192
2031.32971,0.00173
2029.26954,0.00137
2027.20936,0.00124
2025.14919,0.00154
2023.08902,0.00252
2021.02885,0.00349
2018.96867,0.00335
2016.90850,0.00267
2014.84833,0.00234
2012.78816,0.00216
2010.72799,0.00175
2008.66781,0.00153
2006.60764,0.00191
2004.54747,0.00208
2002.48730,0.00191
2000.42713,0.00205
1998.36695,0.00213
1996.30678,0.00234
1994.24661,0.00306
1992.18644,0.00319
1990.12626,0.00188
1988.06609,0.00055
1986.00592,0.00106
1983.94575,0.00305
1981.88558,0.00451
1979.82540,0.00408
1977.76523,0.00278
1975.70506,0.00219
1973.64489,0.00180
1971.58472,0.00120
1969.52454,0.00106
1967.46437,0.00118
1965.40420,0.00120
1963.34403,0.00092
1961.28386,0.00013
1959.22368,0.00000
1957.16351,0.00122
1955.10334,0.00207
1953.04317,0.00167
1950.98299,0.00132
1948.92282,0.00187
1946.86265,0.00265
1944.80248,0.00287
1942.74231,0.00251
1940.68213,0.00194
1938.62196,0.00164
1936.56179,0.00180
1934.50162,0.00203
1932.44145,0.00190
1930.38127,0.00146
1928.32110,0.00103
1926.26093,0.00089
1924.20076,0.00114
1922.14059,0.00175
1920.08041,0.00224
1918.02024,0.00222
1915.96007,0.00204
1913.89990,0.00181
1911.83972,0.00145
1909.77955,0.00119
1907.71938,0.00117
1905.65921,0.00133
1903.59904,0.00145
1901.53886,0.00131
1899.47869,0.00113
1897.41852,0.00116
1895.35835,0.00137
1893.29818,0.00162
1891.23800,0.00182
1889.17783,0.00183
1887.11766,0.00168
1885.05749,0.00153
1882.99731,0.00142
1880.93714,0.00141
1878.87697,0.00157
1876.81680,0.00168
1874.75663,0.00155
1872.69645,0.00130
1870.63628,0.00121
1868.57611,0.00134
1866.51594,0.00132
1864.45577,0.00109
1862.39559,0.00100
1860.33542,0.00112
1858.27525,0.00124
1856.21508,0.00124
1854.15491,0.00120
1852.09473,0.00118
1850.03456,0.00119
1847.97439,0.00126
1845.91422,0.00139
1843.85404,0.00154
1841.79387,0.00161
1839.73370,0.00157
1837.67353,0.00152
1835.61336,0.00139
1833.55318,0.00113
1831.49301,0.00098
1829.43284,0.00111
1827.37267,0.00137
1825.31250,0.00152
1823.25232,0.00145
1821.19215,0.00126
1819.13198,0.00105
1817.07181,0.00088
1815.01163,0.00081
1812.95146,0.00083
1810.89129,0.00087
1808.83112,0.00082
1806.77095,0.00077
1804.71077,0.00076
1802.65060,0.00068
1800.59043,0.00057
1798.53026,0.00064
1796.47009,0.00088
1794.40991,0.00099
1792.34974,0.00090
1790.28957,0.00088
1788.22940,0.00092
1786.16923,0.00086
1784.10905,0.00078
1782.04888,0.00083
1779.98871,0.00088
1777.92854,0.00082
1775.86836,0.00076
1773.80819,0.00077
1771.74802,0.00080
1769.68785,0.00088
1767.62768,0.00110
1765.56750,0.00131
1763.50733,0.00133
1761.44716,0.00130
1759.38699,0.00153
1757.32682,0.00195
1755.26664,0.00226
1753.20647,0.00244
1751.14630,0.00273
1749.08613,0.00325
1747.02596,0.00398
1744.96578,0.00478
1742.90561,0.00556
1740.84544,0.00645
1738.78527,0.00743
1736.72509,0.00812
1734.66492,0.00842
1732.60475,0.00848
1730.54458,0.00843
1728.48441,0.00824
1726.42423,0.00788
1724.36406,0.00737
1722.30389,0.00680
1720.24372,0.00623
1718.18355,0.00562
1716.12337,0.00503
1714.06320,0.00454
1712.00303,0.00411
1709.94286,0.00373
1707.88268,0.00343
1705.82251,0.00322
1703.76234,0.00311
1701.70217,0.00301
1699.64200,0.00270
1697.58182,0.00237
1695.52165,0.00237
1693.46148,0.00262
1691.40131,0.00282
1689.34114,0.00290
1687.28096,0.00299
1685.22079,0.00313
1683.16062,0.00324
1681.10045,0.00332
1679.04028,0.00343
1676.98010,0.00357
1674.91993,0.00372
1672.85976,0.00390
1670.79959,0.00414
1668.73941,0.00439
1666.67924,0.00453
1664.61907,0.00459
1662.55890,0.00482
1660.49873,0.00527
1658.43855,0.00563
1656.37838,0.00582
1654.31821,0.00595
1652.25804,0.00607
1650.19787,0.00610
1648.13769,0.00614
1646.07752,0.00632
1644.01735,0.00654
1641.95718,0.00669
1639.89701,0.00680
1637.83683,0.00690
1635.77666,0.00699
1633.71649,0.00711
1631.65632,0.00717
1629.59614,0.00717
1627.53597,0.00720
1625.47580,0.00724
1623.41563,0.00726
1621.35546,0.00728
1619.29528,0.00729
1617.23511,0.00737
1615.17494,0.00753
1613.11477,0.00762
1611.05460,0.00758
1608.99442,0.00752
1606.93425,0.00741
1604.87408,0.00719
1602.81391,0.00686
1600.75373,0.00645
1598.69356,0.00605
1596.63339,0.00568
1594.57322,0.00531
1592.51305,0.00495
1590.45287,0.00468
1588.39270,0.00444
1586.33253,0.00413
1584.27236,0.00375
1582.21219,0.00336
1580.15201,0.00304
1578.09184,0.00282
1576.03167,0.00272
1573.97150,0.00267
1571.91133,0.00253
1569.85115,0.00222
1567.79098,0.00192
1565.73081,0.00174
1563.67064,0.00165
1561.61046,0.00158
1559.55029,0.00147
1557.49012,0.00134
1555.42995,0.00130
1553.36978,0.00131
1551.30960,0.00129
1549.24943,0.00123
1547.18926,0.00105
1545.12909,0.00080
1543.06892,0.00064
1541.00874,0.00053
1538.94857,0.00035
1536.88840,0.00022
1534.82823,0.00019
1532.76805,0.00025
1530.70788,0.00036
1528.64771,0.00039
1526.58754,0.00027
1524.52737,0.00013
1522.46719,0.00008
1520.40702,0.00007
1518.34685,0.00002
1516.28668,0.00001
1514.22651,0.00008
1512.16633,0.00007
1510.10616,-0.00003
1508.04599,0.00001
1505.98582,0.00018
1503.92565,0.00024
1501.86547,0.00021
1499.80530,0.00020
1497.74513,0.00022
1495.68496,0.00023
1493.62478,0.00020
1491.56461,0.00017
1489.50444,0.00012
1487.44427,0.00012
1485.38410,0.00030
1483.32392,0.00063
1481.26375,0.00097
1479.20358,0.00125
1477.14341,0.00151
1475.08324,0.00169
1473.02306,0.00184
1470.96289,0.00215
1468.90272,0.00253
1466.84255,0.00289
1464.78238,0.00321
1462.72220,0.00341
1460.66203,0.00349
1458.60186,0.00356
1456.54169,0.00365
1454.48151,0.00373
1452.42134,0.00389
1450.36117,0.00409
1448.30100,0.00424
1446.24083,0.00435
1444.18065,0.00444
1442.12048,0.00452
1440.06031,0.00462
1438.00014,0.00472
1435.93997,0.00483
1433.87979,0.00493
1431.81962,0.00499
1429.75945,0.00507
1427.69928,0.00522
1425.63910,0.00539
1423.57893,0.00555
1421.51876,0.00561
1419.45859,0.00556
1417.39842,0.00557
1415.33824,0.00572
1413.27807,0.00591
1411.21790,0.00604
1409.15773,0.00603
1407.09756,0.00590
1405.03738,0.00574
1402.97721,0.00566
1400.91704,0.00566
1398.85687,0.00561
1396.79670,0.00554
1394.73652,0.00549
1392.67635,0.00538
1390.61618,0.00526
1388.55601,0.00524
1386.49583,0.00528
1384.43566,0.00530
1382.37549,0.00540
1380.31532,0.00562
1378.25515,0.00586
1376.19497,0.00603
1374.13480,0.00615
1372.07463,0.00622
1370.01446,0.00622
1367.95429,0.00619
1365.89411,0.00618
1363.83394,0.00611
1361.77377,0.00591
1359.71360,0.00564
1357.65343,0.00541
1355.59325,0.00528
1353.53308,0.00529
1351.47291,0.00537
1349.41274,0.00537
1347.35256,0.00519
1345.29239,0.00498
1343.23222,0.00492
1341.17205,0.00492
1339.11188,0.00485
1337.05170,0.00476
1334.99153,0.00473
1332.93136,0.00471
1330.87119,0.00469
1328.81102,0.00469
1326.75084,0.00472
1324.69067,0.00475
1322.63050,0.00474
1320.57033,0.00476
1318.51015,0.00483
1316.44998,0.00482
1314.38981,0.00474
1312.32964,0.00470
1310.26947,0.00472
1308.20929,0.00472
1306.14912,0.00460
1304.08895,0.00439
1302.02878,0.00430
1299.96861,0.00435
1297.90843,0.00431
1295.84826,0.00414
1293.78809,0.00396
1291.72792,0.00389
1289.66775,0.00389
1287.60757,0.00391
1285.54740,0.00388
1283.48723,0.00386
1281.42706,0.00388
1279.36688,0.00395
1277.30671,0.00409
1275.24654,0.00432
1273.18637,0.00456
1271.12620,0.00476
1269.06602,0.00501
1267.00585,0.00538
1264.94568,0.00573
1262.88551,0.00599
1260.82534,0.00625
1258.76516,0.00659
1256.70499,0.00693
1254.64482,0.00711
1252.58465,0.00717
1250.52447,0.00732
1248.46430,0.00746
1246.40413,0.00742
1244.34396,0.00725
1242.28379,0.00709
1240.22361,0.00703
1238.16344,0.00702
1236.10327,0.00693
1234.04310,0.00674
1231.98293,0.00648
1229.92275,0.00619
1227.86258,0.00593
1225.80241,0.00576
1223.74224,0.00557
1221.68207,0.00522
1219.62189,0.00475
1217.56172,0.00428
1215.50155,0.00392
1213.44138,0.00356
1211.38120,0.00312
1209.32103,0.00273
1207.26086,0.00245
1205.20069,0.00208
1203.14052,0.00160
1201.08034,0.00121
1199.02017,0.00087
1196.96000,0.00046
1194.89983,0.00010
1192.83966,0.00000
1190.77948,0.00009
1188.71931,0.00022
1186.65914,0.00034
1184.59897,0.00053
1182.53880,0.00082
1180.47862,0.00115
1178.41845,0.00160
1176.35828,0.00220
1174.29811,0.00278
1172.23793,0.00343
1170.17776,0.00425
1168.11759,0.00513
1166.05742,0.00600
1163.99725,0.00684
1161.93707,0.00751
1159.87690,0.00796
1157.81673,0.00830
1155.75656,0.00859
1153.69639,0.00890
1151.63621,0.00927
1149.57604,0.00943
1147.51587,0.00943
1145.45570,0.00960
1143.39552,0.00983
1141.33535,0.00988
1139.27518,0.00983
1137.21501,0.00995
1135.15484,0.01031
1133.09466,0.01075
1131.03449,0.01121
1128.97432,0.01177
1126.91415,0.01237
1124.85398,0.01304
1122.79380,0.01378
1120.73363,0.01443
1118.67346,0.01497
1116.61329,0.01547
1114.55312,0.01593
1112.49294,0.01650
1110.43277,0.01720
1108.37260,0.01780
1106.31243,0.01827
1104.25225,0.01886
1102.19208,0.01970
1100.13191,0.02083
1098.07174,0.02209
1096.01157,0.02322
1093.95139,0.02423
1091.89122,0.02516
1089.83105,0.02596
1087.77088,0.02664
1085.71071,0.02735
1083.65053,0.02809
1081.59036,0.02893
1079.53019,0.02994
1077.47002,0.03103
1075.40985,0.03206
1073.34967,0.03284
1071.28950,0.03337
1069.22933,0.03382
1067.16916,0.03428
1065.10898,0.03474
1063.04881,0.03524
1060.98864,0.03578
1058.92847,0.03630
1056.86830,0.03668
1054.80812,0.03697
1052.74795,0.03732
1050.68778,0.03773
1048.62761,0.03820
1046.56744,0.03873
1044.50726,0.03932
1042.44709,0.03984
1040.38692,0.04005
1038.32675,0.03997
1036.26657,0.03972
1034.20640,0.03942
1032.14623,0.03911
1030.08606,0.03866
1028.02589,0.03818
1025.96571,0.03781
1023.90554,0.03727
1021.84537,0.03653
1019.78520,0.03603
1017.72503,0.03578
1015.66485,0.03552
1013.60468,0.03504
1011.54451,0.03434
1009.48434,0.03354
1007.42417,0.03271
1005.36399,0.03192
1003.30382,0.03116
1001.24365,0.03024
999.18348,0.02911
997.12330,0.02806
995.06313,0.02735
993.00296,0.02688
990.94279,0.02652
988.88262,0.02620
986.82244,0.02562
984.76227,0.02491
982.70210,0.02440
980.64193,0.02404
978.58176,0.02376
976.52158,0.02341
974.46141,0.02265
972.40124,0.02169
970.34107,0.02091
968.28089,0.02034
966.22072,0.01982
964.16055,0.01910
962.10038,0.01809
960.04021,0.01721
957.98003,0.01660
955.91986,0.01598
953.85969,0.01545
951.79952,0.01510
949.73935,0.01459
947.67917,0.01378
945.61900,0.01305
943.55883,0.01240
941.49866,0.01146
939.43849,0.01032
937.37831,0.00937
935.31814,0.00856
933.25797,0.00778
931.19780,0.00707
929.13762,0.00643
927.07745,0.00599
925.01728,0.00567
922.95711,0.00525
920.89694,0.00493
918.83676,0.00465
916.77659,0.00412
914.71642,0.00367
912.65625,0.00353
910.59608,0.00335
908.53590,0.00308
906.47573,0.00293
904.41556,0.00289
902.35539,0.00295
900.29522,0.00307
898.23504,0.00295
896.17487,0.00273
894.11470,0.00286
892.05453,0.00318
889.99435,0.00329
887.93418,0.00322
885.87401,0.00299
883.81384,0.00270
881.75367,0.00258
879.69349,0.00257
877.63332,0.00259
875.57315,0.00249
873.51298,0.00216
871.45281,0.00182
869.39263,0.00166
867.33246,0.00173
865.27229,0.00184
863.21212,0.00193
861.15194,0.00193
859.09177,0.00159
857.03160,0.00119
854.97143,0.00121
852.91126,0.00142
850.85108,0.00147
848.79091,0.00160
846.73074,0.00186
844.67057,0.00177
842.61040,0.00130
840.55022,0.00089
838.49005,0.00072
836.42988,0.00074
834.36971,0.00075
832.30954,0.00041
830.24936,0.00015
828.18919,0.00014
826.12902,0.00000
824.06885,0.00011
822.00867,0.00062
819.94850,0.00101
817.88833,0.00125
815.82816,0.00119
813.76799,0.00090
811.70781,0.00095
809.64764,0.00112
807.58747,0.00086
805.52730,0.00049
803.46713,0.00043
801.40695,0.00054
799.34678,0.00077
797.28661,0.00098
795.22644,0.00078
793.16627,0.00033
791.10609,0.00008
789.04592,0.00018
786.98575,0.00043
784.92558,0.00067
782.86540,0.00078
780.80523,0.00075
778.74506,0.00071
776.68489,0.00067
774.62472,0.00051
772.56454,0.00018
770.50437,0.00002
768.44420,0.00024
766.38403,0.00036
764.32386,0.00031
762.26368,0.00045
760.20351,0.00055
758.14334,0.00042
756.08317,0.00051
754.02299,0.00076
751.96282,0.00089
749.90265,0.00091
747.84248,0.00071
745.78231,0.00062
743.72213,0.00093
741.66196,0.00114
739.60179,0.00081
737.54162,0.00021
735.48145,0.00000
733.42127,0.00037
731.36110,0.00079
729.30093,0.00063
727.24076,0.00021
725.18059,0.00019
723.12041,0.00054
721.06024,0.00055
719.00007,0.00081
716.93990,0.00099
714.87972,0.00079
712.81955,0.00071
710.75938,0.00096
708.69921,0.00133
706.63904,0.00177
704.57886,0.00224
702.51869,0.00239
700.45852,0.00213
698.39835,0.00177
696.33818,0.00142
694.27800,0.00111
692.21783,0.00092
690.15766,0.00088
688.09749,0.00091
686.03731,0.00105
683.97714,0.00139
681.91697,0.00187
679.85680,0.00195
677.79663,0.00141
675.73645,0.00107
673.67628,0.00177
671.61611,0.00293
669.55594,0.00173
667.49577,-0.00009
665.43559,0.00169
663.37542,0.00098
661.31525,0.00077
659.25508,0.00149
657.19491,0.00164
655.13473,0.00102
653.07456,0.00067
651.01439,0.00090
648.95422,0.00131
646.89404,0.00176
644.83387,0.00172
642.77370,0.00113
640.71353,0.00064
638.65336,0.00085
636.59318,0.00175
634.53301,0.00265
632.47284,0.00260
630.41267,0.00158
628.35250,0.00079
626.29232,0.00086
624.23215,0.00134
622.17198,0.00243
620.11181,0.00233
618.05164,0.00025
615.99146,-0.00018
613.93129,0.00187
611.87112,0.00289
609.81095,0.00156
607.75077,-0.00062
605.69060,-0.00166
603.63043,-0.00086
601.57026,0.00020
599.51009,0.00000
