3996.73391,0.00000
3994.67373,0.00033
3992.61356,0.00079
3990.55339,0.00128
3988.49322,0.00144
3986.43305,0.00119
3984.37287,0.00105
3982.31270,0.00113
3980.25253,0.00104
3978.19236,0.00094
3976.13219,0.00095
3974.07201,0.00091
3972.01184,0.00084
3969.95167,0.00080
3967.89150,0.00094
3965.83133,0.00134
3963.77115,0.00162
3961.71098,0.00148
3959.65081,0.00114
3957.59064,0.00102
3955.53046,0.00127
3953.47029,0.00157
3951.41012,0.00166
3949.34995,0.00205
3947.28978,0.00281
3945.22960,0.00295
3943.16943,0.00213
3941.10926,0.00126
3939.04909,0.00111
3936.98892,0.00143
3934.92874,0.00148
3932.86857,0.00126
3930.80840,0.00135
3928.74823,0.00174
3926.68805,0.00205
3924.62788,0.00223
3922.56771,0.00219
3920.50754,0.00205
3918.44737,0.00203
3916.38719,0.00214
3914.32702,0.00230
3912.26685,0.00226
3910.20668,0.00212
3908.14651,0.00208
3906.08633,0.00194
3904.02616,0.00141
3901.96599,0.00067
3899.90582,0.00032
3897.84565,0.00066
3895.78547,0.00152
3893.72530,0.00217
3891.66513,0.00196
3889.60496,0.00130
3887.54478,0.00110
3885.48461,0.00160
3883.42444,0.00198
3881.36427,0.00174
3879.30410,0.00157
3877.24392,0.00181
3875.18375,0.00210
3873.12358,0.00218
3871.06341,0.00203
3869.00324,0.00159
3866.94306,0.00073
3864.88289,0.00000
3862.82272,0.00006
3860.76255,0.00078
3858.70237,0.00184
3856.64220,0.00310
3854.58203,0.00384
3852.52186,0.00331
3850.46169,0.00238
3848.40151,0.00207
3846.34134,0.00239
3844.28117,0.00294
3842.22100,0.00296
3840.16083,0.00238
3838.10065,0.00215
3836.04048,0.00235
3833.98031,0.00251
3831.92014,0.00263
3829.85997,0.00254
3827.79979,0.00217
3825.73962,0.00188
3823.67945,0.00192
3821.61928,0.00198
3819.55910,0.00182
3817.49893,0.00184
3815.43876,0.00197
3813.37859,0.00198
3811.31842,0.00195
3809.25824,0.00179
3807.19807,0.00155
3805.13790,0.00159
3803.07773,0.00179
3801.01756,0.00191
3798.95738,0.00196
3796.89721,0.00180
3794.83704,0.00147
3792.77687,0.00125
3790.71670,0.00119
3788.65652,0.00130
3786.59635,0.00152
3784.53618,0.00168
3782.47601,0.00159
3780.41583,0.00137
3778.35566,0.00135
3776.29549,0.00164
3774.23532,0.00201
3772.17515,0.00238
3770.11497,0.00263
3768.05480,0.00247
3765.99463,0.00206
3763.93446,0.00174
3761.87429,0.00134
3759.81411,0.00081
3757.75394,0.00060
3755.69377,0.00094
3753.63360,0.00122
3751.57342,0.00099
3749.51325,0.00086
3747.45308,0.00150
3745.39291,0.00223
3743.33274,0.00234
3741.27256,0.00192
3739.21239,0.00124
3737.15222,0.00054
3735.09205,-0.00000
3733.03188,0.00007
3730.97170,0.00116
3728.91153,0.00256
3726.85136,0.00336
3724.79119,0.00353
3722.73102,0.00354
3720.67084,0.00314
3718.61067,0.00212
3716.55050,0.00117
3714.49033,0.00054
3712.43015,0.00000
3710.36998,0.00016
3708.30981,0.00104
3706.24964,0.00151
3704.18947,0.00125
3702.12929,0.00104
3700.06912,0.00150
3698.00895,0.00220
3695.94878,0.00256
3693.88861,0.00270
3691.82843,0.00284
3689.76826,0.00251
3687.70809,0.00184
3685.64792,0.00168
3683.58775,0.00181
3681.52757,0.00183
3679.46740,0.00182
3677.40723,0.00185
3675.34706,0.00212
3673.28688,0.00272
3671.22671,0.00309
3669.16654,0.00288
3667.10637,0.00250
3665.04620,0.00235
3662.98602,0.00214
3660.92585,0.00175
3658.86568,0.00156
3656.80551,0.00182
3654.74534,0.00211
3652.68516,0.00176
3650.62499,0.00118
3648.56482,0.00154
3646.50465,0.00250
3644.44447,0.00277
3642.38430,0.00221
3640.32413,0.00137
3638.26396,0.00097
3636.20379,0.00135
3634.14361,0.00190
3632.08344,0.00168
3630.02327,0.00115
3627.96310,0.00171
3625.90293,0.00283
3623.84275,0.00354
3621.78258,0.00392
3619.72241,0.00385
3617.66224,0.00345
3615.60207,0.00351
3613.54189,0.00409
3611.48172,0.00443
3609.42155,0.00442
3607.36138,0.00469
3605.30120,0.00528
3603.24103,0.00577
3601.18086,0.00570
3599.12069,0.00471
3597.06052,0.00345
3595.00034,0.00310
3592.94017,0.00366
3590.88000,0.00436
3588.81983,0.00492
3586.75966,0.00569
3584.69948,0.00648
3582.63931,0.00673
3580.57914,0.00671
3578.51897,0.00685
3576.45879,0.00701
3574.39862,0.00725
3572.33845,0.00779
3570.27828,0.00815
3568.21811,0.00790
3566.15793,0.00751
3564.09776,0.00761
3562.03759,0.00808
3559.97742,0.00865
3557.91725,0.00913
3555.85707,0.00935
3553.79690,0.00938
3551.73673,0.00936
3549.67656,0.00955
3547.61639,0.01011
3545.55621,0.01087
3543.49604,0.01136
3541.43587,0.01138
3539.37570,0.01136
3537.31552,0.01182
3535.25535,0.01260
3533.19518,0.01302
3531.13501,0.01300
3529.07484,0.01299
3527.01466,0.01326
3524.95449,0.01350
3522.89432,0.01360
3520.83415,0.01407
3518.77398,0.01490
3516.71380,0.01548
3514.65363,0.01561
3512.59346,0.01562
3510.53329,0.01581
3508.47312,0.01633
3506.41294,0.01696
3504.35277,0.01724
3502.29260,0.01706
3500.23243,0.01699
3498.17225,0.01748
3496.11208,0.01808
3494.05191,0.01853
3491.99174,0.01916
3489.93157,0.01980
3487.87139,0.01993
3485.81122,0.01973
3483.75105,0.01958
3481.69088,0.01958
3479.63071,0.01988
3477.57053,0.02049
3475.51036,0.02111
3473.45019,0.02160
3471.39002,0.02184
3469.32984,0.02189
3467.26967,0.02219
3465.20950,0.02261
3463.14933,0.02267
3461.08916,0.02248
3459.02898,0.02237
3456.96881,0.02255
3454.90864,0.02305
3452.84847,0.02369
3450.78830,0.02420
3448.72812,0.02439
3446.66795,0.02455
3444.60778,0.02494
3442.54761,0.02538
3440.48744,0.02578
3438.42726,0.02611
3436.36709,0.02667
3434.30692,0.02740
3432.24675,0.02749
3430.18657,0.02691
3428.12640,0.02665
3426.06623,0.02735
3424.00606,0.02856
3421.94589,0.02931
3419.88571,0.02931
3417.82554,0.02921
3415.76537,0.02931
3413.70520,0.02925
3411.64503,0.02937
3409.58485,0.02999
3407.52468,0.03056
3405.46451,0.03108
3403.40434,0.03166
3401.34416,0.03208
3399.28399,0.03229
3397.22382,0.03215
3395.16365,0.03180
3393.10348,0.03178
3391.04330,0.03202
3388.98313,0.03205
3386.92296,0.03208
3384.86279,0.03266
3382.80262,0.03336
3380.74244,0.03342
3378.68227,0.03306
3376.62210,0.03318
3374.56193,0.03395
3372.50176,0.03464
3370.44158,0.03509
3368.38141,0.03533
3366.32124,0.03528
3364.26107,0.03548
3362.20089,0.03598
3360.14072,0.03609
3358.08055,0.03561
3356.02038,0.03508
3353.96021,0.03506
3351.90003,0.03538
3349.83986,0.03597
3347.77969,0.03668
3345.71952,0.03673
3343.65935,0.03619
3341.59917,0.03584
3339.53900,0.03568
3337.47883,0.03569
3335.41866,0.03616
3333.35849,0.03679
3331.29831,0.03676
3329.23814,0.03601
3327.17797,0.03544
3325.11780,0.03568
3323.05762,0.03624
3320.99745,0.03668
3318.93728,0.03703
3316.87711,0.03726
3314.81694,0.03732
3312.75676,0.03730
3310.69659,0.03731
3308.63642,0.03705
3306.57625,0.03649
3304.51608,0.03643
3302.45590,0.03689
3300.39573,0.03695
3298.33556,0.03708
3296.27539,0.03778
3294.21521,0.03805
3292.15504,0.03775
3290.09487,0.03764
3288.03470,0.03750
3285.97453,0.03719
3283.91435,0.03722
3281.85418,0.03745
3279.79401,0.03739
3277.73384,0.03727
3275.67367,0.03752
3273.61349,0.03805
3271.55332,0.03844
3269.49315,0.03834
3267.43298,0.03794
3265.37281,0.03776
3263.31263,0.03767
3261.25246,0.03718
3259.19229,0.03656
3257.13212,0.03647
3255.07194,0.03692
3253.01177,0.03749
3250.95160,0.03774
3248.89143,0.03758
3246.83126,0.03738
3244.77108,0.03730
3242.71091,0.03709
3240.65074,0.03684
3238.59057,0.03696
3236.53040,0.03715
3234.47022,0.03702
3232.41005,0.03691
3230.34988,0.03694
3228.28971,0.03666
3226.22954,0.03624
3224.16936,0.03611
3222.10919,0.03614
3220.04902,0.03606
3217.98885,0.03599
3215.92867,0.03596
3213.86850,0.03570
3211.80833,0.03533
3209.74816,0.03519
3207.68799,0.03496
3205.62781,0.03461
3203.56764,0.03454
3201.50747,0.03465
3199.44730,0.03471
3197.38713,0.03472
3195.32695,0.03479
3193.26678,0.03489
3191.20661,0.03477
3189.14644,0.03474
3187.08626,0.03494
3185.02609,0.03490
3182.96592,0.03471
3180.90575,0.03468
3178.84558,0.03466
3176.78540,0.03444
3174.72523,0.03408
3172.66506,0.03375
3170.60489,0.03341
3168.54472,0.03272
3166.48454,0.03188
3164.42437,0.03146
3162.36420,0.03136
3160.30403,0.03129
3158.24386,0.03129
3156.18368,0.03119
3154.12351,0.03108
3152.06334,0.03100
3150.00317,0.03065
3147.94299,0.03017
3145.88282,0.02993
3143.82265,0.02997
3141.76248,0.02980
3139.70231,0.02932
3137.64213,0.02933
3135.58196,0.02964
3133.52179,0.02928
3131.46162,0.02882
3129.40145,0.02877
3127.34127,0.02842
3125.28110,0.02783
3123.22093,0.02741
3121.16076,0.02717
3119.10058,0.02737
3117.04041,0.02796
3114.98024,0.02813
3112.92007,0.02782
3110.85990,0.02770
3108.79972,0.02785
3106.73955,0.02787
3104.67938,0.02756
3102.61921,0.02711
3100.55904,0.02683
3098.49886,0.02683
3096.43869,0.02694
3094.37852,0.02684
3092.31835,0.02666
3090.25818,0.02644
3088.19800,0.02584
3086.13783,0.02518
3084.07766,0.02508
3082.01749,0.02531
3079.95731,0.02521
3077.89714,0.02478
3075.83697,0.02446
3073.77680,0.02430
3071.71663,0.02413
3069.65645,0.02379
3067.59628,0.02336
3065.53611,0.02319
3063.47594,0.02324
3061.41577,0.02328
3059.35559,0.02343
3057.29542,0.02342
3055.23525,0.02304
3053.17508,0.02262
3051.11491,0.02227
3049.05473,0.02203
3046.99456,0.02194
3044.93439,0.02176
3042.87422,0.02148
3040.81404,0.02140
3038.75387,0.02147
3036.69370,0.02143
3034.63353,0.02123
3032.57336,0.02098
3030.51318,0.02075
3028.45301,0.02060
3026.39284,0.02048
3024.33267,0.02029
3022.27250,0.01993
3020.21232,0.01969
3018.15215,0.01983
3016.09198,0.01989
3014.03181,0.01972
3011.97163,0.01987
3009.91146,0.02004
3007.85129,0.01967
3005.79112,0.01908
3003.73095,0.01863
3001.67077,0.01846
2999.61060,0.01865
2997.55043,0.01872
2995.49026,0.01837
2993.43009,0.01810
2991.36991,0.01806
2989.30974,0.01781
2987.24957,0.01758
2985.18940,0.01773
2983.12923,0.01810
2981.06905,0.01849
2979.00888,0.01894
2976.94871,0.01938
2974.88854,0.01966
2972.82836,0.02000
2970.76819,0.02029
2968.70802,0.02020
2966.64785,0.02032
2964.58768,0.02143
2962.52750,0.02295
2960.46733,0.02384
2958.40716,0.02442
2956.34699,0.02532
2954.28682,0.02640
2952.22664,0.02752
2950.16647,0.02898
2948.10630,0.03059
2946.04613,0.03201
2943.98596,0.03356
2941.92578,0.03527
2939.86561,0.03670
2937.80544,0.03807
2935.74527,0.03972
2933.68509,0.04156
2931.62492,0.04335
2929.56475,0.04475
2927.50458,0.04569
2925.44441,0.04660
2923.38423,0.04780
2921.32406,0.04884
2919.26389,0.04937
2917.20372,0.04951
2915.14355,0.04877
2913.08337,0.04695
2911.02320,0.04510
2908.96303,0.04367
2906.90286,0.04232
2904.84268,0.04107
2902.78251,0.03987
2900.72234,0.03883
2898.66217,0.03821
2896.60200,0.03745
2894.54182,0.03620
2892.48165,0.03524
2890.42148,0.03482
2888.36131,0.03425
2886.30114,0.03347
2884.24096,0.03298
2882.18079,0.03254
2880.12062,0.03186
2878.06045,0.03146
2876.00028,0.03163
2873.94010,0.03180
2871.87993,0.03183
2869.81976,0.03223
2867.75959,0.03289
2865.69941,0.03350
2863.63924,0.03432
2861.57907,0.03530
2859.51890,0.03623
2857.45873,0.03748
2855.39855,0.03903
2853.33838,0.04031
2851.27821,0.04133
2849.21804,0.04138
2847.15787,0.03956
2845.09769,0.03684
2843.03752,0.03434
2840.97735,0.03244
2838.91718,0.03123
2836.85700,0.03026
2834.79683,0.02944
2832.73666,0.02876
2830.67649,0.02783
2828.61632,0.02685
2826.55614,0.02624
2824.49597,0.02589
2822.43580,0.02563
2820.37563,0.02539
2818.31546,0.02492
2816.25528,0.02420
2814.19511,0.02355
2812.13494,0.02331
2810.07477,0.02326
2808.01460,0.02301
2805.95442,0.02260
2803.89425,0.02236
2801.83408,0.02242
2799.77391,0.02234
2797.71373,0.02194
2795.65356,0.02155
2793.59339,0.02137
2791.53322,0.02109
2789.47305,0.02075
2787.41287,0.02079
2785.35270,0.02110
2783.29253,0.02138
2781.23236,0.02123
2779.17219,0.02056
2777.11201,0.02013
2775.05184,0.02015
2772.99167,0.02012
2770.93150,0.01982
2768.87133,0.01960
2766.81115,0.01962
2764.75098,0.01944
2762.69081,0.01908
2760.63064,0.01911
2758.57046,0.01944
2756.51029,0.01960
2754.45012,0.01935
2752.38995,0.01894
2750.32978,0.01871
2748.26960,0.01883
2746.20943,0.01924
2744.14926,0.01951
2742.08909,0.01929
2740.02892,0.01904
2737.96874,0.01899
2735.90857,0.01878
2733.84840,0.01861
2731.78823,0.01844
2729.72805,0.01795
2727.66788,0.01761
2725.60771,0.01799
2723.54754,0.01852
2721.48737,0.01841
2719.42719,0.01806
2717.36702,0.01804
2715.30685,0.01806
2713.24668,0.01803
2711.18651,0.01830
2709.12633,0.01860
2707.06616,0.01839
2705.00599,0.01797
2702.94582,0.01792
2700.88565,0.01810
2698.82547,0.01826
2696.76530,0.01822
2694.70513,0.01807
2692.64496,0.01808
2690.58478,0.01808
2688.52461,0.01800
2686.46444,0.01791
2684.40427,0.01781
2682.34410,0.01785
2680.28392,0.01768
2678.22375,0.01718
2676.16358,0.01706
2674.10341,0.01735
2672.04324,0.01743
2669.98306,0.01739
2667.92289,0.01751
2665.86272,0.01755
2663.80255,0.01735
2661.74238,0.01711
2659.68220,0.01704
2657.62203,0.01713
2655.56186,0.01722
2653.50169,0.01710
2651.44151,0.01672
2649.38134,0.01643
2647.32117,0.01637
2645.26100,0.01623
2643.20083,0.01624
2641.14065,0.01659
2639.08048,0.01658
2637.02031,0.01603
2634.96014,0.01578
2632.89997,0.01610
2630.83979,0.01644
2628.77962,0.01653
2626.71945,0.01674
2624.65928,0.01671
2622.59910,0.01588
2620.53893,0.01507
2618.47876,0.01492
2616.41859,0.01524
2614.35842,0.01556
2612.29824,0.01541
2610.23807,0.01496
2608.17790,0.01460
2606.11773,0.01469
2604.05756,0.01498
2601.99738,0.01488
2599.93721,0.01451
2597.87704,0.01434
2595.81687,0.01462
2593.75670,0.01492
2591.69652,0.01460
2589.63635,0.01405
2587.57618,0.01379
2585.51601,0.01381
2583.45583,0.01410
2581.39566,0.01445
2579.33549,0.01460
2577.27532,0.01460
2575.21515,0.01449
2573.15497,0.01436
2571.09480,0.01426
2569.03463,0.01399
2566.97446,0.01357
2564.91429,0.01332
2562.85411,0.01347
2560.79394,0.01394
2558.73377,0.01432
2556.67360,0.01432
2554.61342,0.01421
2552.55325,0.01423
2550.49308,0.01424
2548.43291,0.01419
2546.37274,0.01412
2544.31256,0.01399
2542.25239,0.01358
2540.19222,0.01310
2538.13205,0.01311
2536.07188,0.01354
2534.01170,0.01348
2531.95153,0.01306
2529.89136,0.01343
2527.83119,0.01413
2525.77102,0.01405
2523.71084,0.01324
2521.65067,0.01272
2519.59050,0.01290
2517.53033,0.01313
2515.47015,0.01316
2513.40998,0.01321
2511.34981,0.01330
2509.28964,0.01274
2507.22947,0.01160
2505.16929,0.01092
2503.10912,0.01088
2501.04895,0.01082
2498.98878,0.01081
2496.92861,0.01136
2494.86843,0.01188
2492.80826,0.01185
2490.74809,0.01179
2488.68792,0.01200
2486.62775,0.01198
2484.56757,0.01160
2482.50740,0.01144
2480.44723,0.01152
2478.38706,0.01181
2476.32688,0.01236
2474.26671,0.01248
2472.20654,0.01205
2470.14637,0.01156
2468.08620,0.01117
2466.02602,0.01105
2463.96585,0.01123
2461.90568,0.01138
2459.84551,0.01146
2457.78534,0.01177
2455.72516,0.01215
2453.66499,0.01237
2451.60482,0.01247
2449.54465,0.01214
2447.48447,0.01151
2445.42430,0.01125
2443.36413,0.01127
2441.30396,0.01122
2439.24379,0.01111
2437.18361,0.01096
2435.12344,0.01074
2433.06327,0.01072
2431.00310,0.01088
2428.94293,0.01095
2426.88275,0.01102
2424.82258,0.01075
2422.76241,0.01021
2420.70224,0.01021
2418.64207,0.01056
2416.58189,0.01070
2414.52172,0.01078
2412.46155,0.01091
2410.40138,0.01088
2408.34120,0.01068
2406.28103,0.01050
2404.22086,0.01018
2402.16069,0.00993
2400.10052,0.01013
2398.04034,0.01043
2395.98017,0.01044
2393.92000,0.01021
2391.85983,0.01015
2389.79966,0.01043
2387.73948,0.01077
2385.67931,0.01096
2383.61914,0.01075
2381.55897,0.01022
2379.49880,0.01008
2377.43862,0.01046
2375.37845,0.01078
2373.31828,0.01117
2371.25811,0.01149
2369.19793,0.01151
2367.13776,0.01113
2365.07759,0.00796
2363.01742,0.00365
2360.95725,0.00636
2358.89707,0.01304
2356.83690,0.01464
2354.77673,0.01131
2352.71656,0.00865
2350.65639,0.00943
2348.59621,0.00997
2346.53604,0.00766
2344.47587,0.00639
2342.41570,0.00679
2340.35552,0.00727
2338.29535,0.00722
2336.23518,0.00694
2334.17501,0.00724
2332.11484,0.00825
2330.05466,0.01003
2327.99449,0.01178
2325.93432,0.01238
2323.87415,0.01084
2321.81398,0.00854
2319.75380,0.00772
2317.69363,0.00875
2315.63346,0.00963
2313.57329,0.00961
2311.51312,0.00916
2309.45294,0.00920
2307.39277,0.01005
2305.33260,0.01064
2303.27243,0.01051
2301.21225,0.01024
2299.15208,0.01010
2297.09191,0.00998
2295.03174,0.00994
2292.97157,0.01007
2290.91139,0.01042
2288.85122,0.01069
2286.79105,0.01004
2284.73088,0.00851
2282.67071,0.00768
2280.61053,0.00828
2278.55036,0.00895
2276.49019,0.00887
2274.43002,0.00890
2272.36984,0.00926
2270.30967,0.00957
2268.24950,0.00961
2266.18933,0.00914
2264.12916,0.00847
2262.06898,0.00785
2260.00881,0.00715
2257.94864,0.00689
2255.88847,0.00744
2253.82830,0.00822
2251.76812,0.00851
2249.70795,0.00836
2247.64778,0.00800
2245.58761,0.00762
2243.52744,0.00756
2241.46726,0.00779
2239.40709,0.00757
2237.34692,0.00630
2235.28675,0.00559
2233.22657,0.00685
2231.16640,0.00785
2229.10623,0.00774
2227.04606,0.00831
2224.98589,0.00913
2222.92571,0.00953
2220.86554,0.01021
2218.80537,0.01034
2216.74520,0.00898
2214.68503,0.00762
2212.62485,0.00749
2210.56468,0.00784
2208.50451,0.00823
2206.44434,0.00810
2204.38417,0.00673
2202.32399,0.00604
2200.26382,0.00655
2198.20365,0.00649
2196.14348,0.00597
2194.08330,0.00558
2192.02313,0.00613
2189.96296,0.00743
2187.90279,0.00725
2185.84262,0.00602
2183.78244,0.00552
2181.72227,0.00549
2179.66210,0.00617
2177.60193,0.00726
2175.54176,0.00767
2173.48158,0.00707
2171.42141,0.00624
2169.36124,0.00520
2167.30107,0.00348
2165.24089,0.00270
2163.18072,0.00287
2161.12055,0.00284
2159.06038,0.00379
2157.00021,0.00525
2154.94003,0.00458
2152.87986,0.00334
2150.81969,0.00410
2148.75952,0.00523
2146.69935,0.00527
2144.63917,0.00521
2142.57900,0.00469
2140.51883,0.00266
2138.45866,0.00141
2136.39849,0.00369
2134.33831,0.00690
2132.27814,0.00661
2130.21797,0.00492
2128.15780,0.00549
2126.09762,0.00710
2124.03745,0.00778
2121.97728,0.00728
2119.91711,0.00655
2117.85694,0.00629
2115.79676,0.00647
2113.73659,0.00696
2111.67642,0.00702
2109.61625,0.00666
2107.55608,0.00675
2105.49590,0.00671
2103.43573,0.00636
2101.37556,0.00685
2099.31539,0.00767
2097.25521,0.00716
2095.19504,0.00585
2093.13487,0.00580
2091.07470,0.00681
2089.01453,0.00710
2086.95435,0.00664
2084.89418,0.00634
2082.83401,0.00608
2080.77384,0.00585
2078.71367,0.00576
2076.65349,0.00582
2074.59332,0.00660
2072.53315,0.00732
2070.47298,0.00744
2068.41281,0.00750
2066.35263,0.00733
2064.29246,0.00712
2062.23229,0.00670
2060.17212,0.00620
2058.11194,0.00698
2056.05177,0.00794
2053.99160,0.00783
2051.93143,0.00764
2049.87126,0.00710
2047.81108,0.00564
2045.75091,0.00434
2043.69074,0.00430
2041.63057,0.00508
2039.57040,0.00554
2037.51022,0.00572
2035.45005,0.00555
2033.38988,0.00515
2031.32971,0.00493
2029.26954,0.00465
2027.20936,0.00428
2025.14919,0.00242
2023.08902,0.00000
2021.02885,0.00114
2018.96867,0.00446
2016.90850,0.00528
2014.84833,0.00312
2012.78816,0.00037
2010.72799,-0.00004
2008.66781,0.00208
2006.60764,0.00299
2004.54747,0.00217
2002.48730,0.00224
2000.42713,0.00341
1998.36695,0.00490
1996.30678,0.00620
1994.24661,0.00661
1992.18644,0.00630
1990.12626,0.00542
1988.06609,0.00324
1986.00592,0.00121
1983.94575,0.00221
1981.88558,0.00484
1979.82540,0.00592
1977.76523,0.00495
1975.70506,0.00335
1973.64489,0.00327
1971.58472,0.00382
1969.52454,0.00262
1967.46437,0.00165
1965.40420,0.00336
1963.34403,0.00459
1961.28386,0.00298
1959.22368,0.00158
1957.16351,0.00166
1955.10334,0.00176
1953.04317,0.00236
1950.98299,0.00332
1948.92282,0.00313
1946.86265,0.00213
1944.80248,0.00220
1942.74231,0.00397
1940.68213,0.00576
1938.62196,0.00562
1936.56179,0.00420
1934.50162,0.00336
1932.44145,0.00336
1930.38127,0.00363
1928.32110,0.00404
1926.26093,0.00416
1924.20076,0.00395
1922.14059,0.00388
1920.08041,0.00383
1918.02024,0.00343
1915.96007,0.00294
1913.89990,0.00266
1911.83972,0.00247
1909.77955,0.00206
1907.71938,0.00160
1905.65921,0.00174
1903.59904,0.00240
1901.53886,0.00293
1899.47869,0.00325
1897.41852,0.00368
1895.35835,0.00412
1893.29818,0.00406
1891.23800,0.00362
1889.17783,0.00339
1887.11766,0.00350
1885.05749,0.00375
1882.99731,0.00392
1880.93714,0.00395
1878.87697,0.00375
1876.81680,0.00309
1874.75663,0.00232
1872.69645,0.00207
1870.63628,0.00224
1868.57611,0.00243
1866.51594,0.00241
1864.45577,0.00241
1862.39559,0.00263
1860.33542,0.00291
1858.27525,0.00309
1856.21508,0.00293
1854.15491,0.00231
1852.09473,0.00174
1850.03456,0.00162
1847.97439,0.00174
1845.91422,0.00182
1843.85404,0.00217
1841.79387,0.00275
1839.73370,0.00283
1837.67353,0.00235
1835.61336,0.00203
1833.55318,0.00224
1831.49301,0.00254
1829.43284,0.00250
1827.37267,0.00223
1825.31250,0.00218
1823.25232,0.00248
1821.19215,0.00255
1819.13198,0.00193
1817.07181,0.00121
1815.01163,0.00118
1812.95146,0.00165
1810.89129,0.00196
1808.83112,0.00187
1806.77095,0.00149
1804.71077,0.00110
1802.65060,0.00104
1800.59043,0.00127
1798.53026,0.00137
1796.47009,0.00125
1794.40991,0.00105
1792.34974,0.00084
1790.28957,0.00080
1788.22940,0.00084
1786.16923,0.00084
1784.10905,0.00106
1782.04888,0.00144
1779.98871,0.00136
1777.92854,0.00065
1775.86836,0.00000
1773.80819,-0.00007
1771.74802,0.00032
1769.68785,0.00080
1767.62768,0.00103
1765.56750,0.00087
1763.50733,0.00075
1761.44716,0.00109
1759.38699,0.00176
1757.32682,0.00254
1755.26664,0.00331
1753.20647,0.00380
1751.14630,0.00385
1749.08613,0.00394
1747.02596,0.00494
1744.96578,0.00673
1742.90561,0.00844
1740.84544,0.00974
1738.78527,0.01058
1736.72509,0.01081
1734.66492,0.01070
1732.60475,0.01086
1730.54458,0.01141
1728.48441,0.01199
1726.42423,0.01234
1724.36406,0.01242
1722.30389,0.01225
1720.24372,0.01176
1718.18355,0.01120
1716.12337,0.01136
1714.06320,0.01236
1712.00303,0.01333
1709.94286,0.01361
1707.88268,0.01316
1705.82251,0.01271
1703.76234,0.01292
1701.70217,0.01339
1699.64200,0.01355
1697.58182,0.01349
1695.52165,0.01352
1693.46148,0.01367
1691.40131,0.01406
1689.34114,0.01462
1687.28096,0.01522
1685.22079,0.01648
1683.16062,0.01881
1681.10045,0.02083
1679.04028,0.02225
1676.98010,0.02365
1674.91993,0.02491
1672.85976,0.02545
1670.79959,0.02526
1668.73941,0.02488
1666.67924,0.02458
1664.61907,0.02418
1662.55890,0.02366
1660.49873,0.02311
1658.43855,0.02258
1656.37838,0.02218
1654.31821,0.02193
1652.25804,0.02184
1650.19787,0.02169
1648.13769,0.02127
1646.07752,0.02100
1644.01735,0.02127
1641.95718,0.02183
1639.89701,0.02233
1637.83683,0.02257
1635.77666,0.02290
1633.71649,0.02368
1631.65632,0.02446
1629.59614,0.02502
1627.53597,0.02552
1625.47580,0.02576
1623.41563,0.02557
1621.35546,0.02550
1619.29528,0.02588
1617.23511,0.02636
1615.17494,0.02676
1613.11477,0.02743
1611.05460,0.02872
1608.99442,0.03040
1606.93425,0.03177
1604.87408,0.03229
1602.81391,0.03177
1600.75373,0.03052
1598.69356,0.02926
1596.63339,0.02824
1594.57322,0.02735
1592.51305,0.02660
1590.45287,0.02604
1588.39270,0.02562
1586.33253,0.02510
1584.27236,0.02436
1582.21219,0.02360
1580.15201,0.02305
1578.09184,0.02258
1576.03167,0.02183
1573.97150,0.02098
1571.91133,0.02039
1569.85115,0.01997
1567.79098,0.01953
1565.73081,0.01892
1563.67064,0.01809
1561.61046,0.01708
1559.55029,0.01592
1557.49012,0.01490
1555.42995,0.01414
1553.36978,0.01353
1551.30960,0.01306
1549.24943,0.01257
1547.18926,0.01218
1545.12909,0.01196
1543.06892,0.01143
1541.00874,0.01025
1538.94857,0.00908
1536.88840,0.00857
1534.82823,0.00813
1532.76805,0.00761
1530.70788,0.00741
1528.64771,0.00716
1526.58754,0.00656
1524.52737,0.00608
1522.46719,0.00651
1520.40702,0.00811
1518.34685,0.00980
1516.28668,0.01078
1514.22651,0.01112
1512.16633,0.01092
1510.10616,0.01004
1508.04599,0.00840
1505.98582,0.00688
1503.92565,0.00626
1501.86547,0.00579
1499.80530,0.00476
1497.74513,0.00336
1495.68496,0.00234
1493.62478,0.00188
1491.56461,0.00152
1489.50444,0.00120
1487.44427,0.00127
1485.38410,0.00160
1483.32392,0.00174
1481.26375,0.00165
1479.20358,0.00159
1477.14341,0.00184
1475.08324,0.00273
1473.02306,0.00435
1470.96289,0.00608
1468.90272,0.00759
1466.84255,0.00931
1464.78238,0.01113
1462.72220,0.01228
1460.66203,0.01278
1458.60186,0.01344
1456.54169,0.01445
1454.48151,0.01520
1452.42134,0.01571
1450.36117,0.01619
1448.30100,0.01679
1446.24083,0.01764
1444.18065,0.01851
1442.12048,0.01925
1440.06031,0.01988
1438.00014,0.02048
1435.93997,0.02108
1433.87979,0.02160
1431.81962,0.02199
1429.75945,0.02221
1427.69928,0.02208
1425.63910,0.02183
1423.57893,0.02185
1421.51876,0.02208
1419.45859,0.02226
1417.39842,0.02236
1415.33824,0.02240
1413.27807,0.02223
1411.21790,0.02181
1409.15773,0.02142
1407.09756,0.02109
1405.03738,0.02057
1402.97721,0.01989
1400.91704,0.01933
1398.85687,0.01876
1396.79670,0.01804
1394.73652,0.01743
1392.67635,0.01707
1390.61618,0.01687
1388.55601,0.01691
1386.49583,0.01740
1384.43566,0.01813
1382.37549,0.01869
1380.31532,0.01908
1378.25515,0.01948
1376.19497,0.01992
1374.13480,0.02023
1372.07463,0.02038
1370.01446,0.02046
1367.95429,0.02053
1365.89411,0.02062
1363.83394,0.02051
1361.77377,0.01997
1359.71360,0.01927
1357.65343,0.01882
1355.59325,0.01878
1353.53308,0.01901
1351.47291,0.01925
1349.41274,0.01930
1347.35256,0.01910
1345.29239,0.01871
1343.23222,0.01840
1341.17205,0.01831
1339.11188,0.01839
1337.05170,0.01858
1334.99153,0.01881
1332.93136,0.01902
1330.87119,0.01916
1328.81102,0.01922
1326.75084,0.01927
1324.69067,0.01941
1322.63050,0.01953
1320.57033,0.01942
1318.51015,0.01909
1316.44998,0.01880
1314.38981,0.01866
1312.32964,0.01858
1310.26947,0.01841
1308.20929,0.01800
1306.14912,0.01736
1304.08895,0.01669
1302.02878,0.01611
1299.96861,0.01569
1297.90843,0.01538
1295.84826,0.01499
1293.78809,0.01456
1291.72792,0.01447
1289.66775,0.01491
1287.60757,0.01545
1285.54740,0.01561
1283.48723,0.01557
1281.42706,0.01575
1279.36688,0.01615
1277.30671,0.01654
1275.24654,0.01686
1273.18637,0.01700
1271.12620,0.01701
1269.06602,0.01726
1267.00585,0.01786
1264.94568,0.01851
1262.88551,0.01915
1260.82534,0.01975
1258.76516,0.02030
1256.70499,0.02083
1254.64482,0.02130
1252.58465,0.02174
1250.52447,0.02214
1248.46430,0.02240
1246.40413,0.02252
1244.34396,0.02258
1242.28379,0.02268
1240.22361,0.02279
1238.16344,0.02284
1236.10327,0.02279
1234.04310,0.02258
1231.98293,0.02225
1229.92275,0.02178
1227.86258,0.02106
1225.80241,0.02001
1223.74224,0.01898
1221.68207,0.01809
1219.62189,0.01712
1217.56172,0.01622
1215.50155,0.01516
1213.44138,0.01367
1211.38120,0.01232
1209.32103,0.01127
1207.26086,0.01015
1205.20069,0.00919
1203.14052,0.00836
1201.08034,0.00722
1199.02017,0.00588
1196.96000,0.00453
1194.89983,0.00318
1192.83966,0.00193
1190.77948,0.00088
1188.71931,0.00020
1186.65914,0.00000
1184.59897,0.00013
1182.53880,0.00026
1180.47862,0.00026
1178.41845,0.00059
1176.35828,0.00158
1174.29811,0.00300
1172.23793,0.00466
1170.17776,0.00650
1168.11759,0.00814
1166.05742,0.00904
1163.99725,0.00943
1161.93707,0.00983
1159.87690,0.01008
1157.81673,0.01020
1155.75656,0.01071
1153.69639,0.01157
1151.63621,0.01238
1149.57604,0.01306
1147.51587,0.01391
1145.45570,0.01499
1143.39552,0.01599
1141.33535,0.01674
1139.27518,0.01740
1137.21501,0.01818
1135.15484,0.01891
1133.09466,0.01945
1131.03449,0.02001
1128.97432,0.02097
1126.91415,0.02237
1124.85398,0.02368
1122.79380,0.02474
1120.73363,0.02563
1118.67346,0.02645
1116.61329,0.02747
1114.55312,0.02880
1112.49294,0.03017
1110.43277,0.03105
1108.37260,0.03164
1106.31243,0.03250
1104.25225,0.03363
1102.19208,0.03477
1100.13191,0.03572
1098.07174,0.03701
1096.01157,0.03884
1093.95139,0.04063
1091.89122,0.04243
1089.83105,0.04443
1087.77088,0.04618
1085.71071,0.04759
1083.65053,0.04905
1081.59036,0.05078
1079.53019,0.05268
1077.47002,0.05464
1075.40985,0.05667
1073.34967,0.05875
1071.28950,0.06081
1069.22933,0.06247
1067.16916,0.06363
1065.10898,0.06470
1063.04881,0.06584
1060.98864,0.06707
1058.92847,0.06853
1056.86830,0.07003
1054.80812,0.07139
1052.74795,0.07316
1050.68778,0.07538
1048.62761,0.07770
1046.56744,0.08030
1044.50726,0.08289
1042.44709,0.08491
1040.38692,0.08667
1038.32675,0.08844
1036.26657,0.08978
1034.20640,0.09055
1032.14623,0.09137
1030.08606,0.09196
1028.02589,0.09155
1025.96571,0.09077
1023.90554,0.09041
1021.84537,0.09032
1019.78520,0.09021
1017.72503,0.09003
1015.66485,0.08993
1013.60468,0.09015
1011.54451,0.09046
1009.48434,0.09079
1007.42417,0.09111
1005.36399,0.09088
1003.30382,0.09026
1001.24365,0.08975
999.18348,0.08899
997.12330,0.08791
995.06313,0.08687
993.00296,0.08560
990.94279,0.08391
988.88262,0.08222
986.82244,0.08083
984.76227,0.07938
982.70210,0.07774
980.64193,0.07641
978.58176,0.07548
976.52158,0.07440
974.46141,0.07299
972.40124,0.07172
970.34107,0.07040
968.28089,0.06894
966.22072,0.06780
964.16055,0.06659
962.10038,0.06511
960.04021,0.06415
957.98003,0.06355
955.91986,0.06226
953.85969,0.06027
951.79952,0.05854
949.73935,0.05755
947.67917,0.05692
945.61900,0.05590
943.55883,0.05433
941.49866,0.05223
939.43849,0.04975
937.37831,0.04711
935.31814,0.04419
933.25797,0.04119
931.19780,0.03855
929.13762,0.03619
927.07745,0.03405
925.01728,0.03245
922.95711,0.03125
920.89694,0.02977
918.83676,0.02801
916.77659,0.02631
914.71642,0.02484
912.65625,0.02381
910.59608,0.02276
908.53590,0.02123
906.47573,0.01974
904.41556,0.01889
902.35539,0.01885
900.29522,0.01951
898.23504,0.01999
896.17487,0.01950
894.11470,0.01891
892.05453,0.01879
889.99435,0.01840
887.93418,0.01782
885.87401,0.01740
883.81384,0.01673
881.75367,0.01576
879.69349,0.01449
877.63332,0.01343
875.57315,0.01319
873.51298,0.01315
871.45281,0.01266
869.39263,0.01175
867.33246,0.01095
865.27229,0.01044
863.21212,0.00959
861.15194,0.00879
859.09177,0.00879
857.03160,0.00900
854.97143,0.00926
852.91126,0.01000
850.85108,0.01052
848.79091,0.01014
846.73074,0.00956
844.67057,0.00950
842.61040,0.00951
840.55022,0.00933
838.49005,0.00916
836.42988,0.00900
834.36971,0.00890
832.30954,0.00838
830.24936,0.00735
828.18919,0.00730
826.12902,0.00800
824.06885,0.00814
822.00867,0.00799
819.94850,0.00720
817.88833,0.00615
815.82816,0.00622
813.76799,0.00688
811.70781,0.00706
809.64764,0.00640
807.58747,0.00536
805.52730,0.00476
803.46713,0.00450
801.40695,0.00407
799.34678,0.00398
797.28661,0.00444
795.22644,0.00461
793.16627,0.00414
791.10609,0.00365
789.04592,0.00342
786.98575,0.00295
784.92558,0.00219
782.86540,0.00105
780.80523,0.00000
778.74506,-0.00014
776.68489,0.00082
774.62472,0.00220
772.56454,0.00272
770.50437,0.00196
768.44420,0.00183
766.38403,0.00265
764.32386,0.00315
762.26368,0.00290
760.20351,0.00213
758.14334,0.00189
756.08317,0.00246
754.02299,0.00228
751.96282,0.00099
749.90265,0.00064
747.84248,0.00152
745.78231,0.00158
743.72213,0.00016
741.66196,-0.00099
739.60179,-0.00065
737.54162,0.00002
735.48145,0.00010
733.42127,-0.00079
731.36110,-0.00236
729.30093,-0.00321
727.24076,-0.00264
725.18059,-0.00150
723.12041,-0.00062
721.06024,-0.00014
719.00007,0.00028
716.93990,0.00021
714.87972,0.00003
712.81955,0.00059
710.75938,0.00121
708.69921,0.00109
706.63904,0.00049
704.57886,-0.00033
702.51869,-0.00074
700.45852,0.00013
698.39835,0.00160
696.33818,0.00182
694.27800,0.00093
692.21783,0.00063
690.15766,0.00108
688.09749,0.00126
686.03731,0.00075
683.97714,0.00024
681.91697,0.00037
679.85680,-0.00028
677.79663,-0.00269
675.73645,-0.00448
673.67628,-0.00343
671.61611,-0.00135
669.55594,-0.00198
667.49577,-0.00096
665.43559,0.00359
663.37542,0.00366
661.31525,0.00320
659.25508,0.00464
657.19491,0.00604
655.13473,0.00550
653.07456,0.00412
651.01439,0.00287
648.95422,0.00129
646.89404,0.00000
644.83387,0.00012
642.77370,0.00212
640.71353,0.00431
638.65336,0.00580
636.59318,0.00728
634.53301,0.00702
632.47284,0.00493
630.41267,0.00438
628.35250,0.00511
626.29232,0.00370
624.23215,-0.00003
622.17198,-0.00162
620.11181,0.00126
618.05164,0.00377
615.99146,0.00286
613.93129,0.00041
611.87112,-0.00297
609.81095,-0.00691
607.75077,-0.00876
605.69060,-0.00479
603.63043,0.00253
601.57026,0.00452
599.51009,0.00000
