3996.73391,0.00052
3994.67373,0.00054
3992.61356,0.00026
3990.55339,0.00000
3988.49322,0.00023
3986.43305,0.00054
3984.37287,0.00067
3982.31270,0.00073
3980.25253,0.00079
3978.19236,0.00078
3976.13219,0.00074
3974.07201,0.00079
3972.01184,0.00080
3969.95167,0.00064
3967.89150,0.00052
3965.83133,0.00066
3963.77115,0.00087
3961.71098,0.00110
3959.65081,0.00138
3957.59064,0.00162
3955.53046,0.00197
3953.47029,0.00215
3951.41012,0.00188
3949.34995,0.00166
3947.28978,0.00199
3945.22960,0.00199
3943.16943,0.00130
3941.10926,0.00104
3939.04909,0.00129
3936.98892,0.00160
3934.92874,0.00169
3932.86857,0.00163
3930.80840,0.00201
3928.74823,0.00245
3926.68805,0.00215
3924.62788,0.00180
3922.56771,0.00221
3920.50754,0.00238
3918.44737,0.00196
3916.38719,0.00180
3914.32702,0.00202
3912.26685,0.00192
3910.20668,0.00195
3908.14651,0.00216
3906.08633,0.00164
3904.02616,0.00091
3901.96599,0.00053
3899.90582,0.00010
3897.84565,0.00071
3895.78547,0.00178
3893.72530,0.00157
3891.66513,0.00096
3889.60496,0.00155
3887.54478,0.00158
3885.48461,0.00140
3883.42444,0.00207
3881.36427,0.00163
3879.30410,0.00182
3877.24392,0.00272
3875.18375,0.00235
3873.12358,0.00202
3871.06341,0.00179
3869.00324,0.00226
3866.94306,0.00244
3864.88289,0.00076
3862.82272,0.00000
3860.76255,0.00125
3858.70237,0.00332
3856.64220,0.00411
3854.58203,0.00265
3852.52186,0.00208
3850.46169,0.00310
3848.40151,0.00324
3846.34134,0.00288
3844.28117,0.00289
3842.22100,0.00309
3840.16083,0.00245
3838.10065,0.00202
3836.04048,0.00266
3833.98031,0.00263
3831.92014,0.00218
3829.85997,0.00237
3827.79979,0.00241
3825.73962,0.00264
3823.67945,0.00247
3821.61928,0.00157
3819.55910,0.00228
3817.49893,0.00209
3815.43876,0.00146
3813.37859,0.00253
3811.31842,0.00314
3809.25824,0.00227
3807.19807,0.00150
3805.13790,0.00244
3803.07773,0.00216
3801.01756,0.00145
3798.95738,0.00218
3796.89721,0.00201
3794.83704,0.00189
3792.77687,0.00200
3790.71670,0.00189
3788.65652,0.00187
3786.59635,0.00180
3784.53618,0.00204
3782.47601,0.00236
3780.41583,0.00168
3778.35566,0.00144
3776.29549,0.00217
3774.23532,0.00241
3772.17515,0.00168
3770.11497,0.00091
3768.05480,0.00120
3765.99463,0.00171
3763.93446,0.00241
3761.87429,0.00229
3759.81411,0.00142
3757.75394,0.00183
3755.69377,0.00294
3753.63360,0.00272
3751.57342,0.00183
3749.51325,0.00284
3747.45308,0.00381
3745.39291,0.00194
3743.33274,0.00134
3741.27256,0.00267
3739.21239,0.00249
3737.15222,0.00102
3735.09205,0.00025
3733.03188,0.00079
3730.97170,0.00194
3728.91153,0.00266
3726.85136,0.00248
3724.79119,0.00251
3722.73102,0.00268
3720.67084,0.00253
3718.61067,0.00231
3716.55050,0.00231
3714.49033,0.00160
3712.43015,0.00005
3710.36998,0.00000
3708.30981,0.00174
3706.24964,0.00269
3704.18947,0.00191
3702.12929,0.00080
3700.06912,0.00110
3698.00895,0.00172
3695.94878,0.00182
3693.88861,0.00198
3691.82843,0.00159
3689.76826,0.00061
3687.70809,0.00069
3685.64792,0.00178
3683.58775,0.00211
3681.52757,0.00186
3679.46740,0.00144
3677.40723,0.00030
3675.34706,0.00033
3673.28688,0.00307
3671.22671,0.00314
3669.16654,0.00187
3667.10637,0.00232
3665.04620,0.00259
3662.98602,0.00231
3660.92585,0.00210
3658.86568,0.00178
3656.80551,0.00169
3654.74534,0.00263
3652.68516,0.00237
3650.62499,0.00057
3648.56482,0.00059
3646.50465,0.00227
3644.44447,0.00326
3642.38430,0.00288
3640.32413,0.00217
3638.26396,0.00179
3636.20379,0.00187
3634.14361,0.00234
3632.08344,0.00233
3630.02327,0.00082
3627.96310,0.00093
3625.90293,0.00346
3623.84275,0.00488
3621.78258,0.00433
3619.72241,0.00276
3617.66224,0.00214
3615.60207,0.00249
3613.54189,0.00306
3611.48172,0.00402
3609.42155,0.00414
3607.36138,0.00419
3605.30120,0.00502
3603.24103,0.00516
3601.18086,0.00467
3599.12069,0.00419
3597.06052,0.00342
3595.00034,0.00291
3592.94017,0.00374
3590.88000,0.00469
3588.81983,0.00461
3586.75966,0.00514
3584.69948,0.00673
3582.63931,0.00712
3580.57914,0.00636
3578.51897,0.00580
3576.45879,0.00591
3574.39862,0.00683
3572.33845,0.00813
3570.27828,0.00808
3568.21811,0.00628
3566.15793,0.00562
3564.09776,0.00714
3562.03759,0.00840
3559.97742,0.00881
3557.91725,0.00907
3555.85707,0.00920
3553.79690,0.00901
3551.73673,0.00900
3549.67656,0.00944
3547.61639,0.00983
3545.55621,0.01037
3543.49604,0.01113
3541.43587,0.01165
3539.37570,0.01197
3537.31552,0.01250
3535.25535,0.01321
3533.19518,0.01341
3531.13501,0.01298
3529.07484,0.01268
3527.01466,0.01292
3524.95449,0.01331
3522.89432,0.01370
3520.83415,0.01429
3518.77398,0.01471
3516.71380,0.01487
3514.65363,0.01506
3512.59346,0.01529
3510.53329,0.01555
3508.47312,0.01617
3506.41294,0.01679
3504.35277,0.01674
3502.29260,0.01674
3500.23243,0.01733
3498.17225,0.01791
3496.11208,0.01828
3494.05191,0.01881
3491.99174,0.01953
3489.93157,0.01995
3487.87139,0.02003
3485.81122,0.02023
3483.75105,0.02027
3481.69088,0.02023
3479.63071,0.02080
3477.57053,0.02152
3475.51036,0.02176
3473.45019,0.02185
3471.39002,0.02208
3469.32984,0.02204
3467.26967,0.02190
3465.20950,0.02215
3463.14933,0.02265
3461.08916,0.02322
3459.02898,0.02360
3456.96881,0.02365
3454.90864,0.02378
3452.84847,0.02441
3450.78830,0.02529
3448.72812,0.02546
3446.66795,0.02507
3444.60778,0.02520
3442.54761,0.02580
3440.48744,0.02658
3438.42726,0.02718
3436.36709,0.02764
3434.30692,0.02790
3432.24675,0.02753
3430.18657,0.02693
3428.12640,0.02686
3426.06623,0.02767
3424.00606,0.02879
3421.94589,0.02930
3419.88571,0.02947
3417.82554,0.02967
3415.76537,0.02956
3413.70520,0.02940
3411.64503,0.02984
3409.58485,0.03079
3407.52468,0.03147
3405.46451,0.03173
3403.40434,0.03192
3401.34416,0.03217
3399.28399,0.03224
3397.22382,0.03188
3395.16365,0.03148
3393.10348,0.03172
3391.04330,0.03260
3388.98313,0.03315
3386.92296,0.03319
3384.86279,0.03328
3382.80262,0.03345
3380.74244,0.03347
3378.68227,0.03346
3376.62210,0.03363
3374.56193,0.03401
3372.50176,0.03438
3370.44158,0.03482
3368.38141,0.03519
3366.32124,0.03542
3364.26107,0.03583
3362.20089,0.03620
3360.14072,0.03618
3358.08055,0.03580
3356.02038,0.03552
3353.96021,0.03587
3351.90003,0.03641
3349.83986,0.03669
3347.77969,0.03689
3345.71952,0.03688
3343.65935,0.03657
3341.59917,0.03632
3339.53900,0.03640
3337.47883,0.03658
3335.41866,0.03672
3333.35849,0.03697
3331.29831,0.03719
3329.23814,0.03705
3327.17797,0.03686
3325.11780,0.03694
3323.05762,0.03706
3320.99745,0.03715
3318.93728,0.03734
3316.87711,0.03752
3314.81694,0.03770
3312.75676,0.03806
3310.69659,0.03814
3308.63642,0.03743
3306.57625,0.03688
3304.51608,0.03725
3302.45590,0.03765
3300.39573,0.03739
3298.33556,0.03745
3296.27539,0.03814
3294.21521,0.03839
3292.15504,0.03815
3290.09487,0.03807
3288.03470,0.03803
3285.97453,0.03798
3283.91435,0.03805
3281.85418,0.03800
3279.79401,0.03779
3277.73384,0.03783
3275.67367,0.03822
3273.61349,0.03864
3271.55332,0.03869
3269.49315,0.03836
3267.43298,0.03799
3265.37281,0.03764
3263.31263,0.03737
3261.25246,0.03714
3259.19229,0.03686
3257.13212,0.03689
3255.07194,0.03721
3253.01177,0.03747
3250.95160,0.03760
3248.89143,0.03770
3246.83126,0.03774
3244.77108,0.03759
3242.71091,0.03728
3240.65074,0.03710
3238.59057,0.03739
3236.53040,0.03777
3234.47022,0.03790
3232.41005,0.03790
3230.34988,0.03765
3228.28971,0.03715
3226.22954,0.03692
3224.16936,0.03694
3222.10919,0.03693
3220.04902,0.03697
3217.98885,0.03698
3215.92867,0.03664
3213.86850,0.03616
3211.80833,0.03595
3209.74816,0.03600
3207.68799,0.03598
3205.62781,0.03567
3203.56764,0.03546
3201.50747,0.03561
3199.44730,0.03578
3197.38713,0.03569
3195.32695,0.03560
3193.26678,0.03554
3191.20661,0.03523
3189.14644,0.03486
3187.08626,0.03462
3185.02609,0.03442
3182.96592,0.03442
3180.90575,0.03450
3178.84558,0.03452
3176.78540,0.03473
3174.72523,0.03484
3172.66506,0.03462
3170.60489,0.03423
3168.54472,0.03347
3166.48454,0.03252
3164.42437,0.03195
3162.36420,0.03169
3160.30403,0.03167
3158.24386,0.03188
3156.18368,0.03183
3154.12351,0.03159
3152.06334,0.03145
3150.00317,0.03121
3147.94299,0.03077
3145.88282,0.03028
3143.82265,0.03011
3141.76248,0.03011
3139.70231,0.02994
3137.64213,0.02996
3135.58196,0.03008
3133.52179,0.02981
3131.46162,0.02937
3129.40145,0.02888
3127.34127,0.02829
3125.28110,0.02793
3123.22093,0.02800
3121.16076,0.02840
3119.10058,0.02876
3117.04041,0.02882
3114.98024,0.02865
3112.92007,0.02828
3110.85990,0.02791
3108.79972,0.02774
3106.73955,0.02765
3104.67938,0.02746
3102.61921,0.02698
3100.55904,0.02644
3098.49886,0.02637
3096.43869,0.02659
3094.37852,0.02666
3092.31835,0.02647
3090.25818,0.02617
3088.19800,0.02577
3086.13783,0.02538
3084.07766,0.02540
3082.01749,0.02570
3079.95731,0.02567
3077.89714,0.02531
3075.83697,0.02506
3073.77680,0.02494
3071.71663,0.02464
3069.65645,0.02412
3067.59628,0.02362
3065.53611,0.02339
3063.47594,0.02342
3061.41577,0.02354
3059.35559,0.02358
3057.29542,0.02344
3055.23525,0.02319
3053.17508,0.02296
3051.11491,0.02264
3049.05473,0.02224
3046.99456,0.02197
3044.93439,0.02179
3042.87422,0.02161
3040.81404,0.02156
3038.75387,0.02163
3036.69370,0.02160
3034.63353,0.02131
3032.57336,0.02089
3030.51318,0.02067
3028.45301,0.02051
3026.39284,0.02015
3024.33267,0.01980
3022.27250,0.01964
3020.21232,0.01965
3018.15215,0.01984
3016.09198,0.01994
3014.03181,0.01984
3011.97163,0.01981
3009.91146,0.01976
3007.85129,0.01950
3005.79112,0.01913
3003.73095,0.01868
3001.67077,0.01826
2999.61060,0.01824
2997.55043,0.01859
2995.49026,0.01871
2993.43009,0.01843
2991.36991,0.01807
2989.30974,0.01776
2987.24957,0.01766
2985.18940,0.01786
2983.12923,0.01821
2981.06905,0.01861
2979.00888,0.01896
2976.94871,0.01915
2974.88854,0.01930
2972.82836,0.01955
2970.76819,0.01987
2968.70802,0.02012
2966.64785,0.02060
2964.58768,0.02174
2962.52750,0.02307
2960.46733,0.02379
2958.40716,0.02423
2956.34699,0.02524
2954.28682,0.02658
2952.22664,0.02790
2950.16647,0.02933
2948.10630,0.03075
2946.04613,0.03216
2943.98596,0.03401
2941.92578,0.03615
2939.86561,0.03778
2937.80544,0.03890
2935.74527,0.04048
2933.68509,0.04263
2931.62492,0.04455
2929.56475,0.04593
2927.50458,0.04692
2925.44441,0.04778
2923.38423,0.04877
2921.32406,0.04983
2919.26389,0.05051
2917.20372,0.05045
2915.14355,0.04963
2913.08337,0.04829
2911.02320,0.04674
2908.96303,0.04483
2906.90286,0.04284
2904.84268,0.04137
2902.78251,0.04041
2900.72234,0.03964
2898.66217,0.03895
2896.60200,0.03826
2894.54182,0.03751
2892.48165,0.03679
2890.42148,0.03596
2888.36131,0.03494
2886.30114,0.03403
2884.24096,0.03357
2882.18079,0.03328
2880.12062,0.03287
2878.06045,0.03247
2876.00028,0.03234
2873.94010,0.03255
2871.87993,0.03282
2869.81976,0.03307
2867.75959,0.03348
2865.69941,0.03405
2863.63924,0.03479
2861.57907,0.03577
2859.51890,0.03701
2857.45873,0.03846
2855.39855,0.03992
2853.33838,0.04120
2851.27821,0.04215
2849.21804,0.04197
2847.15787,0.04019
2845.09769,0.03768
2843.03752,0.03521
2840.97735,0.03307
2838.91718,0.03150
2836.85700,0.03031
2834.79683,0.02936
2832.73666,0.02853
2830.67649,0.02768
2828.61632,0.02700
2826.55614,0.02666
2824.49597,0.02633
2822.43580,0.02582
2820.37563,0.02538
2818.31546,0.02511
2816.25528,0.02480
2814.19511,0.02427
2812.13494,0.02382
2810.07477,0.02361
2808.01460,0.02336
2805.95442,0.02311
2803.89425,0.02294
2801.83408,0.02275
2799.77391,0.02255
2797.71373,0.02238
2795.65356,0.02206
2793.59339,0.02165
2791.53322,0.02124
2789.47305,0.02105
2787.41287,0.02117
2785.35270,0.02131
2783.29253,0.02129
2781.23236,0.02106
2779.17219,0.02052
2777.11201,0.02010
2775.05184,0.02013
2772.99167,0.02034
2770.93150,0.02036
2768.87133,0.02010
2766.81115,0.01980
2764.75098,0.01943
2762.69081,0.01908
2760.63064,0.01909
2758.57046,0.01926
2756.51029,0.01946
2754.45012,0.01955
2752.38995,0.01938
2750.32978,0.01921
2748.26960,0.01923
2746.20943,0.01950
2744.14926,0.01970
2742.08909,0.01937
2740.02892,0.01882
2737.96874,0.01862
2735.90857,0.01867
2733.84840,0.01869
2731.78823,0.01841
2729.72805,0.01790
2727.66788,0.01769
2725.60771,0.01804
2723.54754,0.01841
2721.48737,0.01824
2719.42719,0.01794
2717.36702,0.01798
2715.30685,0.01806
2713.24668,0.01803
2711.18651,0.01817
2709.12633,0.01828
2707.06616,0.01813
2705.00599,0.01801
2702.94582,0.01817
2700.88565,0.01826
2698.82547,0.01818
2696.76530,0.01814
2694.70513,0.01810
2692.64496,0.01797
2690.58478,0.01780
2688.52461,0.01778
2686.46444,0.01801
2684.40427,0.01826
2682.34410,0.01829
2680.28392,0.01800
2678.22375,0.01760
2676.16358,0.01751
2674.10341,0.01762
2672.04324,0.01765
2669.98306,0.01757
2667.92289,0.01746
2665.86272,0.01743
2663.80255,0.01741
2661.74238,0.01727
2659.68220,0.01712
2657.62203,0.01703
2655.56186,0.01693
2653.50169,0.01685
2651.44151,0.01683
2649.38134,0.01677
2647.32117,0.01679
2645.26100,0.01683
2643.20083,0.01682
2641.14065,0.01677
2639.08048,0.01649
2637.02031,0.01597
2634.96014,0.01576
2632.89997,0.01610
2630.83979,0.01640
2628.77962,0.01616
2626.71945,0.01585
2624.65928,0.01576
2622.59910,0.01551
2620.53893,0.01516
2618.47876,0.01501
2616.41859,0.01517
2614.35842,0.01529
2612.29824,0.01512
2610.23807,0.01508
2608.17790,0.01521
2606.11773,0.01530
2604.05756,0.01531
2601.99738,0.01499
2599.93721,0.01457
2597.87704,0.01449
2595.81687,0.01464
2593.75670,0.01465
2591.69652,0.01431
2589.63635,0.01397
2587.57618,0.01401
2585.51601,0.01430
2583.45583,0.01439
2581.39566,0.01431
2579.33549,0.01456
2577.27532,0.01487
2575.21515,0.01484
2573.15497,0.01465
2571.09480,0.01430
2569.03463,0.01396
2566.97446,0.01396
2564.91429,0.01394
2562.85411,0.01377
2560.79394,0.01389
2558.73377,0.01436
2556.67360,0.01470
2554.61342,0.01473
2552.55325,0.01448
2550.49308,0.01396
2548.43291,0.01376
2546.37274,0.01402
2544.31256,0.01405
2542.25239,0.01376
2540.19222,0.01363
2538.13205,0.01381
2536.07188,0.01404
2534.01170,0.01368
2531.95153,0.01284
2529.89136,0.01278
2527.83119,0.01353
2525.77102,0.01380
2523.71084,0.01315
2521.65067,0.01263
2519.59050,0.01255
2517.53033,0.01229
2515.47015,0.01219
2513.40998,0.01241
2511.34981,0.01250
2509.28964,0.01224
2507.22947,0.01173
2505.16929,0.01126
2503.10912,0.01111
2501.04895,0.01122
2498.98878,0.01137
2496.92861,0.01166
2494.86843,0.01194
2492.80826,0.01196
2490.74809,0.01206
2488.68792,0.01236
2486.62775,0.01230
2484.56757,0.01182
2482.50740,0.01140
2480.44723,0.01107
2478.38706,0.01113
2476.32688,0.01168
2474.26671,0.01182
2472.20654,0.01126
2470.14637,0.01068
2468.08620,0.01055
2466.02602,0.01096
2463.96585,0.01160
2461.90568,0.01193
2459.84551,0.01206
2457.78534,0.01202
2455.72516,0.01157
2453.66499,0.01131
2451.60482,0.01155
2449.54465,0.01152
2447.48447,0.01116
2445.42430,0.01115
2443.36413,0.01134
2441.30396,0.01135
2439.24379,0.01126
2437.18361,0.01132
2435.12344,0.01156
2433.06327,0.01185
2431.00310,0.01179
2428.94293,0.01131
2426.88275,0.01096
2424.82258,0.01086
2422.76241,0.01074
2420.70224,0.01067
2418.64207,0.01071
2416.58189,0.01076
2414.52172,0.01072
2412.46155,0.01053
2410.40138,0.01024
2408.34120,0.01000
2406.28103,0.01010
2404.22086,0.01044
2402.16069,0.01048
2400.10052,0.01032
2398.04034,0.01023
2395.98017,0.01021
2393.92000,0.01018
2391.85983,0.01025
2389.79966,0.01034
2387.73948,0.01039
2385.67931,0.01041
2383.61914,0.01018
2381.55897,0.00959
2379.49880,0.00923
2377.43862,0.00920
2375.37845,0.00923
2373.31828,0.00856
2371.25811,0.00704
2369.19793,0.00646
2367.13776,0.00691
2365.07759,0.00629
2363.01742,0.00581
2360.95725,0.00704
2358.89707,0.01196
2356.83690,0.01358
2354.77673,0.01066
2352.71656,0.00829
2350.65639,0.00504
2348.59621,0.00461
2346.53604,0.00993
2344.47587,0.01047
2342.41570,0.00844
2340.35552,0.00668
2338.29535,0.00468
2336.23518,0.00377
2334.17501,0.00350
2332.11484,0.00430
2330.05466,0.00647
2327.99449,0.00980
2325.93432,0.01099
2323.87415,0.01030
2321.81398,0.00900
2319.75380,0.00876
2317.69363,0.00835
2315.63346,0.00850
2313.57329,0.00906
2311.51312,0.00922
2309.45294,0.00914
2307.39277,0.00927
2305.33260,0.00921
2303.27243,0.00898
2301.21225,0.00955
2299.15208,0.01011
2297.09191,0.00997
2295.03174,0.00969
2292.97157,0.00972
2290.91139,0.00981
2288.85122,0.00962
2286.79105,0.00896
2284.73088,0.00818
2282.67071,0.00815
2280.61053,0.00915
2278.55036,0.00995
2276.49019,0.00955
2274.43002,0.00869
2272.36984,0.00838
2270.30967,0.00850
2268.24950,0.00858
2266.18933,0.00856
2264.12916,0.00842
2262.06898,0.00774
2260.00881,0.00663
2257.94864,0.00619
2255.88847,0.00714
2253.82830,0.00861
2251.76812,0.00924
2249.70795,0.00903
2247.64778,0.00885
2245.58761,0.00853
2243.52744,0.00790
2241.46726,0.00780
2239.40709,0.00805
2237.34692,0.00743
2235.28675,0.00627
2233.22657,0.00583
2231.16640,0.00585
2229.10623,0.00622
2227.04606,0.00734
2224.98589,0.00836
2222.92571,0.00842
2220.86554,0.00828
2218.80537,0.00825
2216.74520,0.00776
2214.68503,0.00709
2212.62485,0.00602
2210.56468,0.00466
2208.50451,0.00546
2206.44434,0.00733
2204.38417,0.00685
2202.32399,0.00557
2200.26382,0.00551
2198.20365,0.00611
2196.14348,0.00670
2194.08330,0.00688
2192.02313,0.00692
2189.96296,0.00640
2187.90279,0.00566
2185.84262,0.00616
2183.78244,0.00654
2181.72227,0.00590
2179.66210,0.00594
2177.60193,0.00680
2175.54176,0.00683
2173.48158,0.00547
2171.42141,0.00508
2169.36124,0.00547
2167.30107,0.00454
2165.24089,0.00350
2163.18072,0.00230
2161.12055,0.00094
2159.06038,0.00138
2157.00021,0.00303
2154.94003,0.00397
2152.87986,0.00387
2150.81969,0.00417
2148.75952,0.00492
2146.69935,0.00513
2144.63917,0.00484
2142.57900,0.00387
2140.51883,0.00252
2138.45866,0.00209
2136.39849,0.00315
2134.33831,0.00476
2132.27814,0.00543
2130.21797,0.00547
2128.15780,0.00574
2126.09762,0.00623
2124.03745,0.00699
2121.97728,0.00742
2119.91711,0.00719
2117.85694,0.00695
2115.79676,0.00737
2113.73659,0.00813
2111.67642,0.00810
2109.61625,0.00745
2107.55608,0.00731
2105.49590,0.00751
2103.43573,0.00749
2101.37556,0.00746
2099.31539,0.00751
2097.25521,0.00701
2095.19504,0.00569
2093.13487,0.00486
2091.07470,0.00543
2089.01453,0.00620
2086.95435,0.00591
2084.89418,0.00517
2082.83401,0.00519
2080.77384,0.00582
2078.71367,0.00615
2076.65349,0.00638
2074.59332,0.00748
2072.53315,0.00836
2070.47298,0.00784
2068.41281,0.00697
2066.35263,0.00658
2064.29246,0.00626
2062.23229,0.00528
2060.17212,0.00433
2058.11194,0.00478
2056.05177,0.00586
2053.99160,0.00635
2051.93143,0.00649
2049.87126,0.00654
2047.81108,0.00616
2045.75091,0.00508
2043.69074,0.00398
2041.63057,0.00423
2039.57040,0.00533
2037.51022,0.00551
2035.45005,0.00425
2033.38988,0.00319
2031.32971,0.00350
2029.26954,0.00442
2027.20936,0.00467
2025.14919,0.00304
2023.08902,0.00153
2021.02885,0.00262
2018.96867,0.00379
2016.90850,0.00330
2014.84833,0.00264
2012.78816,0.00122
2010.72799,0.00000
2008.66781,0.00119
2006.60764,0.00222
2004.54747,0.00164
2002.48730,0.00160
2000.42713,0.00210
1998.36695,0.00313
1996.30678,0.00536
1994.24661,0.00684
1992.18644,0.00653
1990.12626,0.00570
1988.06609,0.00419
1986.00592,0.00328
1983.94575,0.00448
1981.88558,0.00602
1979.82540,0.00601
1977.76523,0.00470
1975.70506,0.00323
1973.64489,0.00299
1971.58472,0.00312
1969.52454,0.00207
1967.46437,0.00171
1965.40420,0.00369
1963.34403,0.00488
1961.28386,0.00320
1959.22368,0.00138
1957.16351,0.00135
1955.10334,0.00175
1953.04317,0.00191
1950.98299,0.00205
1948.92282,0.00176
1946.86265,0.00142
1944.80248,0.00188
1942.74231,0.00299
1940.68213,0.00418
1938.62196,0.00441
1936.56179,0.00385
1934.50162,0.00348
1932.44145,0.00333
1930.38127,0.00319
1928.32110,0.00336
1926.26093,0.00392
1924.20076,0.00404
1922.14059,0.00400
1920.08041,0.00400
1918.02024,0.00361
1915.96007,0.00344
1913.89990,0.00335
1911.83972,0.00306
1909.77955,0.00240
1907.71938,0.00203
1905.65921,0.00239
1903.59904,0.00292
1901.53886,0.00326
1899.47869,0.00346
1897.41852,0.00332
1895.35835,0.00305
1893.29818,0.00321
1891.23800,0.00344
1889.17783,0.00390
1887.11766,0.00451
1885.05749,0.00429
1882.99731,0.00371
1880.93714,0.00344
1878.87697,0.00320
1876.81680,0.00274
1874.75663,0.00262
1872.69645,0.00311
1870.63628,0.00310
1868.57611,0.00267
1866.51594,0.00296
1864.45577,0.00324
1862.39559,0.00305
1860.33542,0.00286
1858.27525,0.00280
1856.21508,0.00268
1854.15491,0.00236
1852.09473,0.00214
1850.03456,0.00240
1847.97439,0.00292
1845.91422,0.00256
1843.85404,0.00199
1841.79387,0.00278
1839.73370,0.00301
1837.67353,0.00227
1835.61336,0.00218
1833.55318,0.00262
1831.49301,0.00225
1829.43284,0.00190
1827.37267,0.00237
1825.31250,0.00269
1823.25232,0.00331
1821.19215,0.00355
1819.13198,0.00253
1817.07181,0.00129
1815.01163,0.00100
1812.95146,0.00114
1810.89129,0.00121
1808.83112,0.00147
1806.77095,0.00172
1804.71077,0.00180
1802.65060,0.00153
1800.59043,0.00123
1798.53026,0.00154
1796.47009,0.00197
1794.40991,0.00158
1792.34974,0.00100
1790.28957,0.00161
1788.22940,0.00188
1786.16923,0.00108
1784.10905,0.00069
1782.04888,0.00070
1779.98871,0.00070
1777.92854,0.00101
1775.86836,0.00092
1773.80819,0.00007
1771.74802,0.00000
1769.68785,0.00113
1767.62768,0.00176
1765.56750,0.00188
1763.50733,0.00128
1761.44716,0.00115
1759.38699,0.00227
1757.32682,0.00330
1755.26664,0.00470
1753.20647,0.00538
1751.14630,0.00482
1749.08613,0.00516
1747.02596,0.00685
1744.96578,0.00851
1742.90561,0.00950
1740.84544,0.01020
1738.78527,0.01163
1736.72509,0.01232
1734.66492,0.01101
1732.60475,0.01144
1730.54458,0.01281
1728.48441,0.01338
1726.42423,0.01366
1724.36406,0.01361
1722.30389,0.01383
1720.24372,0.01322
1718.18355,0.01153
1716.12337,0.01185
1714.06320,0.01380
1712.00303,0.01511
1709.94286,0.01514
1707.88268,0.01413
1705.82251,0.01360
1703.76234,0.01459
1701.70217,0.01427
1699.64200,0.01353
1697.58182,0.01361
1695.52165,0.01334
1693.46148,0.01456
1691.40131,0.01532
1689.34114,0.01587
1687.28096,0.01656
1685.22079,0.01627
1683.16062,0.01863
1681.10045,0.02259
1679.04028,0.02455
1676.98010,0.02491
1674.91993,0.02550
1672.85976,0.02662
1670.79959,0.02580
1668.73941,0.02531
1666.67924,0.02637
1664.61907,0.02581
1662.55890,0.02436
1660.49873,0.02443
1658.43855,0.02478
1656.37838,0.02345
1654.31821,0.02034
1652.25804,0.02116
1650.19787,0.02451
1648.13769,0.02329
1646.07752,0.02142
1644.01735,0.02254
1641.95718,0.02366
1639.89701,0.02380
1637.83683,0.02249
1635.77666,0.02141
1633.71649,0.02381
1631.65632,0.02606
1629.59614,0.02613
1627.53597,0.02610
1625.47580,0.02614
1623.41563,0.02595
1621.35546,0.02710
1619.29528,0.02736
1617.23511,0.02613
1615.17494,0.02704
1613.11477,0.02888
1611.05460,0.02973
1608.99442,0.03071
1606.93425,0.03219
1604.87408,0.03307
1602.81391,0.03265
1600.75373,0.03145
1598.69356,0.03012
1596.63339,0.02887
1594.57322,0.02783
1592.51305,0.02696
1590.45287,0.02621
1588.39270,0.02573
1586.33253,0.02529
1584.27236,0.02470
1582.21219,0.02437
1580.15201,0.02414
1578.09184,0.02272
1576.03167,0.02145
1573.97150,0.02252
1571.91133,0.02217
1569.85115,0.02008
1567.79098,0.01977
1565.73081,0.01994
1563.67064,0.01979
1561.61046,0.01780
1559.55029,0.01362
1557.49012,0.01416
1555.42995,0.01588
1553.36978,0.01536
1551.30960,0.01423
1549.24943,0.01366
1547.18926,0.01381
1545.12909,0.01327
1543.06892,0.01140
1541.00874,0.00829
1538.94857,0.00825
1536.88840,0.01061
1534.82823,0.00962
1532.76805,0.00792
1530.70788,0.00837
1528.64771,0.00813
1526.58754,0.00745
1524.52737,0.00735
1522.46719,0.00707
1520.40702,0.00865
1518.34685,0.01076
1516.28668,0.01164
1514.22651,0.01275
1512.16633,0.01315
1510.10616,0.01155
1508.04599,0.00737
1505.98582,0.00548
1503.92565,0.00749
1501.86547,0.00781
1499.80530,0.00574
1497.74513,0.00351
1495.68496,0.00321
1493.62478,0.00380
1491.56461,0.00262
1489.50444,0.00109
1487.44427,0.00124
1485.38410,0.00179
1483.32392,0.00163
1481.26375,0.00147
1479.20358,0.00206
1477.14341,0.00260
1475.08324,0.00287
1473.02306,0.00369
1470.96289,0.00642
1468.90272,0.00910
1466.84255,0.00987
1464.78238,0.01078
1462.72220,0.01312
1460.66203,0.01404
1458.60186,0.01274
1456.54169,0.01322
1454.48151,0.01615
1452.42134,0.01750
1450.36117,0.01724
1448.30100,0.01700
1446.24083,0.01786
1444.18065,0.01915
1442.12048,0.02022
1440.06031,0.02099
1438.00014,0.02071
1435.93997,0.02118
1433.87979,0.02289
1431.81962,0.02315
1429.75945,0.02280
1427.69928,0.02319
1425.63910,0.02335
1423.57893,0.02352
1421.51876,0.02344
1419.45859,0.02249
1417.39842,0.02290
1415.33824,0.02380
1413.27807,0.02351
1411.21790,0.02282
1409.15773,0.02256
1407.09756,0.02219
1405.03738,0.02156
1402.97721,0.02127
1400.91704,0.02049
1398.85687,0.01929
1396.79670,0.01837
1394.73652,0.01764
1392.67635,0.01787
1390.61618,0.01804
1388.55601,0.01747
1386.49583,0.01774
1384.43566,0.01892
1382.37549,0.01961
1380.31532,0.01998
1378.25515,0.02043
1376.19497,0.02060
1374.13480,0.02086
1372.07463,0.02175
1370.01446,0.02206
1367.95429,0.02183
1365.89411,0.02157
1363.83394,0.02072
1361.77377,0.02010
1359.71360,0.02014
1357.65343,0.01992
1355.59325,0.01953
1353.53308,0.01942
1351.47291,0.01939
1349.41274,0.01921
1347.35256,0.01909
1345.29239,0.01914
1343.23222,0.01918
1341.17205,0.01883
1339.11188,0.01850
1337.05170,0.01876
1334.99153,0.01915
1332.93136,0.01930
1330.87119,0.01934
1328.81102,0.01946
1326.75084,0.01971
1324.69067,0.02007
1322.63050,0.02029
1320.57033,0.02001
1318.51015,0.01953
1316.44998,0.01932
1314.38981,0.01915
1312.32964,0.01891
1310.26947,0.01866
1308.20929,0.01817
1306.14912,0.01757
1304.08895,0.01715
1302.02878,0.01684
1299.96861,0.01642
1297.90843,0.01594
1295.84826,0.01552
1293.78809,0.01520
1291.72792,0.01507
1289.66775,0.01525
1287.60757,0.01571
1285.54740,0.01615
1283.48723,0.01627
1281.42706,0.01619
1279.36688,0.01626
1277.30671,0.01654
1275.24654,0.01683
1273.18637,0.01698
1271.12620,0.01713
1269.06602,0.01741
1267.00585,0.01788
1264.94568,0.01862
1262.88551,0.01935
1260.82534,0.01990
1258.76516,0.02072
1256.70499,0.02150
1254.64482,0.02184
1252.58465,0.02223
1250.52447,0.02276
1248.46430,0.02307
1246.40413,0.02315
1244.34396,0.02323
1242.28379,0.02336
1240.22361,0.02352
1238.16344,0.02361
1236.10327,0.02349
1234.04310,0.02306
1231.98293,0.02249
1229.92275,0.02195
1227.86258,0.02132
1225.80241,0.02043
1223.74224,0.01942
1221.68207,0.01834
1219.62189,0.01724
1217.56172,0.01631
1215.50155,0.01532
1213.44138,0.01394
1211.38120,0.01246
1209.32103,0.01124
1207.26086,0.01037
1205.20069,0.00978
1203.14052,0.00882
1201.08034,0.00721
1199.02017,0.00551
1196.96000,0.00407
1194.89983,0.00281
1192.83966,0.00174
1190.77948,0.00092
1188.71931,0.00045
1186.65914,0.00023
1184.59897,0.00009
1182.53880,0.00000
1180.47862,0.00003
1178.41845,0.00046
1176.35828,0.00137
1174.29811,0.00273
1172.23793,0.00457
1170.17776,0.00671
1168.11759,0.00854
1166.05742,0.00927
1163.99725,0.00922
1161.93707,0.00942
1159.87690,0.01002
1157.81673,0.01067
1155.75656,0.01127
1153.69639,0.01192
1151.63621,0.01269
1149.57604,0.01341
1147.51587,0.01427
1145.45570,0.01550
1143.39552,0.01665
1141.33535,0.01742
1139.27518,0.01814
1137.21501,0.01892
1135.15484,0.01948
1133.09466,0.01991
1131.03449,0.02062
1128.97432,0.02163
1126.91415,0.02265
1124.85398,0.02363
1122.79380,0.02484
1120.73363,0.02621
1118.67346,0.02735
1116.61329,0.02822
1114.55312,0.02916
1112.49294,0.03037
1110.43277,0.03142
1108.37260,0.03202
1106.31243,0.03263
1104.25225,0.03386
1102.19208,0.03536
1100.13191,0.03654
1098.07174,0.03783
1096.01157,0.03963
1093.95139,0.04169
1091.89122,0.04386
1089.83105,0.04587
1087.77088,0.04749
1085.71071,0.04898
1083.65053,0.05061
1081.59036,0.05235
1079.53019,0.05407
1077.47002,0.05596
1075.40985,0.05818
1073.34967,0.06039
1071.28950,0.06226
1069.22933,0.06384
1067.16916,0.06511
1065.10898,0.06627
1063.04881,0.06766
1060.98864,0.06907
1058.92847,0.07046
1056.86830,0.07195
1054.80812,0.07348
1052.74795,0.07538
1050.68778,0.07757
1048.62761,0.07974
1046.56744,0.08200
1044.50726,0.08428
1042.44709,0.08644
1040.38692,0.08863
1038.32675,0.09071
1036.26657,0.09223
1034.20640,0.09322
1032.14623,0.09390
1030.08606,0.09402
1028.02589,0.09340
1025.96571,0.09275
1023.90554,0.09242
1021.84537,0.09213
1019.78520,0.09212
1017.72503,0.09215
1015.66485,0.09185
1013.60468,0.09177
1011.54451,0.09213
1009.48434,0.09271
1007.42417,0.09306
1005.36399,0.09275
1003.30382,0.09211
1001.24365,0.09138
999.18348,0.09026
997.12330,0.08919
995.06313,0.08847
993.00296,0.08720
990.94279,0.08520
988.88262,0.08339
986.82244,0.08222
984.76227,0.08130
982.70210,0.07998
980.64193,0.07840
978.58176,0.07721
976.52158,0.07611
974.46141,0.07469
972.40124,0.07322
970.34107,0.07196
968.28089,0.07076
966.22072,0.06922
964.16055,0.06743
962.10038,0.06588
960.04021,0.06490
957.98003,0.06407
955.91986,0.06281
953.85969,0.06133
951.79952,0.05991
949.73935,0.05853
947.67917,0.05731
945.61900,0.05618
943.55883,0.05482
941.49866,0.05299
939.43849,0.05056
937.37831,0.04749
935.31814,0.04417
933.25797,0.04133
931.19780,0.03917
929.13762,0.03701
927.07745,0.03435
925.01728,0.03202
922.95711,0.03051
920.89694,0.02901
918.83676,0.02737
916.77659,0.02616
914.71642,0.02518
912.65625,0.02406
910.59608,0.02258
908.53590,0.02066
906.47573,0.01897
904.41556,0.01804
902.35539,0.01782
900.29522,0.01811
898.23504,0.01832
896.17487,0.01817
894.11470,0.01810
892.05453,0.01809
889.99435,0.01768
887.93418,0.01721
885.87401,0.01682
883.81384,0.01597
881.75367,0.01473
879.69349,0.01354
877.63332,0.01245
875.57315,0.01148
873.51298,0.01084
871.45281,0.01043
869.39263,0.00987
867.33246,0.00956
865.27229,0.00974
863.21212,0.00972
861.15194,0.00946
859.09177,0.00919
857.03160,0.00889
854.97143,0.00890
852.91126,0.00918
850.85108,0.00942
848.79091,0.00951
846.73074,0.00930
844.67057,0.00882
842.61040,0.00820
840.55022,0.00751
838.49005,0.00720
836.42988,0.00754
834.36971,0.00804
832.30954,0.00784
830.24936,0.00693
828.18919,0.00656
826.12902,0.00666
824.06885,0.00631
822.00867,0.00582
819.94850,0.00508
817.88833,0.00412
815.82816,0.00372
813.76799,0.00403
811.70781,0.00467
809.64764,0.00495
807.58747,0.00451
805.52730,0.00417
803.46713,0.00428
801.40695,0.00404
799.34678,0.00349
797.28661,0.00281
795.22644,0.00197
793.16627,0.00150
791.10609,0.00146
789.04592,0.00103
786.98575,0.00017
784.92558,0.00000
782.86540,0.00018
780.80523,0.00007
778.74506,0.00025
776.68489,0.00081
774.62472,0.00140
772.56454,0.00138
770.50437,0.00044
768.44420,0.00001
766.38403,0.00105
764.32386,0.00222
762.26368,0.00200
760.20351,0.00138
758.14334,0.00148
756.08317,0.00147
754.02299,0.00083
751.96282,0.00000
749.90265,-0.00031
747.84248,-0.00000
745.78231,0.00019
743.72213,0.00005
741.66196,-0.00041
739.60179,-0.00069
737.54162,-0.00061
735.48145,-0.00082
733.42127,-0.00154
731.36110,-0.00227
729.30093,-0.00232
727.24076,-0.00114
725.18059,0.00030
723.12041,0.00078
721.06024,0.00136
719.00007,0.00120
716.93990,0.00124
714.87972,0.00214
712.81955,0.00331
710.75938,0.00391
708.69921,0.00345
706.63904,0.00277
704.57886,0.00233
702.51869,0.00210
700.45852,0.00256
698.39835,0.00319
696.33818,0.00243
694.27800,0.00065
692.21783,0.00000
690.15766,0.00052
688.09749,0.00082
686.03731,0.00110
683.97714,0.00243
681.91697,0.00404
679.85680,0.00353
677.79663,0.00065
675.73645,-0.00145
673.67628,-0.00239
671.61611,-0.00329
669.55594,0.00303
667.49577,0.00732
665.43559,-0.00138
663.37542,0.00005
661.31525,0.00414
659.25508,0.00593
657.19491,0.00600
655.13473,0.00530
653.07456,0.00516
651.01439,0.00668
648.95422,0.00781
646.89404,0.00553
644.83387,0.00181
642.77370,0.00000
640.71353,0.00169
638.65336,0.00632
636.59318,0.01041
634.53301,0.01006
632.47284,0.00689
630.41267,0.00527
628.35250,0.00518
626.29232,0.00372
624.23215,0.00033
622.17198,-0.00203
620.11181,-0.00009
618.05164,0.00204
615.99146,0.00087
613.93129,0.00056
611.87112,0.00132
609.81095,-0.00022
607.75077,-0.00192
605.69060,0.00012
603.63043,0.00401
601.57026,0.00359
599.51009,0.00000
