3996.73391,-0.00109
3994.67373,-0.00093
3992.61356,-0.00085
3990.55339,-0.00067
3988.49322,-0.00046
3986.43305,-0.00028
3984.37287,0.00012
3982.31270,0.00075
3980.25253,0.00111
3978.19236,0.00109
3976.13219,0.00085
3974.07201,0.00062
3972.01184,0.00063
3969.95167,0.00043
3967.89150,0.00001
3965.83133,0.00000
3963.77115,0.00032
3961.71098,0.00036
3959.65081,0.00037
3957.59064,0.00070
3955.53046,0.00086
3953.47029,0.00071
3951.41012,0.00067
3949.34995,0.00093
3947.28978,0.00118
3945.22960,0.00151
3943.16943,0.00184
3941.10926,0.00175
3939.04909,0.00168
3936.98892,0.00158
3934.92874,0.00139
3932.86857,0.00140
3930.80840,0.00139
3928.74823,0.00141
3926.68805,0.00205
3924.62788,0.00278
3922.56771,0.00268
3920.50754,0.00236
3918.44737,0.00223
3916.38719,0.00222
3914.32702,0.00246
3912.26685,0.00268
3910.20668,0.00232
3908.14651,0.00201
3906.08633,0.00246
3904.02616,0.00226
3901.96599,0.00077
3899.90582,-0.00007
3897.84565,0.00000
3895.78547,0.00072
3893.72530,0.00217
3891.66513,0.00270
3889.60496,0.00158
3887.54478,0.00168
3885.48461,0.00274
3883.42444,0.00269
3881.36427,0.00285
3879.30410,0.00235
3877.24392,0.00144
3875.18375,0.00162
3873.12358,0.00198
3871.06341,0.00318
3869.00324,0.00387
3866.94306,0.00338
3864.88289,0.00329
3862.82272,0.00264
3860.76255,0.00169
3858.70237,0.00141
3856.64220,0.00284
3854.58203,0.00557
3852.52186,0.00525
3850.46169,0.00244
3848.40151,0.00125
3846.34134,0.00156
3844.28117,0.00214
3842.22100,0.00201
3840.16083,0.00176
3838.10065,0.00188
3836.04048,0.00193
3833.98031,0.00228
3831.92014,0.00277
3829.85997,0.00278
3827.79979,0.00269
3825.73962,0.00193
3823.67945,0.00185
3821.61928,0.00321
3819.55910,0.00279
3817.49893,0.00240
3815.43876,0.00240
3813.37859,0.00156
3811.31842,0.00149
3809.25824,0.00217
3807.19807,0.00235
3805.13790,0.00166
3803.07773,0.00265
3801.01756,0.00358
3798.95738,0.00269
3796.89721,0.00248
3794.83704,0.00184
3792.77687,0.00111
3790.71670,0.00134
3788.65652,0.00181
3786.59635,0.00205
3784.53618,0.00185
3782.47601,0.00161
3780.41583,0.00213
3778.35566,0.00221
3776.29549,0.00160
3774.23532,0.00148
3772.17515,0.00215
3770.11497,0.00283
3768.05480,0.00278
3765.99463,0.00295
3763.93446,0.00277
3761.87429,0.00268
3759.81411,0.00293
3757.75394,0.00217
3755.69377,0.00139
3753.63360,0.00253
3751.57342,0.00432
3749.51325,0.00385
3747.45308,0.00345
3745.39291,0.00502
3743.33274,0.00388
3741.27256,0.00096
3739.21239,0.00000
3737.15222,0.00054
3735.09205,0.00113
3733.03188,0.00088
3730.97170,0.00036
3728.91153,0.00085
3726.85136,0.00214
3724.79119,0.00257
3722.73102,0.00251
3720.67084,0.00197
3718.61067,0.00092
3716.55050,0.00033
3714.49033,0.00075
3712.43015,0.00120
3710.36998,0.00078
3708.30981,0.00083
3706.24964,0.00167
3704.18947,0.00261
3702.12929,0.00312
3700.06912,0.00309
3698.00895,0.00336
3695.94878,0.00350
3693.88861,0.00315
3691.82843,0.00337
3689.76826,0.00369
3687.70809,0.00270
3685.64792,0.00181
3683.58775,0.00199
3681.52757,0.00192
3679.46740,0.00136
3677.40723,0.00200
3675.34706,0.00312
3673.28688,0.00280
3671.22671,0.00428
3669.16654,0.00521
3667.10637,0.00368
3665.04620,0.00297
3662.98602,0.00317
3660.92585,0.00319
3658.86568,0.00341
3656.80551,0.00336
3654.74534,0.00146
3652.68516,0.00022
3650.62499,0.00148
3648.56482,0.00271
3646.50465,0.00255
3644.44447,0.00231
3642.38430,0.00265
3640.32413,0.00248
3638.26396,0.00175
3636.20379,0.00142
3634.14361,0.00171
3632.08344,0.00235
3630.02327,0.00394
3627.96310,0.00441
3625.90293,0.00342
3623.84275,0.00346
3621.78258,0.00429
3619.72241,0.00454
3617.66224,0.00360
3615.60207,0.00333
3613.54189,0.00402
3611.48172,0.00419
3609.42155,0.00443
3607.36138,0.00477
3605.30120,0.00485
3603.24103,0.00548
3601.18086,0.00609
3599.12069,0.00562
3597.06052,0.00510
3595.00034,0.00513
3592.94017,0.00467
3590.88000,0.00425
3588.81983,0.00510
3586.75966,0.00590
3584.69948,0.00594
3582.63931,0.00652
3580.57914,0.00742
3578.51897,0.00783
3576.45879,0.00770
3574.39862,0.00754
3572.33845,0.00752
3570.27828,0.00765
3568.21811,0.00789
3566.15793,0.00775
3564.09776,0.00742
3562.03759,0.00770
3559.97742,0.00839
3557.91725,0.00893
3555.85707,0.00930
3553.79690,0.00965
3551.73673,0.00941
3549.67656,0.00901
3547.61639,0.00979
3545.55621,0.01112
3543.49604,0.01162
3541.43587,0.01155
3539.37570,0.01185
3537.31552,0.01287
3535.25535,0.01369
3533.19518,0.01359
3531.13501,0.01313
3529.07484,0.01293
3527.01466,0.01307
3524.95449,0.01349
3522.89432,0.01393
3520.83415,0.01429
3518.77398,0.01473
3516.71380,0.01485
3514.65363,0.01479
3512.59346,0.01507
3510.53329,0.01563
3508.47312,0.01616
3506.41294,0.01674
3504.35277,0.01737
3502.29260,0.01740
3500.23243,0.01725
3498.17225,0.01773
3496.11208,0.01826
3494.05191,0.01831
3491.99174,0.01859
3489.93157,0.01941
3487.87139,0.01993
3485.81122,0.01981
3483.75105,0.01997
3481.69088,0.02058
3479.63071,0.02083
3477.57053,0.02092
3475.51036,0.02132
3473.45019,0.02172
3471.39002,0.02191
3469.32984,0.02208
3467.26967,0.02221
3465.20950,0.02235
3463.14933,0.02288
3461.08916,0.02336
3459.02898,0.02335
3456.96881,0.02309
3454.90864,0.02299
3452.84847,0.02355
3450.78830,0.02462
3448.72812,0.02544
3446.66795,0.02526
3444.60778,0.02479
3442.54761,0.02531
3440.48744,0.02622
3438.42726,0.02694
3436.36709,0.02748
3434.30692,0.02742
3432.24675,0.02685
3430.18657,0.02661
3428.12640,0.02687
3426.06623,0.02748
3424.00606,0.02840
3421.94589,0.02930
3419.88571,0.02968
3417.82554,0.02960
3415.76537,0.02965
3413.70520,0.02972
3411.64503,0.02979
3409.58485,0.03043
3407.52468,0.03117
3405.46451,0.03126
3403.40434,0.03139
3401.34416,0.03186
3399.28399,0.03191
3397.22382,0.03122
3395.16365,0.03061
3393.10348,0.03078
3391.04330,0.03117
3388.98313,0.03141
3386.92296,0.03170
3384.86279,0.03210
3382.80262,0.03239
3380.74244,0.03253
3378.68227,0.03275
3376.62210,0.03321
3374.56193,0.03382
3372.50176,0.03394
3370.44158,0.03374
3368.38141,0.03397
3366.32124,0.03452
3364.26107,0.03494
3362.20089,0.03529
3360.14072,0.03553
3358.08055,0.03529
3356.02038,0.03482
3353.96021,0.03510
3351.90003,0.03592
3349.83986,0.03639
3347.77969,0.03641
3345.71952,0.03610
3343.65935,0.03566
3341.59917,0.03551
3339.53900,0.03576
3337.47883,0.03598
3335.41866,0.03598
3333.35849,0.03615
3331.29831,0.03633
3329.23814,0.03613
3327.17797,0.03586
3325.11780,0.03609
3323.05762,0.03659
3320.99745,0.03682
3318.93728,0.03692
3316.87711,0.03704
3314.81694,0.03679
3312.75676,0.03634
3310.69659,0.03627
3308.63642,0.03630
3306.57625,0.03625
3304.51608,0.03669
3302.45590,0.03733
3300.39573,0.03734
3298.33556,0.03713
3296.27539,0.03747
3294.21521,0.03778
3292.15504,0.03745
3290.09487,0.03679
3288.03470,0.03653
3285.97453,0.03687
3283.91435,0.03739
3281.85418,0.03764
3279.79401,0.03758
3277.73384,0.03744
3275.67367,0.03753
3273.61349,0.03801
3271.55332,0.03845
3269.49315,0.03848
3267.43298,0.03804
3265.37281,0.03714
3263.31263,0.03634
3261.25246,0.03601
3259.19229,0.03602
3257.13212,0.03628
3255.07194,0.03675
3253.01177,0.03711
3250.95160,0.03708
3248.89143,0.03683
3246.83126,0.03661
3244.77108,0.03651
3242.71091,0.03629
3240.65074,0.03628
3238.59057,0.03671
3236.53040,0.03701
3234.47022,0.03718
3232.41005,0.03744
3230.34988,0.03720
3228.28971,0.03641
3226.22954,0.03609
3224.16936,0.03643
3222.10919,0.03651
3220.04902,0.03614
3217.98885,0.03584
3215.92867,0.03586
3213.86850,0.03571
3211.80833,0.03525
3209.74816,0.03503
3207.68799,0.03484
3205.62781,0.03465
3203.56764,0.03480
3201.50747,0.03523
3199.44730,0.03581
3197.38713,0.03597
3195.32695,0.03561
3193.26678,0.03523
3191.20661,0.03480
3189.14644,0.03445
3187.08626,0.03449
3185.02609,0.03492
3182.96592,0.03523
3180.90575,0.03495
3178.84558,0.03469
3176.78540,0.03482
3174.72523,0.03481
3172.66506,0.03444
3170.60489,0.03382
3168.54472,0.03271
3166.48454,0.03156
3164.42437,0.03123
3162.36420,0.03136
3160.30403,0.03143
3158.24386,0.03144
3156.18368,0.03132
3154.12351,0.03111
3152.06334,0.03090
3150.00317,0.03076
3147.94299,0.03038
3145.88282,0.02965
3143.82265,0.02916
3141.76248,0.02913
3139.70231,0.02925
3137.64213,0.02957
3135.58196,0.03002
3133.52179,0.03003
3131.46162,0.02937
3129.40145,0.02851
3127.34127,0.02794
3125.28110,0.02794
3123.22093,0.02832
3121.16076,0.02853
3119.10058,0.02858
3117.04041,0.02872
3114.98024,0.02868
3112.92007,0.02836
3110.85990,0.02809
3108.79972,0.02777
3106.73955,0.02751
3104.67938,0.02760
3102.61921,0.02747
3100.55904,0.02675
3098.49886,0.02630
3096.43869,0.02668
3094.37852,0.02714
3092.31835,0.02691
3090.25818,0.02603
3088.19800,0.02522
3086.13783,0.02489
3084.07766,0.02498
3082.01749,0.02530
3079.95731,0.02537
3077.89714,0.02508
3075.83697,0.02489
3073.77680,0.02482
3071.71663,0.02449
3069.65645,0.02410
3067.59628,0.02391
3065.53611,0.02380
3063.47594,0.02364
3061.41577,0.02348
3059.35559,0.02352
3057.29542,0.02364
3055.23525,0.02356
3053.17508,0.02332
3051.11491,0.02303
3049.05473,0.02279
3046.99456,0.02266
3044.93439,0.02253
3042.87422,0.02239
3040.81404,0.02202
3038.75387,0.02167
3036.69370,0.02174
3034.63353,0.02174
3032.57336,0.02160
3030.51318,0.02142
3028.45301,0.02082
3026.39284,0.02015
3024.33267,0.01984
3022.27250,0.01967
3020.21232,0.01968
3018.15215,0.01993
3016.09198,0.01989
3014.03181,0.01970
3011.97163,0.01987
3009.91146,0.01988
3007.85129,0.01941
3005.79112,0.01889
3003.73095,0.01852
3001.67077,0.01853
2999.61060,0.01892
2997.55043,0.01915
2995.49026,0.01904
2993.43009,0.01897
2991.36991,0.01883
2989.30974,0.01850
2987.24957,0.01829
2985.18940,0.01845
2983.12923,0.01885
2981.06905,0.01910
2979.00888,0.01917
2976.94871,0.01929
2974.88854,0.01961
2972.82836,0.02005
2970.76819,0.02032
2968.70802,0.02047
2966.64785,0.02101
2964.58768,0.02223
2962.52750,0.02351
2960.46733,0.02419
2958.40716,0.02457
2956.34699,0.02517
2954.28682,0.02604
2952.22664,0.02724
2950.16647,0.02885
2948.10630,0.03023
2946.04613,0.03138
2943.98596,0.03316
2941.92578,0.03522
2939.86561,0.03673
2937.80544,0.03798
2935.74527,0.03966
2933.68509,0.04156
2931.62492,0.04318
2929.56475,0.04445
2927.50458,0.04554
2925.44441,0.04639
2923.38423,0.04695
2921.32406,0.04765
2919.26389,0.04846
2917.20372,0.04866
2915.14355,0.04787
2913.08337,0.04666
2911.02320,0.04559
2908.96303,0.04400
2906.90286,0.04189
2904.84268,0.04030
2902.78251,0.03939
2900.72234,0.03860
2898.66217,0.03776
2896.60200,0.03690
2894.54182,0.03619
2892.48165,0.03584
2890.42148,0.03536
2888.36131,0.03436
2886.30114,0.03345
2884.24096,0.03312
2882.18079,0.03279
2880.12062,0.03220
2878.06045,0.03189
2876.00028,0.03201
2873.94010,0.03221
2871.87993,0.03227
2869.81976,0.03246
2867.75959,0.03289
2865.69941,0.03335
2863.63924,0.03406
2861.57907,0.03519
2859.51890,0.03638
2857.45873,0.03761
2855.39855,0.03895
2853.33838,0.04007
2851.27821,0.04064
2849.21804,0.04019
2847.15787,0.03851
2845.09769,0.03630
2843.03752,0.03403
2840.97735,0.03188
2838.91718,0.03028
2836.85700,0.02916
2834.79683,0.02848
2832.73666,0.02817
2830.67649,0.02771
2828.61632,0.02703
2826.55614,0.02642
2824.49597,0.02591
2822.43580,0.02548
2820.37563,0.02524
2818.31546,0.02507
2816.25528,0.02483
2814.19511,0.02439
2812.13494,0.02399
2810.07477,0.02376
2808.01460,0.02331
2805.95442,0.02287
2803.89425,0.02279
2801.83408,0.02271
2799.77391,0.02261
2797.71373,0.02268
2795.65356,0.02258
2793.59339,0.02209
2791.53322,0.02140
2789.47305,0.02104
2787.41287,0.02115
2785.35270,0.02137
2783.29253,0.02135
2781.23236,0.02092
2779.17219,0.02036
2777.11201,0.02026
2775.05184,0.02051
2772.99167,0.02060
2770.93150,0.02046
2768.87133,0.02034
2766.81115,0.02034
2764.75098,0.02004
2762.69081,0.01957
2760.63064,0.01951
2758.57046,0.01964
2756.51029,0.01981
2754.45012,0.02001
2752.38995,0.02009
2750.32978,0.02001
2748.26960,0.01978
2746.20943,0.01978
2744.14926,0.01995
2742.08909,0.01976
2740.02892,0.01925
2737.96874,0.01886
2735.90857,0.01881
2733.84840,0.01891
2731.78823,0.01873
2729.72805,0.01830
2727.66788,0.01815
2725.60771,0.01843
2723.54754,0.01853
2721.48737,0.01830
2719.42719,0.01830
2717.36702,0.01848
2715.30685,0.01848
2713.24668,0.01847
2711.18651,0.01867
2709.12633,0.01878
2707.06616,0.01858
2705.00599,0.01850
2702.94582,0.01866
2700.88565,0.01860
2698.82547,0.01837
2696.76530,0.01833
2694.70513,0.01844
2692.64496,0.01845
2690.58478,0.01836
2688.52461,0.01842
2686.46444,0.01856
2684.40427,0.01852
2682.34410,0.01841
2680.28392,0.01814
2678.22375,0.01769
2676.16358,0.01750
2674.10341,0.01759
2672.04324,0.01766
2669.98306,0.01764
2667.92289,0.01757
2665.86272,0.01752
2663.80255,0.01736
2661.74238,0.01704
2659.68220,0.01693
2657.62203,0.01738
2655.56186,0.01794
2653.50169,0.01807
2651.44151,0.01775
2649.38134,0.01732
2647.32117,0.01699
2645.26100,0.01661
2643.20083,0.01641
2641.14065,0.01663
2639.08048,0.01666
2637.02031,0.01632
2634.96014,0.01637
2632.89997,0.01682
2630.83979,0.01712
2628.77962,0.01728
2626.71945,0.01768
2624.65928,0.01783
2622.59910,0.01716
2620.53893,0.01644
2618.47876,0.01612
2616.41859,0.01599
2614.35842,0.01584
2612.29824,0.01564
2610.23807,0.01571
2608.17790,0.01576
2606.11773,0.01547
2604.05756,0.01537
2601.99738,0.01545
2599.93721,0.01524
2597.87704,0.01510
2595.81687,0.01540
2593.75670,0.01549
2591.69652,0.01497
2589.63635,0.01455
2587.57618,0.01464
2585.51601,0.01483
2583.45583,0.01485
2581.39566,0.01509
2579.33549,0.01577
2577.27532,0.01609
2575.21515,0.01559
2573.15497,0.01523
2571.09480,0.01547
2569.03463,0.01563
2566.97446,0.01540
2564.91429,0.01479
2562.85411,0.01426
2560.79394,0.01423
2558.73377,0.01455
2556.67360,0.01504
2554.61342,0.01535
2552.55325,0.01490
2550.49308,0.01397
2548.43291,0.01377
2546.37274,0.01434
2544.31256,0.01475
2542.25239,0.01484
2540.19222,0.01486
2538.13205,0.01489
2536.07188,0.01476
2534.01170,0.01417
2531.95153,0.01357
2529.89136,0.01365
2527.83119,0.01405
2525.77102,0.01389
2523.71084,0.01329
2521.65067,0.01334
2519.59050,0.01373
2517.53033,0.01343
2515.47015,0.01315
2513.40998,0.01320
2511.34981,0.01277
2509.28964,0.01214
2507.22947,0.01200
2505.16929,0.01199
2503.10912,0.01185
2501.04895,0.01213
2498.98878,0.01299
2496.92861,0.01362
2494.86843,0.01337
2492.80826,0.01296
2490.74809,0.01313
2488.68792,0.01334
2486.62775,0.01276
2484.56757,0.01181
2482.50740,0.01150
2480.44723,0.01192
2478.38706,0.01261
2476.32688,0.01310
2474.26671,0.01288
2472.20654,0.01213
2470.14637,0.01143
2468.08620,0.01085
2466.02602,0.01082
2463.96585,0.01157
2461.90568,0.01226
2459.84551,0.01265
2457.78534,0.01306
2455.72516,0.01296
2453.66499,0.01225
2451.60482,0.01165
2449.54465,0.01148
2447.48447,0.01142
2445.42430,0.01175
2443.36413,0.01238
2441.30396,0.01243
2439.24379,0.01215
2437.18361,0.01217
2435.12344,0.01245
2433.06327,0.01281
2431.00310,0.01273
2428.94293,0.01242
2426.88275,0.01240
2424.82258,0.01211
2422.76241,0.01141
2420.70224,0.01124
2418.64207,0.01141
2416.58189,0.01119
2414.52172,0.01090
2412.46155,0.01113
2410.40138,0.01177
2408.34120,0.01188
2406.28103,0.01152
2404.22086,0.01154
2402.16069,0.01168
2400.10052,0.01170
2398.04034,0.01184
2395.98017,0.01170
2393.92000,0.01130
2391.85983,0.01101
2389.79966,0.01082
2387.73948,0.01084
2385.67931,0.01130
2383.61914,0.01171
2381.55897,0.01148
2379.49880,0.01115
2377.43862,0.01111
2375.37845,0.01112
2373.31828,0.01115
2371.25811,0.01084
2369.19793,0.01047
2367.13776,0.01171
2365.07759,0.01352
2363.01742,0.01367
2360.95725,0.01441
2358.89707,0.01731
2356.83690,0.01565
2354.77673,0.00972
2352.71656,0.00693
2350.65639,0.00777
2348.59621,0.00986
2346.53604,0.01194
2344.47587,0.01119
2342.41570,0.01112
2340.35552,0.01161
2338.29535,0.00965
2336.23518,0.00759
2334.17501,0.00891
2332.11484,0.01279
2330.05466,0.01514
2327.99449,0.01489
2325.93432,0.01314
2323.87415,0.01149
2321.81398,0.01003
2319.75380,0.00908
2317.69363,0.00855
2315.63346,0.00887
2313.57329,0.00950
2311.51312,0.00974
2309.45294,0.00996
2307.39277,0.01042
2305.33260,0.01047
2303.27243,0.01044
2301.21225,0.01095
2299.15208,0.01098
2297.09191,0.01011
2295.03174,0.00934
2292.97157,0.00929
2290.91139,0.00985
2288.85122,0.01067
2286.79105,0.01085
2284.73088,0.01001
2282.67071,0.00906
2280.61053,0.00894
2278.55036,0.00929
2276.49019,0.00918
2274.43002,0.00888
2272.36984,0.00902
2270.30967,0.00915
2268.24950,0.00899
2266.18933,0.00888
2264.12916,0.00857
2262.06898,0.00742
2260.00881,0.00630
2257.94864,0.00662
2255.88847,0.00814
2253.82830,0.00962
2251.76812,0.00998
2249.70795,0.00946
2247.64778,0.00928
2245.58761,0.00931
2243.52744,0.00968
2241.46726,0.01018
2239.40709,0.00959
2237.34692,0.00765
2235.28675,0.00596
2233.22657,0.00642
2231.16640,0.00762
2229.10623,0.00799
2227.04606,0.00844
2224.98589,0.00865
2222.92571,0.00839
2220.86554,0.00912
2218.80537,0.00999
2216.74520,0.00897
2214.68503,0.00691
2212.62485,0.00548
2210.56468,0.00515
2208.50451,0.00620
2206.44434,0.00722
2204.38417,0.00691
2202.32399,0.00702
2200.26382,0.00761
2198.20365,0.00810
2196.14348,0.00941
2194.08330,0.01092
2192.02313,0.01169
2189.96296,0.01102
2187.90279,0.00912
2185.84262,0.00822
2183.78244,0.00836
2181.72227,0.00777
2179.66210,0.00687
2177.60193,0.00662
2175.54176,0.00734
2173.48158,0.00801
2171.42141,0.00726
2169.36124,0.00548
2167.30107,0.00314
2165.24089,0.00143
2163.18072,0.00137
2161.12055,0.00228
2159.06038,0.00426
2157.00021,0.00628
2154.94003,0.00628
2152.87986,0.00539
2150.81969,0.00562
2148.75952,0.00598
2146.69935,0.00502
2144.63917,0.00430
2142.57900,0.00460
2140.51883,0.00392
2138.45866,0.00273
2136.39849,0.00351
2134.33831,0.00547
2132.27814,0.00703
2130.21797,0.00835
2128.15780,0.00883
2126.09762,0.00835
2124.03745,0.00788
2121.97728,0.00726
2119.91711,0.00680
2117.85694,0.00723
2115.79676,0.00794
2113.73659,0.00826
2111.67642,0.00835
2109.61625,0.00880
2107.55608,0.00945
2105.49590,0.00948
2103.43573,0.00876
2101.37556,0.00771
2099.31539,0.00717
2097.25521,0.00751
2095.19504,0.00778
2093.13487,0.00737
2091.07470,0.00690
2089.01453,0.00676
2086.95435,0.00662
2084.89418,0.00669
2082.83401,0.00715
2080.77384,0.00749
2078.71367,0.00771
2076.65349,0.00836
2074.59332,0.00940
2072.53315,0.00967
2070.47298,0.00906
2068.41281,0.00878
2066.35263,0.00881
2064.29246,0.00871
2062.23229,0.00830
2060.17212,0.00725
2058.11194,0.00623
2056.05177,0.00603
2053.99160,0.00657
2051.93143,0.00818
2049.87126,0.00995
2047.81108,0.00919
2045.75091,0.00596
2043.69074,0.00362
2041.63057,0.00331
2039.57040,0.00364
2037.51022,0.00495
2035.45005,0.00568
2033.38988,0.00450
2031.32971,0.00415
2029.26954,0.00584
2027.20936,0.00747
2025.14919,0.00618
2023.08902,0.00347
2021.02885,0.00313
2018.96867,0.00454
2016.90850,0.00424
2014.84833,0.00175
2012.78816,0.00000
2010.72799,0.00089
2008.66781,0.00308
2006.60764,0.00358
2004.54747,0.00246
2002.48730,0.00186
2000.42713,0.00266
1998.36695,0.00486
1996.30678,0.00748
1994.24661,0.00850
1992.18644,0.00733
1990.12626,0.00559
1988.06609,0.00414
1986.00592,0.00355
1983.94575,0.00554
1981.88558,0.00841
1979.82540,0.00892
1977.76523,0.00713
1975.70506,0.00456
1973.64489,0.00237
1971.58472,0.00188
1969.52454,0.00309
1967.46437,0.00463
1965.40420,0.00606
1963.34403,0.00659
1961.28386,0.00484
1959.22368,0.00251
1957.16351,0.00185
1955.10334,0.00254
1953.04317,0.00419
1950.98299,0.00571
1948.92282,0.00541
1946.86265,0.00400
1944.80248,0.00316
1942.74231,0.00323
1940.68213,0.00395
1938.62196,0.00509
1936.56179,0.00580
1934.50162,0.00584
1932.44145,0.00528
1930.38127,0.00461
1928.32110,0.00501
1926.26093,0.00592
1924.20076,0.00603
1922.14059,0.00489
1920.08041,0.00418
1918.02024,0.00464
1915.96007,0.00436
1913.89990,0.00379
1911.83972,0.00363
1909.77955,0.00320
1907.71938,0.00252
1905.65921,0.00280
1903.59904,0.00432
1901.53886,0.00548
1899.47869,0.00513
1897.41852,0.00423
1895.35835,0.00392
1893.29818,0.00415
1891.23800,0.00503
1889.17783,0.00557
1887.11766,0.00497
1885.05749,0.00448
1882.99731,0.00442
1880.93714,0.00442
1878.87697,0.00403
1876.81680,0.00302
1874.75663,0.00213
1872.69645,0.00211
1870.63628,0.00304
1868.57611,0.00373
1866.51594,0.00330
1864.45577,0.00296
1862.39559,0.00307
1860.33542,0.00315
1858.27525,0.00335
1856.21508,0.00348
1854.15491,0.00301
1852.09473,0.00231
1850.03456,0.00224
1847.97439,0.00274
1845.91422,0.00320
1843.85404,0.00319
1841.79387,0.00292
1839.73370,0.00336
1837.67353,0.00357
1835.61336,0.00285
1833.55318,0.00222
1831.49301,0.00240
1829.43284,0.00222
1827.37267,0.00185
1825.31250,0.00292
1823.25232,0.00393
1821.19215,0.00390
1819.13198,0.00324
1817.07181,0.00221
1815.01163,0.00160
1812.95146,0.00202
1810.89129,0.00254
1808.83112,0.00221
1806.77095,0.00160
1804.71077,0.00140
1802.65060,0.00174
1800.59043,0.00206
1798.53026,0.00171
1796.47009,0.00118
1794.40991,0.00125
1792.34974,0.00155
1790.28957,0.00099
1788.22940,0.00071
1786.16923,0.00119
1784.10905,0.00127
1782.04888,0.00119
1779.98871,0.00109
1777.92854,0.00041
1775.86836,0.00000
1773.80819,0.00069
1771.74802,0.00146
1769.68785,0.00148
1767.62768,0.00142
1765.56750,0.00090
1763.50733,0.00107
1761.44716,0.00188
1759.38699,0.00256
1757.32682,0.00343
1755.26664,0.00331
1753.20647,0.00320
1751.14630,0.00378
1749.08613,0.00385
1747.02596,0.00445
1744.96578,0.00633
1742.90561,0.00854
1740.84544,0.01019
1738.78527,0.01025
1736.72509,0.01022
1734.66492,0.01172
1732.60475,0.01151
1730.54458,0.01090
1728.48441,0.01154
1726.42423,0.01226
1724.36406,0.01259
1722.30389,0.01215
1720.24372,0.01237
1718.18355,0.01369
1716.12337,0.01356
1714.06320,0.01267
1712.00303,0.01241
1709.94286,0.01252
1707.88268,0.01266
1705.82251,0.01227
1703.76234,0.01138
1701.70217,0.01261
1699.64200,0.01390
1697.58182,0.01334
1695.52165,0.01302
1693.46148,0.01214
1691.40131,0.01246
1689.34114,0.01333
1687.28096,0.01431
1685.22079,0.01752
1683.16062,0.01971
1681.10045,0.01945
1679.04028,0.02022
1676.98010,0.02273
1674.91993,0.02467
1672.85976,0.02446
1670.79959,0.02466
1668.73941,0.02431
1666.67924,0.02283
1664.61907,0.02293
1662.55890,0.02356
1660.49873,0.02233
1658.43855,0.02066
1656.37838,0.02079
1654.31821,0.02301
1652.25804,0.02226
1650.19787,0.01976
1648.13769,0.02090
1646.07752,0.02170
1644.01735,0.02027
1641.95718,0.01983
1639.89701,0.02032
1637.83683,0.02163
1635.77666,0.02310
1633.71649,0.02244
1631.65632,0.02227
1629.59614,0.02387
1627.53597,0.02498
1625.47580,0.02519
1623.41563,0.02512
1621.35546,0.02393
1619.29528,0.02395
1617.23511,0.02575
1615.17494,0.02612
1613.11477,0.02629
1611.05460,0.02798
1608.99442,0.02984
1606.93425,0.03087
1604.87408,0.03114
1602.81391,0.03066
1600.75373,0.02962
1598.69356,0.02866
1596.63339,0.02791
1594.57322,0.02691
1592.51305,0.02567
1590.45287,0.02481
1588.39270,0.02456
1586.33253,0.02451
1584.27236,0.02408
1582.21219,0.02302
1580.15201,0.02187
1578.09184,0.02196
1576.03167,0.02184
1573.97150,0.01944
1571.91133,0.01852
1569.85115,0.01949
1567.79098,0.01891
1565.73081,0.01756
1563.67064,0.01612
1561.61046,0.01646
1559.55029,0.01875
1557.49012,0.01640
1555.42995,0.01328
1553.36978,0.01252
1551.30960,0.01258
1549.24943,0.01227
1547.18926,0.01148
1545.12909,0.01104
1543.06892,0.01034
1541.00874,0.00974
1538.94857,0.00784
1536.88840,0.00575
1534.82823,0.00680
1532.76805,0.00770
1530.70788,0.00646
1528.64771,0.00594
1526.58754,0.00555
1524.52737,0.00484
1522.46719,0.00585
1520.40702,0.00721
1518.34685,0.00858
1516.28668,0.01030
1514.22651,0.01037
1512.16633,0.00928
1510.10616,0.00825
1508.04599,0.00859
1505.98582,0.00768
1503.92565,0.00490
1501.86547,0.00390
1499.80530,0.00433
1497.74513,0.00434
1495.68496,0.00295
1493.62478,0.00152
1491.56461,0.00199
1489.50444,0.00252
1487.44427,0.00161
1485.38410,0.00085
1483.32392,0.00095
1481.26375,0.00116
1479.20358,0.00094
1477.14341,0.00117
1475.08324,0.00257
1473.02306,0.00474
1470.96289,0.00538
1468.90272,0.00579
1466.84255,0.00831
1464.78238,0.01066
1462.72220,0.01050
1460.66203,0.01064
1458.60186,0.01302
1456.54169,0.01447
1454.48151,0.01357
1452.42134,0.01369
1450.36117,0.01497
1448.30100,0.01625
1446.24083,0.01680
1444.18065,0.01707
1442.12048,0.01756
1440.06031,0.01838
1438.00014,0.02000
1435.93997,0.02068
1433.87979,0.02004
1431.81962,0.02069
1429.75945,0.02167
1427.69928,0.02150
1425.63910,0.02134
1423.57893,0.02118
1421.51876,0.02107
1419.45859,0.02177
1417.39842,0.02168
1415.33824,0.02136
1413.27807,0.02156
1411.21790,0.02148
1409.15773,0.02095
1407.09756,0.02067
1405.03738,0.02031
1402.97721,0.01917
1400.91704,0.01843
1398.85687,0.01814
1396.79670,0.01753
1394.73652,0.01685
1392.67635,0.01580
1390.61618,0.01536
1388.55601,0.01602
1386.49583,0.01652
1384.43566,0.01674
1382.37549,0.01749
1380.31532,0.01834
1378.25515,0.01885
1376.19497,0.01940
1374.13480,0.01994
1372.07463,0.01988
1370.01446,0.01990
1367.95429,0.01989
1365.89411,0.01955
1363.83394,0.01943
1361.77377,0.01901
1359.71360,0.01836
1357.65343,0.01827
1355.59325,0.01838
1353.53308,0.01823
1351.47291,0.01808
1349.41274,0.01821
1347.35256,0.01835
1345.29239,0.01815
1343.23222,0.01784
1341.17205,0.01796
1339.11188,0.01803
1337.05170,0.01772
1334.99153,0.01780
1332.93136,0.01817
1330.87119,0.01835
1328.81102,0.01848
1326.75084,0.01880
1324.69067,0.01924
1322.63050,0.01953
1320.57033,0.01936
1318.51015,0.01859
1316.44998,0.01785
1314.38981,0.01768
1312.32964,0.01763
1310.26947,0.01742
1308.20929,0.01715
1306.14912,0.01661
1304.08895,0.01600
1302.02878,0.01553
1299.96861,0.01512
1297.90843,0.01474
1295.84826,0.01439
1293.78809,0.01399
1291.72792,0.01387
1289.66775,0.01434
1287.60757,0.01492
1285.54740,0.01515
1283.48723,0.01528
1281.42706,0.01543
1279.36688,0.01557
1277.30671,0.01579
1275.24654,0.01597
1273.18637,0.01611
1271.12620,0.01631
1269.06602,0.01667
1267.00585,0.01730
1264.94568,0.01803
1262.88551,0.01848
1260.82534,0.01873
1258.76516,0.01913
1256.70499,0.01962
1254.64482,0.02002
1252.58465,0.02057
1250.52447,0.02121
1248.46430,0.02151
1246.40413,0.02152
1244.34396,0.02165
1242.28379,0.02197
1240.22361,0.02216
1238.16344,0.02209
1236.10327,0.02190
1234.04310,0.02172
1231.98293,0.02149
1229.92275,0.02097
1227.86258,0.02015
1225.80241,0.01926
1223.74224,0.01814
1221.68207,0.01688
1219.62189,0.01598
1217.56172,0.01531
1215.50155,0.01423
1213.44138,0.01280
1211.38120,0.01152
1209.32103,0.01038
1207.26086,0.00948
1205.20069,0.00891
1203.14052,0.00797
1201.08034,0.00646
1199.02017,0.00507
1196.96000,0.00401
1194.89983,0.00298
1192.83966,0.00185
1190.77948,0.00089
1188.71931,0.00027
1186.65914,0.00000
1184.59897,-0.00004
1182.53880,-0.00012
1180.47862,-0.00012
1178.41845,0.00040
1176.35828,0.00140
1174.29811,0.00256
1172.23793,0.00395
1170.17776,0.00574
1168.11759,0.00749
1166.05742,0.00841
1163.99725,0.00856
1161.93707,0.00868
1159.87690,0.00907
1157.81673,0.00966
1155.75656,0.01029
1153.69639,0.01098
1151.63621,0.01187
1149.57604,0.01272
1147.51587,0.01341
1145.45570,0.01422
1143.39552,0.01511
1141.33535,0.01583
1139.27518,0.01646
1137.21501,0.01708
1135.15484,0.01794
1133.09466,0.01899
1131.03449,0.01993
1128.97432,0.02080
1126.91415,0.02152
1124.85398,0.02214
1122.79380,0.02307
1120.73363,0.02432
1118.67346,0.02551
1116.61329,0.02651
1114.55312,0.02754
1112.49294,0.02873
1110.43277,0.02976
1108.37260,0.03032
1106.31243,0.03078
1104.25225,0.03187
1102.19208,0.03347
1100.13191,0.03482
1098.07174,0.03604
1096.01157,0.03743
1093.95139,0.03893
1091.89122,0.04062
1089.83105,0.04235
1087.77088,0.04416
1085.71071,0.04608
1083.65053,0.04757
1081.59036,0.04877
1079.53019,0.05046
1077.47002,0.05276
1075.40985,0.05524
1073.34967,0.05732
1071.28950,0.05909
1069.22933,0.06075
1067.16916,0.06195
1065.10898,0.06266
1063.04881,0.06343
1060.98864,0.06444
1058.92847,0.06558
1056.86830,0.06692
1054.80812,0.06856
1052.74795,0.07051
1050.68778,0.07274
1048.62761,0.07522
1046.56744,0.07777
1044.50726,0.07978
1042.44709,0.08144
1040.38692,0.08352
1038.32675,0.08576
1036.26657,0.08748
1034.20640,0.08842
1032.14623,0.08853
1030.08606,0.08833
1028.02589,0.08816
1025.96571,0.08799
1023.90554,0.08743
1021.84537,0.08665
1019.78520,0.08659
1017.72503,0.08688
1015.66485,0.08669
1013.60468,0.08663
1011.54451,0.08689
1009.48434,0.08699
1007.42417,0.08693
1005.36399,0.08686
1003.30382,0.08683
1001.24365,0.08653
999.18348,0.08554
997.12330,0.08424
995.06313,0.08331
993.00296,0.08232
990.94279,0.08057
988.88262,0.07878
986.82244,0.07769
984.76227,0.07655
982.70210,0.07504
980.64193,0.07383
978.58176,0.07312
976.52158,0.07247
974.46141,0.07129
972.40124,0.06955
970.34107,0.06785
968.28089,0.06644
966.22072,0.06505
964.16055,0.06339
962.10038,0.06197
960.04021,0.06144
957.98003,0.06102
955.91986,0.06006
953.85969,0.05884
951.79952,0.05720
949.73935,0.05530
947.67917,0.05376
945.61900,0.05277
943.55883,0.05170
941.49866,0.04981
939.43849,0.04742
937.37831,0.04474
935.31814,0.04163
933.25797,0.03890
931.19780,0.03709
929.13762,0.03542
927.07745,0.03349
925.01728,0.03194
922.95711,0.03044
920.89694,0.02807
918.83676,0.02594
916.77659,0.02494
914.71642,0.02395
912.65625,0.02245
910.59608,0.02070
908.53590,0.01900
906.47573,0.01807
904.41556,0.01807
902.35539,0.01849
900.29522,0.01875
898.23504,0.01837
896.17487,0.01764
894.11470,0.01755
892.05453,0.01822
889.99435,0.01874
887.93418,0.01868
885.87401,0.01801
883.81384,0.01665
881.75367,0.01499
879.69349,0.01371
877.63332,0.01294
875.57315,0.01235
873.51298,0.01193
871.45281,0.01164
869.39263,0.01159
867.33246,0.01201
865.27229,0.01232
863.21212,0.01178
861.15194,0.01044
859.09177,0.00928
857.03160,0.00935
854.97143,0.01032
852.91126,0.01107
850.85108,0.01116
848.79091,0.01070
846.73074,0.01036
844.67057,0.01048
842.61040,0.01027
840.55022,0.00958
838.49005,0.00889
836.42988,0.00848
834.36971,0.00849
832.30954,0.00871
830.24936,0.00864
828.18919,0.00839
826.12902,0.00856
824.06885,0.00892
822.00867,0.00883
819.94850,0.00793
817.88833,0.00678
815.82816,0.00576
813.76799,0.00496
811.70781,0.00528
809.64764,0.00594
807.58747,0.00593
805.52730,0.00586
803.46713,0.00562
801.40695,0.00509
799.34678,0.00526
797.28661,0.00525
795.22644,0.00394
793.16627,0.00260
791.10609,0.00152
789.04592,0.00039
786.98575,0.00000
784.92558,0.00088
782.86540,0.00209
780.80523,0.00200
778.74506,0.00140
776.68489,0.00174
774.62472,0.00280
772.56454,0.00328
770.50437,0.00288
768.44420,0.00306
766.38403,0.00430
764.32386,0.00522
762.26368,0.00495
760.20351,0.00418
758.14334,0.00395
756.08317,0.00438
754.02299,0.00470
751.96282,0.00417
749.90265,0.00347
747.84248,0.00343
745.78231,0.00339
743.72213,0.00274
741.66196,0.00225
739.60179,0.00256
737.54162,0.00260
735.48145,0.00138
733.42127,0.00000
731.36110,0.00001
729.30093,0.00192
727.24076,0.00447
725.18059,0.00558
723.12041,0.00551
721.06024,0.00565
719.00007,0.00538
716.93990,0.00474
714.87972,0.00491
712.81955,0.00668
710.75938,0.00866
708.69921,0.00901
706.63904,0.00813
704.57886,0.00724
702.51869,0.00692
700.45852,0.00699
698.39835,0.00712
696.33818,0.00728
694.27800,0.00702
692.21783,0.00624
690.15766,0.00587
688.09749,0.00609
686.03731,0.00585
683.97714,0.00504
681.91697,0.00469
679.85680,0.00459
677.79663,0.00380
675.73645,0.00288
673.67628,0.00200
671.61611,0.00000
669.55594,0.00019
667.49577,0.00442
665.43559,0.00670
663.37542,0.00921
661.31525,0.00952
659.25508,0.00897
657.19491,0.00859
655.13473,0.00775
653.07456,0.00650
651.01439,0.00486
648.95422,0.00233
646.89404,0.00000
644.83387,0.00072
642.77370,0.00433
640.71353,0.00829
638.65336,0.01180
636.59318,0.01396
634.53301,0.01251
632.47284,0.00897
630.41267,0.00745
628.35250,0.00655
626.29232,0.00256
624.23215,-0.00078
622.17198,0.00235
620.11181,0.00825
618.05164,0.00681
615.99146,0.00211
613.93129,0.00162
611.87112,0.00157
609.81095,0.00153
607.75077,0.00164
605.69060,0.00154
603.63043,0.00398
601.57026,0.00443
599.51009,0.00000
