3996.73391,0.00061
3994.67373,0.00045
3992.61356,0.00016
3990.55339,0.00000
3988.49322,0.00020
3986.43305,0.00052
3984.37287,0.00089
3982.31270,0.00135
3980.25253,0.00161
3978.19236,0.00160
3976.13219,0.00150
3974.07201,0.00135
3972.01184,0.00102
3969.95167,0.00059
3967.89150,0.00046
3965.83133,0.00088
3963.77115,0.00135
3961.71098,0.00135
3959.65081,0.00109
3957.59064,0.00109
3955.53046,0.00136
3953.47029,0.00145
3951.41012,0.00123
3949.34995,0.00118
3947.28978,0.00150
3945.22960,0.00171
3943.16943,0.00145
3941.10926,0.00106
3939.04909,0.00109
3936.98892,0.00140
3934.92874,0.00145
3932.86857,0.00117
3930.80840,0.00097
3928.74823,0.00101
3926.68805,0.00126
3924.62788,0.00166
3922.56771,0.00197
3920.50754,0.00196
3918.44737,0.00154
3916.38719,0.00108
3914.32702,0.00103
3912.26685,0.00107
3910.20668,0.00095
3908.14651,0.00099
3906.08633,0.00126
3904.02616,0.00140
3901.96599,0.00105
3899.90582,0.00047
3897.84565,0.00032
3895.78547,0.00074
3893.72530,0.00106
3891.66513,0.00080
3889.60496,0.00039
3887.54478,0.00035
3885.48461,0.00069
3883.42444,0.00104
3881.36427,0.00098
3879.30410,0.00078
3877.24392,0.00083
3875.18375,0.00104
3873.12358,0.00127
3871.06341,0.00147
3869.00324,0.00166
3866.94306,0.00162
3864.88289,0.00124
3862.82272,0.00073
3860.76255,0.00063
3858.70237,0.00138
3856.64220,0.00276
3854.58203,0.00368
3852.52186,0.00313
3850.46169,0.00211
3848.40151,0.00176
3846.34134,0.00194
3844.28117,0.00230
3842.22100,0.00224
3840.16083,0.00175
3838.10065,0.00172
3836.04048,0.00201
3833.98031,0.00195
3831.92014,0.00184
3829.85997,0.00192
3827.79979,0.00188
3825.73962,0.00165
3823.67945,0.00170
3821.61928,0.00208
3819.55910,0.00207
3817.49893,0.00178
3815.43876,0.00166
3813.37859,0.00171
3811.31842,0.00178
3809.25824,0.00163
3807.19807,0.00134
3805.13790,0.00134
3803.07773,0.00157
3801.01756,0.00169
3798.95738,0.00166
3796.89721,0.00140
3794.83704,0.00093
3792.77687,0.00058
3790.71670,0.00049
3788.65652,0.00062
3786.59635,0.00082
3784.53618,0.00092
3782.47601,0.00084
3780.41583,0.00061
3778.35566,0.00052
3776.29549,0.00073
3774.23532,0.00105
3772.17515,0.00130
3770.11497,0.00135
3768.05480,0.00132
3765.99463,0.00149
3763.93446,0.00168
3761.87429,0.00152
3759.81411,0.00104
3757.75394,0.00070
3755.69377,0.00089
3753.63360,0.00155
3751.57342,0.00221
3749.51325,0.00241
3747.45308,0.00237
3745.39291,0.00215
3743.33274,0.00173
3741.27256,0.00135
3739.21239,0.00073
3737.15222,0.00000
3735.09205,0.00000
3733.03188,0.00083
3730.97170,0.00179
3728.91153,0.00246
3726.85136,0.00261
3724.79119,0.00236
3722.73102,0.00232
3720.67084,0.00229
3718.61067,0.00166
3716.55050,0.00079
3714.49033,0.00021
3712.43015,0.00006
3710.36998,0.00050
3708.30981,0.00104
3706.24964,0.00114
3704.18947,0.00085
3702.12929,0.00073
3700.06912,0.00113
3698.00895,0.00153
3695.94878,0.00166
3693.88861,0.00194
3691.82843,0.00245
3689.76826,0.00250
3687.70809,0.00174
3685.64792,0.00095
3683.58775,0.00065
3681.52757,0.00074
3679.46740,0.00102
3677.40723,0.00137
3675.34706,0.00172
3673.28688,0.00211
3671.22671,0.00221
3669.16654,0.00176
3667.10637,0.00146
3665.04620,0.00170
3662.98602,0.00191
3660.92585,0.00173
3658.86568,0.00157
3656.80551,0.00150
3654.74534,0.00103
3652.68516,0.00021
3650.62499,0.00000
3648.56482,0.00113
3646.50465,0.00234
3644.44447,0.00260
3642.38430,0.00224
3640.32413,0.00162
3638.26396,0.00115
3636.20379,0.00129
3634.14361,0.00175
3632.08344,0.00176
3630.02327,0.00161
3627.96310,0.00226
3625.90293,0.00325
3623.84275,0.00370
3621.78258,0.00371
3619.72241,0.00342
3617.66224,0.00295
3615.60207,0.00278
3613.54189,0.00312
3611.48172,0.00349
3609.42155,0.00352
3607.36138,0.00364
3605.30120,0.00416
3603.24103,0.00458
3601.18086,0.00446
3599.12069,0.00393
3597.06052,0.00360
3595.00034,0.00370
3592.94017,0.00390
3590.88000,0.00410
3588.81983,0.00461
3586.75966,0.00546
3584.69948,0.00610
3582.63931,0.00611
3580.57914,0.00587
3578.51897,0.00588
3576.45879,0.00622
3574.39862,0.00688
3572.33845,0.00764
3570.27828,0.00786
3568.21811,0.00723
3566.15793,0.00663
3564.09776,0.00706
3562.03759,0.00799
3559.97742,0.00859
3557.91725,0.00883
3555.85707,0.00893
3553.79690,0.00882
3551.73673,0.00845
3549.67656,0.00845
3547.61639,0.00934
3545.55621,0.01061
3543.49604,0.01141
3541.43587,0.01156
3539.37570,0.01155
3537.31552,0.01194
3535.25535,0.01249
3533.19518,0.01260
3531.13501,0.01247
3529.07484,0.01257
3527.01466,0.01294
3524.95449,0.01345
3522.89432,0.01408
3520.83415,0.01480
3518.77398,0.01537
3516.71380,0.01559
3514.65363,0.01566
3512.59346,0.01590
3510.53329,0.01633
3508.47312,0.01680
3506.41294,0.01718
3504.35277,0.01730
3502.29260,0.01722
3500.23243,0.01739
3498.17225,0.01783
3496.11208,0.01812
3494.05191,0.01831
3491.99174,0.01863
3489.93157,0.01893
3487.87139,0.01905
3485.81122,0.01928
3483.75105,0.01972
3481.69088,0.02008
3479.63071,0.02033
3477.57053,0.02069
3475.51036,0.02123
3473.45019,0.02176
3471.39002,0.02204
3469.32984,0.02194
3467.26967,0.02189
3465.20950,0.02223
3463.14933,0.02276
3461.08916,0.02321
3459.02898,0.02340
3456.96881,0.02340
3454.90864,0.02352
3452.84847,0.02413
3450.78830,0.02505
3448.72812,0.02540
3446.66795,0.02524
3444.60778,0.02554
3442.54761,0.02614
3440.48744,0.02649
3438.42726,0.02666
3436.36709,0.02701
3434.30692,0.02749
3432.24675,0.02745
3430.18657,0.02705
3428.12640,0.02713
3426.06623,0.02803
3424.00606,0.02916
3421.94589,0.02982
3419.88571,0.02984
3417.82554,0.02966
3415.76537,0.02979
3413.70520,0.03004
3411.64503,0.03027
3409.58485,0.03058
3407.52468,0.03077
3405.46451,0.03092
3403.40434,0.03143
3401.34416,0.03212
3399.28399,0.03245
3397.22382,0.03216
3395.16365,0.03174
3393.10348,0.03196
3391.04330,0.03265
3388.98313,0.03312
3386.92296,0.03336
3384.86279,0.03357
3382.80262,0.03371
3380.74244,0.03375
3378.68227,0.03367
3376.62210,0.03366
3374.56193,0.03403
3372.50176,0.03460
3370.44158,0.03514
3368.38141,0.03547
3366.32124,0.03547
3364.26107,0.03549
3362.20089,0.03572
3360.14072,0.03592
3358.08055,0.03574
3356.02038,0.03545
3353.96021,0.03561
3351.90003,0.03594
3349.83986,0.03632
3347.77969,0.03679
3345.71952,0.03697
3343.65935,0.03687
3341.59917,0.03667
3339.53900,0.03655
3337.47883,0.03676
3335.41866,0.03724
3333.35849,0.03762
3331.29831,0.03758
3329.23814,0.03719
3327.17797,0.03701
3325.11780,0.03726
3323.05762,0.03749
3320.99745,0.03746
3318.93728,0.03738
3316.87711,0.03741
3314.81694,0.03758
3312.75676,0.03787
3310.69659,0.03801
3308.63642,0.03780
3306.57625,0.03763
3304.51608,0.03769
3302.45590,0.03762
3300.39573,0.03737
3298.33556,0.03756
3296.27539,0.03823
3294.21521,0.03852
3292.15504,0.03833
3290.09487,0.03812
3288.03470,0.03781
3285.97453,0.03763
3283.91435,0.03781
3281.85418,0.03787
3279.79401,0.03772
3277.73384,0.03778
3275.67367,0.03822
3273.61349,0.03877
3271.55332,0.03903
3269.49315,0.03889
3267.43298,0.03852
3265.37281,0.03813
3263.31263,0.03782
3261.25246,0.03749
3259.19229,0.03710
3257.13212,0.03701
3255.07194,0.03734
3253.01177,0.03777
3250.95160,0.03818
3248.89143,0.03832
3246.83126,0.03805
3244.77108,0.03765
3242.71091,0.03731
3240.65074,0.03728
3238.59057,0.03766
3236.53040,0.03791
3234.47022,0.03784
3232.41005,0.03777
3230.34988,0.03763
3228.28971,0.03720
3226.22954,0.03689
3224.16936,0.03692
3222.10919,0.03700
3220.04902,0.03709
3217.98885,0.03723
3215.92867,0.03715
3213.86850,0.03677
3211.80833,0.03639
3209.74816,0.03620
3207.68799,0.03589
3205.62781,0.03544
3203.56764,0.03535
3201.50747,0.03571
3199.44730,0.03602
3197.38713,0.03610
3195.32695,0.03621
3193.26678,0.03629
3191.20661,0.03598
3189.14644,0.03547
3187.08626,0.03506
3185.02609,0.03472
3182.96592,0.03464
3180.90575,0.03477
3178.84558,0.03496
3176.78540,0.03523
3174.72523,0.03525
3172.66506,0.03493
3170.60489,0.03454
3168.54472,0.03390
3166.48454,0.03308
3164.42437,0.03257
3162.36420,0.03219
3160.30403,0.03178
3158.24386,0.03163
3156.18368,0.03154
3154.12351,0.03142
3152.06334,0.03145
3150.00317,0.03144
3147.94299,0.03113
3145.88282,0.03065
3143.82265,0.03051
3141.76248,0.03065
3139.70231,0.03059
3137.64213,0.03051
3135.58196,0.03046
3133.52179,0.03015
3131.46162,0.02981
3129.40145,0.02948
3127.34127,0.02897
3125.28110,0.02860
3123.22093,0.02860
3121.16076,0.02892
3119.10058,0.02928
3117.04041,0.02933
3114.98024,0.02906
3112.92007,0.02884
3110.85990,0.02871
3108.79972,0.02845
3106.73955,0.02823
3104.67938,0.02837
3102.61921,0.02844
3100.55904,0.02800
3098.49886,0.02758
3096.43869,0.02746
3094.37852,0.02732
3092.31835,0.02707
3090.25818,0.02662
3088.19800,0.02598
3086.13783,0.02567
3084.07766,0.02596
3082.01749,0.02639
3079.95731,0.02631
3077.89714,0.02575
3075.83697,0.02532
3073.77680,0.02531
3071.71663,0.02527
3069.65645,0.02499
3067.59628,0.02466
3065.53611,0.02443
3063.47594,0.02428
3061.41577,0.02418
3059.35559,0.02429
3057.29542,0.02444
3055.23525,0.02421
3053.17508,0.02382
3051.11491,0.02358
3049.05473,0.02335
3046.99456,0.02295
3044.93439,0.02250
3042.87422,0.02235
3040.81404,0.02247
3038.75387,0.02261
3036.69370,0.02266
3034.63353,0.02241
3032.57336,0.02199
3030.51318,0.02175
3028.45301,0.02169
3026.39284,0.02149
3024.33267,0.02098
3022.27250,0.02047
3020.21232,0.02032
3018.15215,0.02044
3016.09198,0.02056
3014.03181,0.02062
3011.97163,0.02076
3009.91146,0.02074
3007.85129,0.02044
3005.79112,0.02013
3003.73095,0.01988
3001.67077,0.01966
2999.61060,0.01968
2997.55043,0.01975
2995.49026,0.01944
2993.43009,0.01897
2991.36991,0.01874
2989.30974,0.01877
2987.24957,0.01885
2985.18940,0.01888
2983.12923,0.01896
2981.06905,0.01918
2979.00888,0.01950
2976.94871,0.01972
2974.88854,0.01981
2972.82836,0.02011
2970.76819,0.02060
2968.70802,0.02098
2966.64785,0.02145
2964.58768,0.02245
2962.52750,0.02382
2960.46733,0.02492
2958.40716,0.02568
2956.34699,0.02652
2954.28682,0.02747
2952.22664,0.02863
2950.16647,0.03024
2948.10630,0.03191
2946.04613,0.03323
2943.98596,0.03471
2941.92578,0.03663
2939.86561,0.03842
2937.80544,0.03980
2935.74527,0.04128
2933.68509,0.04308
2931.62492,0.04490
2929.56475,0.04649
2927.50458,0.04777
2925.44441,0.04878
2923.38423,0.04968
2921.32406,0.05065
2919.26389,0.05144
2917.20372,0.05158
2915.14355,0.05071
2913.08337,0.04905
2911.02320,0.04730
2908.96303,0.04571
2906.90286,0.04435
2904.84268,0.04319
2902.78251,0.04199
2900.72234,0.04098
2898.66217,0.04022
2896.60200,0.03943
2894.54182,0.03852
2892.48165,0.03758
2890.42148,0.03666
2888.36131,0.03589
2886.30114,0.03533
2884.24096,0.03489
2882.18079,0.03433
2880.12062,0.03376
2878.06045,0.03354
2876.00028,0.03361
2873.94010,0.03378
2871.87993,0.03405
2869.81976,0.03444
2867.75959,0.03486
2865.69941,0.03534
2863.63924,0.03608
2861.57907,0.03705
2859.51890,0.03816
2857.45873,0.03950
2855.39855,0.04089
2853.33838,0.04208
2851.27821,0.04285
2849.21804,0.04244
2847.15787,0.04071
2845.09769,0.03861
2843.03752,0.03654
2840.97735,0.03440
2838.91718,0.03263
2836.85700,0.03147
2834.79683,0.03070
2832.73666,0.02989
2830.67649,0.02899
2828.61632,0.02829
2826.55614,0.02769
2824.49597,0.02707
2822.43580,0.02662
2820.37563,0.02647
2818.31546,0.02643
2816.25528,0.02613
2814.19511,0.02549
2812.13494,0.02504
2810.07477,0.02493
2808.01460,0.02474
2805.95442,0.02437
2803.89425,0.02400
2801.83408,0.02371
2799.77391,0.02356
2797.71373,0.02358
2795.65356,0.02347
2793.59339,0.02301
2791.53322,0.02254
2789.47305,0.02253
2787.41287,0.02278
2785.35270,0.02287
2783.29253,0.02280
2781.23236,0.02251
2779.17219,0.02200
2777.11201,0.02171
2775.05184,0.02173
2772.99167,0.02183
2770.93150,0.02179
2768.87133,0.02165
2766.81115,0.02159
2764.75098,0.02133
2762.69081,0.02093
2760.63064,0.02072
2758.57046,0.02065
2756.51029,0.02077
2754.45012,0.02096
2752.38995,0.02096
2750.32978,0.02080
2748.26960,0.02068
2746.20943,0.02083
2744.14926,0.02100
2742.08909,0.02065
2740.02892,0.02013
2737.96874,0.01992
2735.90857,0.01977
2733.84840,0.01968
2731.78823,0.01968
2729.72805,0.01945
2727.66788,0.01926
2725.60771,0.01962
2723.54754,0.02002
2721.48737,0.01974
2719.42719,0.01922
2717.36702,0.01908
2715.30685,0.01908
2713.24668,0.01911
2711.18651,0.01947
2709.12633,0.01989
2707.06616,0.01989
2705.00599,0.01963
2702.94582,0.01951
2700.88565,0.01947
2698.82547,0.01945
2696.76530,0.01946
2694.70513,0.01947
2692.64496,0.01956
2690.58478,0.01964
2688.52461,0.01964
2686.46444,0.01967
2684.40427,0.01986
2682.34410,0.02012
2680.28392,0.01991
2678.22375,0.01920
2676.16358,0.01877
2674.10341,0.01887
2672.04324,0.01915
2669.98306,0.01929
2667.92289,0.01925
2665.86272,0.01915
2663.80255,0.01903
2661.74238,0.01881
2659.68220,0.01866
2657.62203,0.01881
2655.56186,0.01906
2653.50169,0.01908
2651.44151,0.01869
2649.38134,0.01823
2647.32117,0.01807
2645.26100,0.01808
2643.20083,0.01823
2641.14065,0.01848
2639.08048,0.01838
2637.02031,0.01798
2634.96014,0.01786
2632.89997,0.01808
2630.83979,0.01818
2628.77962,0.01786
2626.71945,0.01761
2624.65928,0.01760
2622.59910,0.01738
2620.53893,0.01700
2618.47876,0.01678
2616.41859,0.01691
2614.35842,0.01704
2612.29824,0.01685
2610.23807,0.01677
2608.17790,0.01681
2606.11773,0.01673
2604.05756,0.01673
2601.99738,0.01662
2599.93721,0.01623
2597.87704,0.01604
2595.81687,0.01628
2593.75670,0.01657
2591.69652,0.01644
2589.63635,0.01613
2587.57618,0.01600
2585.51601,0.01608
2583.45583,0.01609
2581.39566,0.01597
2579.33549,0.01622
2577.27532,0.01656
2575.21515,0.01628
2573.15497,0.01598
2571.09480,0.01599
2569.03463,0.01578
2566.97446,0.01557
2564.91429,0.01551
2562.85411,0.01538
2560.79394,0.01548
2558.73377,0.01591
2556.67360,0.01626
2554.61342,0.01645
2552.55325,0.01637
2550.49308,0.01581
2548.43291,0.01519
2546.37274,0.01519
2544.31256,0.01554
2542.25239,0.01552
2540.19222,0.01544
2538.13205,0.01563
2536.07188,0.01570
2534.01170,0.01519
2531.95153,0.01453
2529.89136,0.01479
2527.83119,0.01565
2525.77102,0.01579
2523.71084,0.01490
2521.65067,0.01438
2519.59050,0.01449
2517.53033,0.01422
2515.47015,0.01405
2513.40998,0.01447
2511.34981,0.01493
2509.28964,0.01486
2507.22947,0.01427
2505.16929,0.01386
2503.10912,0.01398
2501.04895,0.01407
2498.98878,0.01397
2496.92861,0.01405
2494.86843,0.01414
2492.80826,0.01422
2490.74809,0.01452
2488.68792,0.01472
2486.62775,0.01450
2484.56757,0.01398
2482.50740,0.01373
2480.44723,0.01388
2478.38706,0.01414
2476.32688,0.01430
2474.26671,0.01403
2472.20654,0.01354
2470.14637,0.01313
2468.08620,0.01266
2466.02602,0.01252
2463.96585,0.01300
2461.90568,0.01358
2459.84551,0.01391
2457.78534,0.01387
2455.72516,0.01366
2453.66499,0.01386
2451.60482,0.01399
2449.54465,0.01347
2447.48447,0.01292
2445.42430,0.01294
2443.36413,0.01332
2441.30396,0.01357
2439.24379,0.01345
2437.18361,0.01325
2435.12344,0.01340
2433.06327,0.01369
2431.00310,0.01354
2428.94293,0.01327
2426.88275,0.01331
2424.82258,0.01326
2422.76241,0.01290
2420.70224,0.01273
2418.64207,0.01300
2416.58189,0.01309
2414.52172,0.01273
2412.46155,0.01255
2410.40138,0.01282
2408.34120,0.01299
2406.28103,0.01276
2404.22086,0.01265
2402.16069,0.01270
2400.10052,0.01258
2398.04034,0.01237
2395.98017,0.01226
2393.92000,0.01229
2391.85983,0.01242
2389.79966,0.01254
2387.73948,0.01268
2385.67931,0.01290
2383.61914,0.01281
2381.55897,0.01242
2379.49880,0.01244
2377.43862,0.01252
2375.37845,0.01183
2373.31828,0.01087
2371.25811,0.01013
2369.19793,0.01022
2367.13776,0.01156
2365.07759,0.01185
2363.01742,0.01080
2360.95725,0.01272
2358.89707,0.01742
2356.83690,0.01882
2354.77673,0.01500
2352.71656,0.01118
2350.65639,0.01102
2348.59621,0.01228
2346.53604,0.01222
2344.47587,0.01123
2342.41570,0.01099
2340.35552,0.01067
2338.29535,0.00935
2336.23518,0.00834
2334.17501,0.00868
2332.11484,0.01021
2330.05466,0.01214
2327.99449,0.01337
2325.93432,0.01307
2323.87415,0.01150
2321.81398,0.01028
2319.75380,0.01065
2317.69363,0.01169
2315.63346,0.01196
2313.57329,0.01157
2311.51312,0.01120
2309.45294,0.01135
2307.39277,0.01200
2305.33260,0.01228
2303.27243,0.01214
2301.21225,0.01229
2299.15208,0.01247
2297.09191,0.01241
2295.03174,0.01242
2292.97157,0.01266
2290.91139,0.01290
2288.85122,0.01273
2286.79105,0.01191
2284.73088,0.01098
2282.67071,0.01079
2280.61053,0.01148
2278.55036,0.01217
2276.49019,0.01214
2274.43002,0.01167
2272.36984,0.01135
2270.30967,0.01129
2268.24950,0.01126
2266.18933,0.01101
2264.12916,0.01044
2262.06898,0.00952
2260.00881,0.00876
2257.94864,0.00885
2255.88847,0.00996
2253.82830,0.01153
2251.76812,0.01238
2249.70795,0.01207
2247.64778,0.01169
2245.58761,0.01133
2243.52744,0.01053
2241.46726,0.01039
2239.40709,0.01048
2237.34692,0.00916
2235.28675,0.00781
2233.22657,0.00821
2231.16640,0.00908
2229.10623,0.00996
2227.04606,0.01144
2224.98589,0.01233
2222.92571,0.01198
2220.86554,0.01118
2218.80537,0.01001
2216.74520,0.00865
2214.68503,0.00810
2212.62485,0.00745
2210.56468,0.00628
2208.50451,0.00736
2206.44434,0.00991
2204.38417,0.00995
2202.32399,0.00850
2200.26382,0.00806
2198.20365,0.00886
2196.14348,0.01021
2194.08330,0.01062
2192.02313,0.01014
2189.96296,0.00940
2187.90279,0.00846
2185.84262,0.00801
2183.78244,0.00843
2181.72227,0.00924
2179.66210,0.00928
2177.60193,0.00868
2175.54176,0.00844
2173.48158,0.00796
2171.42141,0.00755
2169.36124,0.00724
2167.30107,0.00558
2165.24089,0.00361
2163.18072,0.00166
2161.12055,0.00000
2159.06038,0.00164
2157.00021,0.00528
2154.94003,0.00726
2152.87986,0.00798
2150.81969,0.00830
2148.75952,0.00741
2146.69935,0.00587
2144.63917,0.00507
2142.57900,0.00476
2140.51883,0.00415
2138.45866,0.00401
2136.39849,0.00546
2134.33831,0.00733
2132.27814,0.00809
2130.21797,0.00834
2128.15780,0.00875
2126.09762,0.00898
2124.03745,0.00907
2121.97728,0.00927
2119.91711,0.00947
2117.85694,0.00952
2115.79676,0.00942
2113.73659,0.00929
2111.67642,0.00917
2109.61625,0.00893
2107.55608,0.00874
2105.49590,0.00863
2103.43573,0.00844
2101.37556,0.00826
2099.31539,0.00810
2097.25521,0.00773
2095.19504,0.00701
2093.13487,0.00651
2091.07470,0.00694
2089.01453,0.00779
2086.95435,0.00801
2084.89418,0.00779
2082.83401,0.00814
2080.77384,0.00894
2078.71367,0.00900
2076.65349,0.00851
2074.59332,0.00897
2072.53315,0.00954
2070.47298,0.00927
2068.41281,0.00890
2066.35263,0.00810
2064.29246,0.00723
2062.23229,0.00713
2060.17212,0.00744
2058.11194,0.00768
2056.05177,0.00749
2053.99160,0.00747
2051.93143,0.00807
2049.87126,0.00872
2047.81108,0.00910
2045.75091,0.00778
2043.69074,0.00477
2041.63057,0.00335
2039.57040,0.00446
2037.51022,0.00580
2035.45005,0.00575
2033.38988,0.00561
2031.32971,0.00628
2029.26954,0.00655
2027.20936,0.00598
2025.14919,0.00413
2023.08902,0.00261
2021.02885,0.00395
2018.96867,0.00581
2016.90850,0.00555
2014.84833,0.00432
2012.78816,0.00279
2010.72799,0.00192
2008.66781,0.00294
2006.60764,0.00394
2004.54747,0.00369
2002.48730,0.00307
2000.42713,0.00235
1998.36695,0.00252
1996.30678,0.00419
1994.24661,0.00576
1992.18644,0.00626
1990.12626,0.00585
1988.06609,0.00444
1986.00592,0.00376
1983.94575,0.00574
1981.88558,0.00835
1979.82540,0.00850
1977.76523,0.00611
1975.70506,0.00371
1973.64489,0.00315
1971.58472,0.00307
1969.52454,0.00234
1967.46437,0.00244
1965.40420,0.00383
1963.34403,0.00451
1961.28386,0.00382
1959.22368,0.00323
1957.16351,0.00303
1955.10334,0.00259
1953.04317,0.00229
1950.98299,0.00220
1948.92282,0.00200
1946.86265,0.00225
1944.80248,0.00328
1942.74231,0.00473
1940.68213,0.00589
1938.62196,0.00597
1936.56179,0.00517
1934.50162,0.00433
1932.44145,0.00373
1930.38127,0.00367
1928.32110,0.00432
1926.26093,0.00486
1924.20076,0.00481
1922.14059,0.00468
1920.08041,0.00481
1918.02024,0.00482
1915.96007,0.00425
1913.89990,0.00346
1911.83972,0.00285
1909.77955,0.00239
1907.71938,0.00222
1905.65921,0.00261
1903.59904,0.00329
1901.53886,0.00391
1899.47869,0.00422
1897.41852,0.00426
1895.35835,0.00419
1893.29818,0.00396
1891.23800,0.00386
1889.17783,0.00416
1887.11766,0.00452
1885.05749,0.00440
1882.99731,0.00387
1880.93714,0.00345
1878.87697,0.00325
1876.81680,0.00293
1874.75663,0.00274
1872.69645,0.00313
1870.63628,0.00376
1868.57611,0.00397
1866.51594,0.00350
1864.45577,0.00268
1862.39559,0.00212
1860.33542,0.00213
1858.27525,0.00261
1856.21508,0.00295
1854.15491,0.00262
1852.09473,0.00207
1850.03456,0.00210
1847.97439,0.00251
1845.91422,0.00254
1843.85404,0.00245
1841.79387,0.00280
1839.73370,0.00303
1837.67353,0.00267
1835.61336,0.00217
1833.55318,0.00199
1831.49301,0.00196
1829.43284,0.00189
1827.37267,0.00189
1825.31250,0.00223
1823.25232,0.00284
1821.19215,0.00302
1819.13198,0.00227
1817.07181,0.00124
1815.01163,0.00096
1812.95146,0.00122
1810.89129,0.00131
1808.83112,0.00124
1806.77095,0.00126
1804.71077,0.00125
1802.65060,0.00121
1800.59043,0.00115
1798.53026,0.00103
1796.47009,0.00102
1794.40991,0.00126
1792.34974,0.00140
1790.28957,0.00117
1788.22940,0.00084
1786.16923,0.00068
1784.10905,0.00074
1782.04888,0.00086
1779.98871,0.00066
1777.92854,0.00019
1775.86836,0.00000
1773.80819,0.00029
1771.74802,0.00069
1769.68785,0.00096
1767.62768,0.00118
1765.56750,0.00112
1763.50733,0.00088
1761.44716,0.00097
1759.38699,0.00165
1757.32682,0.00262
1755.26664,0.00338
1753.20647,0.00393
1751.14630,0.00449
1749.08613,0.00514
1747.02596,0.00617
1744.96578,0.00758
1742.90561,0.00885
1740.84544,0.00980
1738.78527,0.01060
1736.72509,0.01133
1734.66492,0.01186
1732.60475,0.01195
1730.54458,0.01193
1728.48441,0.01223
1726.42423,0.01259
1724.36406,0.01268
1722.30389,0.01251
1720.24372,0.01236
1718.18355,0.01241
1716.12337,0.01272
1714.06320,0.01319
1712.00303,0.01357
1709.94286,0.01360
1707.88268,0.01333
1705.82251,0.01320
1703.76234,0.01353
1701.70217,0.01384
1699.64200,0.01359
1697.58182,0.01314
1695.52165,0.01310
1693.46148,0.01341
1691.40131,0.01402
1689.34114,0.01488
1687.28096,0.01587
1685.22079,0.01742
1683.16062,0.01970
1681.10045,0.02152
1679.04028,0.02273
1676.98010,0.02385
1674.91993,0.02493
1672.85976,0.02565
1670.79959,0.02577
1668.73941,0.02538
1666.67924,0.02484
1664.61907,0.02436
1662.55890,0.02389
1660.49873,0.02328
1658.43855,0.02269
1656.37838,0.02231
1654.31821,0.02221
1652.25804,0.02242
1650.19787,0.02266
1648.13769,0.02255
1646.07752,0.02213
1644.01735,0.02192
1641.95718,0.02215
1639.89701,0.02255
1637.83683,0.02274
1635.77666,0.02292
1633.71649,0.02352
1631.65632,0.02431
1629.59614,0.02510
1627.53597,0.02574
1625.47580,0.02593
1623.41563,0.02581
1621.35546,0.02590
1619.29528,0.02624
1617.23511,0.02667
1615.17494,0.02725
1613.11477,0.02811
1611.05460,0.02930
1608.99442,0.03067
1606.93425,0.03189
1604.87408,0.03250
1602.81391,0.03215
1600.75373,0.03100
1598.69356,0.02963
1596.63339,0.02847
1594.57322,0.02750
1592.51305,0.02663
1590.45287,0.02596
1588.39270,0.02553
1586.33253,0.02505
1584.27236,0.02437
1582.21219,0.02367
1580.15201,0.02313
1578.09184,0.02269
1576.03167,0.02215
1573.97150,0.02153
1571.91133,0.02103
1569.85115,0.02056
1567.79098,0.01992
1565.73081,0.01902
1563.67064,0.01807
1561.61046,0.01724
1559.55029,0.01635
1557.49012,0.01541
1555.42995,0.01466
1553.36978,0.01394
1551.30960,0.01321
1549.24943,0.01259
1547.18926,0.01232
1545.12909,0.01231
1543.06892,0.01183
1541.00874,0.01059
1538.94857,0.00941
1536.88840,0.00898
1534.82823,0.00869
1532.76805,0.00808
1530.70788,0.00748
1528.64771,0.00712
1526.58754,0.00686
1524.52737,0.00688
1522.46719,0.00761
1520.40702,0.00916
1518.34685,0.01070
1516.28668,0.01166
1514.22651,0.01205
1512.16633,0.01182
1510.10616,0.01086
1508.04599,0.00907
1505.98582,0.00718
1503.92565,0.00635
1501.86547,0.00600
1499.80530,0.00527
1497.74513,0.00408
1495.68496,0.00300
1493.62478,0.00249
1491.56461,0.00234
1489.50444,0.00210
1487.44427,0.00168
1485.38410,0.00138
1483.32392,0.00130
1481.26375,0.00130
1479.20358,0.00143
1477.14341,0.00187
1475.08324,0.00279
1473.02306,0.00425
1470.96289,0.00592
1468.90272,0.00759
1466.84255,0.00950
1464.78238,0.01142
1462.72220,0.01260
1460.66203,0.01314
1458.60186,0.01376
1456.54169,0.01460
1454.48151,0.01527
1452.42134,0.01585
1450.36117,0.01644
1448.30100,0.01708
1446.24083,0.01778
1444.18065,0.01852
1442.12048,0.01939
1440.06031,0.02042
1438.00014,0.02136
1435.93997,0.02192
1433.87979,0.02217
1431.81962,0.02242
1429.75945,0.02270
1427.69928,0.02284
1425.63910,0.02291
1423.57893,0.02298
1421.51876,0.02299
1419.45859,0.02297
1417.39842,0.02307
1415.33824,0.02318
1413.27807,0.02305
1411.21790,0.02267
1409.15773,0.02224
1407.09756,0.02187
1405.03738,0.02142
1402.97721,0.02086
1400.91704,0.02031
1398.85687,0.01966
1396.79670,0.01874
1394.73652,0.01785
1392.67635,0.01731
1390.61618,0.01708
1388.55601,0.01711
1386.49583,0.01756
1384.43566,0.01837
1382.37549,0.01919
1380.31532,0.01986
1378.25515,0.02032
1376.19497,0.02066
1374.13480,0.02108
1372.07463,0.02145
1370.01446,0.02152
1367.95429,0.02135
1365.89411,0.02111
1363.83394,0.02070
1361.77377,0.02010
1359.71360,0.01964
1357.65343,0.01942
1355.59325,0.01930
1353.53308,0.01918
1351.47291,0.01907
1349.41274,0.01901
1347.35256,0.01899
1345.29239,0.01895
1343.23222,0.01890
1341.17205,0.01890
1339.11188,0.01884
1337.05170,0.01877
1334.99153,0.01883
1332.93136,0.01898
1330.87119,0.01923
1328.81102,0.01958
1326.75084,0.01989
1324.69067,0.02014
1322.63050,0.02023
1320.57033,0.01997
1318.51015,0.01946
1316.44998,0.01908
1314.38981,0.01901
1312.32964,0.01901
1310.26947,0.01886
1308.20929,0.01838
1306.14912,0.01762
1304.08895,0.01700
1302.02878,0.01657
1299.96861,0.01610
1297.90843,0.01563
1295.84826,0.01527
1293.78809,0.01497
1291.72792,0.01489
1289.66775,0.01530
1287.60757,0.01592
1285.54740,0.01616
1283.48723,0.01605
1281.42706,0.01599
1279.36688,0.01615
1277.30671,0.01643
1275.24654,0.01669
1273.18637,0.01688
1271.12620,0.01705
1269.06602,0.01732
1267.00585,0.01784
1264.94568,0.01861
1262.88551,0.01933
1260.82534,0.01988
1258.76516,0.02051
1256.70499,0.02116
1254.64482,0.02165
1252.58465,0.02212
1250.52447,0.02264
1248.46430,0.02304
1246.40413,0.02320
1244.34396,0.02318
1242.28379,0.02323
1240.22361,0.02341
1238.16344,0.02352
1236.10327,0.02336
1234.04310,0.02288
1231.98293,0.02232
1229.92275,0.02188
1227.86258,0.02140
1225.80241,0.02061
1223.74224,0.01958
1221.68207,0.01855
1219.62189,0.01751
1217.56172,0.01652
1215.50155,0.01546
1213.44138,0.01411
1211.38120,0.01274
1209.32103,0.01154
1207.26086,0.01045
1205.20069,0.00953
1203.14052,0.00855
1201.08034,0.00729
1199.02017,0.00593
1196.96000,0.00453
1194.89983,0.00320
1192.83966,0.00210
1190.77948,0.00117
1188.71931,0.00039
1186.65914,0.00000
1184.59897,-0.00006
1182.53880,-0.00007
1180.47862,0.00005
1178.41845,0.00053
1176.35828,0.00132
1174.29811,0.00261
1172.23793,0.00463
1170.17776,0.00693
1168.11759,0.00864
1166.05742,0.00933
1163.99725,0.00941
1161.93707,0.00945
1159.87690,0.00966
1157.81673,0.01026
1155.75656,0.01120
1153.69639,0.01210
1151.63621,0.01282
1149.57604,0.01350
1147.51587,0.01437
1145.45570,0.01537
1143.39552,0.01631
1141.33535,0.01709
1139.27518,0.01776
1137.21501,0.01840
1135.15484,0.01899
1133.09466,0.01961
1131.03449,0.02043
1128.97432,0.02150
1126.91415,0.02269
1124.85398,0.02383
1122.79380,0.02488
1120.73363,0.02592
1118.67346,0.02695
1116.61329,0.02800
1114.55312,0.02923
1112.49294,0.03048
1110.43277,0.03138
1108.37260,0.03199
1106.31243,0.03270
1104.25225,0.03371
1102.19208,0.03493
1100.13191,0.03622
1098.07174,0.03771
1096.01157,0.03938
1093.95139,0.04111
1091.89122,0.04314
1089.83105,0.04542
1087.77088,0.04738
1085.71071,0.04885
1083.65053,0.05024
1081.59036,0.05185
1079.53019,0.05378
1077.47002,0.05588
1075.40985,0.05815
1073.34967,0.06051
1071.28950,0.06255
1069.22933,0.06413
1067.16916,0.06531
1065.10898,0.06625
1063.04881,0.06736
1060.98864,0.06870
1058.92847,0.07003
1056.86830,0.07135
1054.80812,0.07291
1052.74795,0.07494
1050.68778,0.07718
1048.62761,0.07935
1046.56744,0.08167
1044.50726,0.08401
1042.44709,0.08604
1040.38692,0.08798
1038.32675,0.08996
1036.26657,0.09143
1034.20640,0.09225
1032.14623,0.09291
1030.08606,0.09339
1028.02589,0.09329
1025.96571,0.09284
1023.90554,0.09236
1021.84537,0.09184
1019.78520,0.09166
1017.72503,0.09160
1015.66485,0.09137
1013.60468,0.09147
1011.54451,0.09200
1009.48434,0.09256
1007.42417,0.09275
1005.36399,0.09237
1003.30382,0.09185
1001.24365,0.09138
999.18348,0.09033
997.12330,0.08905
995.06313,0.08812
993.00296,0.08687
990.94279,0.08507
988.88262,0.08334
986.82244,0.08186
984.76227,0.08045
982.70210,0.07904
980.64193,0.07793
978.58176,0.07706
976.52158,0.07580
974.46141,0.07410
972.40124,0.07267
970.34107,0.07168
968.28089,0.07059
966.22072,0.06904
964.16055,0.06729
962.10038,0.06584
960.04021,0.06509
957.98003,0.06455
955.91986,0.06338
953.85969,0.06152
951.79952,0.05953
949.73935,0.05805
947.67917,0.05724
945.61900,0.05654
943.55883,0.05523
941.49866,0.05321
939.43849,0.05076
937.37831,0.04755
935.31814,0.04373
933.25797,0.04051
931.19780,0.03824
929.13762,0.03610
927.07745,0.03384
925.01728,0.03198
922.95711,0.03058
920.89694,0.02929
918.83676,0.02800
916.77659,0.02660
914.71642,0.02505
912.65625,0.02364
910.59608,0.02228
908.53590,0.02080
906.47573,0.01950
904.41556,0.01848
902.35539,0.01794
900.29522,0.01813
898.23504,0.01849
896.17487,0.01839
894.11470,0.01803
892.05453,0.01780
889.99435,0.01757
887.93418,0.01729
885.87401,0.01706
883.81384,0.01662
881.75367,0.01561
879.69349,0.01408
877.63332,0.01248
875.57315,0.01147
873.51298,0.01162
871.45281,0.01205
869.39263,0.01155
867.33246,0.01095
865.27229,0.01083
863.21212,0.01047
861.15194,0.00998
859.09177,0.00970
857.03160,0.00939
854.97143,0.00936
852.91126,0.00986
850.85108,0.01037
848.79091,0.01046
846.73074,0.01035
844.67057,0.01016
842.61040,0.00943
840.55022,0.00835
838.49005,0.00783
836.42988,0.00800
834.36971,0.00816
832.30954,0.00779
830.24936,0.00692
828.18919,0.00623
826.12902,0.00586
824.06885,0.00523
822.00867,0.00486
819.94850,0.00469
817.88833,0.00407
815.82816,0.00395
813.76799,0.00476
811.70781,0.00553
809.64764,0.00578
807.58747,0.00582
805.52730,0.00581
803.46713,0.00533
801.40695,0.00451
799.34678,0.00448
797.28661,0.00463
795.22644,0.00346
793.16627,0.00198
791.10609,0.00184
789.04592,0.00243
786.98575,0.00232
784.92558,0.00176
782.86540,0.00128
780.80523,0.00072
778.74506,0.00000
776.68489,-0.00005
774.62472,0.00140
772.56454,0.00223
770.50437,0.00137
768.44420,0.00107
766.38403,0.00216
764.32386,0.00270
762.26368,0.00217
760.20351,0.00222
758.14334,0.00266
756.08317,0.00250
754.02299,0.00187
751.96282,0.00074
749.90265,0.00000
747.84248,0.00015
745.78231,0.00046
743.72213,0.00039
741.66196,0.00035
739.60179,0.00072
737.54162,0.00088
735.48145,-0.00007
733.42127,-0.00182
731.36110,-0.00286
729.30093,-0.00155
727.24076,0.00133
725.18059,0.00267
723.12041,0.00244
721.06024,0.00206
719.00007,0.00193
716.93990,0.00201
714.87972,0.00258
712.81955,0.00364
710.75938,0.00429
708.69921,0.00382
706.63904,0.00308
704.57886,0.00315
702.51869,0.00377
700.45852,0.00420
698.39835,0.00428
696.33818,0.00394
694.27800,0.00321
692.21783,0.00248
690.15766,0.00185
688.09749,0.00097
686.03731,0.00000
683.97714,-0.00008
681.91697,0.00143
679.85680,0.00219
677.79663,0.00043
675.73645,-0.00076
673.67628,0.00058
671.61611,0.00109
669.55594,-0.00065
667.49577,-0.00071
665.43559,0.00169
663.37542,0.00331
661.31525,0.00397
659.25508,0.00460
657.19491,0.00448
655.13473,0.00264
653.07456,0.00030
651.01439,-0.00029
648.95422,0.00049
646.89404,0.00039
644.83387,-0.00048
642.77370,0.00045
640.71353,0.00394
638.65336,0.00770
636.59318,0.00855
634.53301,0.00608
632.47284,0.00411
630.41267,0.00453
628.35250,0.00433
626.29232,0.00164
624.23215,-0.00188
622.17198,-0.00521
620.11181,-0.00455
618.05164,-0.00145
615.99146,0.00077
613.93129,0.00279
611.87112,0.00126
609.81095,-0.00517
607.75077,-0.00941
605.69060,-0.00644
603.63043,-0.00051
601.57026,0.00171
599.51009,0.00000
