3996.73391,0.00003
3994.67373,0.00010
3992.61356,0.00000
3990.55339,0.00021
3988.49322,0.00077
3986.43305,0.00107
3984.37287,0.00106
3982.31270,0.00100
3980.25253,0.00097
3978.19236,0.00089
3976.13219,0.00079
3974.07201,0.00077
3972.01184,0.00065
3969.95167,0.00045
3967.89150,0.00053
3965.83133,0.00087
3963.77115,0.00104
3961.71098,0.00112
3959.65081,0.00119
3957.59064,0.00111
3955.53046,0.00119
3953.47029,0.00140
3951.41012,0.00133
3949.34995,0.00139
3947.28978,0.00207
3945.22960,0.00215
3943.16943,0.00130
3941.10926,0.00101
3939.04909,0.00134
3936.98892,0.00148
3934.92874,0.00112
3932.86857,0.00072
3930.80840,0.00128
3928.74823,0.00217
3926.68805,0.00216
3924.62788,0.00185
3922.56771,0.00203
3920.50754,0.00192
3918.44737,0.00154
3916.38719,0.00178
3914.32702,0.00238
3912.26685,0.00232
3910.20668,0.00207
3908.14651,0.00194
3906.08633,0.00126
3904.02616,0.00064
3901.96599,0.00070
3899.90582,0.00067
3897.84565,0.00122
3895.78547,0.00201
3893.72530,0.00162
3891.66513,0.00095
3889.60496,0.00154
3887.54478,0.00153
3885.48461,0.00120
3883.42444,0.00168
3881.36427,0.00109
3879.30410,0.00135
3877.24392,0.00256
3875.18375,0.00245
3873.12358,0.00223
3871.06341,0.00214
3869.00324,0.00269
3866.94306,0.00260
3864.88289,0.00061
3862.82272,0.00000
3860.76255,0.00157
3858.70237,0.00359
3856.64220,0.00415
3854.58203,0.00264
3852.52186,0.00220
3850.46169,0.00342
3848.40151,0.00350
3846.34134,0.00286
3844.28117,0.00293
3842.22100,0.00351
3840.16083,0.00295
3838.10065,0.00232
3836.04048,0.00291
3833.98031,0.00301
3831.92014,0.00289
3829.85997,0.00338
3827.79979,0.00321
3825.73962,0.00287
3823.67945,0.00231
3821.61928,0.00127
3819.55910,0.00193
3817.49893,0.00192
3815.43876,0.00165
3813.37859,0.00287
3811.31842,0.00337
3809.25824,0.00252
3807.19807,0.00214
3805.13790,0.00350
3803.07773,0.00349
3801.01756,0.00302
3798.95738,0.00371
3796.89721,0.00318
3794.83704,0.00254
3792.77687,0.00216
3790.71670,0.00181
3788.65652,0.00177
3786.59635,0.00182
3784.53618,0.00227
3782.47601,0.00278
3780.41583,0.00230
3778.35566,0.00223
3776.29549,0.00299
3774.23532,0.00328
3772.17515,0.00297
3770.11497,0.00275
3768.05480,0.00302
3765.99463,0.00302
3763.93446,0.00345
3761.87429,0.00359
3759.81411,0.00301
3757.75394,0.00320
3755.69377,0.00368
3753.63360,0.00289
3751.57342,0.00187
3749.51325,0.00334
3747.45308,0.00484
3745.39291,0.00328
3743.33274,0.00287
3741.27256,0.00419
3739.21239,0.00370
3737.15222,0.00186
3735.09205,0.00127
3733.03188,0.00253
3730.97170,0.00415
3728.91153,0.00479
3726.85136,0.00404
3724.79119,0.00342
3722.73102,0.00338
3720.67084,0.00343
3718.61067,0.00341
3716.55050,0.00344
3714.49033,0.00225
3712.43015,0.00000
3710.36998,0.00004
3708.30981,0.00237
3706.24964,0.00373
3704.18947,0.00321
3702.12929,0.00241
3700.06912,0.00289
3698.00895,0.00348
3695.94878,0.00364
3693.88861,0.00389
3691.82843,0.00346
3689.76826,0.00220
3687.70809,0.00198
3685.64792,0.00286
3683.58775,0.00338
3681.52757,0.00364
3679.46740,0.00346
3677.40723,0.00190
3675.34706,0.00115
3673.28688,0.00340
3671.22671,0.00359
3669.16654,0.00270
3667.10637,0.00337
3665.04620,0.00387
3662.98602,0.00386
3660.92585,0.00364
3658.86568,0.00309
3656.80551,0.00277
3654.74534,0.00361
3652.68516,0.00319
3650.62499,0.00111
3648.56482,0.00142
3646.50465,0.00386
3644.44447,0.00493
3642.38430,0.00420
3640.32413,0.00344
3638.26396,0.00325
3636.20379,0.00345
3634.14361,0.00398
3632.08344,0.00396
3630.02327,0.00232
3627.96310,0.00235
3625.90293,0.00459
3623.84275,0.00555
3621.78258,0.00488
3619.72241,0.00393
3617.66224,0.00413
3615.60207,0.00441
3613.54189,0.00425
3611.48172,0.00453
3609.42155,0.00430
3607.36138,0.00420
3605.30120,0.00512
3603.24103,0.00560
3601.18086,0.00556
3599.12069,0.00561
3597.06052,0.00503
3595.00034,0.00421
3592.94017,0.00458
3590.88000,0.00514
3588.81983,0.00459
3586.75966,0.00497
3584.69948,0.00690
3582.63931,0.00783
3580.57914,0.00758
3578.51897,0.00740
3576.45879,0.00758
3574.39862,0.00825
3572.33845,0.00933
3570.27828,0.00949
3568.21811,0.00839
3566.15793,0.00817
3564.09776,0.00943
3562.03759,0.01032
3559.97742,0.01060
3557.91725,0.01082
3555.85707,0.01078
3553.79690,0.01023
3551.73673,0.00989
3549.67656,0.01033
3547.61639,0.01097
3545.55621,0.01164
3543.49604,0.01241
3541.43587,0.01296
3539.37570,0.01307
3537.31552,0.01303
3535.25535,0.01329
3533.19518,0.01369
3531.13501,0.01388
3529.07484,0.01398
3527.01466,0.01408
3524.95449,0.01415
3522.89432,0.01457
3520.83415,0.01555
3518.77398,0.01640
3516.71380,0.01672
3514.65363,0.01673
3512.59346,0.01678
3510.53329,0.01704
3508.47312,0.01778
3506.41294,0.01846
3504.35277,0.01824
3502.29260,0.01786
3500.23243,0.01811
3498.17225,0.01858
3496.11208,0.01891
3494.05191,0.01929
3491.99174,0.01973
3489.93157,0.02017
3487.87139,0.02063
3485.81122,0.02105
3483.75105,0.02113
3481.69088,0.02136
3479.63071,0.02200
3477.57053,0.02227
3475.51036,0.02213
3473.45019,0.02228
3471.39002,0.02261
3469.32984,0.02253
3467.26967,0.02245
3465.20950,0.02298
3463.14933,0.02358
3461.08916,0.02388
3459.02898,0.02396
3456.96881,0.02401
3454.90864,0.02437
3452.84847,0.02514
3450.78830,0.02616
3448.72812,0.02658
3446.66795,0.02662
3444.60778,0.02704
3442.54761,0.02730
3440.48744,0.02732
3438.42726,0.02732
3436.36709,0.02771
3434.30692,0.02827
3432.24675,0.02820
3430.18657,0.02783
3428.12640,0.02785
3426.06623,0.02847
3424.00606,0.02936
3421.94589,0.02994
3419.88571,0.03024
3417.82554,0.03026
3415.76537,0.03000
3413.70520,0.02987
3411.64503,0.03017
3409.58485,0.03102
3407.52468,0.03195
3405.46451,0.03250
3403.40434,0.03285
3401.34416,0.03323
3399.28399,0.03333
3397.22382,0.03288
3395.16365,0.03240
3393.10348,0.03250
3391.04330,0.03313
3388.98313,0.03359
3386.92296,0.03362
3384.86279,0.03371
3382.80262,0.03408
3380.74244,0.03438
3378.68227,0.03443
3376.62210,0.03454
3374.56193,0.03491
3372.50176,0.03536
3370.44158,0.03583
3368.38141,0.03619
3366.32124,0.03629
3364.26107,0.03636
3362.20089,0.03662
3360.14072,0.03699
3358.08055,0.03689
3356.02038,0.03642
3353.96021,0.03644
3351.90003,0.03664
3349.83986,0.03667
3347.77969,0.03689
3345.71952,0.03725
3343.65935,0.03733
3341.59917,0.03712
3339.53900,0.03694
3337.47883,0.03685
3335.41866,0.03698
3333.35849,0.03732
3331.29831,0.03750
3329.23814,0.03751
3327.17797,0.03767
3325.11780,0.03784
3323.05762,0.03779
3320.99745,0.03779
3318.93728,0.03803
3316.87711,0.03838
3314.81694,0.03869
3312.75676,0.03887
3310.69659,0.03856
3308.63642,0.03788
3306.57625,0.03768
3304.51608,0.03796
3302.45590,0.03794
3300.39573,0.03755
3298.33556,0.03769
3296.27539,0.03849
3294.21521,0.03879
3292.15504,0.03847
3290.09487,0.03830
3288.03470,0.03801
3285.97453,0.03759
3283.91435,0.03759
3281.85418,0.03776
3279.79401,0.03775
3277.73384,0.03800
3275.67367,0.03867
3273.61349,0.03925
3271.55332,0.03927
3269.49315,0.03895
3267.43298,0.03859
3265.37281,0.03816
3263.31263,0.03776
3261.25246,0.03742
3259.19229,0.03737
3257.13212,0.03784
3255.07194,0.03831
3253.01177,0.03839
3250.95160,0.03827
3248.89143,0.03819
3246.83126,0.03822
3244.77108,0.03823
3242.71091,0.03798
3240.65074,0.03775
3238.59057,0.03798
3236.53040,0.03815
3234.47022,0.03798
3232.41005,0.03794
3230.34988,0.03790
3228.28971,0.03752
3226.22954,0.03729
3224.16936,0.03737
3222.10919,0.03737
3220.04902,0.03736
3217.98885,0.03747
3215.92867,0.03738
3213.86850,0.03705
3211.80833,0.03691
3209.74816,0.03690
3207.68799,0.03667
3205.62781,0.03633
3203.56764,0.03624
3201.50747,0.03631
3199.44730,0.03632
3197.38713,0.03617
3195.32695,0.03606
3193.26678,0.03611
3191.20661,0.03603
3189.14644,0.03593
3187.08626,0.03590
3185.02609,0.03564
3182.96592,0.03546
3180.90575,0.03551
3178.84558,0.03553
3176.78540,0.03554
3174.72523,0.03530
3172.66506,0.03475
3170.60489,0.03421
3168.54472,0.03355
3166.48454,0.03280
3164.42437,0.03240
3162.36420,0.03215
3160.30403,0.03186
3158.24386,0.03192
3156.18368,0.03219
3154.12351,0.03223
3152.06334,0.03206
3150.00317,0.03182
3147.94299,0.03140
3145.88282,0.03092
3143.82265,0.03073
3141.76248,0.03055
3139.70231,0.03012
3137.64213,0.03008
3135.58196,0.03044
3133.52179,0.03034
3131.46162,0.02998
3129.40145,0.02980
3127.34127,0.02959
3125.28110,0.02924
3123.22093,0.02871
3121.16076,0.02839
3119.10058,0.02852
3117.04041,0.02870
3114.98024,0.02876
3112.92007,0.02881
3110.85990,0.02889
3108.79972,0.02872
3106.73955,0.02820
3104.67938,0.02782
3102.61921,0.02761
3100.55904,0.02735
3098.49886,0.02727
3096.43869,0.02719
3094.37852,0.02684
3092.31835,0.02646
3090.25818,0.02623
3088.19800,0.02594
3086.13783,0.02578
3084.07766,0.02604
3082.01749,0.02631
3079.95731,0.02599
3077.89714,0.02521
3075.83697,0.02461
3073.77680,0.02442
3071.71663,0.02434
3069.65645,0.02409
3067.59628,0.02382
3065.53611,0.02377
3063.47594,0.02395
3061.41577,0.02420
3059.35559,0.02433
3057.29542,0.02404
3055.23525,0.02351
3053.17508,0.02327
3051.11491,0.02326
3049.05473,0.02306
3046.99456,0.02266
3044.93439,0.02227
3042.87422,0.02205
3040.81404,0.02202
3038.75387,0.02210
3036.69370,0.02218
3034.63353,0.02199
3032.57336,0.02142
3030.51318,0.02091
3028.45301,0.02064
3026.39284,0.02039
3024.33267,0.02009
3022.27250,0.01982
3020.21232,0.01980
3018.15215,0.02007
3016.09198,0.02021
3014.03181,0.02010
3011.97163,0.02011
3009.91146,0.02020
3007.85129,0.02000
3005.79112,0.01943
3003.73095,0.01883
3001.67077,0.01858
2999.61060,0.01875
2997.55043,0.01892
2995.49026,0.01877
2993.43009,0.01846
2991.36991,0.01822
2989.30974,0.01817
2987.24957,0.01826
2985.18940,0.01850
2983.12923,0.01889
2981.06905,0.01926
2979.00888,0.01943
2976.94871,0.01944
2974.88854,0.01951
2972.82836,0.01981
2970.76819,0.02016
2968.70802,0.02037
2966.64785,0.02076
2964.58768,0.02191
2962.52750,0.02359
2960.46733,0.02469
2958.40716,0.02516
2956.34699,0.02589
2954.28682,0.02692
2952.22664,0.02802
2950.16647,0.02936
2948.10630,0.03080
2946.04613,0.03220
2943.98596,0.03400
2941.92578,0.03622
2939.86561,0.03815
2937.80544,0.03954
2935.74527,0.04084
2933.68509,0.04250
2931.62492,0.04440
2929.56475,0.04601
2927.50458,0.04712
2925.44441,0.04804
2923.38423,0.04913
2921.32406,0.05032
2919.26389,0.05116
2917.20372,0.05110
2915.14355,0.04989
2913.08337,0.04818
2911.02320,0.04669
2908.96303,0.04515
2906.90286,0.04336
2904.84268,0.04164
2902.78251,0.04034
2900.72234,0.03961
2898.66217,0.03907
2896.60200,0.03827
2894.54182,0.03733
2892.48165,0.03654
2890.42148,0.03584
2888.36131,0.03508
2886.30114,0.03442
2884.24096,0.03401
2882.18079,0.03361
2880.12062,0.03321
2878.06045,0.03304
2876.00028,0.03312
2873.94010,0.03324
2871.87993,0.03324
2869.81976,0.03336
2867.75959,0.03366
2865.69941,0.03408
2863.63924,0.03489
2861.57907,0.03603
2859.51890,0.03725
2857.45873,0.03867
2855.39855,0.04013
2853.33838,0.04127
2851.27821,0.04187
2849.21804,0.04145
2847.15787,0.03979
2845.09769,0.03756
2843.03752,0.03530
2840.97735,0.03315
2838.91718,0.03137
2836.85700,0.03011
2834.79683,0.02940
2832.73666,0.02894
2830.67649,0.02839
2828.61632,0.02773
2826.55614,0.02716
2824.49597,0.02670
2822.43580,0.02621
2820.37563,0.02575
2818.31546,0.02537
2816.25528,0.02500
2814.19511,0.02451
2812.13494,0.02419
2810.07477,0.02421
2808.01460,0.02400
2805.95442,0.02350
2803.89425,0.02310
2801.83408,0.02284
2799.77391,0.02256
2797.71373,0.02233
2795.65356,0.02212
2793.59339,0.02180
2791.53322,0.02153
2789.47305,0.02155
2787.41287,0.02171
2785.35270,0.02164
2783.29253,0.02142
2781.23236,0.02115
2779.17219,0.02079
2777.11201,0.02053
2775.05184,0.02043
2772.99167,0.02040
2770.93150,0.02036
2768.87133,0.02020
2766.81115,0.02005
2764.75098,0.01973
2762.69081,0.01932
2760.63064,0.01923
2758.57046,0.01939
2756.51029,0.01968
2754.45012,0.01980
2752.38995,0.01956
2750.32978,0.01933
2748.26960,0.01933
2746.20943,0.01945
2744.14926,0.01951
2742.08909,0.01930
2740.02892,0.01902
2737.96874,0.01892
2735.90857,0.01881
2733.84840,0.01866
2731.78823,0.01854
2729.72805,0.01833
2727.66788,0.01830
2725.60771,0.01862
2723.54754,0.01881
2721.48737,0.01850
2719.42719,0.01816
2717.36702,0.01824
2715.30685,0.01832
2713.24668,0.01827
2711.18651,0.01842
2709.12633,0.01858
2707.06616,0.01847
2705.00599,0.01826
2702.94582,0.01825
2700.88565,0.01831
2698.82547,0.01833
2696.76530,0.01829
2694.70513,0.01817
2692.64496,0.01801
2690.58478,0.01792
2688.52461,0.01802
2686.46444,0.01826
2684.40427,0.01839
2682.34410,0.01830
2680.28392,0.01796
2678.22375,0.01755
2676.16358,0.01747
2674.10341,0.01763
2672.04324,0.01770
2669.98306,0.01760
2667.92289,0.01744
2665.86272,0.01741
2663.80255,0.01739
2661.74238,0.01731
2659.68220,0.01736
2657.62203,0.01743
2655.56186,0.01739
2653.50169,0.01723
2651.44151,0.01683
2649.38134,0.01648
2647.32117,0.01656
2645.26100,0.01662
2643.20083,0.01654
2641.14065,0.01660
2639.08048,0.01646
2637.02031,0.01603
2634.96014,0.01594
2632.89997,0.01627
2630.83979,0.01657
2628.77962,0.01658
2626.71945,0.01657
2624.65928,0.01654
2622.59910,0.01611
2620.53893,0.01561
2618.47876,0.01532
2616.41859,0.01529
2614.35842,0.01540
2612.29824,0.01543
2610.23807,0.01540
2608.17790,0.01524
2606.11773,0.01516
2604.05756,0.01519
2601.99738,0.01484
2599.93721,0.01424
2597.87704,0.01417
2595.81687,0.01479
2593.75670,0.01511
2591.69652,0.01454
2589.63635,0.01391
2587.57618,0.01381
2585.51601,0.01402
2583.45583,0.01411
2581.39566,0.01418
2579.33549,0.01474
2577.27532,0.01530
2575.21515,0.01499
2573.15497,0.01414
2571.09480,0.01355
2569.03463,0.01359
2566.97446,0.01425
2564.91429,0.01483
2562.85411,0.01462
2560.79394,0.01402
2558.73377,0.01404
2556.67360,0.01453
2554.61342,0.01474
2552.55325,0.01465
2550.49308,0.01430
2548.43291,0.01401
2546.37274,0.01396
2544.31256,0.01371
2542.25239,0.01322
2540.19222,0.01305
2538.13205,0.01347
2536.07188,0.01401
2534.01170,0.01381
2531.95153,0.01302
2529.89136,0.01297
2527.83119,0.01373
2525.77102,0.01415
2523.71084,0.01375
2521.65067,0.01311
2519.59050,0.01284
2517.53033,0.01260
2515.47015,0.01233
2513.40998,0.01236
2511.34981,0.01242
2509.28964,0.01214
2507.22947,0.01181
2505.16929,0.01162
2503.10912,0.01147
2501.04895,0.01141
2498.98878,0.01162
2496.92861,0.01214
2494.86843,0.01245
2492.80826,0.01235
2490.74809,0.01232
2488.68792,0.01240
2486.62775,0.01222
2484.56757,0.01204
2482.50740,0.01202
2480.44723,0.01174
2478.38706,0.01177
2476.32688,0.01239
2474.26671,0.01240
2472.20654,0.01159
2470.14637,0.01060
2468.08620,0.01006
2466.02602,0.01071
2463.96585,0.01191
2461.90568,0.01239
2459.84551,0.01225
2457.78534,0.01198
2455.72516,0.01167
2453.66499,0.01157
2451.60482,0.01162
2449.54465,0.01150
2447.48447,0.01127
2445.42430,0.01127
2443.36413,0.01163
2441.30396,0.01190
2439.24379,0.01170
2437.18361,0.01128
2435.12344,0.01129
2433.06327,0.01180
2431.00310,0.01191
2428.94293,0.01162
2426.88275,0.01155
2424.82258,0.01143
2422.76241,0.01105
2420.70224,0.01085
2418.64207,0.01081
2416.58189,0.01050
2414.52172,0.01019
2412.46155,0.01013
2410.40138,0.01016
2408.34120,0.01018
2406.28103,0.01023
2404.22086,0.01041
2402.16069,0.01065
2400.10052,0.01074
2398.04034,0.01074
2395.98017,0.01075
2393.92000,0.01073
2391.85983,0.01067
2389.79966,0.01059
2387.73948,0.01068
2385.67931,0.01107
2383.61914,0.01127
2381.55897,0.01098
2379.49880,0.01064
2377.43862,0.01032
2375.37845,0.00956
2373.31828,0.00840
2371.25811,0.00733
2369.19793,0.00747
2367.13776,0.00962
2365.07759,0.01206
2363.01742,0.01244
2360.95725,0.01211
2358.89707,0.01312
2356.83690,0.01311
2354.77673,0.01065
2352.71656,0.00854
2350.65639,0.00846
2348.59621,0.00913
2346.53604,0.00918
2344.47587,0.00851
2342.41570,0.00827
2340.35552,0.00835
2338.29535,0.00666
2336.23518,0.00378
2334.17501,0.00292
2332.11484,0.00449
2330.05466,0.00687
2327.99449,0.00901
2325.93432,0.00993
2323.87415,0.00945
2321.81398,0.00883
2319.75380,0.00902
2317.69363,0.00978
2315.63346,0.01044
2313.57329,0.01051
2311.51312,0.00997
2309.45294,0.00972
2307.39277,0.01018
2305.33260,0.01026
2303.27243,0.00968
2301.21225,0.00959
2299.15208,0.00993
2297.09191,0.00978
2295.03174,0.00940
2292.97157,0.00935
2290.91139,0.00940
2288.85122,0.00912
2286.79105,0.00830
2284.73088,0.00728
2282.67071,0.00707
2280.61053,0.00779
2278.55036,0.00834
2276.49019,0.00829
2274.43002,0.00793
2272.36984,0.00766
2270.30967,0.00790
2268.24950,0.00834
2266.18933,0.00847
2264.12916,0.00863
2262.06898,0.00855
2260.00881,0.00759
2257.94864,0.00673
2255.88847,0.00748
2253.82830,0.00900
2251.76812,0.00931
2249.70795,0.00857
2247.64778,0.00800
2245.58761,0.00739
2243.52744,0.00672
2241.46726,0.00658
2239.40709,0.00628
2237.34692,0.00491
2235.28675,0.00389
2233.22657,0.00485
2231.16640,0.00657
2229.10623,0.00728
2227.04606,0.00733
2224.98589,0.00727
2222.92571,0.00738
2220.86554,0.00787
2218.80537,0.00840
2216.74520,0.00874
2214.68503,0.00876
2212.62485,0.00782
2210.56468,0.00594
2208.50451,0.00561
2206.44434,0.00678
2204.38417,0.00657
2202.32399,0.00597
2200.26382,0.00615
2198.20365,0.00634
2196.14348,0.00678
2194.08330,0.00747
2192.02313,0.00805
2189.96296,0.00772
2187.90279,0.00611
2185.84262,0.00494
2183.78244,0.00565
2181.72227,0.00738
2179.66210,0.00830
2177.60193,0.00812
2175.54176,0.00760
2173.48158,0.00630
2171.42141,0.00470
2169.36124,0.00357
2167.30107,0.00210
2165.24089,0.00077
2163.18072,0.00000
2161.12055,0.00009
2159.06038,0.00191
2157.00021,0.00358
2154.94003,0.00355
2152.87986,0.00306
2150.81969,0.00352
2148.75952,0.00498
2146.69935,0.00579
2144.63917,0.00468
2142.57900,0.00269
2140.51883,0.00114
2138.45866,0.00044
2136.39849,0.00101
2134.33831,0.00275
2132.27814,0.00415
2130.21797,0.00445
2128.15780,0.00490
2126.09762,0.00581
2124.03745,0.00613
2121.97728,0.00583
2119.91711,0.00585
2117.85694,0.00611
2115.79676,0.00596
2113.73659,0.00577
2111.67642,0.00551
2109.61625,0.00521
2107.55608,0.00529
2105.49590,0.00506
2103.43573,0.00438
2101.37556,0.00406
2099.31539,0.00457
2097.25521,0.00510
2095.19504,0.00460
2093.13487,0.00400
2091.07470,0.00447
2089.01453,0.00530
2086.95435,0.00523
2084.89418,0.00463
2082.83401,0.00492
2080.77384,0.00608
2078.71367,0.00713
2076.65349,0.00779
2074.59332,0.00840
2072.53315,0.00833
2070.47298,0.00731
2068.41281,0.00654
2066.35263,0.00625
2064.29246,0.00601
2062.23229,0.00543
2060.17212,0.00420
2058.11194,0.00336
2056.05177,0.00389
2053.99160,0.00504
2051.93143,0.00575
2049.87126,0.00591
2047.81108,0.00578
2045.75091,0.00523
2043.69074,0.00396
2041.63057,0.00312
2039.57040,0.00433
2037.51022,0.00602
2035.45005,0.00551
2033.38988,0.00411
2031.32971,0.00433
2029.26954,0.00542
2027.20936,0.00567
2025.14919,0.00338
2023.08902,0.00046
2021.02885,0.00122
2018.96867,0.00408
2016.90850,0.00492
2014.84833,0.00386
2012.78816,0.00179
2010.72799,0.00006
2008.66781,0.00081
2006.60764,0.00211
2004.54747,0.00196
2002.48730,0.00149
2000.42713,0.00143
1998.36695,0.00297
1996.30678,0.00583
1994.24661,0.00708
1992.18644,0.00606
1990.12626,0.00449
1988.06609,0.00278
1986.00592,0.00167
1983.94575,0.00208
1981.88558,0.00357
1979.82540,0.00446
1977.76523,0.00375
1975.70506,0.00339
1973.64489,0.00429
1971.58472,0.00393
1969.52454,0.00227
1967.46437,0.00203
1965.40420,0.00361
1963.34403,0.00423
1961.28386,0.00318
1959.22368,0.00262
1957.16351,0.00306
1955.10334,0.00349
1953.04317,0.00347
1950.98299,0.00287
1948.92282,0.00178
1946.86265,0.00089
1944.80248,0.00085
1942.74231,0.00195
1940.68213,0.00395
1938.62196,0.00458
1936.56179,0.00341
1934.50162,0.00229
1932.44145,0.00223
1930.38127,0.00305
1928.32110,0.00365
1926.26093,0.00338
1924.20076,0.00272
1922.14059,0.00280
1920.08041,0.00316
1918.02024,0.00296
1915.96007,0.00293
1913.89990,0.00282
1911.83972,0.00252
1909.77955,0.00213
1907.71938,0.00203
1905.65921,0.00244
1903.59904,0.00293
1901.53886,0.00298
1899.47869,0.00270
1897.41852,0.00270
1895.35835,0.00318
1893.29818,0.00368
1891.23800,0.00322
1889.17783,0.00269
1887.11766,0.00312
1885.05749,0.00351
1882.99731,0.00362
1880.93714,0.00361
1878.87697,0.00334
1876.81680,0.00291
1874.75663,0.00280
1872.69645,0.00320
1870.63628,0.00315
1868.57611,0.00274
1866.51594,0.00296
1864.45577,0.00294
1862.39559,0.00239
1860.33542,0.00222
1858.27525,0.00269
1856.21508,0.00304
1854.15491,0.00268
1852.09473,0.00209
1850.03456,0.00186
1847.97439,0.00197
1845.91422,0.00161
1843.85404,0.00133
1841.79387,0.00219
1839.73370,0.00242
1837.67353,0.00171
1835.61336,0.00161
1833.55318,0.00222
1831.49301,0.00216
1829.43284,0.00190
1827.37267,0.00211
1825.31250,0.00198
1823.25232,0.00219
1821.19215,0.00230
1819.13198,0.00153
1817.07181,0.00086
1815.01163,0.00113
1812.95146,0.00147
1810.89129,0.00137
1808.83112,0.00152
1806.77095,0.00192
1804.71077,0.00208
1802.65060,0.00174
1800.59043,0.00150
1798.53026,0.00196
1796.47009,0.00243
1794.40991,0.00184
1792.34974,0.00083
1790.28957,0.00130
1788.22940,0.00189
1786.16923,0.00148
1784.10905,0.00122
1782.04888,0.00111
1779.98871,0.00086
1777.92854,0.00090
1775.86836,0.00071
1773.80819,0.00000
1771.74802,0.00005
1769.68785,0.00123
1767.62768,0.00189
1765.56750,0.00203
1763.50733,0.00132
1761.44716,0.00119
1759.38699,0.00243
1757.32682,0.00343
1755.26664,0.00473
1753.20647,0.00545
1751.14630,0.00491
1749.08613,0.00505
1747.02596,0.00648
1744.96578,0.00814
1742.90561,0.00934
1740.84544,0.01024
1738.78527,0.01175
1736.72509,0.01234
1734.66492,0.01065
1732.60475,0.01072
1730.54458,0.01222
1728.48441,0.01310
1726.42423,0.01341
1724.36406,0.01323
1722.30389,0.01330
1720.24372,0.01258
1718.18355,0.01103
1716.12337,0.01172
1714.06320,0.01372
1712.00303,0.01477
1709.94286,0.01463
1707.88268,0.01363
1705.82251,0.01307
1703.76234,0.01394
1701.70217,0.01359
1699.64200,0.01295
1697.58182,0.01319
1695.52165,0.01322
1693.46148,0.01476
1691.40131,0.01559
1689.34114,0.01596
1687.28096,0.01658
1685.22079,0.01647
1683.16062,0.01894
1681.10045,0.02265
1679.04028,0.02435
1676.98010,0.02475
1674.91993,0.02561
1672.85976,0.02681
1670.79959,0.02581
1668.73941,0.02521
1666.67924,0.02630
1664.61907,0.02566
1662.55890,0.02412
1660.49873,0.02423
1658.43855,0.02463
1656.37838,0.02336
1654.31821,0.02054
1652.25804,0.02163
1650.19787,0.02473
1648.13769,0.02305
1646.07752,0.02105
1644.01735,0.02228
1641.95718,0.02342
1639.89701,0.02360
1637.83683,0.02247
1635.77666,0.02149
1633.71649,0.02374
1631.65632,0.02578
1629.59614,0.02583
1627.53597,0.02592
1625.47580,0.02601
1623.41563,0.02576
1621.35546,0.02693
1619.29528,0.02730
1617.23511,0.02607
1615.17494,0.02683
1613.11477,0.02859
1611.05460,0.02953
1608.99442,0.03064
1606.93425,0.03207
1604.87408,0.03280
1602.81391,0.03228
1600.75373,0.03100
1598.69356,0.02955
1596.63339,0.02827
1594.57322,0.02739
1592.51305,0.02679
1590.45287,0.02615
1588.39270,0.02564
1586.33253,0.02520
1584.27236,0.02465
1582.21219,0.02432
1580.15201,0.02400
1578.09184,0.02240
1576.03167,0.02107
1573.97150,0.02222
1571.91133,0.02197
1569.85115,0.01999
1567.79098,0.01982
1565.73081,0.02012
1563.67064,0.02000
1561.61046,0.01790
1559.55029,0.01356
1557.49012,0.01394
1555.42995,0.01553
1553.36978,0.01488
1551.30960,0.01371
1549.24943,0.01332
1547.18926,0.01363
1545.12909,0.01290
1543.06892,0.01077
1541.00874,0.00781
1538.94857,0.00807
1536.88840,0.01035
1534.82823,0.00918
1532.76805,0.00761
1530.70788,0.00831
1528.64771,0.00807
1526.58754,0.00716
1524.52737,0.00684
1522.46719,0.00652
1520.40702,0.00817
1518.34685,0.01037
1516.28668,0.01136
1514.22651,0.01252
1512.16633,0.01280
1510.10616,0.01116
1508.04599,0.00731
1505.98582,0.00574
1503.92565,0.00775
1501.86547,0.00800
1499.80530,0.00591
1497.74513,0.00368
1495.68496,0.00340
1493.62478,0.00396
1491.56461,0.00254
1489.50444,0.00071
1487.44427,0.00100
1485.38410,0.00191
1483.32392,0.00188
1481.26375,0.00157
1479.20358,0.00201
1477.14341,0.00258
1475.08324,0.00290
1473.02306,0.00362
1470.96289,0.00626
1468.90272,0.00898
1466.84255,0.00981
1464.78238,0.01073
1462.72220,0.01307
1460.66203,0.01394
1458.60186,0.01248
1456.54169,0.01279
1454.48151,0.01565
1452.42134,0.01697
1450.36117,0.01676
1448.30100,0.01666
1446.24083,0.01763
1444.18065,0.01892
1442.12048,0.02003
1440.06031,0.02094
1438.00014,0.02077
1435.93997,0.02112
1433.87979,0.02262
1431.81962,0.02281
1429.75945,0.02246
1427.69928,0.02278
1425.63910,0.02282
1423.57893,0.02295
1421.51876,0.02298
1419.45859,0.02213
1417.39842,0.02253
1415.33824,0.02341
1413.27807,0.02314
1411.21790,0.02243
1409.15773,0.02220
1407.09756,0.02189
1405.03738,0.02128
1402.97721,0.02107
1400.91704,0.02043
1398.85687,0.01921
1396.79670,0.01805
1394.73652,0.01720
1392.67635,0.01750
1390.61618,0.01770
1388.55601,0.01700
1386.49583,0.01713
1384.43566,0.01831
1382.37549,0.01913
1380.31532,0.01967
1378.25515,0.02022
1376.19497,0.02034
1374.13480,0.02043
1372.07463,0.02125
1370.01446,0.02167
1367.95429,0.02158
1365.89411,0.02143
1363.83394,0.02060
1361.77377,0.01981
1359.71360,0.01960
1357.65343,0.01935
1355.59325,0.01915
1353.53308,0.01916
1351.47291,0.01901
1349.41274,0.01871
1347.35256,0.01871
1345.29239,0.01901
1343.23222,0.01929
1341.17205,0.01908
1339.11188,0.01876
1337.05170,0.01891
1334.99153,0.01907
1332.93136,0.01896
1330.87119,0.01884
1328.81102,0.01894
1326.75084,0.01923
1324.69067,0.01961
1322.63050,0.01986
1320.57033,0.01971
1318.51015,0.01944
1316.44998,0.01934
1314.38981,0.01912
1312.32964,0.01884
1310.26947,0.01858
1308.20929,0.01801
1306.14912,0.01729
1304.08895,0.01681
1302.02878,0.01652
1299.96861,0.01610
1297.90843,0.01557
1295.84826,0.01520
1293.78809,0.01501
1291.72792,0.01501
1289.66775,0.01537
1287.60757,0.01588
1285.54740,0.01620
1283.48723,0.01620
1281.42706,0.01608
1279.36688,0.01622
1277.30671,0.01662
1275.24654,0.01692
1273.18637,0.01695
1271.12620,0.01694
1269.06602,0.01732
1267.00585,0.01803
1264.94568,0.01871
1262.88551,0.01924
1260.82534,0.01983
1258.76516,0.02061
1256.70499,0.02121
1254.64482,0.02154
1252.58465,0.02192
1250.52447,0.02232
1248.46430,0.02260
1246.40413,0.02281
1244.34396,0.02300
1242.28379,0.02325
1240.22361,0.02341
1238.16344,0.02337
1236.10327,0.02324
1234.04310,0.02295
1231.98293,0.02248
1229.92275,0.02206
1227.86258,0.02150
1225.80241,0.02045
1223.74224,0.01916
1221.68207,0.01809
1219.62189,0.01718
1217.56172,0.01632
1215.50155,0.01535
1213.44138,0.01409
1211.38120,0.01267
1209.32103,0.01127
1207.26086,0.01018
1205.20069,0.00949
1203.14052,0.00853
1201.08034,0.00691
1199.02017,0.00526
1196.96000,0.00404
1194.89983,0.00297
1192.83966,0.00192
1190.77948,0.00111
1188.71931,0.00058
1186.65914,0.00032
1184.59897,0.00020
1182.53880,0.00000
1180.47862,-0.00007
1178.41845,0.00045
1176.35828,0.00150
1174.29811,0.00290
1172.23793,0.00467
1170.17776,0.00682
1168.11759,0.00872
1166.05742,0.00950
1163.99725,0.00947
1161.93707,0.00961
1159.87690,0.01013
1157.81673,0.01074
1155.75656,0.01120
1153.69639,0.01168
1151.63621,0.01230
1149.57604,0.01306
1147.51587,0.01419
1145.45570,0.01551
1143.39552,0.01645
1141.33535,0.01701
1139.27518,0.01764
1137.21501,0.01831
1135.15484,0.01887
1133.09466,0.01938
1131.03449,0.02008
1128.97432,0.02112
1126.91415,0.02236
1124.85398,0.02362
1122.79380,0.02481
1120.73363,0.02587
1118.67346,0.02678
1116.61329,0.02770
1114.55312,0.02895
1112.49294,0.03038
1110.43277,0.03137
1108.37260,0.03205
1106.31243,0.03288
1104.25225,0.03385
1102.19208,0.03497
1100.13191,0.03607
1098.07174,0.03717
1096.01157,0.03865
1093.95139,0.04054
1091.89122,0.04286
1089.83105,0.04520
1087.77088,0.04686
1085.71071,0.04805
1083.65053,0.04935
1081.59036,0.05082
1079.53019,0.05259
1077.47002,0.05495
1075.40985,0.05743
1073.34967,0.05952
1071.28950,0.06141
1069.22933,0.06304
1067.16916,0.06406
1065.10898,0.06500
1063.04881,0.06640
1060.98864,0.06786
1058.92847,0.06921
1056.86830,0.07068
1054.80812,0.07237
1052.74795,0.07443
1050.68778,0.07667
1048.62761,0.07885
1046.56744,0.08097
1044.50726,0.08283
1042.44709,0.08479
1040.38692,0.08720
1038.32675,0.08946
1036.26657,0.09097
1034.20640,0.09185
1032.14623,0.09256
1030.08606,0.09296
1028.02589,0.09268
1025.96571,0.09200
1023.90554,0.09133
1021.84537,0.09098
1019.78520,0.09115
1017.72503,0.09128
1015.66485,0.09101
1013.60468,0.09086
1011.54451,0.09097
1009.48434,0.09126
1007.42417,0.09159
1005.36399,0.09137
1003.30382,0.09075
1001.24365,0.09022
999.18348,0.08944
997.12330,0.08838
995.06313,0.08725
993.00296,0.08571
990.94279,0.08360
988.88262,0.08171
986.82244,0.08056
984.76227,0.07977
982.70210,0.07873
980.64193,0.07733
978.58176,0.07607
976.52158,0.07496
974.46141,0.07363
972.40124,0.07218
970.34107,0.07080
968.28089,0.06932
966.22072,0.06779
964.16055,0.06640
962.10038,0.06513
960.04021,0.06402
957.98003,0.06303
955.91986,0.06179
953.85969,0.06008
951.79952,0.05828
949.73935,0.05691
947.67917,0.05604
945.61900,0.05537
943.55883,0.05411
941.49866,0.05201
939.43849,0.04965
937.37831,0.04685
935.31814,0.04363
933.25797,0.04100
931.19780,0.03900
929.13762,0.03661
927.07745,0.03379
925.01728,0.03136
922.95711,0.02958
920.89694,0.02839
918.83676,0.02748
916.77659,0.02637
914.71642,0.02493
912.65625,0.02334
910.59608,0.02163
908.53590,0.01990
906.47573,0.01838
904.41556,0.01730
902.35539,0.01706
900.29522,0.01753
898.23504,0.01779
896.17487,0.01732
894.11470,0.01697
892.05453,0.01731
889.99435,0.01743
887.93418,0.01701
885.87401,0.01642
883.81384,0.01553
881.75367,0.01441
879.69349,0.01336
877.63332,0.01239
875.57315,0.01183
873.51298,0.01198
871.45281,0.01203
869.39263,0.01118
867.33246,0.01003
865.27229,0.00960
863.21212,0.00952
861.15194,0.00913
859.09177,0.00854
857.03160,0.00845
854.97143,0.00902
852.91126,0.00961
850.85108,0.00965
848.79091,0.00909
846.73074,0.00842
844.67057,0.00802
842.61040,0.00782
840.55022,0.00749
838.49005,0.00705
836.42988,0.00716
834.36971,0.00757
832.30954,0.00719
830.24936,0.00631
828.18919,0.00615
826.12902,0.00645
824.06885,0.00615
822.00867,0.00571
819.94850,0.00549
817.88833,0.00502
815.82816,0.00450
813.76799,0.00461
811.70781,0.00532
809.64764,0.00543
807.58747,0.00480
805.52730,0.00440
803.46713,0.00413
801.40695,0.00365
799.34678,0.00351
797.28661,0.00350
795.22644,0.00294
793.16627,0.00226
791.10609,0.00177
789.04592,0.00115
786.98575,0.00041
784.92558,0.00000
782.86540,0.00002
780.80523,0.00037
778.74506,0.00023
776.68489,-0.00012
774.62472,0.00108
772.56454,0.00249
770.50437,0.00191
768.44420,0.00109
766.38403,0.00215
764.32386,0.00326
762.26368,0.00264
760.20351,0.00216
758.14334,0.00303
756.08317,0.00368
754.02299,0.00319
751.96282,0.00233
749.90265,0.00187
747.84248,0.00217
745.78231,0.00294
743.72213,0.00333
741.66196,0.00314
739.60179,0.00317
737.54162,0.00302
735.48145,0.00165
733.42127,0.00000
731.36110,-0.00023
729.30093,0.00170
727.24076,0.00342
725.18059,0.00308
723.12041,0.00332
721.06024,0.00505
719.00007,0.00635
716.93990,0.00592
714.87972,0.00507
712.81955,0.00523
710.75938,0.00604
708.69921,0.00690
706.63904,0.00759
704.57886,0.00769
702.51869,0.00764
700.45852,0.00798
698.39835,0.00787
696.33818,0.00686
694.27800,0.00596
692.21783,0.00583
690.15766,0.00576
688.09749,0.00540
686.03731,0.00524
683.97714,0.00573
681.91697,0.00689
679.85680,0.00773
677.79663,0.00726
675.73645,0.00657
673.67628,0.00672
671.61611,0.00668
669.55594,0.00604
667.49577,0.00597
665.43559,0.00611
663.37542,0.00644
661.31525,0.00789
659.25508,0.00928
657.19491,0.00854
655.13473,0.00660
653.07456,0.00618
651.01439,0.00793
648.95422,0.00948
646.89404,0.00864
644.83387,0.00712
642.77370,0.00795
640.71353,0.01075
638.65336,0.01333
636.59318,0.01491
634.53301,0.01511
632.47284,0.01393
630.41267,0.01189
628.35250,0.00829
626.29232,0.00323
624.23215,0.00000
622.17198,0.00036
620.11181,0.00522
618.05164,0.00928
615.99146,0.00805
613.93129,0.00504
611.87112,0.00345
609.81095,0.00160
607.75077,-0.00142
605.69060,-0.00086
603.63043,0.00307
601.57026,0.00327
599.51009,0.00000
