3996.73391,-0.00007
3994.67373,0.00013
3992.61356,0.00019
3990.55339,0.00024
3988.49322,0.00027
3986.43305,0.00020
3984.37287,0.00022
3982.31270,0.00044
3980.25253,0.00063
3978.19236,0.00064
3976.13219,0.00067
3974.07201,0.00082
3972.01184,0.00073
3969.95167,0.00025
3967.89150,0.00000
3965.83133,0.00035
3963.77115,0.00086
3961.71098,0.00107
3959.65081,0.00100
3957.59064,0.00093
3955.53046,0.00093
3953.47029,0.00077
3951.41012,0.00059
3949.34995,0.00096
3947.28978,0.00162
3945.22960,0.00171
3943.16943,0.00119
3941.10926,0.00078
3939.04909,0.00086
3936.98892,0.00103
3934.92874,0.00101
3932.86857,0.00104
3930.80840,0.00131
3928.74823,0.00153
3926.68805,0.00158
3924.62788,0.00169
3922.56771,0.00189
3920.50754,0.00199
3918.44737,0.00180
3916.38719,0.00157
3914.32702,0.00155
3912.26685,0.00151
3910.20668,0.00149
3908.14651,0.00163
3906.08633,0.00174
3904.02616,0.00146
3901.96599,0.00067
3899.90582,0.00000
3897.84565,0.00018
3895.78547,0.00100
3893.72530,0.00160
3891.66513,0.00139
3889.60496,0.00083
3887.54478,0.00070
3885.48461,0.00116
3883.42444,0.00149
3881.36427,0.00121
3879.30410,0.00101
3877.24392,0.00130
3875.18375,0.00164
3873.12358,0.00190
3871.06341,0.00218
3869.00324,0.00211
3866.94306,0.00142
3864.88289,0.00053
3862.82272,0.00000
3860.76255,0.00022
3858.70237,0.00132
3856.64220,0.00288
3854.58203,0.00380
3852.52186,0.00327
3850.46169,0.00225
3848.40151,0.00174
3846.34134,0.00184
3844.28117,0.00237
3842.22100,0.00256
3840.16083,0.00217
3838.10065,0.00221
3836.04048,0.00268
3833.98031,0.00269
3831.92014,0.00242
3829.85997,0.00222
3827.79979,0.00197
3825.73962,0.00163
3823.67945,0.00145
3821.61928,0.00157
3819.55910,0.00159
3817.49893,0.00144
3815.43876,0.00145
3813.37859,0.00158
3811.31842,0.00164
3809.25824,0.00152
3807.19807,0.00140
3805.13790,0.00153
3803.07773,0.00162
3801.01756,0.00157
3798.95738,0.00166
3796.89721,0.00170
3794.83704,0.00139
3792.77687,0.00095
3790.71670,0.00065
3788.65652,0.00053
3786.59635,0.00060
3784.53618,0.00085
3782.47601,0.00104
3780.41583,0.00097
3778.35566,0.00090
3776.29549,0.00101
3774.23532,0.00121
3772.17515,0.00151
3770.11497,0.00173
3768.05480,0.00165
3765.99463,0.00146
3763.93446,0.00128
3761.87429,0.00113
3759.81411,0.00116
3757.75394,0.00129
3755.69377,0.00149
3753.63360,0.00201
3751.57342,0.00252
3749.51325,0.00232
3747.45308,0.00187
3745.39291,0.00162
3743.33274,0.00142
3741.27256,0.00121
3739.21239,0.00080
3737.15222,0.00038
3735.09205,0.00055
3733.03188,0.00120
3730.97170,0.00174
3728.91153,0.00211
3726.85136,0.00227
3724.79119,0.00211
3722.73102,0.00199
3720.67084,0.00191
3718.61067,0.00154
3716.55050,0.00117
3714.49033,0.00083
3712.43015,0.00027
3710.36998,0.00000
3708.30981,0.00028
3706.24964,0.00065
3704.18947,0.00086
3702.12929,0.00106
3700.06912,0.00141
3698.00895,0.00171
3695.94878,0.00184
3693.88861,0.00213
3691.82843,0.00257
3689.76826,0.00234
3687.70809,0.00140
3685.64792,0.00074
3683.58775,0.00059
3681.52757,0.00071
3679.46740,0.00092
3677.40723,0.00099
3675.34706,0.00092
3673.28688,0.00136
3671.22671,0.00222
3669.16654,0.00250
3667.10637,0.00219
3665.04620,0.00214
3662.98602,0.00215
3660.92585,0.00175
3658.86568,0.00136
3656.80551,0.00137
3654.74534,0.00126
3652.68516,0.00076
3650.62499,0.00065
3648.56482,0.00153
3646.50465,0.00245
3644.44447,0.00273
3642.38430,0.00254
3640.32413,0.00210
3638.26396,0.00181
3636.20379,0.00186
3634.14361,0.00190
3632.08344,0.00162
3630.02327,0.00142
3627.96310,0.00197
3625.90293,0.00283
3623.84275,0.00328
3621.78258,0.00328
3619.72241,0.00303
3617.66224,0.00287
3615.60207,0.00315
3613.54189,0.00365
3611.48172,0.00377
3609.42155,0.00354
3607.36138,0.00362
3605.30120,0.00403
3603.24103,0.00435
3601.18086,0.00443
3599.12069,0.00415
3597.06052,0.00361
3595.00034,0.00322
3592.94017,0.00315
3590.88000,0.00353
3588.81983,0.00438
3586.75966,0.00533
3584.69948,0.00585
3582.63931,0.00588
3580.57914,0.00571
3578.51897,0.00570
3576.45879,0.00604
3574.39862,0.00677
3572.33845,0.00748
3570.27828,0.00764
3568.21811,0.00728
3566.15793,0.00703
3564.09776,0.00729
3562.03759,0.00768
3559.97742,0.00799
3557.91725,0.00828
3555.85707,0.00859
3553.79690,0.00870
3551.73673,0.00851
3549.67656,0.00855
3547.61639,0.00933
3545.55621,0.01047
3543.49604,0.01115
3541.43587,0.01128
3539.37570,0.01131
3537.31552,0.01161
3535.25535,0.01204
3533.19518,0.01225
3531.13501,0.01223
3529.07484,0.01225
3527.01466,0.01259
3524.95449,0.01310
3522.89432,0.01348
3520.83415,0.01385
3518.77398,0.01437
3516.71380,0.01489
3514.65363,0.01530
3512.59346,0.01555
3510.53329,0.01576
3508.47312,0.01617
3506.41294,0.01665
3504.35277,0.01688
3502.29260,0.01681
3500.23243,0.01693
3498.17225,0.01738
3496.11208,0.01772
3494.05191,0.01797
3491.99174,0.01843
3489.93157,0.01895
3487.87139,0.01917
3485.81122,0.01921
3483.75105,0.01940
3481.69088,0.01978
3479.63071,0.02019
3477.57053,0.02058
3475.51036,0.02102
3473.45019,0.02150
3471.39002,0.02192
3469.32984,0.02208
3467.26967,0.02206
3465.20950,0.02218
3463.14933,0.02253
3461.08916,0.02305
3459.02898,0.02337
3456.96881,0.02318
3454.90864,0.02294
3452.84847,0.02338
3450.78830,0.02430
3448.72812,0.02490
3446.66795,0.02499
3444.60778,0.02506
3442.54761,0.02543
3440.48744,0.02594
3438.42726,0.02619
3436.36709,0.02644
3434.30692,0.02681
3432.24675,0.02678
3430.18657,0.02644
3428.12640,0.02641
3426.06623,0.02705
3424.00606,0.02814
3421.94589,0.02902
3419.88571,0.02926
3417.82554,0.02906
3415.76537,0.02904
3413.70520,0.02934
3411.64503,0.02977
3409.58485,0.03022
3407.52468,0.03059
3405.46451,0.03095
3403.40434,0.03134
3401.34416,0.03161
3399.28399,0.03180
3397.22382,0.03176
3395.16365,0.03164
3393.10348,0.03191
3391.04330,0.03237
3388.98313,0.03252
3386.92296,0.03256
3384.86279,0.03282
3382.80262,0.03312
3380.74244,0.03321
3378.68227,0.03298
3376.62210,0.03291
3374.56193,0.03351
3372.50176,0.03425
3370.44158,0.03475
3368.38141,0.03506
3366.32124,0.03517
3364.26107,0.03543
3362.20089,0.03579
3360.14072,0.03580
3358.08055,0.03535
3356.02038,0.03491
3353.96021,0.03519
3351.90003,0.03585
3349.83986,0.03630
3347.77969,0.03648
3345.71952,0.03623
3343.65935,0.03583
3341.59917,0.03585
3339.53900,0.03617
3337.47883,0.03639
3335.41866,0.03654
3333.35849,0.03673
3331.29831,0.03669
3329.23814,0.03629
3327.17797,0.03592
3325.11780,0.03608
3323.05762,0.03656
3320.99745,0.03686
3318.93728,0.03685
3316.87711,0.03695
3314.81694,0.03729
3312.75676,0.03758
3310.69659,0.03752
3308.63642,0.03706
3306.57625,0.03680
3304.51608,0.03705
3302.45590,0.03708
3300.39573,0.03676
3298.33556,0.03704
3296.27539,0.03786
3294.21521,0.03810
3292.15504,0.03789
3290.09487,0.03777
3288.03470,0.03743
3285.97453,0.03714
3283.91435,0.03736
3281.85418,0.03755
3279.79401,0.03747
3277.73384,0.03760
3275.67367,0.03807
3273.61349,0.03848
3271.55332,0.03844
3269.49315,0.03814
3267.43298,0.03790
3265.37281,0.03754
3263.31263,0.03711
3261.25246,0.03682
3259.19229,0.03665
3257.13212,0.03680
3255.07194,0.03715
3253.01177,0.03747
3250.95160,0.03773
3248.89143,0.03772
3246.83126,0.03746
3244.77108,0.03705
3242.71091,0.03648
3240.65074,0.03628
3238.59057,0.03663
3236.53040,0.03683
3234.47022,0.03661
3232.41005,0.03650
3230.34988,0.03654
3228.28971,0.03644
3226.22954,0.03634
3224.16936,0.03635
3222.10919,0.03625
3220.04902,0.03609
3217.98885,0.03595
3215.92867,0.03585
3213.86850,0.03568
3211.80833,0.03540
3209.74816,0.03514
3207.68799,0.03484
3205.62781,0.03459
3203.56764,0.03464
3201.50747,0.03485
3199.44730,0.03500
3197.38713,0.03511
3195.32695,0.03522
3193.26678,0.03517
3191.20661,0.03471
3189.14644,0.03427
3187.08626,0.03424
3185.02609,0.03431
3182.96592,0.03420
3180.90575,0.03403
3178.84558,0.03400
3176.78540,0.03407
3174.72523,0.03394
3172.66506,0.03371
3170.60489,0.03348
3168.54472,0.03287
3166.48454,0.03196
3164.42437,0.03143
3162.36420,0.03130
3160.30403,0.03119
3158.24386,0.03105
3156.18368,0.03089
3154.12351,0.03084
3152.06334,0.03090
3150.00317,0.03082
3147.94299,0.03046
3145.88282,0.02981
3143.82265,0.02919
3141.76248,0.02896
3139.70231,0.02897
3137.64213,0.02913
3135.58196,0.02929
3133.52179,0.02919
3131.46162,0.02892
3129.40145,0.02856
3127.34127,0.02809
3125.28110,0.02778
3123.22093,0.02765
3121.16076,0.02759
3119.10058,0.02766
3117.04041,0.02779
3114.98024,0.02776
3112.92007,0.02760
3110.85990,0.02735
3108.79972,0.02700
3106.73955,0.02682
3104.67938,0.02681
3102.61921,0.02649
3100.55904,0.02593
3098.49886,0.02576
3096.43869,0.02595
3094.37852,0.02596
3092.31835,0.02583
3090.25818,0.02566
3088.19800,0.02524
3086.13783,0.02472
3084.07766,0.02462
3082.01749,0.02486
3079.95731,0.02484
3077.89714,0.02443
3075.83697,0.02420
3073.77680,0.02410
3071.71663,0.02383
3069.65645,0.02350
3067.59628,0.02320
3065.53611,0.02294
3063.47594,0.02281
3061.41577,0.02285
3059.35559,0.02295
3057.29542,0.02287
3055.23525,0.02251
3053.17508,0.02220
3051.11491,0.02209
3049.05473,0.02198
3046.99456,0.02167
3044.93439,0.02124
3042.87422,0.02097
3040.81404,0.02091
3038.75387,0.02105
3036.69370,0.02119
3034.63353,0.02088
3032.57336,0.02036
3030.51318,0.02009
3028.45301,0.01984
3026.39284,0.01944
3024.33267,0.01910
3022.27250,0.01885
3020.21232,0.01885
3018.15215,0.01910
3016.09198,0.01917
3014.03181,0.01908
3011.97163,0.01920
3009.91146,0.01929
3007.85129,0.01908
3005.79112,0.01867
3003.73095,0.01811
3001.67077,0.01764
2999.61060,0.01764
2997.55043,0.01791
2995.49026,0.01795
2993.43009,0.01782
2991.36991,0.01772
2989.30974,0.01755
2987.24957,0.01740
2985.18940,0.01747
2983.12923,0.01777
2981.06905,0.01805
2979.00888,0.01819
2976.94871,0.01834
2974.88854,0.01864
2972.82836,0.01905
2970.76819,0.01936
2968.70802,0.01949
2966.64785,0.01987
2964.58768,0.02098
2962.52750,0.02245
2960.46733,0.02342
2958.40716,0.02406
2956.34699,0.02508
2954.28682,0.02632
2952.22664,0.02752
2950.16647,0.02895
2948.10630,0.03055
2946.04613,0.03206
2943.98596,0.03372
2941.92578,0.03557
2939.86561,0.03726
2937.80544,0.03871
2935.74527,0.04035
2933.68509,0.04224
2931.62492,0.04402
2929.56475,0.04559
2927.50458,0.04687
2925.44441,0.04785
2923.38423,0.04878
2921.32406,0.04976
2919.26389,0.05045
2917.20372,0.05049
2915.14355,0.04960
2913.08337,0.04797
2911.02320,0.04622
2908.96303,0.04448
2906.90286,0.04285
2904.84268,0.04147
2902.78251,0.04035
2900.72234,0.03955
2898.66217,0.03895
2896.60200,0.03820
2894.54182,0.03736
2892.48165,0.03664
2890.42148,0.03579
2888.36131,0.03464
2886.30114,0.03369
2884.24096,0.03327
2882.18079,0.03287
2880.12062,0.03234
2878.06045,0.03202
2876.00028,0.03204
2873.94010,0.03226
2871.87993,0.03250
2869.81976,0.03281
2867.75959,0.03317
2865.69941,0.03357
2863.63924,0.03432
2861.57907,0.03550
2859.51890,0.03682
2857.45873,0.03823
2855.39855,0.03960
2853.33838,0.04074
2851.27821,0.04159
2849.21804,0.04142
2847.15787,0.03969
2845.09769,0.03726
2843.03752,0.03487
2840.97735,0.03267
2838.91718,0.03100
2836.85700,0.02990
2834.79683,0.02905
2832.73666,0.02819
2830.67649,0.02729
2828.61632,0.02655
2826.55614,0.02598
2824.49597,0.02553
2822.43580,0.02520
2820.37563,0.02499
2818.31546,0.02470
2816.25528,0.02428
2814.19511,0.02374
2812.13494,0.02336
2810.07477,0.02328
2808.01460,0.02311
2805.95442,0.02278
2803.89425,0.02234
2801.83408,0.02192
2799.77391,0.02177
2797.71373,0.02174
2795.65356,0.02151
2793.59339,0.02121
2791.53322,0.02095
2789.47305,0.02078
2787.41287,0.02077
2785.35270,0.02080
2783.29253,0.02081
2781.23236,0.02057
2779.17219,0.02000
2777.11201,0.01961
2775.05184,0.01963
2772.99167,0.01972
2770.93150,0.01963
2768.87133,0.01937
2766.81115,0.01910
2764.75098,0.01875
2762.69081,0.01848
2760.63064,0.01854
2758.57046,0.01872
2756.51029,0.01889
2754.45012,0.01895
2752.38995,0.01873
2750.32978,0.01847
2748.26960,0.01856
2746.20943,0.01902
2744.14926,0.01939
2742.08909,0.01916
2740.02892,0.01861
2737.96874,0.01827
2735.90857,0.01812
2733.84840,0.01806
2731.78823,0.01793
2729.72805,0.01752
2727.66788,0.01728
2725.60771,0.01763
2723.54754,0.01800
2721.48737,0.01777
2719.42719,0.01742
2717.36702,0.01746
2715.30685,0.01759
2713.24668,0.01754
2711.18651,0.01764
2709.12633,0.01785
2707.06616,0.01776
2705.00599,0.01756
2702.94582,0.01762
2700.88565,0.01765
2698.82547,0.01753
2696.76530,0.01744
2694.70513,0.01734
2692.64496,0.01728
2690.58478,0.01728
2688.52461,0.01732
2686.46444,0.01740
2684.40427,0.01752
2682.34410,0.01755
2680.28392,0.01722
2678.22375,0.01674
2676.16358,0.01663
2674.10341,0.01674
2672.04324,0.01681
2669.98306,0.01686
2667.92289,0.01687
2665.86272,0.01684
2663.80255,0.01672
2661.74238,0.01653
2659.68220,0.01643
2657.62203,0.01645
2655.56186,0.01638
2653.50169,0.01624
2651.44151,0.01610
2649.38134,0.01595
2647.32117,0.01585
2645.26100,0.01578
2643.20083,0.01582
2641.14065,0.01599
2639.08048,0.01589
2637.02031,0.01552
2634.96014,0.01544
2632.89997,0.01566
2630.83979,0.01576
2628.77962,0.01572
2626.71945,0.01567
2624.65928,0.01545
2622.59910,0.01497
2620.53893,0.01451
2618.47876,0.01435
2616.41859,0.01464
2614.35842,0.01488
2612.29824,0.01471
2610.23807,0.01453
2608.17790,0.01426
2606.11773,0.01400
2604.05756,0.01411
2601.99738,0.01413
2599.93721,0.01391
2597.87704,0.01395
2595.81687,0.01436
2593.75670,0.01461
2591.69652,0.01425
2589.63635,0.01362
2587.57618,0.01333
2585.51601,0.01346
2583.45583,0.01358
2581.39566,0.01353
2579.33549,0.01376
2577.27532,0.01423
2575.21515,0.01428
2573.15497,0.01382
2571.09480,0.01323
2569.03463,0.01287
2566.97446,0.01299
2564.91429,0.01317
2562.85411,0.01309
2560.79394,0.01319
2558.73377,0.01350
2556.67360,0.01366
2554.61342,0.01372
2552.55325,0.01363
2550.49308,0.01316
2548.43291,0.01287
2546.37274,0.01303
2544.31256,0.01312
2542.25239,0.01292
2540.19222,0.01285
2538.13205,0.01318
2536.07188,0.01344
2534.01170,0.01295
2531.95153,0.01221
2529.89136,0.01232
2527.83119,0.01293
2525.77102,0.01295
2523.71084,0.01226
2521.65067,0.01196
2519.59050,0.01227
2517.53033,0.01222
2515.47015,0.01195
2513.40998,0.01193
2511.34981,0.01210
2509.28964,0.01200
2507.22947,0.01146
2505.16929,0.01100
2503.10912,0.01088
2501.04895,0.01083
2498.98878,0.01080
2496.92861,0.01100
2494.86843,0.01117
2492.80826,0.01120
2490.74809,0.01138
2488.68792,0.01157
2486.62775,0.01135
2484.56757,0.01092
2482.50740,0.01089
2480.44723,0.01117
2478.38706,0.01150
2476.32688,0.01179
2474.26671,0.01166
2472.20654,0.01115
2470.14637,0.01047
2468.08620,0.00992
2466.02602,0.01010
2463.96585,0.01076
2461.90568,0.01118
2459.84551,0.01136
2457.78534,0.01128
2455.72516,0.01101
2453.66499,0.01122
2451.60482,0.01158
2449.54465,0.01115
2447.48447,0.01038
2445.42430,0.01004
2443.36413,0.01015
2441.30396,0.01038
2439.24379,0.01051
2437.18361,0.01056
2435.12344,0.01068
2433.06327,0.01082
2431.00310,0.01058
2428.94293,0.01025
2426.88275,0.01030
2424.82258,0.01026
2422.76241,0.00989
2420.70224,0.00976
2418.64207,0.01000
2416.58189,0.01036
2414.52172,0.01054
2412.46155,0.01035
2410.40138,0.01005
2408.34120,0.00988
2406.28103,0.00989
2404.22086,0.01014
2402.16069,0.01025
2400.10052,0.01003
2398.04034,0.00964
2395.98017,0.00938
2393.92000,0.00928
2391.85983,0.00929
2389.79966,0.00937
2387.73948,0.00964
2385.67931,0.01014
2383.61914,0.01020
2381.55897,0.00948
2379.49880,0.00889
2377.43862,0.00888
2375.37845,0.00867
2373.31828,0.00813
2371.25811,0.00773
2369.19793,0.00785
2367.13776,0.00855
2365.07759,0.00822
2363.01742,0.00653
2360.95725,0.00778
2358.89707,0.01291
2356.83690,0.01555
2354.77673,0.01296
2352.71656,0.01005
2350.65639,0.00981
2348.59621,0.01032
2346.53604,0.00967
2344.47587,0.00836
2342.41570,0.00762
2340.35552,0.00689
2338.29535,0.00625
2336.23518,0.00636
2334.17501,0.00681
2332.11484,0.00776
2330.05466,0.00953
2327.99449,0.01111
2325.93432,0.01134
2323.87415,0.01017
2321.81398,0.00894
2319.75380,0.00867
2317.69363,0.00875
2315.63346,0.00868
2313.57329,0.00871
2311.51312,0.00879
2309.45294,0.00901
2307.39277,0.00956
2305.33260,0.00980
2303.27243,0.00967
2301.21225,0.00990
2299.15208,0.01026
2297.09191,0.01021
2295.03174,0.00989
2292.97157,0.00955
2290.91139,0.00931
2288.85122,0.00919
2286.79105,0.00877
2284.73088,0.00788
2282.67071,0.00741
2280.61053,0.00795
2278.55036,0.00860
2276.49019,0.00861
2274.43002,0.00827
2272.36984,0.00801
2270.30967,0.00798
2268.24950,0.00806
2266.18933,0.00814
2264.12916,0.00815
2262.06898,0.00758
2260.00881,0.00654
2257.94864,0.00610
2255.88847,0.00666
2253.82830,0.00768
2251.76812,0.00847
2249.70795,0.00865
2247.64778,0.00824
2245.58761,0.00730
2243.52744,0.00666
2241.46726,0.00707
2239.40709,0.00726
2237.34692,0.00623
2235.28675,0.00536
2233.22657,0.00559
2231.16640,0.00596
2229.10623,0.00642
2227.04606,0.00761
2224.98589,0.00865
2222.92571,0.00867
2220.86554,0.00816
2218.80537,0.00779
2216.74520,0.00765
2214.68503,0.00751
2212.62485,0.00649
2210.56468,0.00479
2208.50451,0.00481
2206.44434,0.00635
2204.38417,0.00660
2202.32399,0.00573
2200.26382,0.00525
2198.20365,0.00552
2196.14348,0.00591
2194.08330,0.00580
2192.02313,0.00617
2189.96296,0.00641
2187.90279,0.00542
2185.84262,0.00475
2183.78244,0.00469
2181.72227,0.00422
2179.66210,0.00440
2177.60193,0.00569
2175.54176,0.00597
2173.48158,0.00484
2171.42141,0.00485
2169.36124,0.00522
2167.30107,0.00376
2165.24089,0.00197
2163.18072,0.00073
2161.12055,0.00000
2159.06038,0.00075
2157.00021,0.00216
2154.94003,0.00282
2152.87986,0.00304
2150.81969,0.00378
2148.75952,0.00464
2146.69935,0.00448
2144.63917,0.00361
2142.57900,0.00242
2140.51883,0.00105
2138.45866,0.00085
2136.39849,0.00258
2134.33831,0.00492
2132.27814,0.00586
2130.21797,0.00544
2128.15780,0.00528
2126.09762,0.00589
2124.03745,0.00618
2121.97728,0.00563
2119.91711,0.00503
2117.85694,0.00524
2115.79676,0.00605
2113.73659,0.00657
2111.67642,0.00639
2109.61625,0.00605
2107.55608,0.00610
2105.49590,0.00605
2103.43573,0.00557
2101.37556,0.00520
2099.31539,0.00523
2097.25521,0.00490
2095.19504,0.00383
2093.13487,0.00337
2091.07470,0.00420
2089.01453,0.00504
2086.95435,0.00494
2084.89418,0.00446
2082.83401,0.00433
2080.77384,0.00486
2078.71367,0.00565
2076.65349,0.00622
2074.59332,0.00699
2072.53315,0.00716
2070.47298,0.00634
2068.41281,0.00596
2066.35263,0.00616
2064.29246,0.00628
2062.23229,0.00583
2060.17212,0.00487
2058.11194,0.00450
2056.05177,0.00483
2053.99160,0.00524
2051.93143,0.00583
2049.87126,0.00631
2047.81108,0.00617
2045.75091,0.00501
2043.69074,0.00344
2041.63057,0.00316
2039.57040,0.00381
2037.51022,0.00424
2035.45005,0.00348
2033.38988,0.00179
2031.32971,0.00137
2029.26954,0.00260
2027.20936,0.00364
2025.14919,0.00245
2023.08902,0.00050
2021.02885,0.00104
2018.96867,0.00295
2016.90850,0.00348
2014.84833,0.00244
2012.78816,0.00058
2010.72799,0.00000
2008.66781,0.00173
2006.60764,0.00258
2004.54747,0.00174
2002.48730,0.00153
2000.42713,0.00204
1998.36695,0.00307
1996.30678,0.00477
1994.24661,0.00590
1992.18644,0.00590
1990.12626,0.00493
1988.06609,0.00297
1986.00592,0.00184
1983.94575,0.00291
1981.88558,0.00449
1979.82540,0.00505
1977.76523,0.00453
1975.70506,0.00354
1973.64489,0.00293
1971.58472,0.00225
1969.52454,0.00123
1967.46437,0.00145
1965.40420,0.00323
1963.34403,0.00387
1961.28386,0.00238
1959.22368,0.00109
1957.16351,0.00108
1955.10334,0.00143
1953.04317,0.00208
1950.98299,0.00229
1948.92282,0.00148
1946.86265,0.00095
1944.80248,0.00146
1942.74231,0.00267
1940.68213,0.00376
1938.62196,0.00357
1936.56179,0.00251
1934.50162,0.00196
1932.44145,0.00190
1930.38127,0.00187
1928.32110,0.00221
1926.26093,0.00292
1924.20076,0.00335
1922.14059,0.00338
1920.08041,0.00338
1918.02024,0.00328
1915.96007,0.00285
1913.89990,0.00239
1911.83972,0.00201
1909.77955,0.00134
1907.71938,0.00069
1905.65921,0.00098
1903.59904,0.00206
1901.53886,0.00295
1899.47869,0.00335
1897.41852,0.00346
1895.35835,0.00317
1893.29818,0.00251
1891.23800,0.00222
1889.17783,0.00270
1887.11766,0.00327
1885.05749,0.00339
1882.99731,0.00325
1880.93714,0.00303
1878.87697,0.00274
1876.81680,0.00229
1874.75663,0.00199
1872.69645,0.00225
1870.63628,0.00264
1868.57611,0.00266
1866.51594,0.00262
1864.45577,0.00262
1862.39559,0.00255
1860.33542,0.00246
1858.27525,0.00244
1856.21508,0.00229
1854.15491,0.00187
1852.09473,0.00155
1850.03456,0.00171
1847.97439,0.00199
1845.91422,0.00182
1843.85404,0.00154
1841.79387,0.00165
1839.73370,0.00171
1837.67353,0.00150
1835.61336,0.00138
1833.55318,0.00150
1831.49301,0.00152
1829.43284,0.00133
1827.37267,0.00131
1825.31250,0.00173
1823.25232,0.00233
1821.19215,0.00241
1819.13198,0.00169
1817.07181,0.00081
1815.01163,0.00048
1812.95146,0.00068
1810.89129,0.00104
1808.83112,0.00128
1806.77095,0.00133
1804.71077,0.00143
1802.65060,0.00153
1800.59043,0.00140
1798.53026,0.00116
1796.47009,0.00105
1794.40991,0.00097
1792.34974,0.00075
1790.28957,0.00047
1788.22940,0.00032
1786.16923,0.00031
1784.10905,0.00047
1782.04888,0.00069
1779.98871,0.00067
1777.92854,0.00030
1775.86836,0.00000
1773.80819,0.00011
1771.74802,0.00060
1769.68785,0.00113
1767.62768,0.00135
1765.56750,0.00111
1763.50733,0.00076
1761.44716,0.00091
1759.38699,0.00174
1757.32682,0.00287
1755.26664,0.00388
1753.20647,0.00455
1751.14630,0.00488
1749.08613,0.00520
1747.02596,0.00618
1744.96578,0.00771
1742.90561,0.00917
1740.84544,0.01032
1738.78527,0.01118
1736.72509,0.01174
1734.66492,0.01200
1732.60475,0.01202
1730.54458,0.01218
1728.48441,0.01256
1726.42423,0.01291
1724.36406,0.01303
1722.30389,0.01283
1720.24372,0.01243
1718.18355,0.01212
1716.12337,0.01235
1714.06320,0.01311
1712.00303,0.01380
1709.94286,0.01398
1707.88268,0.01368
1705.82251,0.01342
1703.76234,0.01363
1701.70217,0.01403
1699.64200,0.01420
1697.58182,0.01412
1695.52165,0.01400
1693.46148,0.01396
1691.40131,0.01416
1689.34114,0.01479
1687.28096,0.01579
1685.22079,0.01735
1683.16062,0.01962
1681.10045,0.02153
1679.04028,0.02294
1676.98010,0.02438
1674.91993,0.02571
1672.85976,0.02635
1670.79959,0.02615
1668.73941,0.02559
1666.67924,0.02510
1664.61907,0.02464
1662.55890,0.02417
1660.49873,0.02371
1658.43855,0.02331
1656.37838,0.02298
1654.31821,0.02254
1652.25804,0.02212
1650.19787,0.02206
1648.13769,0.02198
1646.07752,0.02177
1644.01735,0.02180
1641.95718,0.02216
1639.89701,0.02257
1637.83683,0.02277
1635.77666,0.02303
1633.71649,0.02380
1631.65632,0.02474
1629.59614,0.02543
1627.53597,0.02578
1625.47580,0.02593
1623.41563,0.02611
1621.35546,0.02641
1619.29528,0.02678
1617.23511,0.02715
1615.17494,0.02755
1613.11477,0.02821
1611.05460,0.02933
1608.99442,0.03079
1606.93425,0.03215
1604.87408,0.03284
1602.81391,0.03249
1600.75373,0.03130
1598.69356,0.02988
1596.63339,0.02871
1594.57322,0.02780
1592.51305,0.02700
1590.45287,0.02630
1588.39270,0.02578
1586.33253,0.02529
1584.27236,0.02467
1582.21219,0.02396
1580.15201,0.02329
1578.09184,0.02271
1576.03167,0.02214
1573.97150,0.02151
1571.91133,0.02086
1569.85115,0.02023
1567.79098,0.01961
1565.73081,0.01890
1563.67064,0.01810
1561.61046,0.01739
1559.55029,0.01664
1557.49012,0.01571
1555.42995,0.01488
1553.36978,0.01418
1551.30960,0.01355
1549.24943,0.01294
1547.18926,0.01252
1545.12909,0.01214
1543.06892,0.01126
1541.00874,0.00990
1538.94857,0.00896
1536.88840,0.00870
1534.82823,0.00838
1532.76805,0.00780
1530.70788,0.00741
1528.64771,0.00721
1526.58754,0.00691
1524.52737,0.00668
1522.46719,0.00717
1520.40702,0.00869
1518.34685,0.01049
1516.28668,0.01185
1514.22651,0.01237
1512.16633,0.01201
1510.10616,0.01102
1508.04599,0.00947
1505.98582,0.00772
1503.92565,0.00664
1501.86547,0.00592
1499.80530,0.00500
1497.74513,0.00385
1495.68496,0.00283
1493.62478,0.00221
1491.56461,0.00185
1489.50444,0.00151
1487.44427,0.00123
1485.38410,0.00113
1483.32392,0.00117
1481.26375,0.00125
1479.20358,0.00145
1477.14341,0.00195
1475.08324,0.00307
1473.02306,0.00479
1470.96289,0.00645
1468.90272,0.00787
1466.84255,0.00953
1464.78238,0.01125
1462.72220,0.01229
1460.66203,0.01283
1458.60186,0.01366
1456.54169,0.01487
1454.48151,0.01574
1452.42134,0.01624
1450.36117,0.01662
1448.30100,0.01708
1446.24083,0.01778
1444.18065,0.01867
1442.12048,0.01955
1440.06031,0.02041
1438.00014,0.02125
1435.93997,0.02195
1433.87979,0.02236
1431.81962,0.02256
1429.75945,0.02269
1427.69928,0.02280
1425.63910,0.02289
1423.57893,0.02298
1421.51876,0.02299
1419.45859,0.02297
1417.39842,0.02310
1415.33824,0.02325
1413.27807,0.02315
1411.21790,0.02280
1409.15773,0.02243
1407.09756,0.02210
1405.03738,0.02163
1402.97721,0.02100
1400.91704,0.02033
1398.85687,0.01952
1396.79670,0.01858
1394.73652,0.01786
1392.67635,0.01747
1390.61618,0.01726
1388.55601,0.01729
1386.49583,0.01778
1384.43566,0.01856
1382.37549,0.01925
1380.31532,0.01979
1378.25515,0.02026
1376.19497,0.02073
1374.13480,0.02122
1372.07463,0.02159
1370.01446,0.02172
1367.95429,0.02164
1365.89411,0.02134
1363.83394,0.02085
1361.77377,0.02031
1359.71360,0.01991
1357.65343,0.01963
1355.59325,0.01944
1353.53308,0.01934
1351.47291,0.01923
1349.41274,0.01907
1347.35256,0.01900
1345.29239,0.01907
1343.23222,0.01919
1341.17205,0.01925
1339.11188,0.01908
1337.05170,0.01885
1334.99153,0.01885
1332.93136,0.01904
1330.87119,0.01921
1328.81102,0.01936
1326.75084,0.01960
1324.69067,0.01999
1322.63050,0.02027
1320.57033,0.02010
1318.51015,0.01957
1316.44998,0.01914
1314.38981,0.01907
1312.32964,0.01912
1310.26947,0.01893
1308.20929,0.01842
1306.14912,0.01777
1304.08895,0.01721
1302.02878,0.01676
1299.96861,0.01629
1297.90843,0.01583
1295.84826,0.01544
1293.78809,0.01517
1291.72792,0.01524
1289.66775,0.01573
1287.60757,0.01620
1285.54740,0.01633
1283.48723,0.01626
1281.42706,0.01628
1279.36688,0.01655
1277.30671,0.01687
1275.24654,0.01702
1273.18637,0.01708
1271.12620,0.01722
1269.06602,0.01754
1267.00585,0.01811
1264.94568,0.01879
1262.88551,0.01937
1260.82534,0.01991
1258.76516,0.02069
1256.70499,0.02141
1254.64482,0.02180
1252.58465,0.02224
1250.52447,0.02280
1248.46430,0.02327
1246.40413,0.02352
1244.34396,0.02351
1242.28379,0.02353
1240.22361,0.02374
1238.16344,0.02396
1236.10327,0.02395
1234.04310,0.02352
1231.98293,0.02283
1229.92275,0.02221
1227.86258,0.02157
1225.80241,0.02071
1223.74224,0.01972
1221.68207,0.01868
1219.62189,0.01763
1217.56172,0.01666
1215.50155,0.01561
1213.44138,0.01428
1211.38120,0.01285
1209.32103,0.01146
1207.26086,0.01033
1205.20069,0.00953
1203.14052,0.00861
1201.08034,0.00724
1199.02017,0.00573
1196.96000,0.00437
1194.89983,0.00315
1192.83966,0.00199
1190.77948,0.00095
1188.71931,0.00025
1186.65914,0.00000
1184.59897,-0.00012
1182.53880,-0.00024
1180.47862,-0.00020
1178.41845,0.00028
1176.35828,0.00131
1174.29811,0.00280
1172.23793,0.00463
1170.17776,0.00663
1168.11759,0.00833
1166.05742,0.00922
1163.99725,0.00951
1161.93707,0.00979
1159.87690,0.01014
1157.81673,0.01069
1155.75656,0.01142
1153.69639,0.01212
1151.63621,0.01284
1149.57604,0.01354
1147.51587,0.01434
1145.45570,0.01539
1143.39552,0.01646
1141.33535,0.01737
1139.27518,0.01813
1137.21501,0.01877
1135.15484,0.01935
1133.09466,0.01993
1131.03449,0.02062
1128.97432,0.02163
1126.91415,0.02278
1124.85398,0.02380
1122.79380,0.02479
1120.73363,0.02586
1118.67346,0.02694
1116.61329,0.02806
1114.55312,0.02922
1112.49294,0.03043
1110.43277,0.03149
1108.37260,0.03230
1106.31243,0.03315
1104.25225,0.03427
1102.19208,0.03549
1100.13191,0.03665
1098.07174,0.03801
1096.01157,0.03973
1093.95139,0.04154
1091.89122,0.04348
1089.83105,0.04554
1087.77088,0.04746
1085.71071,0.04926
1083.65053,0.05097
1081.59036,0.05261
1079.53019,0.05441
1077.47002,0.05644
1075.40985,0.05854
1073.34967,0.06079
1071.28950,0.06310
1069.22933,0.06499
1067.16916,0.06628
1065.10898,0.06730
1063.04881,0.06852
1060.98864,0.06987
1058.92847,0.07109
1056.86830,0.07238
1054.80812,0.07407
1052.74795,0.07622
1050.68778,0.07844
1048.62761,0.08056
1046.56744,0.08288
1044.50726,0.08524
1042.44709,0.08731
1040.38692,0.08926
1038.32675,0.09133
1036.26657,0.09308
1034.20640,0.09415
1032.14623,0.09473
1030.08606,0.09495
1028.02589,0.09486
1025.96571,0.09445
1023.90554,0.09372
1021.84537,0.09298
1019.78520,0.09276
1017.72503,0.09288
1015.66485,0.09291
1013.60468,0.09292
1011.54451,0.09303
1009.48434,0.09345
1007.42417,0.09385
1005.36399,0.09366
1003.30382,0.09324
1001.24365,0.09293
999.18348,0.09212
997.12330,0.09089
995.06313,0.08985
993.00296,0.08857
990.94279,0.08689
988.88262,0.08518
986.82244,0.08357
984.76227,0.08233
982.70210,0.08124
980.64193,0.08006
978.58176,0.07872
976.52158,0.07702
974.46141,0.07521
972.40124,0.07377
970.34107,0.07257
968.28089,0.07125
966.22072,0.06976
964.16055,0.06822
962.10038,0.06670
960.04021,0.06547
957.98003,0.06451
955.91986,0.06336
953.85969,0.06189
951.79952,0.06035
949.73935,0.05899
947.67917,0.05780
945.61900,0.05660
943.55883,0.05513
941.49866,0.05321
939.43849,0.05081
937.37831,0.04770
935.31814,0.04424
933.25797,0.04155
931.19780,0.03963
929.13762,0.03736
927.07745,0.03468
925.01728,0.03248
922.95711,0.03095
920.89694,0.02959
918.83676,0.02817
916.77659,0.02671
914.71642,0.02528
912.65625,0.02394
910.59608,0.02255
908.53590,0.02113
906.47573,0.02008
904.41556,0.01926
902.35539,0.01863
900.29522,0.01857
898.23504,0.01863
896.17487,0.01835
894.11470,0.01812
892.05453,0.01793
889.99435,0.01732
887.93418,0.01668
885.87401,0.01634
883.81384,0.01581
881.75367,0.01491
879.69349,0.01379
877.63332,0.01272
875.57315,0.01212
873.51298,0.01188
871.45281,0.01147
869.39263,0.01092
867.33246,0.01055
865.27229,0.01023
863.21212,0.00969
861.15194,0.00929
859.09177,0.00923
857.03160,0.00920
854.97143,0.00921
852.91126,0.00915
850.85108,0.00898
848.79091,0.00903
846.73074,0.00929
844.67057,0.00930
842.61040,0.00887
840.55022,0.00805
838.49005,0.00726
836.42988,0.00697
834.36971,0.00717
832.30954,0.00741
830.24936,0.00706
828.18919,0.00659
826.12902,0.00647
824.06885,0.00604
822.00867,0.00546
819.94850,0.00502
817.88833,0.00455
815.82816,0.00431
813.76799,0.00446
811.70781,0.00476
809.64764,0.00478
807.58747,0.00434
805.52730,0.00391
803.46713,0.00352
801.40695,0.00285
799.34678,0.00256
797.28661,0.00269
795.22644,0.00251
793.16627,0.00208
791.10609,0.00178
789.04592,0.00150
786.98575,0.00101
784.92558,0.00061
782.86540,0.00026
780.80523,0.00015
778.74506,0.00058
776.68489,0.00124
774.62472,0.00192
772.56454,0.00183
770.50437,0.00093
768.44420,0.00073
766.38403,0.00179
764.32386,0.00247
762.26368,0.00161
760.20351,0.00083
758.14334,0.00141
756.08317,0.00223
754.02299,0.00223
751.96282,0.00163
749.90265,0.00128
747.84248,0.00146
745.78231,0.00129
743.72213,0.00047
741.66196,0.00000
739.60179,0.00043
737.54162,0.00141
735.48145,0.00134
733.42127,-0.00005
731.36110,-0.00135
729.30093,-0.00085
727.24076,0.00123
725.18059,0.00236
723.12041,0.00218
721.06024,0.00239
719.00007,0.00304
716.93990,0.00283
714.87972,0.00225
712.81955,0.00259
710.75938,0.00314
708.69921,0.00308
706.63904,0.00321
704.57886,0.00377
702.51869,0.00399
700.45852,0.00379
698.39835,0.00376
696.33818,0.00362
694.27800,0.00314
692.21783,0.00299
690.15766,0.00300
688.09749,0.00241
686.03731,0.00172
683.97714,0.00190
681.91697,0.00283
679.85680,0.00321
677.79663,0.00221
675.73645,0.00134
673.67628,0.00166
671.61611,0.00179
669.55594,0.00088
667.49577,0.00051
665.43559,0.00140
663.37542,0.00277
661.31525,0.00452
659.25508,0.00562
657.19491,0.00473
655.13473,0.00313
653.07456,0.00281
651.01439,0.00333
648.95422,0.00292
646.89404,0.00131
644.83387,0.00000
642.77370,0.00040
640.71353,0.00299
638.65336,0.00662
636.59318,0.00893
634.53301,0.00854
632.47284,0.00689
630.41267,0.00562
628.35250,0.00441
626.29232,0.00209
624.23215,-0.00242
622.17198,-0.00640
620.11181,-0.00465
618.05164,-0.00056
615.99146,0.00051
613.93129,0.00066
611.87112,0.00084
609.81095,-0.00071
607.75077,-0.00283
605.69060,-0.00328
603.63043,-0.00123
601.57026,0.00084
599.51009,0.00000
