3996.73391,-0.00003
3994.67373,0.00005
3992.61356,0.00024
3990.55339,0.00054
3988.49322,0.00088
3986.43305,0.00116
3984.37287,0.00131
3982.31270,0.00128
3980.25253,0.00110
3978.19236,0.00087
3976.13219,0.00061
3974.07201,0.00031
3972.01184,0.00006
3969.95167,0.00000
3967.89150,0.00012
3965.83133,0.00025
3963.77115,0.00025
3961.71098,0.00020
3959.65081,0.00030
3957.59064,0.00061
3955.53046,0.00099
3953.47029,0.00121
3951.41012,0.00122
3949.34995,0.00112
3947.28978,0.00104
3945.22960,0.00103
3943.16943,0.00106
3941.10926,0.00106
3939.04909,0.00107
3936.98892,0.00114
3934.92874,0.00127
3932.86857,0.00138
3930.80840,0.00134
3928.74823,0.00108
3926.68805,0.00073
3924.62788,0.00048
3922.56771,0.00040
3920.50754,0.00044
3918.44737,0.00050
3916.38719,0.00052
3914.32702,0.00048
3912.26685,0.00040
3910.20668,0.00026
3908.14651,0.00010
3906.08633,0.00000
3904.02616,0.00008
3901.96599,0.00035
3899.90582,0.00065
3897.84565,0.00078
3895.78547,0.00071
3893.72530,0.00054
3891.66513,0.00046
3889.60496,0.00061
3887.54478,0.00098
3885.48461,0.00146
3883.42444,0.00189
3881.36427,0.00210
3879.30410,0.00202
3877.24392,0.00177
3875.18375,0.00156
3873.12358,0.00151
3871.06341,0.00151
3869.00324,0.00144
3866.94306,0.00130
3864.88289,0.00118
3862.82272,0.00113
3860.76255,0.00105
3858.70237,0.00082
3856.64220,0.00052
3854.58203,0.00044
3852.52186,0.00075
3850.46169,0.00119
3848.40151,0.00137
3846.34134,0.00124
3844.28117,0.00102
3842.22100,0.00092
3840.16083,0.00104
3838.10065,0.00129
3836.04048,0.00146
3833.98031,0.00144
3831.92014,0.00134
3829.85997,0.00134
3827.79979,0.00138
3825.73962,0.00132
3823.67945,0.00115
3821.61928,0.00100
3819.55910,0.00099
3817.49893,0.00107
3815.43876,0.00118
3813.37859,0.00127
3811.31842,0.00131
3809.25824,0.00126
3807.19807,0.00123
3805.13790,0.00131
3803.07773,0.00150
3801.01756,0.00167
3798.95738,0.00159
3796.89721,0.00126
3794.83704,0.00087
3792.77687,0.00059
3790.71670,0.00045
3788.65652,0.00046
3786.59635,0.00065
3784.53618,0.00100
3782.47601,0.00139
3780.41583,0.00170
3778.35566,0.00192
3776.29549,0.00198
3774.23532,0.00184
3772.17515,0.00158
3770.11497,0.00136
3768.05480,0.00130
3765.99463,0.00140
3763.93446,0.00152
3761.87429,0.00156
3759.81411,0.00150
3757.75394,0.00141
3755.69377,0.00139
3753.63360,0.00145
3751.57342,0.00149
3749.51325,0.00147
3747.45308,0.00146
3745.39291,0.00144
3743.33274,0.00131
3741.27256,0.00097
3739.21239,0.00051
3737.15222,0.00020
3735.09205,0.00023
3733.03188,0.00056
3730.97170,0.00090
3728.91153,0.00111
3726.85136,0.00125
3724.79119,0.00143
3722.73102,0.00160
3720.67084,0.00165
3718.61067,0.00163
3716.55050,0.00158
3714.49033,0.00145
3712.43015,0.00130
3710.36998,0.00124
3708.30981,0.00126
3706.24964,0.00124
3704.18947,0.00114
3702.12929,0.00106
3700.06912,0.00106
3698.00895,0.00108
3695.94878,0.00104
3693.88861,0.00099
3691.82843,0.00106
3689.76826,0.00127
3687.70809,0.00153
3685.64792,0.00167
3683.58775,0.00157
3681.52757,0.00129
3679.46740,0.00096
3677.40723,0.00079
3675.34706,0.00079
3673.28688,0.00072
3671.22671,0.00041
3669.16654,0.00011
3667.10637,0.00006
3665.04620,0.00030
3662.98602,0.00073
3660.92585,0.00124
3658.86568,0.00163
3656.80551,0.00175
3654.74534,0.00163
3652.68516,0.00141
3650.62499,0.00125
3648.56482,0.00127
3646.50465,0.00134
3644.44447,0.00133
3642.38430,0.00124
3640.32413,0.00111
3638.26396,0.00105
3636.20379,0.00120
3634.14361,0.00149
3632.08344,0.00176
3630.02327,0.00193
3627.96310,0.00203
3625.90293,0.00205
3623.84275,0.00198
3621.78258,0.00188
3619.72241,0.00169
3617.66224,0.00132
3615.60207,0.00085
3613.54189,0.00053
3611.48172,0.00055
3609.42155,0.00093
3607.36138,0.00151
3605.30120,0.00209
3603.24103,0.00242
3601.18086,0.00235
3599.12069,0.00200
3597.06052,0.00169
3595.00034,0.00159
3592.94017,0.00163
3590.88000,0.00178
3588.81983,0.00202
3586.75966,0.00219
3584.69948,0.00211
3582.63931,0.00177
3580.57914,0.00139
3578.51897,0.00121
3576.45879,0.00123
3574.39862,0.00139
3572.33845,0.00158
3570.27828,0.00182
3568.21811,0.00210
3566.15793,0.00239
3564.09776,0.00258
3562.03759,0.00270
3559.97742,0.00280
3557.91725,0.00290
3555.85707,0.00293
3553.79690,0.00284
3551.73673,0.00262
3549.67656,0.00234
3547.61639,0.00214
3545.55621,0.00214
3543.49604,0.00242
3541.43587,0.00289
3539.37570,0.00335
3537.31552,0.00362
3535.25535,0.00364
3533.19518,0.00345
3531.13501,0.00320
3529.07484,0.00306
3527.01466,0.00311
3524.95449,0.00330
3522.89432,0.00346
3520.83415,0.00350
3518.77398,0.00346
3516.71380,0.00336
3514.65363,0.00327
3512.59346,0.00324
3510.53329,0.00325
3508.47312,0.00326
3506.41294,0.00332
3504.35277,0.00345
3502.29260,0.00363
3500.23243,0.00380
3498.17225,0.00393
3496.11208,0.00403
3494.05191,0.00408
3491.99174,0.00403
3489.93157,0.00401
3487.87139,0.00413
3485.81122,0.00430
3483.75105,0.00440
3481.69088,0.00447
3479.63071,0.00463
3477.57053,0.00486
3475.51036,0.00506
3473.45019,0.00507
3471.39002,0.00484
3469.32984,0.00447
3467.26967,0.00409
3465.20950,0.00376
3463.14933,0.00363
3461.08916,0.00379
3459.02898,0.00417
3456.96881,0.00464
3454.90864,0.00506
3452.84847,0.00531
3450.78830,0.00537
3448.72812,0.00529
3446.66795,0.00518
3444.60778,0.00506
3442.54761,0.00498
3440.48744,0.00500
3438.42726,0.00509
3436.36709,0.00518
3434.30692,0.00520
3432.24675,0.00516
3430.18657,0.00516
3428.12640,0.00526
3426.06623,0.00539
3424.00606,0.00551
3421.94589,0.00558
3419.88571,0.00554
3417.82554,0.00534
3415.76537,0.00509
3413.70520,0.00495
3411.64503,0.00498
3409.58485,0.00509
3407.52468,0.00519
3405.46451,0.00521
3403.40434,0.00516
3401.34416,0.00510
3399.28399,0.00513
3397.22382,0.00528
3395.16365,0.00550
3393.10348,0.00568
3391.04330,0.00571
3388.98313,0.00568
3386.92296,0.00576
3384.86279,0.00599
3382.80262,0.00620
3380.74244,0.00624
3378.68227,0.00609
3376.62210,0.00587
3374.56193,0.00567
3372.50176,0.00556
3370.44158,0.00553
3368.38141,0.00553
3366.32124,0.00549
3364.26107,0.00544
3362.20089,0.00537
3360.14072,0.00531
3358.08055,0.00527
3356.02038,0.00532
3353.96021,0.00547
3351.90003,0.00571
3349.83986,0.00597
3347.77969,0.00619
3345.71952,0.00634
3343.65935,0.00640
3341.59917,0.00637
3339.53900,0.00629
3337.47883,0.00617
3335.41866,0.00604
3333.35849,0.00594
3331.29831,0.00590
3329.23814,0.00593
3327.17797,0.00602
3325.11780,0.00617
3323.05762,0.00632
3320.99745,0.00632
3318.93728,0.00616
3316.87711,0.00599
3314.81694,0.00593
3312.75676,0.00593
3310.69659,0.00593
3308.63642,0.00591
3306.57625,0.00587
3304.51608,0.00579
3302.45590,0.00570
3300.39573,0.00572
3298.33556,0.00590
3296.27539,0.00615
3294.21521,0.00633
3292.15504,0.00632
3290.09487,0.00617
3288.03470,0.00601
3285.97453,0.00597
3283.91435,0.00606
3281.85418,0.00616
3279.79401,0.00618
3277.73384,0.00619
3275.67367,0.00631
3273.61349,0.00650
3271.55332,0.00663
3269.49315,0.00660
3267.43298,0.00643
3265.37281,0.00627
3263.31263,0.00623
3261.25246,0.00627
3259.19229,0.00628
3257.13212,0.00620
3255.07194,0.00605
3253.01177,0.00588
3250.95160,0.00579
3248.89143,0.00585
3246.83126,0.00601
3244.77108,0.00618
3242.71091,0.00633
3240.65074,0.00644
3238.59057,0.00643
3236.53040,0.00623
3234.47022,0.00583
3232.41005,0.00539
3230.34988,0.00511
3228.28971,0.00509
3226.22954,0.00528
3224.16936,0.00551
3222.10919,0.00566
3220.04902,0.00579
3217.98885,0.00596
3215.92867,0.00618
3213.86850,0.00638
3211.80833,0.00649
3209.74816,0.00643
3207.68799,0.00618
3205.62781,0.00588
3203.56764,0.00567
3201.50747,0.00558
3199.44730,0.00553
3197.38713,0.00548
3195.32695,0.00544
3193.26678,0.00546
3191.20661,0.00549
3189.14644,0.00547
3187.08626,0.00534
3185.02609,0.00518
3182.96592,0.00517
3180.90575,0.00537
3178.84558,0.00561
3176.78540,0.00566
3174.72523,0.00547
3172.66506,0.00524
3170.60489,0.00514
3168.54472,0.00514
3166.48454,0.00505
3164.42437,0.00483
3162.36420,0.00460
3160.30403,0.00449
3158.24386,0.00451
3156.18368,0.00459
3154.12351,0.00470
3152.06334,0.00487
3150.00317,0.00508
3147.94299,0.00526
3145.88282,0.00542
3143.82265,0.00556
3141.76248,0.00562
3139.70231,0.00550
3137.64213,0.00519
3135.58196,0.00482
3133.52179,0.00450
3131.46162,0.00434
3129.40145,0.00440
3127.34127,0.00457
3125.28110,0.00468
3123.22093,0.00467
3121.16076,0.00462
3119.10058,0.00460
3117.04041,0.00456
3114.98024,0.00444
3112.92007,0.00428
3110.85990,0.00417
3108.79972,0.00421
3106.73955,0.00436
3104.67938,0.00455
3102.61921,0.00469
3100.55904,0.00478
3098.49886,0.00485
3096.43869,0.00487
3094.37852,0.00480
3092.31835,0.00463
3090.25818,0.00442
3088.19800,0.00428
3086.13783,0.00430
3084.07766,0.00444
3082.01749,0.00458
3079.95731,0.00463
3077.89714,0.00456
3075.83697,0.00443
3073.77680,0.00427
3071.71663,0.00410
3069.65645,0.00391
3067.59628,0.00375
3065.53611,0.00372
3063.47594,0.00386
3061.41577,0.00405
3059.35559,0.00416
3057.29542,0.00419
3055.23525,0.00423
3053.17508,0.00432
3051.11491,0.00437
3049.05473,0.00434
3046.99456,0.00427
3044.93439,0.00422
3042.87422,0.00421
3040.81404,0.00423
3038.75387,0.00427
3036.69370,0.00426
3034.63353,0.00412
3032.57336,0.00386
3030.51318,0.00361
3028.45301,0.00350
3026.39284,0.00356
3024.33267,0.00374
3022.27250,0.00391
3020.21232,0.00400
3018.15215,0.00401
3016.09198,0.00399
3014.03181,0.00395
3011.97163,0.00392
3009.91146,0.00391
3007.85129,0.00390
3005.79112,0.00389
3003.73095,0.00387
3001.67077,0.00376
2999.61060,0.00357
2997.55043,0.00338
2995.49026,0.00334
2993.43009,0.00348
2991.36991,0.00371
2989.30974,0.00395
2987.24957,0.00413
2985.18940,0.00421
2983.12923,0.00422
2981.06905,0.00439
2979.00888,0.00460
2976.94871,0.00446
2974.88854,0.00415
2972.82836,0.00404
2970.76819,0.00405
2968.70802,0.00388
2966.64785,0.00353
2964.58768,0.00327
2962.52750,0.00328
2960.46733,0.00350
2958.40716,0.00384
2956.34699,0.00419
2954.28682,0.00443
2952.22664,0.00452
2950.16647,0.00456
2948.10630,0.00461
2946.04613,0.00473
2943.98596,0.00492
2941.92578,0.00512
2939.86561,0.00519
2937.80544,0.00507
2935.74527,0.00486
2933.68509,0.00477
2931.62492,0.00481
2929.56475,0.00488
2927.50458,0.00487
2925.44441,0.00487
2923.38423,0.00494
2921.32406,0.00508
2919.26389,0.00525
2917.20372,0.00543
2915.14355,0.00544
2913.08337,0.00511
2911.02320,0.00462
2908.96303,0.00432
2906.90286,0.00428
2904.84268,0.00441
2902.78251,0.00463
2900.72234,0.00482
2898.66217,0.00486
2896.60200,0.00477
2894.54182,0.00463
2892.48165,0.00448
2890.42148,0.00436
2888.36131,0.00435
2886.30114,0.00447
2884.24096,0.00463
2882.18079,0.00470
2880.12062,0.00464
2878.06045,0.00443
2876.00028,0.00420
2873.94010,0.00412
2871.87993,0.00415
2869.81976,0.00422
2867.75959,0.00431
2865.69941,0.00440
2863.63924,0.00445
2861.57907,0.00441
2859.51890,0.00429
2857.45873,0.00422
2855.39855,0.00425
2853.33838,0.00431
2851.27821,0.00431
2849.21804,0.00432
2847.15787,0.00436
2845.09769,0.00433
2843.03752,0.00423
2840.97735,0.00424
2838.91718,0.00435
2836.85700,0.00432
2834.79683,0.00402
2832.73666,0.00362
2830.67649,0.00334
2828.61632,0.00330
2826.55614,0.00348
2824.49597,0.00366
2822.43580,0.00374
2820.37563,0.00381
2818.31546,0.00399
2816.25528,0.00422
2814.19511,0.00438
2812.13494,0.00438
2810.07477,0.00434
2808.01460,0.00438
2805.95442,0.00438
2803.89425,0.00418
2801.83408,0.00392
2799.77391,0.00378
2797.71373,0.00366
2795.65356,0.00365
2793.59339,0.00384
2791.53322,0.00402
2789.47305,0.00401
2787.41287,0.00391
2785.35270,0.00380
2783.29253,0.00359
2781.23236,0.00334
2779.17219,0.00326
2777.11201,0.00338
2775.05184,0.00355
2772.99167,0.00353
2770.93150,0.00332
2768.87133,0.00316
2766.81115,0.00316
2764.75098,0.00326
2762.69081,0.00340
2760.63064,0.00361
2758.57046,0.00378
2756.51029,0.00372
2754.45012,0.00356
2752.38995,0.00356
2750.32978,0.00377
2748.26960,0.00401
2746.20943,0.00410
2744.14926,0.00398
2742.08909,0.00379
2740.02892,0.00379
2737.96874,0.00405
2735.90857,0.00425
2733.84840,0.00417
2731.78823,0.00381
2729.72805,0.00339
2727.66788,0.00324
2725.60771,0.00343
2723.54754,0.00370
2721.48737,0.00386
2719.42719,0.00397
2717.36702,0.00409
2715.30685,0.00407
2713.24668,0.00390
2711.18651,0.00379
2709.12633,0.00372
2707.06616,0.00362
2705.00599,0.00353
2702.94582,0.00356
2700.88565,0.00371
2698.82547,0.00383
2696.76530,0.00385
2694.70513,0.00387
2692.64496,0.00397
2690.58478,0.00412
2688.52461,0.00425
2686.46444,0.00424
2684.40427,0.00400
2682.34410,0.00371
2680.28392,0.00362
2678.22375,0.00369
2676.16358,0.00370
2674.10341,0.00364
2672.04324,0.00373
2669.98306,0.00394
2667.92289,0.00405
2665.86272,0.00406
2663.80255,0.00407
2661.74238,0.00411
2659.68220,0.00423
2657.62203,0.00442
2655.56186,0.00438
2653.50169,0.00403
2651.44151,0.00386
2649.38134,0.00406
2647.32117,0.00426
2645.26100,0.00428
2643.20083,0.00431
2641.14065,0.00432
2639.08048,0.00421
2637.02031,0.00399
2634.96014,0.00378
2632.89997,0.00385
2630.83979,0.00428
2628.77962,0.00467
2626.71945,0.00462
2624.65928,0.00431
2622.59910,0.00419
2620.53893,0.00423
2618.47876,0.00411
2616.41859,0.00388
2614.35842,0.00376
2612.29824,0.00382
2610.23807,0.00397
2608.17790,0.00403
2606.11773,0.00397
2604.05756,0.00387
2601.99738,0.00372
2599.93721,0.00344
2597.87704,0.00318
2595.81687,0.00313
2593.75670,0.00325
2591.69652,0.00342
2589.63635,0.00366
2587.57618,0.00395
2585.51601,0.00413
2583.45583,0.00409
2581.39566,0.00386
2579.33549,0.00361
2577.27532,0.00346
2575.21515,0.00338
2573.15497,0.00331
2571.09480,0.00316
2569.03463,0.00289
2566.97446,0.00281
2564.91429,0.00325
2562.85411,0.00392
2560.79394,0.00434
2558.73377,0.00431
2556.67360,0.00392
2554.61342,0.00347
2552.55325,0.00327
2550.49308,0.00328
2548.43291,0.00337
2546.37274,0.00351
2544.31256,0.00351
2542.25239,0.00329
2540.19222,0.00313
2538.13205,0.00320
2536.07188,0.00347
2534.01170,0.00380
2531.95153,0.00397
2529.89136,0.00388
2527.83119,0.00356
2525.77102,0.00315
2523.71084,0.00289
2521.65067,0.00283
2519.59050,0.00286
2517.53033,0.00288
2515.47015,0.00290
2513.40998,0.00293
2511.34981,0.00287
2509.28964,0.00280
2507.22947,0.00308
2505.16929,0.00359
2503.10912,0.00364
2501.04895,0.00308
2498.98878,0.00245
2496.92861,0.00235
2494.86843,0.00299
2492.80826,0.00393
2490.74809,0.00448
2488.68792,0.00453
2486.62775,0.00452
2484.56757,0.00454
2482.50740,0.00441
2480.44723,0.00412
2478.38706,0.00378
2476.32688,0.00345
2474.26671,0.00332
2472.20654,0.00332
2470.14637,0.00322
2468.08620,0.00309
2466.02602,0.00306
2463.96585,0.00315
2461.90568,0.00327
2459.84551,0.00332
2457.78534,0.00340
2455.72516,0.00359
2453.66499,0.00361
2451.60482,0.00329
2449.54465,0.00300
2447.48447,0.00326
2445.42430,0.00385
2443.36413,0.00413
2441.30396,0.00383
2439.24379,0.00322
2437.18361,0.00274
2435.12344,0.00258
2433.06327,0.00246
2431.00310,0.00230
2428.94293,0.00242
2426.88275,0.00291
2424.82258,0.00348
2422.76241,0.00376
2420.70224,0.00363
2418.64207,0.00343
2416.58189,0.00351
2414.52172,0.00376
2412.46155,0.00390
2410.40138,0.00381
2408.34120,0.00359
2406.28103,0.00350
2404.22086,0.00360
2402.16069,0.00367
2400.10052,0.00370
2398.04034,0.00382
2395.98017,0.00387
2393.92000,0.00370
2391.85983,0.00335
2389.79966,0.00307
2387.73948,0.00299
2385.67931,0.00304
2383.61914,0.00297
2381.55897,0.00269
2379.49880,0.00242
2377.43862,0.00240
2375.37845,0.00263
2373.31828,0.00292
2371.25811,0.00313
2369.19793,0.00328
2367.13776,0.00353
2365.07759,0.00401
2363.01742,0.00447
2360.95725,0.00448
2358.89707,0.00379
2356.83690,0.00262
2354.77673,0.00168
2352.71656,0.00164
2350.65639,0.00230
2348.59621,0.00291
2346.53604,0.00297
2344.47587,0.00267
2342.41570,0.00247
2340.35552,0.00256
2338.29535,0.00282
2336.23518,0.00300
2334.17501,0.00295
2332.11484,0.00273
2330.05466,0.00240
2327.99449,0.00194
2325.93432,0.00148
2323.87415,0.00138
2321.81398,0.00180
2319.75380,0.00249
2317.69363,0.00305
2315.63346,0.00335
2313.57329,0.00355
2311.51312,0.00382
2309.45294,0.00408
2307.39277,0.00423
2305.33260,0.00423
2303.27243,0.00412
2301.21225,0.00397
2299.15208,0.00385
2297.09191,0.00382
2295.03174,0.00380
2292.97157,0.00375
2290.91139,0.00378
2288.85122,0.00397
2286.79105,0.00415
2284.73088,0.00416
2282.67071,0.00399
2280.61053,0.00375
2278.55036,0.00348
2276.49019,0.00315
2274.43002,0.00282
2272.36984,0.00264
2270.30967,0.00269
2268.24950,0.00307
2266.18933,0.00374
2264.12916,0.00447
2262.06898,0.00498
2260.00881,0.00522
2257.94864,0.00525
2255.88847,0.00507
2253.82830,0.00471
2251.76812,0.00439
2249.70795,0.00432
2247.64778,0.00449
2245.58761,0.00424
2243.52744,0.00356
2241.46726,0.00336
2239.40709,0.00356
2237.34692,0.00329
2235.28675,0.00265
2233.22657,0.00215
2231.16640,0.00192
2229.10623,0.00229
2227.04606,0.00352
2224.98589,0.00489
2222.92571,0.00522
2220.86554,0.00434
2218.80537,0.00333
2216.74520,0.00332
2214.68503,0.00434
2212.62485,0.00517
2210.56468,0.00483
2208.50451,0.00385
2206.44434,0.00318
2204.38417,0.00317
2202.32399,0.00368
2200.26382,0.00419
2198.20365,0.00415
2196.14348,0.00367
2194.08330,0.00322
2192.02313,0.00337
2189.96296,0.00467
2187.90279,0.00621
2185.84262,0.00616
2183.78244,0.00473
2181.72227,0.00402
2179.66210,0.00440
2177.60193,0.00423
2175.54176,0.00279
2173.48158,0.00107
2171.42141,0.00025
2169.36124,0.00057
2167.30107,0.00173
2165.24089,0.00305
2163.18072,0.00392
2161.12055,0.00426
2159.06038,0.00459
2157.00021,0.00522
2154.94003,0.00554
2152.87986,0.00504
2150.81969,0.00403
2148.75952,0.00302
2146.69935,0.00252
2144.63917,0.00253
2142.57900,0.00232
2140.51883,0.00170
2138.45866,0.00131
2136.39849,0.00133
2134.33831,0.00142
2132.27814,0.00171
2130.21797,0.00227
2128.15780,0.00266
2126.09762,0.00307
2124.03745,0.00371
2121.97728,0.00406
2119.91711,0.00406
2117.85694,0.00410
2115.79676,0.00403
2113.73659,0.00376
2111.67642,0.00361
2109.61625,0.00353
2107.55608,0.00341
2105.49590,0.00361
2103.43573,0.00399
2101.37556,0.00416
2099.31539,0.00409
2097.25521,0.00383
2095.19504,0.00348
2093.13487,0.00326
2091.07470,0.00328
2089.01453,0.00347
2086.95435,0.00361
2084.89418,0.00363
2082.83401,0.00367
2080.77384,0.00375
2078.71367,0.00363
2076.65349,0.00318
2074.59332,0.00265
2072.53315,0.00233
2070.47298,0.00239
2068.41281,0.00290
2066.35263,0.00386
2064.29246,0.00489
2062.23229,0.00539
2060.17212,0.00515
2058.11194,0.00454
2056.05177,0.00407
2053.99160,0.00383
2051.93143,0.00353
2049.87126,0.00310
2047.81108,0.00290
2045.75091,0.00304
2043.69074,0.00334
2041.63057,0.00371
2039.57040,0.00402
2037.51022,0.00387
2035.45005,0.00302
2033.38988,0.00181
2031.32971,0.00100
2029.26954,0.00103
2027.20936,0.00184
2025.14919,0.00292
2023.08902,0.00349
2021.02885,0.00300
2018.96867,0.00168
2016.90850,0.00040
2014.84833,0.00000
2012.78816,0.00054
2010.72799,0.00135
2008.66781,0.00183
2006.60764,0.00215
2004.54747,0.00267
2002.48730,0.00332
2000.42713,0.00387
1998.36695,0.00421
1996.30678,0.00419
1994.24661,0.00374
1992.18644,0.00309
1990.12626,0.00260
1988.06609,0.00249
1986.00592,0.00272
1983.94575,0.00325
1981.88558,0.00398
1979.82540,0.00469
1977.76523,0.00510
1975.70506,0.00506
1973.64489,0.00447
1971.58472,0.00340
1969.52454,0.00223
1967.46437,0.00145
1965.40420,0.00128
1963.34403,0.00153
1961.28386,0.00175
1959.22368,0.00163
1957.16351,0.00133
1955.10334,0.00123
1953.04317,0.00149
1950.98299,0.00203
1948.92282,0.00259
1946.86265,0.00305
1944.80248,0.00328
1942.74231,0.00312
1940.68213,0.00260
1938.62196,0.00213
1936.56179,0.00204
1934.50162,0.00232
1932.44145,0.00271
1930.38127,0.00306
1928.32110,0.00333
1926.26093,0.00349
1924.20076,0.00343
1922.14059,0.00315
1920.08041,0.00275
1918.02024,0.00224
1915.96007,0.00168
1913.89990,0.00132
1911.83972,0.00143
1909.77955,0.00193
1907.71938,0.00249
1905.65921,0.00282
1903.59904,0.00290
1901.53886,0.00286
1899.47869,0.00274
1897.41852,0.00251
1895.35835,0.00219
1893.29818,0.00187
1891.23800,0.00168
1889.17783,0.00170
1887.11766,0.00201
1885.05749,0.00258
1882.99731,0.00321
1880.93714,0.00359
1878.87697,0.00358
1876.81680,0.00326
1874.75663,0.00284
1872.69645,0.00238
1870.63628,0.00193
1868.57611,0.00162
1866.51594,0.00160
1864.45577,0.00181
1862.39559,0.00207
1860.33542,0.00224
1858.27525,0.00227
1856.21508,0.00222
1854.15491,0.00216
1852.09473,0.00219
1850.03456,0.00229
1847.97439,0.00235
1845.91422,0.00225
1843.85404,0.00193
1841.79387,0.00156
1839.73370,0.00141
1837.67353,0.00159
1835.61336,0.00196
1833.55318,0.00232
1831.49301,0.00253
1829.43284,0.00258
1827.37267,0.00253
1825.31250,0.00240
1823.25232,0.00216
1821.19215,0.00190
1819.13198,0.00172
1817.07181,0.00167
1815.01163,0.00170
1812.95146,0.00183
1810.89129,0.00201
1808.83112,0.00216
1806.77095,0.00224
1804.71077,0.00229
1802.65060,0.00235
1800.59043,0.00239
1798.53026,0.00240
1796.47009,0.00235
1794.40991,0.00224
1792.34974,0.00207
1790.28957,0.00192
1788.22940,0.00189
1786.16923,0.00200
1784.10905,0.00218
1782.04888,0.00227
1779.98871,0.00222
1777.92854,0.00202
1775.86836,0.00176
1773.80819,0.00155
1771.74802,0.00151
1769.68785,0.00163
1767.62768,0.00186
1765.56750,0.00215
1763.50733,0.00240
1761.44716,0.00251
1759.38699,0.00246
1757.32682,0.00235
1755.26664,0.00229
1753.20647,0.00239
1751.14630,0.00265
1749.08613,0.00291
1747.02596,0.00303
1744.96578,0.00304
1742.90561,0.00305
1740.84544,0.00312
1738.78527,0.00321
1736.72509,0.00322
1734.66492,0.00309
1732.60475,0.00291
1730.54458,0.00281
1728.48441,0.00282
1726.42423,0.00288
1724.36406,0.00289
1722.30389,0.00285
1720.24372,0.00278
1718.18355,0.00269
1716.12337,0.00263
1714.06320,0.00264
1712.00303,0.00269
1709.94286,0.00270
1707.88268,0.00261
1705.82251,0.00243
1703.76234,0.00223
1701.70217,0.00210
1699.64200,0.00212
1697.58182,0.00224
1695.52165,0.00237
1693.46148,0.00241
1691.40131,0.00235
1689.34114,0.00220
1687.28096,0.00207
1685.22079,0.00205
1683.16062,0.00223
1681.10045,0.00252
1679.04028,0.00279
1676.98010,0.00296
1674.91993,0.00301
1672.85976,0.00298
1670.79959,0.00289
1668.73941,0.00283
1666.67924,0.00290
1664.61907,0.00312
1662.55890,0.00340
1660.49873,0.00361
1658.43855,0.00367
1656.37838,0.00359
1654.31821,0.00348
1652.25804,0.00344
1650.19787,0.00347
1648.13769,0.00355
1646.07752,0.00365
1644.01735,0.00380
1641.95718,0.00398
1639.89701,0.00413
1637.83683,0.00418
1635.77666,0.00409
1633.71649,0.00396
1631.65632,0.00386
1629.59614,0.00378
1627.53597,0.00370
1625.47580,0.00365
1623.41563,0.00368
1621.35546,0.00376
1619.29528,0.00389
1617.23511,0.00406
1615.17494,0.00426
1613.11477,0.00440
1611.05460,0.00444
1608.99442,0.00439
1606.93425,0.00432
1604.87408,0.00422
1602.81391,0.00404
1600.75373,0.00380
1598.69356,0.00358
1596.63339,0.00343
1594.57322,0.00336
1592.51305,0.00331
1590.45287,0.00325
1588.39270,0.00315
1586.33253,0.00300
1584.27236,0.00280
1582.21219,0.00255
1580.15201,0.00229
1578.09184,0.00210
1576.03167,0.00204
1573.97150,0.00208
1571.91133,0.00211
1569.85115,0.00207
1567.79098,0.00200
1565.73081,0.00192
1563.67064,0.00179
1561.61046,0.00157
1559.55029,0.00131
1557.49012,0.00116
1555.42995,0.00119
1553.36978,0.00127
1551.30960,0.00132
1549.24943,0.00130
1547.18926,0.00116
1545.12909,0.00092
1543.06892,0.00067
1541.00874,0.00055
1538.94857,0.00066
1536.88840,0.00088
1534.82823,0.00107
1532.76805,0.00114
1530.70788,0.00108
1528.64771,0.00094
1526.58754,0.00078
1524.52737,0.00066
1522.46719,0.00060
1520.40702,0.00064
1518.34685,0.00076
1516.28668,0.00086
1514.22651,0.00091
1512.16633,0.00090
1510.10616,0.00086
1508.04599,0.00087
1505.98582,0.00097
1503.92565,0.00104
1501.86547,0.00102
1499.80530,0.00093
1497.74513,0.00089
1495.68496,0.00094
1493.62478,0.00099
1491.56461,0.00091
1489.50444,0.00076
1487.44427,0.00069
1485.38410,0.00077
1483.32392,0.00093
1481.26375,0.00109
1479.20358,0.00119
1477.14341,0.00125
1475.08324,0.00134
1473.02306,0.00153
1470.96289,0.00180
1468.90272,0.00200
1466.84255,0.00207
1464.78238,0.00209
1462.72220,0.00211
1460.66203,0.00213
1458.60186,0.00213
1456.54169,0.00213
1454.48151,0.00215
1452.42134,0.00219
1450.36117,0.00229
1448.30100,0.00244
1446.24083,0.00257
1444.18065,0.00260
1442.12048,0.00254
1440.06031,0.00250
1438.00014,0.00260
1435.93997,0.00279
1433.87979,0.00294
1431.81962,0.00302
1429.75945,0.00307
1427.69928,0.00314
1425.63910,0.00322
1423.57893,0.00327
1421.51876,0.00330
1419.45859,0.00331
1417.39842,0.00328
1415.33824,0.00324
1413.27807,0.00321
1411.21790,0.00319
1409.15773,0.00316
1407.09756,0.00313
1405.03738,0.00308
1402.97721,0.00300
1400.91704,0.00290
1398.85687,0.00285
1396.79670,0.00293
1394.73652,0.00311
1392.67635,0.00327
1390.61618,0.00332
1388.55601,0.00326
1386.49583,0.00320
1384.43566,0.00323
1382.37549,0.00331
1380.31532,0.00332
1378.25515,0.00322
1376.19497,0.00308
1374.13480,0.00300
1372.07463,0.00304
1370.01446,0.00317
1367.95429,0.00330
1365.89411,0.00338
1363.83394,0.00337
1361.77377,0.00328
1359.71360,0.00315
1357.65343,0.00303
1355.59325,0.00299
1353.53308,0.00302
1351.47291,0.00309
1349.41274,0.00312
1347.35256,0.00310
1345.29239,0.00302
1343.23222,0.00294
1341.17205,0.00289
1339.11188,0.00288
1337.05170,0.00290
1334.99153,0.00287
1332.93136,0.00278
1330.87119,0.00269
1328.81102,0.00266
1326.75084,0.00269
1324.69067,0.00274
1322.63050,0.00276
1320.57033,0.00276
1318.51015,0.00274
1316.44998,0.00276
1314.38981,0.00284
1312.32964,0.00291
1310.26947,0.00292
1308.20929,0.00287
1306.14912,0.00279
1304.08895,0.00271
1302.02878,0.00261
1299.96861,0.00246
1297.90843,0.00231
1295.84826,0.00222
1293.78809,0.00216
1291.72792,0.00212
1289.66775,0.00209
1287.60757,0.00205
1285.54740,0.00202
1283.48723,0.00202
1281.42706,0.00204
1279.36688,0.00207
1277.30671,0.00210
1275.24654,0.00213
1273.18637,0.00219
1271.12620,0.00232
1269.06602,0.00252
1267.00585,0.00271
1264.94568,0.00285
1262.88551,0.00294
1260.82534,0.00305
1258.76516,0.00319
1256.70499,0.00330
1254.64482,0.00331
1252.58465,0.00325
1250.52447,0.00319
1248.46430,0.00318
1246.40413,0.00322
1244.34396,0.00327
1242.28379,0.00327
1240.22361,0.00315
1238.16344,0.00295
1236.10327,0.00274
1234.04310,0.00261
1231.98293,0.00254
1229.92275,0.00249
1227.86258,0.00246
1225.80241,0.00248
1223.74224,0.00253
1221.68207,0.00255
1219.62189,0.00247
1217.56172,0.00230
1215.50155,0.00212
1213.44138,0.00200
1211.38120,0.00189
1209.32103,0.00169
1207.26086,0.00143
1205.20069,0.00117
1203.14052,0.00097
1201.08034,0.00078
1199.02017,0.00057
1196.96000,0.00033
1194.89983,0.00011
1192.83966,0.00000
1190.77948,-0.00002
1188.71931,0.00011
1186.65914,0.00039
1184.59897,0.00063
1182.53880,0.00059
1180.47862,0.00048
1178.41845,0.00060
1176.35828,0.00100
1174.29811,0.00141
1172.23793,0.00154
1170.17776,0.00140
1168.11759,0.00127
1166.05742,0.00147
1163.99725,0.00202
1161.93707,0.00260
1159.87690,0.00296
1157.81673,0.00307
1155.75656,0.00303
1153.69639,0.00308
1151.63621,0.00332
1149.57604,0.00368
1147.51587,0.00405
1145.45570,0.00446
1143.39552,0.00484
1141.33535,0.00509
1139.27518,0.00519
1137.21501,0.00514
1135.15484,0.00496
1133.09466,0.00486
1131.03449,0.00496
1128.97432,0.00529
1126.91415,0.00578
1124.85398,0.00627
1122.79380,0.00661
1120.73363,0.00693
1118.67346,0.00740
1116.61329,0.00787
1114.55312,0.00818
1112.49294,0.00840
1110.43277,0.00873
1108.37260,0.00919
1106.31243,0.00964
1104.25225,0.00995
1102.19208,0.01021
1100.13191,0.01061
1098.07174,0.01110
1096.01157,0.01168
1093.95139,0.01237
1091.89122,0.01315
1089.83105,0.01386
1087.77088,0.01441
1085.71071,0.01487
1083.65053,0.01530
1081.59036,0.01559
1079.53019,0.01575
1077.47002,0.01586
1075.40985,0.01594
1073.34967,0.01612
1071.28950,0.01653
1069.22933,0.01711
1067.16916,0.01768
1065.10898,0.01801
1063.04881,0.01803
1060.98864,0.01792
1058.92847,0.01792
1056.86830,0.01806
1054.80812,0.01832
1052.74795,0.01858
1050.68778,0.01873
1048.62761,0.01897
1046.56744,0.01952
1044.50726,0.02010
1042.44709,0.02025
1040.38692,0.02004
1038.32675,0.01988
1036.26657,0.01998
1034.20640,0.02013
1032.14623,0.02001
1030.08606,0.01960
1028.02589,0.01914
1025.96571,0.01868
1023.90554,0.01826
1021.84537,0.01790
1019.78520,0.01767
1017.72503,0.01765
1015.66485,0.01771
1013.60468,0.01762
1011.54451,0.01737
1009.48434,0.01699
1007.42417,0.01650
1005.36399,0.01607
1003.30382,0.01583
1001.24365,0.01574
999.18348,0.01568
997.12330,0.01543
995.06313,0.01483
993.00296,0.01407
990.94279,0.01345
988.88262,0.01307
986.82244,0.01293
984.76227,0.01303
982.70210,0.01308
980.64193,0.01274
978.58176,0.01207
976.52158,0.01135
974.46141,0.01075
972.40124,0.01039
970.34107,0.01024
968.28089,0.01013
966.22072,0.00999
964.16055,0.00978
962.10038,0.00955
960.04021,0.00944
957.98003,0.00945
955.91986,0.00932
953.85969,0.00886
951.79952,0.00833
949.73935,0.00809
947.67917,0.00802
945.61900,0.00787
943.55883,0.00759
941.49866,0.00725
939.43849,0.00685
937.37831,0.00643
935.31814,0.00590
933.25797,0.00535
931.19780,0.00517
929.13762,0.00530
927.07745,0.00522
925.01728,0.00474
922.95711,0.00407
920.89694,0.00359
918.83676,0.00353
916.77659,0.00377
914.71642,0.00396
912.65625,0.00393
910.59608,0.00380
908.53590,0.00371
906.47573,0.00370
904.41556,0.00361
902.35539,0.00328
900.29522,0.00301
898.23504,0.00323
896.17487,0.00397
894.11470,0.00465
892.05453,0.00469
889.99435,0.00424
887.93418,0.00391
885.87401,0.00404
883.81384,0.00454
881.75367,0.00506
879.69349,0.00527
877.63332,0.00504
875.57315,0.00464
873.51298,0.00452
871.45281,0.00464
869.39263,0.00469
867.33246,0.00466
865.27229,0.00485
863.21212,0.00530
861.15194,0.00575
859.09177,0.00585
857.03160,0.00540
854.97143,0.00465
852.91126,0.00414
850.85108,0.00408
848.79091,0.00420
846.73074,0.00431
844.67057,0.00424
842.61040,0.00387
840.55022,0.00346
838.49005,0.00325
836.42988,0.00320
834.36971,0.00312
832.30954,0.00284
830.24936,0.00236
828.18919,0.00203
826.12902,0.00198
824.06885,0.00179
822.00867,0.00142
819.94850,0.00132
817.88833,0.00138
815.82816,0.00108
813.76799,0.00061
811.70781,0.00054
809.64764,0.00084
807.58747,0.00114
805.52730,0.00137
803.46713,0.00165
801.40695,0.00193
799.34678,0.00210
797.28661,0.00201
795.22644,0.00161
793.16627,0.00144
791.10609,0.00200
789.04592,0.00285
786.98575,0.00298
784.92558,0.00220
782.86540,0.00148
780.80523,0.00167
778.74506,0.00262
776.68489,0.00362
774.62472,0.00428
772.56454,0.00446
770.50437,0.00407
768.44420,0.00343
766.38403,0.00298
764.32386,0.00297
762.26368,0.00326
760.20351,0.00346
758.14334,0.00335
756.08317,0.00311
754.02299,0.00311
751.96282,0.00339
749.90265,0.00342
747.84248,0.00295
745.78231,0.00257
743.72213,0.00283
741.66196,0.00360
739.60179,0.00428
737.54162,0.00473
735.48145,0.00537
733.42127,0.00598
731.36110,0.00600
729.30093,0.00554
727.24076,0.00480
725.18059,0.00388
723.12041,0.00305
721.06024,0.00252
719.00007,0.00237
716.93990,0.00257
714.87972,0.00296
712.81955,0.00336
710.75938,0.00361
708.69921,0.00370
706.63904,0.00383
704.57886,0.00414
702.51869,0.00458
700.45852,0.00498
698.39835,0.00513
696.33818,0.00507
694.27800,0.00513
692.21783,0.00559
690.15766,0.00633
688.09749,0.00685
686.03731,0.00676
683.97714,0.00616
681.91697,0.00560
679.85680,0.00536
677.79663,0.00532
675.73645,0.00560
673.67628,0.00632
671.61611,0.00706
669.55594,0.00724
667.49577,0.00686
665.43559,0.00627
663.37542,0.00575
661.31525,0.00545
659.25508,0.00547
657.19491,0.00613
655.13473,0.00759
653.07456,0.00921
651.01439,0.00986
648.95422,0.00901
646.89404,0.00722
644.83387,0.00570
642.77370,0.00538
640.71353,0.00603
638.65336,0.00669
636.59318,0.00666
634.53301,0.00596
632.47284,0.00542
630.41267,0.00584
628.35250,0.00681
626.29232,0.00712
624.23215,0.00683
622.17198,0.00679
620.11181,0.00683
618.05164,0.00640
615.99146,0.00548
613.93129,0.00419
611.87112,0.00191
609.81095,0.00000
607.75077,-0.00138
605.69060,-0.00128
603.63043,-0.00132
601.57026,-0.00085
599.51009,0.00000
