3996.73391,-0.00040
3994.67373,0.00005
3992.61356,0.00018
3990.55339,-0.00010
3988.49322,-0.00045
3986.43305,-0.00059
3984.37287,-0.00061
3982.31270,-0.00057
3980.25253,-0.00038
3978.19236,-0.00009
3976.13219,0.00012
3974.07201,0.00012
3972.01184,0.00006
3969.95167,0.00005
3967.89150,-0.00001
3965.83133,-0.00007
3963.77115,0.00009
3961.71098,0.00019
3959.65081,0.00006
3957.59064,-0.00002
3955.53046,-0.00006
3953.47029,-0.00008
3951.41012,0.00012
3949.34995,0.00028
3947.28978,0.00000
3945.22960,-0.00012
3943.16943,0.00028
3941.10926,0.00042
3939.04909,0.00034
3936.98892,0.00023
3934.92874,0.00015
3932.86857,0.00041
3930.80840,0.00061
3928.74823,0.00050
3926.68805,0.00052
3924.62788,0.00051
3922.56771,0.00018
3920.50754,0.00035
3918.44737,0.00101
3916.38719,0.00123
3914.32702,0.00100
3912.26685,0.00098
3910.20668,0.00097
3908.14651,0.00087
3906.08633,0.00098
3904.02616,0.00080
3901.96599,0.00042
3899.90582,0.00053
3897.84565,0.00023
3895.78547,0.00000
3893.72530,0.00086
3891.66513,0.00145
3889.60496,0.00051
3887.54478,0.00035
3885.48461,0.00095
3883.42444,0.00078
3881.36427,0.00117
3879.30410,0.00099
3877.24392,0.00037
3875.18375,0.00074
3873.12358,0.00106
3871.06341,0.00167
3869.00324,0.00164
3866.94306,0.00127
3864.88289,0.00196
3862.82272,0.00171
3860.76255,0.00057
3858.70237,0.00000
3856.64220,0.00111
3854.58203,0.00358
3852.52186,0.00343
3850.46169,0.00096
3848.40151,0.00006
3846.34134,0.00051
3844.28117,0.00094
3842.22100,0.00103
3840.16083,0.00187
3838.10065,0.00267
3836.04048,0.00188
3833.98031,0.00114
3831.92014,0.00132
3829.85997,0.00147
3827.79979,0.00163
3825.73962,0.00117
3823.67945,0.00073
3821.61928,0.00089
3819.55910,0.00005
3817.49893,0.00071
3815.43876,0.00206
3813.37859,0.00162
3811.31842,0.00120
3809.25824,0.00158
3807.19807,0.00171
3805.13790,0.00095
3803.07773,0.00161
3801.01756,0.00225
3798.95738,0.00142
3796.89721,0.00150
3794.83704,0.00141
3792.77687,0.00108
3790.71670,0.00120
3788.65652,0.00141
3786.59635,0.00175
3784.53618,0.00168
3782.47601,0.00119
3780.41583,0.00147
3778.35566,0.00174
3776.29549,0.00138
3774.23532,0.00119
3772.17515,0.00144
3770.11497,0.00167
3768.05480,0.00151
3765.99463,0.00173
3763.93446,0.00158
3761.87429,0.00159
3759.81411,0.00214
3757.75394,0.00175
3755.69377,0.00091
3753.63360,0.00123
3751.57342,0.00191
3749.51325,0.00077
3747.45308,0.00000
3745.39291,0.00209
3743.33274,0.00271
3741.27256,0.00112
3739.21239,0.00082
3737.15222,0.00175
3735.09205,0.00210
3733.03188,0.00163
3730.97170,0.00125
3728.91153,0.00137
3726.85136,0.00199
3724.79119,0.00217
3722.73102,0.00219
3720.67084,0.00215
3718.61067,0.00184
3716.55050,0.00138
3714.49033,0.00154
3712.43015,0.00251
3710.36998,0.00285
3708.30981,0.00217
3706.24964,0.00153
3704.18947,0.00168
3702.12929,0.00216
3700.06912,0.00212
3698.00895,0.00221
3695.94878,0.00240
3693.88861,0.00234
3691.82843,0.00262
3689.76826,0.00297
3687.70809,0.00238
3685.64792,0.00176
3683.58775,0.00193
3681.52757,0.00202
3679.46740,0.00186
3677.40723,0.00244
3675.34706,0.00250
3673.28688,0.00098
3671.22671,0.00195
3669.16654,0.00338
3667.10637,0.00269
3665.04620,0.00235
3662.98602,0.00269
3660.92585,0.00296
3658.86568,0.00355
3656.80551,0.00420
3654.74534,0.00354
3652.68516,0.00337
3650.62499,0.00466
3648.56482,0.00501
3646.50465,0.00432
3644.44447,0.00411
3642.38430,0.00464
3640.32413,0.00512
3638.26396,0.00542
3636.20379,0.00575
3634.14361,0.00596
3632.08344,0.00617
3630.02327,0.00749
3627.96310,0.00796
3625.90293,0.00689
3623.84275,0.00672
3621.78258,0.00777
3619.72241,0.00885
3617.66224,0.00859
3615.60207,0.00840
3613.54189,0.00915
3611.48172,0.00974
3609.42155,0.01053
3607.36138,0.01109
3605.30120,0.01090
3603.24103,0.01118
3601.18086,0.01195
3599.12069,0.01217
3597.06052,0.01225
3595.00034,0.01267
3592.94017,0.01276
3590.88000,0.01302
3588.81983,0.01432
3586.75966,0.01515
3584.69948,0.01475
3582.63931,0.01466
3580.57914,0.01515
3578.51897,0.01564
3576.45879,0.01599
3574.39862,0.01621
3572.33845,0.01625
3570.27828,0.01656
3568.21811,0.01749
3566.15793,0.01822
3564.09776,0.01852
3562.03759,0.01919
3559.97742,0.01983
3557.91725,0.02002
3555.85707,0.02014
3553.79690,0.02053
3551.73673,0.02080
3549.67656,0.02096
3547.61639,0.02145
3545.55621,0.02178
3543.49604,0.02173
3541.43587,0.02203
3539.37570,0.02285
3537.31552,0.02363
3535.25535,0.02388
3533.19518,0.02395
3531.13501,0.02430
3529.07484,0.02471
3527.01466,0.02502
3524.95449,0.02553
3522.89432,0.02619
3520.83415,0.02667
3518.77398,0.02707
3516.71380,0.02732
3514.65363,0.02762
3512.59346,0.02823
3510.53329,0.02895
3508.47312,0.02913
3506.41294,0.02904
3504.35277,0.02956
3502.29260,0.03020
3500.23243,0.03040
3498.17225,0.03057
3496.11208,0.03094
3494.05191,0.03125
3491.99174,0.03130
3489.93157,0.03139
3487.87139,0.03180
3485.81122,0.03224
3483.75105,0.03256
3481.69088,0.03270
3479.63071,0.03280
3477.57053,0.03340
3475.51036,0.03419
3473.45019,0.03454
3471.39002,0.03475
3469.32984,0.03530
3467.26967,0.03594
3465.20950,0.03625
3463.14933,0.03641
3461.08916,0.03654
3459.02898,0.03667
3456.96881,0.03680
3454.90864,0.03696
3452.84847,0.03730
3450.78830,0.03768
3448.72812,0.03818
3446.66795,0.03862
3444.60778,0.03875
3442.54761,0.03896
3440.48744,0.03920
3438.42726,0.03958
3436.36709,0.03994
3434.30692,0.04003
3432.24675,0.04026
3430.18657,0.04083
3428.12640,0.04143
3426.06623,0.04165
3424.00606,0.04158
3421.94589,0.04175
3419.88571,0.04185
3417.82554,0.04168
3415.76537,0.04170
3413.70520,0.04200
3411.64503,0.04229
3409.58485,0.04243
3407.52468,0.04249
3405.46451,0.04267
3403.40434,0.04302
3401.34416,0.04339
3399.28399,0.04372
3397.22382,0.04387
3395.16365,0.04391
3393.10348,0.04394
3391.04330,0.04396
3388.98313,0.04434
3386.92296,0.04487
3384.86279,0.04496
3382.80262,0.04478
3380.74244,0.04481
3378.68227,0.04508
3376.62210,0.04554
3374.56193,0.04602
3372.50176,0.04612
3370.44158,0.04595
3368.38141,0.04594
3366.32124,0.04614
3364.26107,0.04637
3362.20089,0.04659
3360.14072,0.04673
3358.08055,0.04684
3356.02038,0.04692
3353.96021,0.04691
3351.90003,0.04702
3349.83986,0.04727
3347.77969,0.04743
3345.71952,0.04743
3343.65935,0.04723
3341.59917,0.04708
3339.53900,0.04721
3337.47883,0.04738
3335.41866,0.04747
3333.35849,0.04769
3331.29831,0.04793
3329.23814,0.04787
3327.17797,0.04766
3325.11780,0.04763
3323.05762,0.04776
3320.99745,0.04780
3318.93728,0.04769
3316.87711,0.04754
3314.81694,0.04760
3312.75676,0.04775
3310.69659,0.04775
3308.63642,0.04756
3306.57625,0.04740
3304.51608,0.04745
3302.45590,0.04751
3300.39573,0.04754
3298.33556,0.04760
3296.27539,0.04757
3294.21521,0.04742
3292.15504,0.04738
3290.09487,0.04740
3288.03470,0.04740
3285.97453,0.04751
3283.91435,0.04772
3281.85418,0.04784
3279.79401,0.04781
3277.73384,0.04772
3275.67367,0.04762
3273.61349,0.04749
3271.55332,0.04742
3269.49315,0.04754
3267.43298,0.04770
3265.37281,0.04755
3263.31263,0.04733
3261.25246,0.04729
3259.19229,0.04731
3257.13212,0.04737
3255.07194,0.04732
3253.01177,0.04694
3250.95160,0.04665
3248.89143,0.04677
3246.83126,0.04698
3244.77108,0.04703
3242.71091,0.04694
3240.65074,0.04688
3238.59057,0.04687
3236.53040,0.04672
3234.47022,0.04637
3232.41005,0.04611
3230.34988,0.04607
3228.28971,0.04606
3226.22954,0.04596
3224.16936,0.04581
3222.10919,0.04561
3220.04902,0.04531
3217.98885,0.04500
3215.92867,0.04479
3213.86850,0.04461
3211.80833,0.04450
3209.74816,0.04448
3207.68799,0.04419
3205.62781,0.04382
3203.56764,0.04369
3201.50747,0.04358
3199.44730,0.04342
3197.38713,0.04325
3195.32695,0.04298
3193.26678,0.04272
3191.20661,0.04259
3189.14644,0.04259
3187.08626,0.04239
3185.02609,0.04194
3182.96592,0.04161
3180.90575,0.04149
3178.84558,0.04142
3176.78540,0.04121
3174.72523,0.04090
3172.66506,0.04064
3170.60489,0.04036
3168.54472,0.03999
3166.48454,0.03956
3164.42437,0.03927
3162.36420,0.03914
3160.30403,0.03900
3158.24386,0.03877
3156.18368,0.03858
3154.12351,0.03833
3152.06334,0.03801
3150.00317,0.03778
3147.94299,0.03761
3145.88282,0.03735
3143.82265,0.03708
3141.76248,0.03683
3139.70231,0.03659
3137.64213,0.03616
3135.58196,0.03561
3133.52179,0.03519
3131.46162,0.03492
3129.40145,0.03484
3127.34127,0.03482
3125.28110,0.03474
3123.22093,0.03459
3121.16076,0.03427
3119.10058,0.03378
3117.04041,0.03326
3114.98024,0.03286
3112.92007,0.03272
3110.85990,0.03264
3108.79972,0.03243
3106.73955,0.03215
3104.67938,0.03181
3102.61921,0.03142
3100.55904,0.03108
3098.49886,0.03078
3096.43869,0.03063
3094.37852,0.03055
3092.31835,0.03039
3090.25818,0.03017
3088.19800,0.02989
3086.13783,0.02962
3084.07766,0.02939
3082.01749,0.02922
3079.95731,0.02912
3077.89714,0.02890
3075.83697,0.02849
3073.77680,0.02816
3071.71663,0.02794
3069.65645,0.02762
3067.59628,0.02728
3065.53611,0.02710
3063.47594,0.02696
3061.41577,0.02672
3059.35559,0.02658
3057.29542,0.02643
3055.23525,0.02607
3053.17508,0.02563
3051.11491,0.02534
3049.05473,0.02522
3046.99456,0.02507
3044.93439,0.02478
3042.87422,0.02453
3040.81404,0.02432
3038.75387,0.02414
3036.69370,0.02407
3034.63353,0.02402
3032.57336,0.02392
3030.51318,0.02375
3028.45301,0.02348
3026.39284,0.02310
3024.33267,0.02266
3022.27250,0.02238
3020.21232,0.02228
3018.15215,0.02216
3016.09198,0.02202
3014.03181,0.02192
3011.97163,0.02170
3009.91146,0.02146
3007.85129,0.02142
3005.79112,0.02134
3003.73095,0.02101
3001.67077,0.02073
2999.61060,0.02063
2997.55043,0.02057
2995.49026,0.02053
2993.43009,0.02059
2991.36991,0.02073
2989.30974,0.02078
2987.24957,0.02082
2985.18940,0.02100
2983.12923,0.02110
2981.06905,0.02106
2979.00888,0.02106
2976.94871,0.02120
2974.88854,0.02144
2972.82836,0.02163
2970.76819,0.02162
2968.70802,0.02153
2966.64785,0.02162
2964.58768,0.02185
2962.52750,0.02214
2960.46733,0.02245
2958.40716,0.02276
2956.34699,0.02302
2954.28682,0.02321
2952.22664,0.02354
2950.16647,0.02409
2948.10630,0.02458
2946.04613,0.02471
2943.98596,0.02459
2941.92578,0.02459
2939.86561,0.02489
2937.80544,0.02526
2935.74527,0.02556
2933.68509,0.02579
2931.62492,0.02597
2929.56475,0.02605
2927.50458,0.02590
2925.44441,0.02569
2923.38423,0.02567
2921.32406,0.02562
2919.26389,0.02529
2917.20372,0.02481
2915.14355,0.02443
2913.08337,0.02425
2911.02320,0.02414
2908.96303,0.02395
2906.90286,0.02370
2904.84268,0.02355
2902.78251,0.02350
2900.72234,0.02344
2898.66217,0.02335
2896.60200,0.02329
2894.54182,0.02329
2892.48165,0.02313
2890.42148,0.02274
2888.36131,0.02253
2886.30114,0.02263
2884.24096,0.02276
2882.18079,0.02276
2880.12062,0.02258
2878.06045,0.02223
2876.00028,0.02194
2873.94010,0.02189
2871.87993,0.02187
2869.81976,0.02165
2867.75959,0.02140
2865.69941,0.02121
2863.63924,0.02091
2861.57907,0.02052
2859.51890,0.02025
2857.45873,0.02010
2855.39855,0.02000
2853.33838,0.01984
2851.27821,0.01960
2849.21804,0.01949
2847.15787,0.01948
2845.09769,0.01924
2843.03752,0.01880
2840.97735,0.01850
2838.91718,0.01838
2836.85700,0.01823
2834.79683,0.01802
2832.73666,0.01786
2830.67649,0.01773
2828.61632,0.01755
2826.55614,0.01732
2824.49597,0.01715
2822.43580,0.01713
2820.37563,0.01716
2818.31546,0.01708
2816.25528,0.01688
2814.19511,0.01669
2812.13494,0.01648
2810.07477,0.01620
2808.01460,0.01605
2805.95442,0.01613
2803.89425,0.01612
2801.83408,0.01583
2799.77391,0.01555
2797.71373,0.01543
2795.65356,0.01537
2793.59339,0.01533
2791.53322,0.01543
2789.47305,0.01556
2787.41287,0.01548
2785.35270,0.01530
2783.29253,0.01525
2781.23236,0.01521
2779.17219,0.01508
2777.11201,0.01490
2775.05184,0.01477
2772.99167,0.01478
2770.93150,0.01482
2768.87133,0.01480
2766.81115,0.01471
2764.75098,0.01449
2762.69081,0.01431
2760.63064,0.01430
2758.57046,0.01431
2756.51029,0.01421
2754.45012,0.01412
2752.38995,0.01405
2750.32978,0.01394
2748.26960,0.01382
2746.20943,0.01367
2744.14926,0.01358
2742.08909,0.01366
2740.02892,0.01374
2737.96874,0.01367
2735.90857,0.01363
2733.84840,0.01368
2731.78823,0.01368
2729.72805,0.01359
2727.66788,0.01351
2725.60771,0.01345
2723.54754,0.01331
2721.48737,0.01308
2719.42719,0.01287
2717.36702,0.01278
2715.30685,0.01273
2713.24668,0.01269
2711.18651,0.01266
2709.12633,0.01262
2707.06616,0.01256
2705.00599,0.01253
2702.94582,0.01256
2700.88565,0.01263
2698.82547,0.01266
2696.76530,0.01266
2694.70513,0.01263
2692.64496,0.01254
2690.58478,0.01243
2688.52461,0.01238
2686.46444,0.01229
2684.40427,0.01209
2682.34410,0.01191
2680.28392,0.01181
2678.22375,0.01177
2676.16358,0.01172
2674.10341,0.01150
2672.04324,0.01124
2669.98306,0.01120
2667.92289,0.01132
2665.86272,0.01135
2663.80255,0.01122
2661.74238,0.01107
2659.68220,0.01108
2657.62203,0.01118
2655.56186,0.01119
2653.50169,0.01112
2651.44151,0.01102
2649.38134,0.01089
2647.32117,0.01074
2645.26100,0.01060
2643.20083,0.01049
2641.14065,0.01037
2639.08048,0.01020
2637.02031,0.01013
2634.96014,0.01017
2632.89997,0.01018
2630.83979,0.01013
2628.77962,0.01000
2626.71945,0.00978
2624.65928,0.00961
2622.59910,0.00948
2620.53893,0.00940
2618.47876,0.00933
2616.41859,0.00914
2614.35842,0.00897
2612.29824,0.00900
2610.23807,0.00907
2608.17790,0.00910
2606.11773,0.00916
2604.05756,0.00921
2601.99738,0.00922
2599.93721,0.00910
2597.87704,0.00884
2595.81687,0.00877
2593.75670,0.00884
2591.69652,0.00871
2589.63635,0.00842
2587.57618,0.00825
2585.51601,0.00826
2583.45583,0.00830
2581.39566,0.00826
2579.33549,0.00822
2577.27532,0.00831
2575.21515,0.00850
2573.15497,0.00870
2571.09480,0.00881
2569.03463,0.00867
2566.97446,0.00816
2564.91429,0.00765
2562.85411,0.00763
2560.79394,0.00797
2558.73377,0.00820
2556.67360,0.00794
2554.61342,0.00759
2552.55325,0.00771
2550.49308,0.00794
2548.43291,0.00804
2546.37274,0.00831
2544.31256,0.00848
2542.25239,0.00825
2540.19222,0.00797
2538.13205,0.00781
2536.07188,0.00766
2534.01170,0.00755
2531.95153,0.00749
2529.89136,0.00751
2527.83119,0.00753
2525.77102,0.00742
2523.71084,0.00734
2521.65067,0.00735
2519.59050,0.00729
2517.53033,0.00723
2515.47015,0.00723
2513.40998,0.00730
2511.34981,0.00744
2509.28964,0.00747
2507.22947,0.00743
2505.16929,0.00762
2503.10912,0.00779
2501.04895,0.00760
2498.98878,0.00731
2496.92861,0.00712
2494.86843,0.00699
2492.80826,0.00707
2490.74809,0.00736
2488.68792,0.00753
2486.62775,0.00738
2484.56757,0.00726
2482.50740,0.00738
2480.44723,0.00751
2478.38706,0.00745
2476.32688,0.00734
2474.26671,0.00721
2472.20654,0.00708
2470.14637,0.00706
2468.08620,0.00701
2466.02602,0.00686
2463.96585,0.00674
2461.90568,0.00675
2459.84551,0.00702
2457.78534,0.00734
2455.72516,0.00746
2453.66499,0.00747
2451.60482,0.00731
2449.54465,0.00706
2447.48447,0.00701
2445.42430,0.00705
2443.36413,0.00711
2441.30396,0.00715
2439.24379,0.00698
2437.18361,0.00680
2435.12344,0.00674
2433.06327,0.00662
2431.00310,0.00648
2428.94293,0.00649
2426.88275,0.00670
2424.82258,0.00708
2422.76241,0.00730
2420.70224,0.00710
2418.64207,0.00681
2416.58189,0.00682
2414.52172,0.00697
2412.46155,0.00701
2410.40138,0.00693
2408.34120,0.00671
2406.28103,0.00650
2404.22086,0.00654
2402.16069,0.00680
2400.10052,0.00687
2398.04034,0.00617
2395.98017,0.00599
2393.92000,0.00625
2391.85983,0.00665
2389.79966,0.00690
2387.73948,0.00693
2385.67931,0.00691
2383.61914,0.00695
2381.55897,0.00704
2379.49880,0.00711
2377.43862,0.00720
2375.37845,0.00779
2373.31828,0.00874
2371.25811,0.00941
2369.19793,0.00950
2367.13776,0.00911
2365.07759,0.00891
2363.01742,0.00953
2360.95725,0.00989
2358.89707,0.01069
2356.83690,0.01195
2354.77673,0.01289
2352.71656,0.01289
2350.65639,0.01170
2348.59621,0.01072
2346.53604,0.01148
2344.47587,0.01143
2342.41570,0.01111
2340.35552,0.01060
2338.29535,0.00998
2336.23518,0.01011
2334.17501,0.01085
2332.11484,0.01143
2330.05466,0.01129
2327.99449,0.01079
2325.93432,0.00992
2323.87415,0.00935
2321.81398,0.00889
2319.75380,0.00874
2317.69363,0.00844
2315.63346,0.00835
2313.57329,0.00844
2311.51312,0.00846
2309.45294,0.00816
2307.39277,0.00762
2305.33260,0.00737
2303.27243,0.00754
2301.21225,0.00775
2299.15208,0.00783
2297.09191,0.00802
2295.03174,0.00816
2292.97157,0.00798
2290.91139,0.00757
2288.85122,0.00706
2286.79105,0.00667
2284.73088,0.00646
2282.67071,0.00626
2280.61053,0.00610
2278.55036,0.00602
2276.49019,0.00584
2274.43002,0.00553
2272.36984,0.00532
2270.30967,0.00547
2268.24950,0.00592
2266.18933,0.00611
2264.12916,0.00600
2262.06898,0.00601
2260.00881,0.00589
2257.94864,0.00533
2255.88847,0.00500
2253.82830,0.00545
2251.76812,0.00598
2249.70795,0.00568
2247.64778,0.00522
2245.58761,0.00542
2243.52744,0.00627
2241.46726,0.00654
2239.40709,0.00595
2237.34692,0.00538
2235.28675,0.00523
2233.22657,0.00519
2231.16640,0.00506
2229.10623,0.00496
2227.04606,0.00510
2224.98589,0.00542
2222.92571,0.00571
2220.86554,0.00599
2218.80537,0.00581
2216.74520,0.00486
2214.68503,0.00396
2212.62485,0.00386
2210.56468,0.00412
2208.50451,0.00430
2206.44434,0.00455
2204.38417,0.00495
2202.32399,0.00504
2200.26382,0.00440
2198.20365,0.00383
2196.14348,0.00424
2194.08330,0.00521
2192.02313,0.00532
2189.96296,0.00428
2187.90279,0.00339
2185.84262,0.00338
2183.78244,0.00388
2181.72227,0.00419
2179.66210,0.00394
2177.60193,0.00348
2175.54176,0.00343
2173.48158,0.00366
2171.42141,0.00402
2169.36124,0.00431
2167.30107,0.00433
2165.24089,0.00457
2163.18072,0.00503
2161.12055,0.00420
2159.06038,0.00272
2157.00021,0.00305
2154.94003,0.00360
2152.87986,0.00290
2150.81969,0.00243
2148.75952,0.00273
2146.69935,0.00272
2144.63917,0.00244
2142.57900,0.00287
2140.51883,0.00356
2138.45866,0.00333
2136.39849,0.00268
2134.33831,0.00270
2132.27814,0.00349
2130.21797,0.00466
2128.15780,0.00532
2126.09762,0.00513
2124.03745,0.00469
2121.97728,0.00448
2119.91711,0.00474
2117.85694,0.00547
2115.79676,0.00614
2113.73659,0.00615
2111.67642,0.00561
2109.61625,0.00511
2107.55608,0.00489
2105.49590,0.00453
2103.43573,0.00398
2101.37556,0.00395
2099.31539,0.00437
2097.25521,0.00456
2095.19504,0.00439
2093.13487,0.00430
2091.07470,0.00454
2089.01453,0.00460
2086.95435,0.00422
2084.89418,0.00408
2082.83401,0.00403
2080.77384,0.00367
2078.71367,0.00383
2076.65349,0.00470
2074.59332,0.00505
2072.53315,0.00470
2070.47298,0.00459
2068.41281,0.00478
2066.35263,0.00467
2064.29246,0.00425
2062.23229,0.00391
2060.17212,0.00380
2058.11194,0.00402
2056.05177,0.00442
2053.99160,0.00482
2051.93143,0.00501
2049.87126,0.00459
2047.81108,0.00421
2045.75091,0.00437
2043.69074,0.00449
2041.63057,0.00456
2039.57040,0.00508
2037.51022,0.00528
2035.45005,0.00432
2033.38988,0.00323
2031.32971,0.00275
2029.26954,0.00292
2027.20936,0.00347
2025.14919,0.00332
2023.08902,0.00227
2021.02885,0.00130
2018.96867,0.00111
2016.90850,0.00137
2014.84833,0.00171
2012.78816,0.00183
2010.72799,0.00163
2008.66781,0.00143
2006.60764,0.00108
2004.54747,0.00103
2002.48730,0.00191
2000.42713,0.00269
1998.36695,0.00269
1996.30678,0.00272
1994.24661,0.00351
1992.18644,0.00447
1990.12626,0.00451
1988.06609,0.00402
1986.00592,0.00365
1983.94575,0.00337
1981.88558,0.00292
1979.82540,0.00253
1977.76523,0.00274
1975.70506,0.00280
1973.64489,0.00150
1971.58472,0.00000
1969.52454,-0.00003
1967.46437,0.00096
1965.40420,0.00160
1963.34403,0.00154
1961.28386,0.00105
1959.22368,0.00098
1957.16351,0.00144
1955.10334,0.00186
1953.04317,0.00214
1950.98299,0.00235
1948.92282,0.00261
1946.86265,0.00272
1944.80248,0.00279
1942.74231,0.00295
1940.68213,0.00244
1938.62196,0.00200
1936.56179,0.00217
1934.50162,0.00245
1932.44145,0.00255
1930.38127,0.00254
1928.32110,0.00248
1926.26093,0.00217
1924.20076,0.00187
1922.14059,0.00144
1920.08041,0.00123
1918.02024,0.00166
1915.96007,0.00174
1913.89990,0.00177
1911.83972,0.00204
1909.77955,0.00219
1907.71938,0.00219
1905.65921,0.00240
1903.59904,0.00258
1901.53886,0.00230
1899.47869,0.00193
1897.41852,0.00183
1895.35835,0.00170
1893.29818,0.00144
1891.23800,0.00181
1889.17783,0.00231
1887.11766,0.00213
1885.05749,0.00205
1882.99731,0.00220
1880.93714,0.00223
1878.87697,0.00222
1876.81680,0.00221
1874.75663,0.00199
1872.69645,0.00167
1870.63628,0.00196
1868.57611,0.00226
1866.51594,0.00166
1864.45577,0.00130
1862.39559,0.00160
1860.33542,0.00191
1858.27525,0.00205
1856.21508,0.00213
1854.15491,0.00206
1852.09473,0.00181
1850.03456,0.00156
1847.97439,0.00132
1845.91422,0.00157
1843.85404,0.00196
1841.79387,0.00156
1839.73370,0.00144
1837.67353,0.00173
1835.61336,0.00161
1833.55318,0.00139
1831.49301,0.00177
1829.43284,0.00187
1827.37267,0.00142
1825.31250,0.00152
1823.25232,0.00138
1821.19215,0.00112
1819.13198,0.00128
1817.07181,0.00140
1815.01163,0.00141
1812.95146,0.00171
1810.89129,0.00193
1808.83112,0.00157
1806.77095,0.00118
1804.71077,0.00118
1802.65060,0.00153
1800.59043,0.00168
1798.53026,0.00112
1796.47009,0.00066
1794.40991,0.00131
1792.34974,0.00224
1790.28957,0.00172
1788.22940,0.00116
1786.16923,0.00170
1784.10905,0.00211
1782.04888,0.00205
1779.98871,0.00176
1777.92854,0.00117
1775.86836,0.00109
1773.80819,0.00196
1771.74802,0.00250
1769.68785,0.00209
1767.62768,0.00196
1765.56750,0.00196
1763.50733,0.00269
1761.44716,0.00347
1759.38699,0.00355
1757.32682,0.00402
1755.26664,0.00417
1753.20647,0.00465
1751.14630,0.00595
1749.08613,0.00658
1747.02596,0.00663
1744.96578,0.00702
1742.90561,0.00780
1740.84544,0.00848
1738.78527,0.00801
1736.72509,0.00786
1734.66492,0.00959
1732.60475,0.00984
1730.54458,0.00915
1728.48441,0.00918
1726.42423,0.00930
1724.36406,0.00926
1722.30389,0.00858
1720.24372,0.00851
1718.18355,0.00948
1716.12337,0.00909
1714.06320,0.00774
1712.00303,0.00682
1709.94286,0.00653
1707.88268,0.00675
1705.82251,0.00663
1703.76234,0.00563
1701.70217,0.00597
1699.64200,0.00633
1697.58182,0.00604
1695.52165,0.00669
1693.46148,0.00623
1691.40131,0.00619
1689.34114,0.00642
1687.28096,0.00673
1685.22079,0.00880
1683.16062,0.00947
1681.10045,0.00827
1679.04028,0.00836
1676.98010,0.00991
1674.91993,0.01094
1672.85976,0.01074
1670.79959,0.01188
1668.73941,0.01277
1666.67924,0.01229
1664.61907,0.01322
1662.55890,0.01485
1660.49873,0.01490
1658.43855,0.01450
1656.37838,0.01555
1654.31821,0.01836
1652.25804,0.01807
1650.19787,0.01581
1648.13769,0.01735
1646.07752,0.01887
1644.01735,0.01779
1641.95718,0.01722
1639.89701,0.01757
1637.83683,0.01886
1635.77666,0.02013
1633.71649,0.01883
1631.65632,0.01774
1629.59614,0.01832
1627.53597,0.01865
1625.47580,0.01877
1623.41563,0.01918
1621.35546,0.01850
1619.29528,0.01864
1617.23511,0.02009
1615.17494,0.01965
1613.11477,0.01854
1611.05460,0.01854
1608.99442,0.01849
1606.93425,0.01791
1604.87408,0.01730
1602.81391,0.01676
1600.75373,0.01600
1598.69356,0.01518
1596.63339,0.01450
1594.57322,0.01373
1592.51305,0.01271
1590.45287,0.01171
1588.39270,0.01084
1586.33253,0.01007
1584.27236,0.00929
1582.21219,0.00830
1580.15201,0.00743
1578.09184,0.00779
1576.03167,0.00786
1573.97150,0.00579
1571.91133,0.00511
1569.85115,0.00592
1567.79098,0.00510
1565.73081,0.00394
1563.67064,0.00309
1561.61046,0.00395
1559.55029,0.00656
1557.49012,0.00482
1555.42995,0.00249
1553.36978,0.00243
1551.30960,0.00280
1549.24943,0.00243
1547.18926,0.00142
1545.12909,0.00101
1543.06892,0.00144
1541.00874,0.00295
1538.94857,0.00254
1536.88840,0.00047
1534.82823,0.00107
1532.76805,0.00193
1530.70788,0.00102
1528.64771,0.00086
1526.58754,0.00097
1524.52737,0.00063
1522.46719,0.00114
1520.40702,0.00100
1518.34685,0.00062
1516.28668,0.00096
1514.22651,0.00053
1512.16633,0.00000
1510.10616,0.00038
1508.04599,0.00234
1505.98582,0.00246
1503.92565,0.00018
1501.86547,-0.00019
1499.80530,0.00123
1497.74513,0.00234
1495.68496,0.00178
1493.62478,0.00074
1491.56461,0.00148
1489.50444,0.00260
1487.44427,0.00234
1485.38410,0.00192
1483.32392,0.00235
1481.26375,0.00301
1479.20358,0.00316
1477.14341,0.00348
1475.08324,0.00444
1473.02306,0.00564
1470.96289,0.00544
1468.90272,0.00508
1466.84255,0.00645
1464.78238,0.00758
1462.72220,0.00670
1460.66203,0.00653
1458.60186,0.00849
1456.54169,0.00932
1454.48151,0.00794
1452.42134,0.00775
1450.36117,0.00878
1448.30100,0.00977
1446.24083,0.01000
1444.18065,0.00995
1442.12048,0.00996
1440.06031,0.01018
1438.00014,0.01137
1435.93997,0.01178
1433.87979,0.01089
1431.81962,0.01126
1429.75945,0.01219
1427.69928,0.01233
1425.63910,0.01253
1423.57893,0.01273
1421.51876,0.01319
1419.45859,0.01441
1417.39842,0.01442
1415.33824,0.01392
1413.27807,0.01413
1411.21790,0.01436
1409.15773,0.01416
1407.09756,0.01407
1405.03738,0.01388
1402.97721,0.01300
1400.91704,0.01258
1398.85687,0.01261
1396.79670,0.01234
1394.73652,0.01197
1392.67635,0.01114
1390.61618,0.01084
1388.55601,0.01156
1386.49583,0.01196
1384.43566,0.01187
1382.37549,0.01223
1380.31532,0.01270
1378.25515,0.01292
1376.19497,0.01332
1374.13480,0.01376
1372.07463,0.01356
1370.01446,0.01339
1367.95429,0.01325
1365.89411,0.01298
1363.83394,0.01316
1361.77377,0.01302
1359.71360,0.01235
1357.65343,0.01206
1355.59325,0.01209
1353.53308,0.01200
1351.47291,0.01187
1349.41274,0.01173
1347.35256,0.01142
1345.29239,0.01098
1343.23222,0.01065
1341.17205,0.01075
1339.11188,0.01092
1337.05170,0.01072
1334.99153,0.01060
1332.93136,0.01063
1330.87119,0.01067
1328.81102,0.01068
1326.75084,0.01065
1324.69067,0.01060
1322.63050,0.01068
1320.57033,0.01092
1318.51015,0.01099
1316.44998,0.01082
1314.38981,0.01081
1312.32964,0.01085
1310.26947,0.01073
1308.20929,0.01060
1306.14912,0.01044
1304.08895,0.01019
1302.02878,0.00985
1299.96861,0.00951
1297.90843,0.00929
1295.84826,0.00920
1293.78809,0.00914
1291.72792,0.00905
1289.66775,0.00898
1287.60757,0.00893
1285.54740,0.00890
1283.48723,0.00887
1281.42706,0.00883
1279.36688,0.00889
1277.30671,0.00910
1275.24654,0.00936
1273.18637,0.00966
1271.12620,0.00998
1269.06602,0.01027
1267.00585,0.01072
1264.94568,0.01145
1262.88551,0.01224
1260.82534,0.01285
1258.76516,0.01331
1256.70499,0.01376
1254.64482,0.01410
1252.58465,0.01425
1250.52447,0.01435
1248.46430,0.01452
1246.40413,0.01468
1244.34396,0.01462
1242.28379,0.01430
1240.22361,0.01391
1238.16344,0.01354
1236.10327,0.01323
1234.04310,0.01288
1231.98293,0.01234
1229.92275,0.01165
1227.86258,0.01102
1225.80241,0.01052
1223.74224,0.01005
1221.68207,0.00953
1219.62189,0.00889
1217.56172,0.00817
1215.50155,0.00746
1213.44138,0.00684
1211.38120,0.00614
1209.32103,0.00528
1207.26086,0.00448
1205.20069,0.00374
1203.14052,0.00293
1201.08034,0.00209
1199.02017,0.00126
1196.96000,0.00059
1194.89983,0.00027
1192.83966,0.00014
1190.77948,0.00000
1188.71931,-0.00010
1186.65914,0.00005
1184.59897,0.00034
1182.53880,0.00077
1180.47862,0.00148
1178.41845,0.00241
1176.35828,0.00334
1174.29811,0.00426
1172.23793,0.00538
1170.17776,0.00665
1168.11759,0.00791
1166.05742,0.00917
1163.99725,0.01043
1161.93707,0.01162
1159.87690,0.01280
1157.81673,0.01399
1155.75656,0.01506
1153.69639,0.01588
1151.63621,0.01657
1149.57604,0.01742
1147.51587,0.01840
1145.45570,0.01921
1143.39552,0.01966
1141.33535,0.01991
1139.27518,0.02027
1137.21501,0.02087
1135.15484,0.02154
1133.09466,0.02213
1131.03449,0.02279
1128.97432,0.02367
1126.91415,0.02471
1124.85398,0.02581
1122.79380,0.02695
1120.73363,0.02806
1118.67346,0.02913
1116.61329,0.03012
1114.55312,0.03108
1112.49294,0.03212
1110.43277,0.03308
1108.37260,0.03386
1106.31243,0.03481
1104.25225,0.03612
1102.19208,0.03770
1100.13191,0.03942
1098.07174,0.04106
1096.01157,0.04268
1093.95139,0.04443
1091.89122,0.04615
1089.83105,0.04762
1087.77088,0.04888
1085.71071,0.05004
1083.65053,0.05102
1081.59036,0.05199
1079.53019,0.05340
1077.47002,0.05508
1075.40985,0.05649
1073.34967,0.05754
1071.28950,0.05847
1069.22933,0.05932
1067.16916,0.05998
1065.10898,0.06050
1063.04881,0.06100
1060.98864,0.06154
1058.92847,0.06206
1056.86830,0.06249
1054.80812,0.06297
1052.74795,0.06360
1050.68778,0.06422
1048.62761,0.06488
1046.56744,0.06569
1044.50726,0.06652
1042.44709,0.06723
1040.38692,0.06777
1038.32675,0.06813
1036.26657,0.06832
1034.20640,0.06836
1032.14623,0.06809
1030.08606,0.06758
1028.02589,0.06710
1025.96571,0.06667
1023.90554,0.06616
1021.84537,0.06556
1019.78520,0.06495
1017.72503,0.06447
1015.66485,0.06415
1013.60468,0.06386
1011.54451,0.06341
1009.48434,0.06274
1007.42417,0.06200
1005.36399,0.06132
1003.30382,0.06050
1001.24365,0.05942
999.18348,0.05829
997.12330,0.05721
995.06313,0.05626
993.00296,0.05553
990.94279,0.05484
988.88262,0.05424
986.82244,0.05375
984.76227,0.05329
982.70210,0.05281
980.64193,0.05208
978.58176,0.05116
976.52158,0.05039
974.46141,0.04972
972.40124,0.04886
970.34107,0.04760
968.28089,0.04612
966.22072,0.04474
964.16055,0.04352
962.10038,0.04234
960.04021,0.04112
957.98003,0.03995
955.91986,0.03899
953.85969,0.03815
951.79952,0.03708
949.73935,0.03562
947.67917,0.03402
945.61900,0.03248
943.55883,0.03092
941.49866,0.02916
939.43849,0.02722
937.37831,0.02534
935.31814,0.02350
933.25797,0.02163
931.19780,0.01994
929.13762,0.01844
927.07745,0.01697
925.01728,0.01559
922.95711,0.01445
920.89694,0.01361
918.83676,0.01274
916.77659,0.01160
914.71642,0.01046
912.65625,0.00962
910.59608,0.00908
908.53590,0.00858
906.47573,0.00812
904.41556,0.00802
902.35539,0.00815
900.29522,0.00821
898.23504,0.00837
896.17487,0.00869
894.11470,0.00903
892.05453,0.00913
889.99435,0.00879
887.93418,0.00827
885.87401,0.00785
883.81384,0.00752
881.75367,0.00721
879.69349,0.00675
877.63332,0.00634
875.57315,0.00631
873.51298,0.00637
871.45281,0.00624
869.39263,0.00601
867.33246,0.00600
865.27229,0.00605
863.21212,0.00572
861.15194,0.00532
859.09177,0.00503
857.03160,0.00469
854.97143,0.00455
852.91126,0.00460
850.85108,0.00435
848.79091,0.00369
846.73074,0.00300
844.67057,0.00265
842.61040,0.00249
840.55022,0.00208
838.49005,0.00151
836.42988,0.00109
834.36971,0.00078
832.30954,0.00055
830.24936,0.00048
828.18919,0.00040
826.12902,0.00037
824.06885,0.00045
822.00867,0.00056
819.94850,0.00073
817.88833,0.00064
815.82816,0.00034
813.76799,0.00044
811.70781,0.00109
809.64764,0.00172
807.58747,0.00185
805.52730,0.00175
803.46713,0.00181
801.40695,0.00193
799.34678,0.00177
797.28661,0.00126
795.22644,0.00061
793.16627,0.00015
791.10609,0.00000
789.04592,0.00001
786.98575,0.00004
784.92558,0.00012
782.86540,0.00033
780.80523,0.00044
778.74506,0.00041
776.68489,0.00038
774.62472,0.00025
772.56454,0.00013
770.50437,0.00036
768.44420,0.00063
766.38403,0.00052
764.32386,0.00042
762.26368,0.00057
760.20351,0.00056
758.14334,0.00042
756.08317,0.00028
754.02299,-0.00001
751.96282,0.00000
749.90265,0.00026
747.84248,0.00020
745.78231,-0.00016
743.72213,-0.00042
741.66196,-0.00056
739.60179,-0.00070
737.54162,-0.00082
735.48145,-0.00095
733.42127,-0.00106
731.36110,-0.00102
729.30093,-0.00072
727.24076,-0.00025
725.18059,0.00005
723.12041,0.00033
721.06024,0.00030
719.00007,0.00035
716.93990,0.00073
714.87972,0.00125
712.81955,0.00174
710.75938,0.00215
708.69921,0.00264
706.63904,0.00310
704.57886,0.00335
702.51869,0.00346
700.45852,0.00346
698.39835,0.00340
696.33818,0.00345
694.27800,0.00358
692.21783,0.00359
690.15766,0.00327
688.09749,0.00266
686.03731,0.00205
683.97714,0.00160
681.91697,0.00148
679.85680,0.00188
677.79663,0.00268
675.73645,0.00313
673.67628,0.00212
671.61611,0.00000
669.55594,0.00081
667.49577,0.00404
665.43559,0.00231
663.37542,0.00321
661.31525,0.00363
659.25508,0.00259
657.19491,0.00127
655.13473,0.00083
653.07456,0.00113
651.01439,0.00099
648.95422,0.00044
646.89404,0.00024
644.83387,0.00056
642.77370,0.00079
640.71353,0.00049
638.65336,-0.00048
636.59318,-0.00142
634.53301,-0.00132
632.47284,-0.00050
630.41267,0.00010
628.35250,0.00012
626.29232,-0.00097
624.23215,-0.00230
622.17198,-0.00204
620.11181,-0.00096
618.05164,0.00028
615.99146,0.00128
613.93129,0.00100
611.87112,-0.00002
609.81095,-0.00130
607.75077,-0.00277
605.69060,-0.00277
603.63043,-0.00028
601.57026,0.00140
599.51009,0.00000
