3996.73391,0.00047
3994.67373,0.00051
3992.61356,0.00051
3990.55339,0.00055
3988.49322,0.00067
3986.43305,0.00069
3984.37287,0.00049
3982.31270,0.00033
3980.25253,0.00045
3978.19236,0.00058
3976.13219,0.00051
3974.07201,0.00035
3972.01184,0.00012
3969.95167,0.00000
3967.89150,0.00010
3965.83133,0.00029
3963.77115,0.00050
3961.71098,0.00062
3959.65081,0.00058
3957.59064,0.00051
3955.53046,0.00044
3953.47029,0.00035
3951.41012,0.00037
3949.34995,0.00060
3947.28978,0.00085
3945.22960,0.00093
3943.16943,0.00094
3941.10926,0.00090
3939.04909,0.00081
3936.98892,0.00085
3934.92874,0.00098
3932.86857,0.00101
3930.80840,0.00096
3928.74823,0.00092
3926.68805,0.00091
3924.62788,0.00091
3922.56771,0.00087
3920.50754,0.00072
3918.44737,0.00066
3916.38719,0.00063
3914.32702,0.00050
3912.26685,0.00042
3910.20668,0.00042
3908.14651,0.00041
3906.08633,0.00050
3904.02616,0.00078
3901.96599,0.00092
3899.90582,0.00083
3897.84565,0.00075
3895.78547,0.00076
3893.72530,0.00082
3891.66513,0.00101
3889.60496,0.00121
3887.54478,0.00112
3885.48461,0.00081
3883.42444,0.00062
3881.36427,0.00072
3879.30410,0.00092
3877.24392,0.00087
3875.18375,0.00072
3873.12358,0.00078
3871.06341,0.00095
3869.00324,0.00108
3866.94306,0.00113
3864.88289,0.00113
3862.82272,0.00118
3860.76255,0.00114
3858.70237,0.00083
3856.64220,0.00047
3854.58203,0.00045
3852.52186,0.00071
3850.46169,0.00072
3848.40151,0.00069
3846.34134,0.00076
3844.28117,0.00071
3842.22100,0.00058
3840.16083,0.00068
3838.10065,0.00093
3836.04048,0.00094
3833.98031,0.00083
3831.92014,0.00084
3829.85997,0.00089
3827.79979,0.00094
3825.73962,0.00097
3823.67945,0.00083
3821.61928,0.00065
3819.55910,0.00074
3817.49893,0.00092
3815.43876,0.00083
3813.37859,0.00054
3811.31842,0.00031
3809.25824,0.00023
3807.19807,0.00037
3805.13790,0.00048
3803.07773,0.00031
3801.01756,0.00012
3798.95738,0.00012
3796.89721,0.00030
3794.83704,0.00059
3792.77687,0.00079
3790.71670,0.00088
3788.65652,0.00091
3786.59635,0.00088
3784.53618,0.00074
3782.47601,0.00048
3780.41583,0.00022
3778.35566,0.00022
3776.29549,0.00040
3774.23532,0.00053
3772.17515,0.00056
3770.11497,0.00059
3768.05480,0.00072
3765.99463,0.00082
3763.93446,0.00071
3761.87429,0.00047
3759.81411,0.00041
3757.75394,0.00043
3755.69377,0.00023
3753.63360,0.00004
3751.57342,0.00016
3749.51325,0.00034
3747.45308,0.00031
3745.39291,0.00041
3743.33274,0.00088
3741.27256,0.00123
3739.21239,0.00123
3737.15222,0.00106
3735.09205,0.00096
3733.03188,0.00100
3730.97170,0.00113
3728.91153,0.00119
3726.85136,0.00123
3724.79119,0.00120
3722.73102,0.00100
3720.67084,0.00073
3718.61067,0.00055
3716.55050,0.00041
3714.49033,0.00015
3712.43015,0.00000
3710.36998,0.00023
3708.30981,0.00038
3706.24964,0.00027
3704.18947,0.00012
3702.12929,0.00012
3700.06912,0.00030
3698.00895,0.00048
3695.94878,0.00060
3693.88861,0.00063
3691.82843,0.00038
3689.76826,0.00004
3687.70809,0.00019
3685.64792,0.00051
3683.58775,0.00064
3681.52757,0.00063
3679.46740,0.00048
3677.40723,0.00032
3675.34706,0.00070
3673.28688,0.00146
3671.22671,0.00180
3669.16654,0.00171
3667.10637,0.00149
3665.04620,0.00124
3662.98602,0.00104
3660.92585,0.00107
3658.86568,0.00136
3656.80551,0.00168
3654.74534,0.00176
3652.68516,0.00156
3650.62499,0.00146
3648.56482,0.00192
3646.50465,0.00233
3644.44447,0.00227
3642.38430,0.00207
3640.32413,0.00183
3638.26396,0.00157
3636.20379,0.00156
3634.14361,0.00189
3632.08344,0.00231
3630.02327,0.00268
3627.96310,0.00301
3625.90293,0.00312
3623.84275,0.00321
3621.78258,0.00347
3619.72241,0.00374
3617.66224,0.00370
3615.60207,0.00335
3613.54189,0.00317
3611.48172,0.00332
3609.42155,0.00352
3607.36138,0.00368
3605.30120,0.00384
3603.24103,0.00394
3601.18086,0.00395
3599.12069,0.00401
3597.06052,0.00417
3595.00034,0.00452
3592.94017,0.00502
3590.88000,0.00557
3588.81983,0.00614
3586.75966,0.00655
3584.69948,0.00652
3582.63931,0.00631
3580.57914,0.00629
3578.51897,0.00640
3576.45879,0.00644
3574.39862,0.00648
3572.33845,0.00655
3570.27828,0.00661
3568.21811,0.00681
3566.15793,0.00715
3564.09776,0.00743
3562.03759,0.00767
3559.97742,0.00775
3557.91725,0.00767
3555.85707,0.00760
3553.79690,0.00765
3551.73673,0.00790
3549.67656,0.00827
3547.61639,0.00856
3545.55621,0.00874
3543.49604,0.00879
3541.43587,0.00872
3539.37570,0.00873
3537.31552,0.00905
3535.25535,0.00944
3533.19518,0.00955
3531.13501,0.00957
3529.07484,0.00987
3527.01466,0.01034
3524.95449,0.01072
3522.89432,0.01095
3520.83415,0.01095
3518.77398,0.01079
3516.71380,0.01083
3514.65363,0.01119
3512.59346,0.01160
3510.53329,0.01184
3508.47312,0.01191
3506.41294,0.01186
3504.35277,0.01189
3502.29260,0.01213
3500.23243,0.01231
3498.17225,0.01232
3496.11208,0.01242
3494.05191,0.01277
3491.99174,0.01321
3489.93157,0.01346
3487.87139,0.01346
3485.81122,0.01330
3483.75105,0.01331
3481.69088,0.01372
3479.63071,0.01416
3477.57053,0.01435
3475.51036,0.01442
3473.45019,0.01454
3471.39002,0.01469
3469.32984,0.01479
3467.26967,0.01490
3465.20950,0.01510
3463.14933,0.01525
3461.08916,0.01533
3459.02898,0.01541
3456.96881,0.01554
3454.90864,0.01568
3452.84847,0.01585
3450.78830,0.01599
3448.72812,0.01602
3446.66795,0.01605
3444.60778,0.01616
3442.54761,0.01628
3440.48744,0.01634
3438.42726,0.01640
3436.36709,0.01660
3434.30692,0.01684
3432.24675,0.01704
3430.18657,0.01724
3428.12640,0.01739
3426.06623,0.01751
3424.00606,0.01760
3421.94589,0.01770
3419.88571,0.01781
3417.82554,0.01792
3415.76537,0.01809
3413.70520,0.01820
3411.64503,0.01828
3409.58485,0.01851
3407.52468,0.01872
3405.46451,0.01867
3403.40434,0.01858
3401.34416,0.01866
3399.28399,0.01895
3397.22382,0.01921
3395.16365,0.01943
3393.10348,0.01964
3391.04330,0.01979
3388.98313,0.01979
3386.92296,0.01976
3384.86279,0.01990
3382.80262,0.02004
3380.74244,0.02004
3378.68227,0.02003
3376.62210,0.02001
3374.56193,0.01997
3372.50176,0.02003
3370.44158,0.02016
3368.38141,0.02027
3366.32124,0.02033
3364.26107,0.02046
3362.20089,0.02065
3360.14072,0.02083
3358.08055,0.02093
3356.02038,0.02087
3353.96021,0.02076
3351.90003,0.02074
3349.83986,0.02083
3347.77969,0.02098
3345.71952,0.02111
3343.65935,0.02123
3341.59917,0.02133
3339.53900,0.02137
3337.47883,0.02133
3335.41866,0.02134
3333.35849,0.02145
3331.29831,0.02139
3329.23814,0.02118
3327.17797,0.02123
3325.11780,0.02151
3323.05762,0.02158
3320.99745,0.02141
3318.93728,0.02125
3316.87711,0.02119
3314.81694,0.02121
3312.75676,0.02132
3310.69659,0.02147
3308.63642,0.02156
3306.57625,0.02163
3304.51608,0.02181
3302.45590,0.02199
3300.39573,0.02201
3298.33556,0.02191
3296.27539,0.02178
3294.21521,0.02170
3292.15504,0.02171
3290.09487,0.02175
3288.03470,0.02166
3285.97453,0.02141
3283.91435,0.02128
3281.85418,0.02138
3279.79401,0.02154
3277.73384,0.02161
3275.67367,0.02164
3273.61349,0.02176
3271.55332,0.02192
3269.49315,0.02192
3267.43298,0.02176
3265.37281,0.02161
3263.31263,0.02148
3261.25246,0.02144
3259.19229,0.02150
3257.13212,0.02153
3255.07194,0.02142
3253.01177,0.02124
3250.95160,0.02132
3248.89143,0.02170
3246.83126,0.02195
3244.77108,0.02190
3242.71091,0.02176
3240.65074,0.02158
3238.59057,0.02141
3236.53040,0.02138
3234.47022,0.02140
3232.41005,0.02127
3230.34988,0.02107
3228.28971,0.02093
3226.22954,0.02086
3224.16936,0.02087
3222.10919,0.02084
3220.04902,0.02068
3217.98885,0.02052
3215.92867,0.02054
3213.86850,0.02048
3211.80833,0.02020
3209.74816,0.01998
3207.68799,0.01992
3205.62781,0.01988
3203.56764,0.01992
3201.50747,0.01999
3199.44730,0.01997
3197.38713,0.01975
3195.32695,0.01938
3193.26678,0.01904
3191.20661,0.01885
3189.14644,0.01876
3187.08626,0.01869
3185.02609,0.01867
3182.96592,0.01877
3180.90575,0.01884
3178.84558,0.01864
3176.78540,0.01829
3174.72523,0.01819
3172.66506,0.01831
3170.60489,0.01820
3168.54472,0.01792
3166.48454,0.01782
3164.42437,0.01780
3162.36420,0.01765
3160.30403,0.01738
3158.24386,0.01712
3156.18368,0.01702
3154.12351,0.01702
3152.06334,0.01707
3150.00317,0.01708
3147.94299,0.01693
3145.88282,0.01660
3143.82265,0.01614
3141.76248,0.01585
3139.70231,0.01588
3137.64213,0.01593
3135.58196,0.01582
3133.52179,0.01574
3131.46162,0.01581
3129.40145,0.01574
3127.34127,0.01540
3125.28110,0.01515
3123.22093,0.01514
3121.16076,0.01515
3119.10058,0.01495
3117.04041,0.01462
3114.98024,0.01442
3112.92007,0.01439
3110.85990,0.01433
3108.79972,0.01411
3106.73955,0.01383
3104.67938,0.01365
3102.61921,0.01348
3100.55904,0.01318
3098.49886,0.01293
3096.43869,0.01287
3094.37852,0.01285
3092.31835,0.01278
3090.25818,0.01270
3088.19800,0.01262
3086.13783,0.01247
3084.07766,0.01231
3082.01749,0.01226
3079.95731,0.01229
3077.89714,0.01220
3075.83697,0.01195
3073.77680,0.01171
3071.71663,0.01156
3069.65645,0.01138
3067.59628,0.01119
3065.53611,0.01101
3063.47594,0.01085
3061.41577,0.01078
3059.35559,0.01074
3057.29542,0.01058
3055.23525,0.01038
3053.17508,0.01022
3051.11491,0.01014
3049.05473,0.01015
3046.99456,0.01020
3044.93439,0.01025
3042.87422,0.01024
3040.81404,0.01015
3038.75387,0.00994
3036.69370,0.00967
3034.63353,0.00955
3032.57336,0.00954
3030.51318,0.00944
3028.45301,0.00922
3026.39284,0.00907
3024.33267,0.00911
3022.27250,0.00917
3020.21232,0.00913
3018.15215,0.00900
3016.09198,0.00891
3014.03181,0.00887
3011.97163,0.00879
3009.91146,0.00860
3007.85129,0.00844
3005.79112,0.00839
3003.73095,0.00837
3001.67077,0.00838
2999.61060,0.00844
2997.55043,0.00847
2995.49026,0.00841
2993.43009,0.00840
2991.36991,0.00838
2989.30974,0.00833
2987.24957,0.00830
2985.18940,0.00835
2983.12923,0.00839
2981.06905,0.00829
2979.00888,0.00821
2976.94871,0.00834
2974.88854,0.00859
2972.82836,0.00884
2970.76819,0.00904
2968.70802,0.00917
2966.64785,0.00917
2964.58768,0.00912
2962.52750,0.00916
2960.46733,0.00928
2958.40716,0.00945
2956.34699,0.00970
2954.28682,0.00997
2952.22664,0.01017
2950.16647,0.01032
2948.10630,0.01055
2946.04613,0.01082
2943.98596,0.01097
2941.92578,0.01102
2939.86561,0.01119
2937.80544,0.01147
2935.74527,0.01163
2933.68509,0.01161
2931.62492,0.01151
2929.56475,0.01141
2927.50458,0.01133
2925.44441,0.01126
2923.38423,0.01126
2921.32406,0.01128
2919.26389,0.01131
2917.20372,0.01131
2915.14355,0.01116
2913.08337,0.01093
2911.02320,0.01077
2908.96303,0.01070
2906.90286,0.01057
2904.84268,0.01041
2902.78251,0.01040
2900.72234,0.01042
2898.66217,0.01036
2896.60200,0.01042
2894.54182,0.01060
2892.48165,0.01064
2890.42148,0.01050
2888.36131,0.01036
2886.30114,0.01035
2884.24096,0.01037
2882.18079,0.01026
2880.12062,0.01008
2878.06045,0.00995
2876.00028,0.00990
2873.94010,0.00991
2871.87993,0.00988
2869.81976,0.00977
2867.75959,0.00961
2865.69941,0.00946
2863.63924,0.00933
2861.57907,0.00915
2859.51890,0.00886
2857.45873,0.00862
2855.39855,0.00856
2853.33838,0.00864
2851.27821,0.00874
2849.21804,0.00866
2847.15787,0.00846
2845.09769,0.00827
2843.03752,0.00811
2840.97735,0.00807
2838.91718,0.00809
2836.85700,0.00800
2834.79683,0.00781
2832.73666,0.00764
2830.67649,0.00755
2828.61632,0.00747
2826.55614,0.00737
2824.49597,0.00729
2822.43580,0.00725
2820.37563,0.00724
2818.31546,0.00722
2816.25528,0.00712
2814.19511,0.00706
2812.13494,0.00710
2810.07477,0.00710
2808.01460,0.00695
2805.95442,0.00678
2803.89425,0.00673
2801.83408,0.00670
2799.77391,0.00661
2797.71373,0.00658
2795.65356,0.00658
2793.59339,0.00659
2791.53322,0.00664
2789.47305,0.00672
2787.41287,0.00673
2785.35270,0.00663
2783.29253,0.00648
2781.23236,0.00637
2779.17219,0.00634
2777.11201,0.00635
2775.05184,0.00633
2772.99167,0.00626
2770.93150,0.00613
2768.87133,0.00600
2766.81115,0.00598
2764.75098,0.00606
2762.69081,0.00618
2760.63064,0.00622
2758.57046,0.00606
2756.51029,0.00588
2754.45012,0.00583
2752.38995,0.00587
2750.32978,0.00595
2748.26960,0.00604
2746.20943,0.00603
2744.14926,0.00599
2742.08909,0.00598
2740.02892,0.00598
2737.96874,0.00600
2735.90857,0.00600
2733.84840,0.00595
2731.78823,0.00588
2729.72805,0.00585
2727.66788,0.00584
2725.60771,0.00578
2723.54754,0.00577
2721.48737,0.00578
2719.42719,0.00567
2717.36702,0.00549
2715.30685,0.00546
2713.24668,0.00551
2711.18651,0.00547
2709.12633,0.00544
2707.06616,0.00551
2705.00599,0.00558
2702.94582,0.00556
2700.88565,0.00550
2698.82547,0.00547
2696.76530,0.00542
2694.70513,0.00527
2692.64496,0.00513
2690.58478,0.00520
2688.52461,0.00542
2686.46444,0.00553
2684.40427,0.00542
2682.34410,0.00522
2680.28392,0.00505
2678.22375,0.00499
2676.16358,0.00508
2674.10341,0.00516
2672.04324,0.00514
2669.98306,0.00512
2667.92289,0.00510
2665.86272,0.00508
2663.80255,0.00510
2661.74238,0.00520
2659.68220,0.00523
2657.62203,0.00513
2655.56186,0.00505
2653.50169,0.00509
2651.44151,0.00510
2649.38134,0.00503
2647.32117,0.00497
2645.26100,0.00487
2643.20083,0.00470
2641.14065,0.00468
2639.08048,0.00484
2637.02031,0.00489
2634.96014,0.00477
2632.89997,0.00459
2630.83979,0.00446
2628.77962,0.00442
2626.71945,0.00435
2624.65928,0.00433
2622.59910,0.00438
2620.53893,0.00427
2618.47876,0.00417
2616.41859,0.00412
2614.35842,0.00402
2612.29824,0.00400
2610.23807,0.00414
2608.17790,0.00426
2606.11773,0.00419
2604.05756,0.00405
2601.99738,0.00395
2599.93721,0.00398
2597.87704,0.00407
2595.81687,0.00408
2593.75670,0.00398
2591.69652,0.00373
2589.63635,0.00359
2587.57618,0.00367
2585.51601,0.00375
2583.45583,0.00382
2581.39566,0.00400
2579.33549,0.00403
2577.27532,0.00378
2575.21515,0.00363
2573.15497,0.00360
2571.09480,0.00340
2569.03463,0.00322
2566.97446,0.00326
2564.91429,0.00329
2562.85411,0.00314
2560.79394,0.00313
2558.73377,0.00330
2556.67360,0.00341
2554.61342,0.00352
2552.55325,0.00371
2550.49308,0.00379
2548.43291,0.00365
2546.37274,0.00361
2544.31256,0.00386
2542.25239,0.00407
2540.19222,0.00407
2538.13205,0.00391
2536.07188,0.00362
2534.01170,0.00332
2531.95153,0.00320
2529.89136,0.00329
2527.83119,0.00335
2525.77102,0.00328
2523.71084,0.00308
2521.65067,0.00292
2519.59050,0.00305
2517.53033,0.00321
2515.47015,0.00317
2513.40998,0.00314
2511.34981,0.00313
2509.28964,0.00317
2507.22947,0.00338
2505.16929,0.00337
2503.10912,0.00307
2501.04895,0.00294
2498.98878,0.00299
2496.92861,0.00296
2494.86843,0.00292
2492.80826,0.00305
2490.74809,0.00327
2488.68792,0.00333
2486.62775,0.00311
2484.56757,0.00288
2482.50740,0.00291
2480.44723,0.00310
2478.38706,0.00317
2476.32688,0.00308
2474.26671,0.00310
2472.20654,0.00321
2470.14637,0.00315
2468.08620,0.00316
2466.02602,0.00330
2463.96585,0.00323
2461.90568,0.00310
2459.84551,0.00303
2457.78534,0.00284
2455.72516,0.00284
2453.66499,0.00318
2451.60482,0.00337
2449.54465,0.00324
2447.48447,0.00314
2445.42430,0.00311
2443.36413,0.00299
2441.30396,0.00284
2439.24379,0.00275
2437.18361,0.00263
2435.12344,0.00256
2433.06327,0.00275
2431.00310,0.00288
2428.94293,0.00270
2426.88275,0.00264
2424.82258,0.00286
2422.76241,0.00301
2420.70224,0.00291
2418.64207,0.00272
2416.58189,0.00260
2414.52172,0.00254
2412.46155,0.00257
2410.40138,0.00274
2408.34120,0.00285
2406.28103,0.00281
2404.22086,0.00280
2402.16069,0.00269
2400.10052,0.00255
2398.04034,0.00238
2395.98017,0.00241
2393.92000,0.00244
2391.85983,0.00241
2389.79966,0.00241
2387.73948,0.00256
2385.67931,0.00286
2383.61914,0.00315
2381.55897,0.00334
2379.49880,0.00346
2377.43862,0.00345
2375.37845,0.00320
2373.31828,0.00301
2371.25811,0.00292
2369.19793,0.00260
2367.13776,0.00200
2365.07759,0.00147
2363.01742,0.00158
2360.95725,0.00320
2358.89707,0.00438
2356.83690,0.00460
2354.77673,0.00446
2352.71656,0.00426
2350.65639,0.00467
2348.59621,0.00460
2346.53604,0.00284
2344.47587,0.00233
2342.41570,0.00240
2340.35552,0.00235
2338.29535,0.00280
2336.23518,0.00350
2334.17501,0.00380
2332.11484,0.00339
2330.05466,0.00323
2327.99449,0.00375
2325.93432,0.00456
2323.87415,0.00440
2321.81398,0.00390
2319.75380,0.00364
2317.69363,0.00383
2315.63346,0.00402
2313.57329,0.00436
2311.51312,0.00470
2309.45294,0.00463
2307.39277,0.00440
2305.33260,0.00432
2303.27243,0.00429
2301.21225,0.00398
2299.15208,0.00362
2297.09191,0.00341
2295.03174,0.00327
2292.97157,0.00327
2290.91139,0.00341
2288.85122,0.00351
2286.79105,0.00353
2284.73088,0.00342
2282.67071,0.00316
2280.61053,0.00287
2278.55036,0.00268
2276.49019,0.00260
2274.43002,0.00252
2272.36984,0.00232
2270.30967,0.00234
2268.24950,0.00277
2266.18933,0.00307
2264.12916,0.00298
2262.06898,0.00285
2260.00881,0.00282
2257.94864,0.00295
2255.88847,0.00322
2253.82830,0.00328
2251.76812,0.00299
2249.70795,0.00261
2247.64778,0.00258
2245.58761,0.00275
2243.52744,0.00283
2241.46726,0.00264
2239.40709,0.00247
2237.34692,0.00252
2235.28675,0.00261
2233.22657,0.00265
2231.16640,0.00255
2229.10623,0.00236
2227.04606,0.00248
2224.98589,0.00296
2222.92571,0.00305
2220.86554,0.00251
2218.80537,0.00216
2216.74520,0.00204
2214.68503,0.00180
2212.62485,0.00189
2210.56468,0.00229
2208.50451,0.00250
2206.44434,0.00242
2204.38417,0.00215
2202.32399,0.00209
2200.26382,0.00237
2198.20365,0.00268
2196.14348,0.00309
2194.08330,0.00358
2192.02313,0.00382
2189.96296,0.00360
2187.90279,0.00311
2185.84262,0.00273
2183.78244,0.00239
2181.72227,0.00197
2179.66210,0.00171
2177.60193,0.00192
2175.54176,0.00236
2173.48158,0.00260
2171.42141,0.00315
2169.36124,0.00374
2167.30107,0.00330
2165.24089,0.00258
2163.18072,0.00248
2161.12055,0.00191
2159.06038,0.00049
2157.00021,0.00000
2154.94003,0.00101
2152.87986,0.00165
2150.81969,0.00114
2148.75952,0.00064
2146.69935,0.00044
2144.63917,0.00067
2142.57900,0.00138
2140.51883,0.00172
2138.45866,0.00182
2136.39849,0.00190
2134.33831,0.00168
2132.27814,0.00159
2130.21797,0.00194
2128.15780,0.00221
2126.09762,0.00228
2124.03745,0.00256
2121.97728,0.00286
2119.91711,0.00262
2117.85694,0.00225
2115.79676,0.00236
2113.73659,0.00247
2111.67642,0.00240
2109.61625,0.00252
2107.55608,0.00245
2105.49590,0.00226
2103.43573,0.00236
2101.37556,0.00248
2099.31539,0.00218
2097.25521,0.00165
2095.19504,0.00152
2093.13487,0.00187
2091.07470,0.00229
2089.01453,0.00259
2086.95435,0.00242
2084.89418,0.00188
2082.83401,0.00172
2080.77384,0.00203
2078.71367,0.00224
2076.65349,0.00221
2074.59332,0.00211
2072.53315,0.00197
2070.47298,0.00174
2068.41281,0.00146
2066.35263,0.00155
2064.29246,0.00205
2062.23229,0.00240
2060.17212,0.00229
2058.11194,0.00195
2056.05177,0.00172
2053.99160,0.00174
2051.93143,0.00178
2049.87126,0.00164
2047.81108,0.00154
2045.75091,0.00158
2043.69074,0.00210
2041.63057,0.00293
2039.57040,0.00273
2037.51022,0.00193
2035.45005,0.00186
2033.38988,0.00184
2031.32971,0.00101
2029.26954,0.00020
2027.20936,0.00042
2025.14919,0.00105
2023.08902,0.00100
2021.02885,0.00062
2018.96867,0.00066
2016.90850,0.00102
2014.84833,0.00145
2012.78816,0.00160
2010.72799,0.00115
2008.66781,0.00034
2006.60764,0.00000
2004.54747,0.00037
2002.48730,0.00067
2000.42713,0.00114
1998.36695,0.00197
1996.30678,0.00239
1994.24661,0.00268
1992.18644,0.00308
1990.12626,0.00285
1988.06609,0.00227
1986.00592,0.00207
1983.94575,0.00180
1981.88558,0.00123
1979.82540,0.00084
1977.76523,0.00074
1975.70506,0.00084
1973.64489,0.00069
1971.58472,0.00037
1969.52454,0.00038
1967.46437,0.00049
1965.40420,0.00047
1963.34403,0.00021
1961.28386,0.00000
1959.22368,0.00045
1957.16351,0.00135
1955.10334,0.00220
1953.04317,0.00243
1950.98299,0.00163
1948.92282,0.00046
1946.86265,0.00019
1944.80248,0.00070
1942.74231,0.00065
1940.68213,0.00029
1938.62196,0.00068
1936.56179,0.00123
1934.50162,0.00116
1932.44145,0.00103
1930.38127,0.00106
1928.32110,0.00093
1926.26093,0.00085
1924.20076,0.00099
1922.14059,0.00110
1920.08041,0.00107
1918.02024,0.00088
1915.96007,0.00074
1913.89990,0.00093
1911.83972,0.00126
1909.77955,0.00153
1907.71938,0.00159
1905.65921,0.00141
1903.59904,0.00117
1901.53886,0.00103
1899.47869,0.00088
1897.41852,0.00061
1895.35835,0.00034
1893.29818,0.00022
1891.23800,0.00034
1889.17783,0.00074
1887.11766,0.00108
1885.05749,0.00114
1882.99731,0.00108
1880.93714,0.00103
1878.87697,0.00098
1876.81680,0.00093
1874.75663,0.00092
1872.69645,0.00091
1870.63628,0.00082
1868.57611,0.00073
1866.51594,0.00069
1864.45577,0.00072
1862.39559,0.00078
1860.33542,0.00083
1858.27525,0.00089
1856.21508,0.00090
1854.15491,0.00081
1852.09473,0.00068
1850.03456,0.00059
1847.97439,0.00055
1845.91422,0.00057
1843.85404,0.00066
1841.79387,0.00065
1839.73370,0.00053
1837.67353,0.00044
1835.61336,0.00044
1833.55318,0.00047
1831.49301,0.00049
1829.43284,0.00063
1827.37267,0.00079
1825.31250,0.00080
1823.25232,0.00065
1821.19215,0.00038
1819.13198,0.00016
1817.07181,0.00015
1815.01163,0.00034
1812.95146,0.00053
1810.89129,0.00051
1808.83112,0.00041
1806.77095,0.00046
1804.71077,0.00060
1802.65060,0.00063
1800.59043,0.00057
1798.53026,0.00050
1796.47009,0.00044
1794.40991,0.00039
1792.34974,0.00049
1790.28957,0.00067
1788.22940,0.00066
1786.16923,0.00045
1784.10905,0.00027
1782.04888,0.00024
1779.98871,0.00033
1777.92854,0.00041
1775.86836,0.00034
1773.80819,0.00011
1771.74802,0.00000
1769.68785,0.00025
1767.62768,0.00062
1765.56750,0.00084
1763.50733,0.00097
1761.44716,0.00117
1759.38699,0.00143
1757.32682,0.00179
1755.26664,0.00216
1753.20647,0.00235
1751.14630,0.00253
1749.08613,0.00304
1747.02596,0.00362
1744.96578,0.00390
1742.90561,0.00400
1740.84544,0.00420
1738.78527,0.00447
1736.72509,0.00454
1734.66492,0.00458
1732.60475,0.00491
1730.54458,0.00523
1728.48441,0.00534
1726.42423,0.00528
1724.36406,0.00510
1722.30389,0.00475
1720.24372,0.00425
1718.18355,0.00389
1716.12337,0.00389
1714.06320,0.00390
1712.00303,0.00376
1709.94286,0.00347
1707.88268,0.00309
1705.82251,0.00281
1703.76234,0.00264
1701.70217,0.00245
1699.64200,0.00240
1697.58182,0.00264
1695.52165,0.00292
1693.46148,0.00298
1691.40131,0.00289
1689.34114,0.00281
1687.28096,0.00270
1685.22079,0.00276
1683.16062,0.00339
1681.10045,0.00406
1679.04028,0.00426
1676.98010,0.00428
1674.91993,0.00451
1672.85976,0.00490
1670.79959,0.00536
1668.73941,0.00601
1666.67924,0.00655
1664.61907,0.00687
1662.55890,0.00735
1660.49873,0.00794
1658.43855,0.00820
1656.37838,0.00805
1654.31821,0.00801
1652.25804,0.00854
1650.19787,0.00891
1648.13769,0.00908
1646.07752,0.00960
1644.01735,0.01012
1641.95718,0.01026
1639.89701,0.01016
1637.83683,0.01003
1635.77666,0.01024
1633.71649,0.01065
1631.65632,0.01074
1629.59614,0.01059
1627.53597,0.01053
1625.47580,0.01065
1623.41563,0.01090
1621.35546,0.01113
1619.29528,0.01113
1617.23511,0.01109
1615.17494,0.01119
1613.11477,0.01122
1611.05460,0.01109
1608.99442,0.01088
1606.93425,0.01055
1604.87408,0.01010
1602.81391,0.00964
1600.75373,0.00919
1598.69356,0.00870
1596.63339,0.00811
1594.57322,0.00745
1592.51305,0.00682
1590.45287,0.00628
1588.39270,0.00580
1586.33253,0.00536
1584.27236,0.00496
1582.21219,0.00456
1580.15201,0.00401
1578.09184,0.00330
1576.03167,0.00282
1573.97150,0.00272
1571.91133,0.00258
1569.85115,0.00232
1567.79098,0.00216
1565.73081,0.00207
1563.67064,0.00192
1561.61046,0.00158
1559.55029,0.00110
1557.49012,0.00099
1555.42995,0.00117
1553.36978,0.00125
1551.30960,0.00117
1549.24943,0.00103
1547.18926,0.00086
1545.12909,0.00063
1543.06892,0.00030
1541.00874,0.00000
1538.94857,0.00015
1536.88840,0.00038
1534.82823,0.00040
1532.76805,0.00042
1530.70788,0.00044
1528.64771,0.00037
1526.58754,0.00030
1524.52737,0.00017
1522.46719,0.00000
1520.40702,-0.00001
1518.34685,0.00006
1516.28668,0.00014
1514.22651,0.00025
1512.16633,0.00032
1510.10616,0.00031
1508.04599,0.00025
1505.98582,0.00031
1503.92565,0.00041
1501.86547,0.00042
1499.80530,0.00041
1497.74513,0.00052
1495.68496,0.00066
1493.62478,0.00056
1491.56461,0.00035
1489.50444,0.00040
1487.44427,0.00068
1485.38410,0.00094
1483.32392,0.00116
1481.26375,0.00142
1479.20358,0.00167
1477.14341,0.00184
1475.08324,0.00207
1473.02306,0.00256
1470.96289,0.00319
1468.90272,0.00358
1466.84255,0.00378
1464.78238,0.00409
1462.72220,0.00441
1460.66203,0.00454
1458.60186,0.00474
1456.54169,0.00529
1454.48151,0.00574
1452.42134,0.00584
1450.36117,0.00580
1448.30100,0.00585
1446.24083,0.00611
1444.18065,0.00643
1442.12048,0.00666
1440.06031,0.00682
1438.00014,0.00707
1435.93997,0.00745
1433.87979,0.00775
1431.81962,0.00800
1429.75945,0.00831
1427.69928,0.00860
1425.63910,0.00876
1423.57893,0.00884
1421.51876,0.00892
1419.45859,0.00923
1417.39842,0.00980
1415.33824,0.01015
1413.27807,0.01015
1411.21790,0.00999
1409.15773,0.00980
1407.09756,0.00962
1405.03738,0.00939
1402.97721,0.00911
1400.91704,0.00883
1398.85687,0.00863
1396.79670,0.00845
1394.73652,0.00827
1392.67635,0.00812
1390.61618,0.00801
1388.55601,0.00803
1386.49583,0.00821
1384.43566,0.00838
1382.37549,0.00846
1380.31532,0.00859
1378.25515,0.00886
1376.19497,0.00922
1374.13480,0.00962
1372.07463,0.00987
1370.01446,0.00980
1367.95429,0.00956
1365.89411,0.00934
1363.83394,0.00917
1361.77377,0.00898
1359.71360,0.00877
1357.65343,0.00860
1355.59325,0.00854
1353.53308,0.00852
1351.47291,0.00845
1349.41274,0.00831
1347.35256,0.00811
1345.29239,0.00790
1343.23222,0.00776
1341.17205,0.00777
1339.11188,0.00790
1337.05170,0.00793
1334.99153,0.00783
1332.93136,0.00774
1330.87119,0.00778
1328.81102,0.00785
1326.75084,0.00786
1324.69067,0.00786
1322.63050,0.00789
1320.57033,0.00794
1318.51015,0.00803
1316.44998,0.00809
1314.38981,0.00809
1312.32964,0.00811
1310.26947,0.00811
1308.20929,0.00799
1306.14912,0.00776
1304.08895,0.00754
1302.02878,0.00741
1299.96861,0.00734
1297.90843,0.00719
1295.84826,0.00700
1293.78809,0.00689
1291.72792,0.00684
1289.66775,0.00679
1287.60757,0.00674
1285.54740,0.00660
1283.48723,0.00644
1281.42706,0.00638
1279.36688,0.00644
1277.30671,0.00653
1275.24654,0.00661
1273.18637,0.00676
1271.12620,0.00702
1269.06602,0.00737
1267.00585,0.00774
1264.94568,0.00810
1262.88551,0.00853
1260.82534,0.00904
1258.76516,0.00952
1256.70499,0.00987
1254.64482,0.01001
1252.58465,0.01004
1250.52447,0.01013
1248.46430,0.01025
1246.40413,0.01036
1244.34396,0.01043
1242.28379,0.01041
1240.22361,0.01026
1238.16344,0.00996
1236.10327,0.00960
1234.04310,0.00930
1231.98293,0.00902
1229.92275,0.00871
1227.86258,0.00838
1225.80241,0.00800
1223.74224,0.00759
1221.68207,0.00724
1219.62189,0.00690
1217.56172,0.00646
1215.50155,0.00603
1213.44138,0.00568
1211.38120,0.00524
1209.32103,0.00470
1207.26086,0.00420
1205.20069,0.00368
1203.14052,0.00304
1201.08034,0.00234
1199.02017,0.00166
1196.96000,0.00107
1194.89983,0.00059
1192.83966,0.00033
1190.77948,0.00022
1188.71931,0.00008
1186.65914,0.00000
1184.59897,0.00013
1182.53880,0.00053
1180.47862,0.00091
1178.41845,0.00120
1176.35828,0.00161
1174.29811,0.00228
1172.23793,0.00298
1170.17776,0.00368
1168.11759,0.00449
1166.05742,0.00531
1163.99725,0.00611
1161.93707,0.00693
1159.87690,0.00769
1157.81673,0.00836
1155.75656,0.00904
1153.69639,0.00967
1151.63621,0.01011
1149.57604,0.01048
1147.51587,0.01096
1145.45570,0.01146
1143.39552,0.01182
1141.33535,0.01211
1139.27518,0.01244
1137.21501,0.01274
1135.15484,0.01298
1133.09466,0.01325
1131.03449,0.01367
1128.97432,0.01428
1126.91415,0.01500
1124.85398,0.01577
1122.79380,0.01656
1120.73363,0.01739
1118.67346,0.01817
1116.61329,0.01873
1114.55312,0.01917
1112.49294,0.01975
1110.43277,0.02044
1108.37260,0.02117
1106.31243,0.02197
1104.25225,0.02286
1102.19208,0.02377
1100.13191,0.02470
1098.07174,0.02575
1096.01157,0.02698
1093.95139,0.02814
1091.89122,0.02905
1089.83105,0.02992
1087.77088,0.03091
1085.71071,0.03181
1083.65053,0.03254
1081.59036,0.03337
1079.53019,0.03442
1077.47002,0.03540
1075.40985,0.03622
1073.34967,0.03701
1071.28950,0.03780
1069.22933,0.03855
1067.16916,0.03917
1065.10898,0.03959
1063.04881,0.03997
1060.98864,0.04039
1058.92847,0.04074
1056.86830,0.04120
1054.80812,0.04183
1052.74795,0.04245
1050.68778,0.04304
1048.62761,0.04369
1046.56744,0.04444
1044.50726,0.04521
1042.44709,0.04584
1040.38692,0.04633
1038.32675,0.04682
1036.26657,0.04719
1034.20640,0.04737
1032.14623,0.04750
1030.08606,0.04749
1028.02589,0.04739
1025.96571,0.04736
1023.90554,0.04732
1021.84537,0.04725
1019.78520,0.04717
1017.72503,0.04707
1015.66485,0.04694
1013.60468,0.04682
1011.54451,0.04672
1009.48434,0.04659
1007.42417,0.04647
1005.36399,0.04620
1003.30382,0.04566
1001.24365,0.04508
999.18348,0.04452
997.12330,0.04390
995.06313,0.04333
993.00296,0.04268
990.94279,0.04188
988.88262,0.04115
986.82244,0.04060
984.76227,0.04016
982.70210,0.03981
980.64193,0.03952
978.58176,0.03909
976.52158,0.03860
974.46141,0.03819
972.40124,0.03768
970.34107,0.03685
968.28089,0.03595
966.22072,0.03526
964.16055,0.03469
962.10038,0.03413
960.04021,0.03361
957.98003,0.03311
955.91986,0.03256
953.85969,0.03195
951.79952,0.03128
949.73935,0.03045
947.67917,0.02958
945.61900,0.02873
943.55883,0.02770
941.49866,0.02630
939.43849,0.02452
937.37831,0.02252
935.31814,0.02069
933.25797,0.01921
931.19780,0.01784
929.13762,0.01645
927.07745,0.01519
925.01728,0.01389
922.95711,0.01256
920.89694,0.01163
918.83676,0.01102
916.77659,0.01040
914.71642,0.00967
912.65625,0.00881
910.59608,0.00797
908.53590,0.00730
906.47573,0.00679
904.41556,0.00651
902.35539,0.00657
900.29522,0.00682
898.23504,0.00707
896.17487,0.00731
894.11470,0.00747
892.05453,0.00742
889.99435,0.00713
887.93418,0.00667
885.87401,0.00629
883.81384,0.00613
881.75367,0.00593
879.69349,0.00552
877.63332,0.00501
875.57315,0.00449
873.51298,0.00402
871.45281,0.00374
869.39263,0.00380
867.33246,0.00396
865.27229,0.00394
863.21212,0.00380
861.15194,0.00356
859.09177,0.00328
857.03160,0.00305
854.97143,0.00292
852.91126,0.00294
850.85108,0.00294
848.79091,0.00276
846.73074,0.00245
844.67057,0.00209
842.61040,0.00180
840.55022,0.00156
838.49005,0.00131
836.42988,0.00104
834.36971,0.00066
832.30954,0.00029
830.24936,0.00000
828.18919,-0.00009
826.12902,0.00027
824.06885,0.00063
822.00867,0.00059
819.94850,0.00050
817.88833,0.00072
815.82816,0.00099
813.76799,0.00105
811.70781,0.00114
809.64764,0.00142
807.58747,0.00171
805.52730,0.00190
803.46713,0.00187
801.40695,0.00147
799.34678,0.00109
797.28661,0.00098
795.22644,0.00074
793.16627,0.00033
791.10609,0.00024
789.04592,0.00036
786.98575,0.00025
784.92558,-0.00009
782.86540,-0.00027
780.80523,-0.00005
778.74506,0.00014
776.68489,-0.00003
774.62472,-0.00017
772.56454,-0.00016
770.50437,0.00003
768.44420,0.00026
766.38403,0.00021
764.32386,0.00023
762.26368,0.00042
760.20351,0.00066
758.14334,0.00089
756.08317,0.00081
754.02299,0.00038
751.96282,0.00000
749.90265,-0.00021
747.84248,-0.00043
745.78231,-0.00073
743.72213,-0.00068
741.66196,-0.00035
739.60179,-0.00028
737.54162,-0.00048
735.48145,-0.00074
733.42127,-0.00127
731.36110,-0.00177
729.30093,-0.00165
727.24076,-0.00105
725.18059,-0.00050
723.12041,-0.00023
721.06024,-0.00056
719.00007,-0.00041
716.93990,0.00005
714.87972,0.00017
712.81955,0.00000
710.75938,0.00001
708.69921,0.00036
706.63904,0.00086
704.57886,0.00131
702.51869,0.00147
700.45852,0.00138
698.39835,0.00143
696.33818,0.00156
694.27800,0.00146
692.21783,0.00095
690.15766,0.00039
688.09749,0.00022
686.03731,0.00030
683.97714,0.00031
681.91697,0.00015
679.85680,-0.00011
677.79663,-0.00017
675.73645,0.00019
673.67628,0.00089
671.61611,0.00145
669.55594,-0.00031
667.49577,-0.00226
665.43559,0.00031
663.37542,0.00079
661.31525,0.00103
659.25508,0.00092
657.19491,0.00011
655.13473,-0.00047
653.07456,-0.00030
651.01439,0.00003
648.95422,0.00000
646.89404,-0.00003
644.83387,0.00018
642.77370,0.00039
640.71353,-0.00003
638.65336,-0.00064
636.59318,-0.00036
634.53301,0.00035
632.47284,0.00053
630.41267,0.00032
628.35250,-0.00007
626.29232,-0.00069
624.23215,-0.00112
622.17198,-0.00101
620.11181,-0.00024
618.05164,0.00068
615.99146,0.00095
613.93129,0.00056
611.87112,0.00080
609.81095,0.00204
607.75077,0.00161
605.69060,-0.00090
603.63043,-0.00137
601.57026,0.00018
599.51009,0.00000
