3996.73391,0.00044
3994.67373,0.00030
3992.61356,0.00010
3990.55339,0.00000
3988.49322,0.00008
3986.43305,0.00034
3984.37287,0.00064
3982.31270,0.00072
3980.25253,0.00060
3978.19236,0.00052
3976.13219,0.00050
3974.07201,0.00044
3972.01184,0.00045
3969.95167,0.00059
3967.89150,0.00063
3965.83133,0.00054
3963.77115,0.00053
3961.71098,0.00049
3959.65081,0.00040
3957.59064,0.00047
3955.53046,0.00070
3953.47029,0.00098
3951.41012,0.00127
3949.34995,0.00148
3947.28978,0.00155
3945.22960,0.00144
3943.16943,0.00120
3941.10926,0.00108
3939.04909,0.00115
3936.98892,0.00119
3934.92874,0.00101
3932.86857,0.00080
3930.80840,0.00082
3928.74823,0.00083
3926.68805,0.00073
3924.62788,0.00087
3922.56771,0.00112
3920.50754,0.00106
3918.44737,0.00090
3916.38719,0.00106
3914.32702,0.00144
3912.26685,0.00169
3910.20668,0.00159
3908.14651,0.00129
3906.08633,0.00109
3904.02616,0.00100
3901.96599,0.00089
3899.90582,0.00081
3897.84565,0.00088
3895.78547,0.00105
3893.72530,0.00116
3891.66513,0.00113
3889.60496,0.00106
3887.54478,0.00112
3885.48461,0.00129
3883.42444,0.00146
3881.36427,0.00153
3879.30410,0.00142
3877.24392,0.00116
3875.18375,0.00104
3873.12358,0.00128
3871.06341,0.00170
3869.00324,0.00175
3866.94306,0.00133
3864.88289,0.00095
3862.82272,0.00095
3860.76255,0.00116
3858.70237,0.00137
3856.64220,0.00161
3854.58203,0.00198
3852.52186,0.00217
3850.46169,0.00176
3848.40151,0.00127
3846.34134,0.00121
3844.28117,0.00134
3842.22100,0.00111
3840.16083,0.00072
3838.10065,0.00098
3836.04048,0.00184
3833.98031,0.00232
3831.92014,0.00203
3829.85997,0.00156
3827.79979,0.00152
3825.73962,0.00171
3823.67945,0.00159
3821.61928,0.00116
3819.55910,0.00090
3817.49893,0.00101
3815.43876,0.00121
3813.37859,0.00115
3811.31842,0.00104
3809.25824,0.00126
3807.19807,0.00169
3805.13790,0.00199
3803.07773,0.00242
3801.01756,0.00305
3798.95738,0.00310
3796.89721,0.00252
3794.83704,0.00194
3792.77687,0.00157
3790.71670,0.00140
3788.65652,0.00138
3786.59635,0.00140
3784.53618,0.00146
3782.47601,0.00141
3780.41583,0.00105
3778.35566,0.00066
3776.29549,0.00068
3774.23532,0.00100
3772.17515,0.00131
3770.11497,0.00143
3768.05480,0.00130
3765.99463,0.00093
3763.93446,0.00049
3761.87429,0.00030
3759.81411,0.00065
3757.75394,0.00153
3755.69377,0.00233
3753.63360,0.00271
3751.57342,0.00282
3749.51325,0.00286
3747.45308,0.00280
3745.39291,0.00272
3743.33274,0.00247
3741.27256,0.00196
3739.21239,0.00198
3737.15222,0.00303
3735.09205,0.00396
3733.03188,0.00337
3730.97170,0.00207
3728.91153,0.00110
3726.85136,0.00047
3724.79119,0.00032
3722.73102,0.00072
3720.67084,0.00096
3718.61067,0.00089
3716.55050,0.00070
3714.49033,0.00031
3712.43015,0.00000
3710.36998,0.00008
3708.30981,0.00031
3706.24964,0.00046
3704.18947,0.00072
3702.12929,0.00110
3700.06912,0.00131
3698.00895,0.00126
3695.94878,0.00103
3693.88861,0.00070
3691.82843,0.00059
3689.76826,0.00096
3687.70809,0.00150
3685.64792,0.00178
3683.58775,0.00195
3681.52757,0.00207
3679.46740,0.00183
3677.40723,0.00138
3675.34706,0.00152
3673.28688,0.00210
3671.22671,0.00223
3669.16654,0.00220
3667.10637,0.00240
3665.04620,0.00244
3662.98602,0.00220
3660.92585,0.00199
3658.86568,0.00195
3656.80551,0.00195
3654.74534,0.00195
3652.68516,0.00210
3650.62499,0.00250
3648.56482,0.00299
3646.50465,0.00321
3644.44447,0.00320
3642.38430,0.00325
3640.32413,0.00350
3638.26396,0.00370
3636.20379,0.00363
3634.14361,0.00352
3632.08344,0.00351
3630.02327,0.00352
3627.96310,0.00374
3625.90293,0.00415
3623.84275,0.00432
3621.78258,0.00433
3619.72241,0.00470
3617.66224,0.00544
3615.60207,0.00582
3613.54189,0.00549
3611.48172,0.00507
3609.42155,0.00525
3607.36138,0.00590
3605.30120,0.00633
3603.24103,0.00630
3601.18086,0.00603
3599.12069,0.00576
3597.06052,0.00570
3595.00034,0.00601
3592.94017,0.00656
3590.88000,0.00709
3588.81983,0.00759
3586.75966,0.00807
3584.69948,0.00837
3582.63931,0.00852
3580.57914,0.00863
3578.51897,0.00873
3576.45879,0.00901
3574.39862,0.00968
3572.33845,0.01038
3570.27828,0.01066
3568.21811,0.01067
3566.15793,0.01087
3564.09776,0.01123
3562.03759,0.01154
3559.97742,0.01191
3557.91725,0.01239
3555.85707,0.01270
3553.79690,0.01273
3551.73673,0.01274
3549.67656,0.01295
3547.61639,0.01339
3545.55621,0.01387
3543.49604,0.01414
3541.43587,0.01421
3539.37570,0.01419
3537.31552,0.01435
3535.25535,0.01484
3533.19518,0.01545
3531.13501,0.01589
3529.07484,0.01628
3527.01466,0.01681
3524.95449,0.01738
3522.89432,0.01790
3520.83415,0.01833
3518.77398,0.01850
3516.71380,0.01848
3514.65363,0.01865
3512.59346,0.01909
3510.53329,0.01946
3508.47312,0.01964
3506.41294,0.01995
3504.35277,0.02059
3502.29260,0.02128
3500.23243,0.02169
3498.17225,0.02195
3496.11208,0.02226
3494.05191,0.02273
3491.99174,0.02312
3489.93157,0.02330
3487.87139,0.02356
3485.81122,0.02394
3483.75105,0.02424
3481.69088,0.02458
3479.63071,0.02502
3477.57053,0.02542
3475.51036,0.02574
3473.45019,0.02592
3471.39002,0.02609
3469.32984,0.02665
3467.26967,0.02736
3465.20950,0.02745
3463.14933,0.02705
3461.08916,0.02707
3459.02898,0.02781
3456.96881,0.02860
3454.90864,0.02901
3452.84847,0.02899
3450.78830,0.02856
3448.72812,0.02833
3446.66795,0.02878
3444.60778,0.02952
3442.54761,0.03017
3440.48744,0.03072
3438.42726,0.03124
3436.36709,0.03153
3434.30692,0.03146
3432.24675,0.03163
3430.18657,0.03227
3428.12640,0.03275
3426.06623,0.03290
3424.00606,0.03300
3421.94589,0.03333
3419.88571,0.03398
3417.82554,0.03445
3415.76537,0.03460
3413.70520,0.03485
3411.64503,0.03524
3409.58485,0.03536
3407.52468,0.03522
3405.46451,0.03517
3403.40434,0.03523
3401.34416,0.03545
3399.28399,0.03586
3397.22382,0.03622
3395.16365,0.03656
3393.10348,0.03697
3391.04330,0.03740
3388.98313,0.03760
3386.92296,0.03753
3384.86279,0.03744
3382.80262,0.03759
3380.74244,0.03805
3378.68227,0.03841
3376.62210,0.03854
3374.56193,0.03872
3372.50176,0.03906
3370.44158,0.03937
3368.38141,0.03958
3366.32124,0.03967
3364.26107,0.03960
3362.20089,0.03957
3360.14072,0.03969
3358.08055,0.03994
3356.02038,0.04031
3353.96021,0.04073
3351.90003,0.04106
3349.83986,0.04115
3347.77969,0.04099
3345.71952,0.04073
3343.65935,0.04051
3341.59917,0.04049
3339.53900,0.04058
3337.47883,0.04050
3335.41866,0.04038
3333.35849,0.04054
3331.29831,0.04079
3329.23814,0.04097
3327.17797,0.04125
3325.11780,0.04143
3323.05762,0.04119
3320.99745,0.04085
3318.93728,0.04103
3316.87711,0.04167
3314.81694,0.04221
3312.75676,0.04243
3310.69659,0.04245
3308.63642,0.04229
3306.57625,0.04217
3304.51608,0.04227
3302.45590,0.04233
3300.39573,0.04225
3298.33556,0.04222
3296.27539,0.04229
3294.21521,0.04226
3292.15504,0.04219
3290.09487,0.04229
3288.03470,0.04251
3285.97453,0.04264
3283.91435,0.04265
3281.85418,0.04273
3279.79401,0.04291
3277.73384,0.04296
3275.67367,0.04278
3273.61349,0.04263
3271.55332,0.04261
3269.49315,0.04244
3267.43298,0.04217
3265.37281,0.04197
3263.31263,0.04181
3261.25246,0.04185
3259.19229,0.04208
3257.13212,0.04215
3255.07194,0.04197
3253.01177,0.04195
3250.95160,0.04224
3248.89143,0.04235
3246.83126,0.04201
3244.77108,0.04148
3242.71091,0.04118
3240.65074,0.04117
3238.59057,0.04104
3236.53040,0.04078
3234.47022,0.04077
3232.41005,0.04081
3230.34988,0.04058
3228.28971,0.04033
3226.22954,0.04016
3224.16936,0.03999
3222.10919,0.03995
3220.04902,0.04006
3217.98885,0.04004
3215.92867,0.03966
3213.86850,0.03928
3211.80833,0.03933
3209.74816,0.03950
3207.68799,0.03940
3205.62781,0.03917
3203.56764,0.03882
3201.50747,0.03831
3199.44730,0.03783
3197.38713,0.03763
3195.32695,0.03778
3193.26678,0.03802
3191.20661,0.03814
3189.14644,0.03801
3187.08626,0.03759
3185.02609,0.03725
3182.96592,0.03726
3180.90575,0.03726
3178.84558,0.03697
3176.78540,0.03662
3174.72523,0.03641
3172.66506,0.03629
3170.60489,0.03613
3168.54472,0.03599
3166.48454,0.03581
3164.42437,0.03550
3162.36420,0.03523
3160.30403,0.03513
3158.24386,0.03504
3156.18368,0.03489
3154.12351,0.03474
3152.06334,0.03444
3150.00317,0.03390
3147.94299,0.03349
3145.88282,0.03341
3143.82265,0.03327
3141.76248,0.03302
3139.70231,0.03272
3137.64213,0.03213
3135.58196,0.03158
3133.52179,0.03154
3131.46162,0.03167
3129.40145,0.03140
3127.34127,0.03080
3125.28110,0.03039
3123.22093,0.03034
3121.16076,0.03034
3119.10058,0.03023
3117.04041,0.03003
3114.98024,0.02971
3112.92007,0.02942
3110.85990,0.02923
3108.79972,0.02874
3106.73955,0.02816
3104.67938,0.02811
3102.61921,0.02825
3100.55904,0.02796
3098.49886,0.02736
3096.43869,0.02686
3094.37852,0.02670
3092.31835,0.02691
3090.25818,0.02723
3088.19800,0.02714
3086.13783,0.02656
3084.07766,0.02613
3082.01749,0.02608
3079.95731,0.02593
3077.89714,0.02563
3075.83697,0.02551
3073.77680,0.02543
3071.71663,0.02510
3069.65645,0.02467
3067.59628,0.02447
3065.53611,0.02448
3063.47594,0.02432
3061.41577,0.02397
3059.35559,0.02361
3057.29542,0.02319
3055.23525,0.02283
3053.17508,0.02271
3051.11491,0.02265
3049.05473,0.02238
3046.99456,0.02201
3044.93439,0.02172
3042.87422,0.02153
3040.81404,0.02152
3038.75387,0.02157
3036.69370,0.02148
3034.63353,0.02134
3032.57336,0.02132
3030.51318,0.02134
3028.45301,0.02126
3026.39284,0.02099
3024.33267,0.02066
3022.27250,0.02061
3020.21232,0.02075
3018.15215,0.02071
3016.09198,0.02046
3014.03181,0.02020
3011.97163,0.02010
3009.91146,0.02004
3007.85129,0.01984
3005.79112,0.01949
3003.73095,0.01904
3001.67077,0.01863
2999.61060,0.01846
2997.55043,0.01870
2995.49026,0.01904
2993.43009,0.01899
2991.36991,0.01879
2989.30974,0.01881
2987.24957,0.01890
2985.18940,0.01892
2983.12923,0.01901
2981.06905,0.01935
2979.00888,0.01974
2976.94871,0.02008
2974.88854,0.02054
2972.82836,0.02111
2970.76819,0.02169
2968.70802,0.02234
2966.64785,0.02334
2964.58768,0.02463
2962.52750,0.02577
2960.46733,0.02674
2958.40716,0.02805
2956.34699,0.02971
2954.28682,0.03112
2952.22664,0.03226
2950.16647,0.03358
2948.10630,0.03503
2946.04613,0.03640
2943.98596,0.03788
2941.92578,0.03968
2939.86561,0.04175
2937.80544,0.04397
2935.74527,0.04623
2933.68509,0.04833
2931.62492,0.05007
2929.56475,0.05136
2927.50458,0.05227
2925.44441,0.05314
2923.38423,0.05400
2921.32406,0.05462
2919.26389,0.05471
2917.20372,0.05406
2915.14355,0.05273
2913.08337,0.05081
2911.02320,0.04868
2908.96303,0.04685
2906.90286,0.04535
2904.84268,0.04400
2902.78251,0.04272
2900.72234,0.04131
2898.66217,0.03990
2896.60200,0.03880
2894.54182,0.03781
2892.48165,0.03663
2890.42148,0.03562
2888.36131,0.03502
2886.30114,0.03446
2884.24096,0.03386
2882.18079,0.03338
2880.12062,0.03305
2878.06045,0.03296
2876.00028,0.03304
2873.94010,0.03317
2871.87993,0.03338
2869.81976,0.03366
2867.75959,0.03413
2865.69941,0.03489
2863.63924,0.03578
2861.57907,0.03681
2859.51890,0.03823
2857.45873,0.03990
2855.39855,0.04132
2853.33838,0.04232
2851.27821,0.04279
2849.21804,0.04215
2847.15787,0.04015
2845.09769,0.03736
2843.03752,0.03459
2840.97735,0.03239
2838.91718,0.03070
2836.85700,0.02919
2834.79683,0.02771
2832.73666,0.02647
2830.67649,0.02562
2828.61632,0.02500
2826.55614,0.02450
2824.49597,0.02407
2822.43580,0.02370
2820.37563,0.02337
2818.31546,0.02301
2816.25528,0.02264
2814.19511,0.02225
2812.13494,0.02183
2810.07477,0.02134
2808.01460,0.02086
2805.95442,0.02047
2803.89425,0.02029
2801.83408,0.02037
2799.77391,0.02045
2797.71373,0.02022
2795.65356,0.01987
2793.59339,0.01958
2791.53322,0.01932
2789.47305,0.01908
2787.41287,0.01878
2785.35270,0.01853
2783.29253,0.01846
2781.23236,0.01847
2779.17219,0.01844
2777.11201,0.01826
2775.05184,0.01788
2772.99167,0.01749
2770.93150,0.01732
2768.87133,0.01736
2766.81115,0.01737
2764.75098,0.01733
2762.69081,0.01739
2760.63064,0.01737
2758.57046,0.01701
2756.51029,0.01665
2754.45012,0.01675
2752.38995,0.01711
2750.32978,0.01739
2748.26960,0.01739
2746.20943,0.01705
2744.14926,0.01671
2742.08909,0.01662
2740.02892,0.01665
2737.96874,0.01660
2735.90857,0.01651
2733.84840,0.01642
2731.78823,0.01645
2729.72805,0.01664
2727.66788,0.01680
2725.60771,0.01675
2723.54754,0.01654
2721.48737,0.01631
2719.42719,0.01617
2717.36702,0.01608
2715.30685,0.01597
2713.24668,0.01586
2711.18651,0.01567
2709.12633,0.01552
2707.06616,0.01561
2705.00599,0.01579
2702.94582,0.01587
2700.88565,0.01575
2698.82547,0.01543
2696.76530,0.01533
2694.70513,0.01551
2692.64496,0.01556
2690.58478,0.01552
2688.52461,0.01560
2686.46444,0.01567
2684.40427,0.01565
2682.34410,0.01566
2680.28392,0.01577
2678.22375,0.01575
2676.16358,0.01548
2674.10341,0.01522
2672.04324,0.01504
2669.98306,0.01496
2667.92289,0.01494
2665.86272,0.01483
2663.80255,0.01479
2661.74238,0.01491
2659.68220,0.01493
2657.62203,0.01473
2655.56186,0.01449
2653.50169,0.01436
2651.44151,0.01451
2649.38134,0.01467
2647.32117,0.01453
2645.26100,0.01424
2643.20083,0.01403
2641.14065,0.01398
2639.08048,0.01400
2637.02031,0.01397
2634.96014,0.01376
2632.89997,0.01353
2630.83979,0.01349
2628.77962,0.01342
2626.71945,0.01329
2624.65928,0.01343
2622.59910,0.01365
2620.53893,0.01358
2618.47876,0.01334
2616.41859,0.01312
2614.35842,0.01287
2612.29824,0.01265
2610.23807,0.01267
2608.17790,0.01277
2606.11773,0.01256
2604.05756,0.01222
2601.99738,0.01196
2599.93721,0.01182
2597.87704,0.01183
2595.81687,0.01185
2593.75670,0.01183
2591.69652,0.01184
2589.63635,0.01188
2587.57618,0.01192
2585.51601,0.01185
2583.45583,0.01164
2581.39566,0.01151
2579.33549,0.01144
2577.27532,0.01129
2575.21515,0.01125
2573.15497,0.01130
2571.09480,0.01134
2569.03463,0.01143
2566.97446,0.01128
2564.91429,0.01080
2562.85411,0.01050
2560.79394,0.01074
2558.73377,0.01108
2556.67360,0.01108
2554.61342,0.01084
2552.55325,0.01055
2550.49308,0.01039
2548.43291,0.01056
2546.37274,0.01089
2544.31256,0.01094
2542.25239,0.01081
2540.19222,0.01064
2538.13205,0.01039
2536.07188,0.00994
2534.01170,0.00945
2531.95153,0.00939
2529.89136,0.00955
2527.83119,0.00962
2525.77102,0.00981
2523.71084,0.01002
2521.65067,0.01018
2519.59050,0.01049
2517.53033,0.01074
2515.47015,0.01053
2513.40998,0.01020
2511.34981,0.01014
2509.28964,0.01013
2507.22947,0.01009
2505.16929,0.00981
2503.10912,0.00966
2501.04895,0.01009
2498.98878,0.01017
2496.92861,0.00951
2494.86843,0.00882
2492.80826,0.00848
2490.74809,0.00877
2488.68792,0.00950
2486.62775,0.00980
2484.56757,0.00985
2482.50740,0.00997
2480.44723,0.00945
2478.38706,0.00848
2476.32688,0.00820
2474.26671,0.00857
2472.20654,0.00900
2470.14637,0.00954
2468.08620,0.00987
2466.02602,0.00976
2463.96585,0.00940
2461.90568,0.00906
2459.84551,0.00884
2457.78534,0.00854
2455.72516,0.00831
2453.66499,0.00860
2451.60482,0.00904
2449.54465,0.00914
2447.48447,0.00910
2445.42430,0.00889
2443.36413,0.00839
2441.30396,0.00798
2439.24379,0.00806
2437.18361,0.00836
2435.12344,0.00839
2433.06327,0.00831
2431.00310,0.00824
2428.94293,0.00806
2426.88275,0.00792
2424.82258,0.00826
2422.76241,0.00876
2420.70224,0.00870
2418.64207,0.00831
2416.58189,0.00815
2414.52172,0.00823
2412.46155,0.00821
2410.40138,0.00790
2408.34120,0.00759
2406.28103,0.00754
2404.22086,0.00759
2402.16069,0.00760
2400.10052,0.00764
2398.04034,0.00787
2395.98017,0.00812
2393.92000,0.00812
2391.85983,0.00815
2389.79966,0.00820
2387.73948,0.00799
2385.67931,0.00784
2383.61914,0.00822
2381.55897,0.00891
2379.49880,0.00918
2377.43862,0.00867
2375.37845,0.00806
2373.31828,0.00756
2371.25811,0.00676
2369.19793,0.00665
2367.13776,0.00821
2365.07759,0.00923
2363.01742,0.00650
2360.95725,0.00093
2358.89707,0.00000
2356.83690,0.00504
2354.77673,0.00955
2352.71656,0.01032
2350.65639,0.00804
2348.59621,0.00623
2346.53604,0.00768
2344.47587,0.00857
2342.41570,0.00763
2340.35552,0.00555
2338.29535,0.00449
2336.23518,0.00509
2334.17501,0.00564
2332.11484,0.00645
2330.05466,0.00813
2327.99449,0.00976
2325.93432,0.00970
2323.87415,0.00863
2321.81398,0.00781
2319.75380,0.00829
2317.69363,0.00902
2315.63346,0.00944
2313.57329,0.00925
2311.51312,0.00851
2309.45294,0.00767
2307.39277,0.00715
2305.33260,0.00715
2303.27243,0.00771
2301.21225,0.00850
2299.15208,0.00858
2297.09191,0.00806
2295.03174,0.00762
2292.97157,0.00750
2290.91139,0.00758
2288.85122,0.00767
2286.79105,0.00772
2284.73088,0.00766
2282.67071,0.00745
2280.61053,0.00708
2278.55036,0.00656
2276.49019,0.00641
2274.43002,0.00659
2272.36984,0.00629
2270.30967,0.00575
2268.24950,0.00584
2266.18933,0.00638
2264.12916,0.00656
2262.06898,0.00609
2260.00881,0.00586
2257.94864,0.00623
2255.88847,0.00619
2253.82830,0.00556
2251.76812,0.00530
2249.70795,0.00559
2247.64778,0.00609
2245.58761,0.00641
2243.52744,0.00621
2241.46726,0.00538
2239.40709,0.00472
2237.34692,0.00489
2235.28675,0.00535
2233.22657,0.00562
2231.16640,0.00593
2229.10623,0.00615
2227.04606,0.00541
2224.98589,0.00421
2222.92571,0.00424
2220.86554,0.00530
2218.80537,0.00558
2216.74520,0.00529
2214.68503,0.00550
2212.62485,0.00592
2210.56468,0.00644
2208.50451,0.00660
2206.44434,0.00597
2204.38417,0.00495
2202.32399,0.00430
2200.26382,0.00455
2198.20365,0.00503
2196.14348,0.00545
2194.08330,0.00621
2192.02313,0.00694
2189.96296,0.00661
2187.90279,0.00430
2185.84262,0.00137
2183.78244,0.00079
2181.72227,0.00296
2179.66210,0.00518
2177.60193,0.00524
2175.54176,0.00387
2173.48158,0.00380
2171.42141,0.00605
2169.36124,0.00818
2167.30107,0.00864
2165.24089,0.00823
2163.18072,0.00600
2161.12055,0.00284
2159.06038,0.00236
2157.00021,0.00336
2154.94003,0.00376
2152.87986,0.00448
2150.81969,0.00464
2148.75952,0.00333
2146.69935,0.00250
2144.63917,0.00258
2142.57900,0.00261
2140.51883,0.00337
2138.45866,0.00445
2136.39849,0.00462
2134.33831,0.00433
2132.27814,0.00391
2130.21797,0.00323
2128.15780,0.00253
2126.09762,0.00253
2124.03745,0.00384
2121.97728,0.00532
2119.91711,0.00556
2117.85694,0.00509
2115.79676,0.00520
2113.73659,0.00579
2111.67642,0.00585
2109.61625,0.00541
2107.55608,0.00492
2105.49590,0.00444
2103.43573,0.00434
2101.37556,0.00481
2099.31539,0.00510
2097.25521,0.00493
2095.19504,0.00466
2093.13487,0.00425
2091.07470,0.00394
2089.01453,0.00418
2086.95435,0.00434
2084.89418,0.00434
2082.83401,0.00476
2080.77384,0.00535
2078.71367,0.00583
2076.65349,0.00586
2074.59332,0.00490
2072.53315,0.00368
2070.47298,0.00375
2068.41281,0.00469
2066.35263,0.00450
2064.29246,0.00381
2062.23229,0.00468
2060.17212,0.00587
2058.11194,0.00519
2056.05177,0.00360
2053.99160,0.00300
2051.93143,0.00278
2049.87126,0.00213
2047.81108,0.00232
2045.75091,0.00289
2043.69074,0.00229
2041.63057,0.00187
2039.57040,0.00265
2037.51022,0.00298
2035.45005,0.00204
2033.38988,0.00097
2031.32971,0.00114
2029.26954,0.00238
2027.20936,0.00313
2025.14919,0.00298
2023.08902,0.00280
2021.02885,0.00283
2018.96867,0.00289
2016.90850,0.00285
2014.84833,0.00225
2012.78816,0.00198
2010.72799,0.00251
2008.66781,0.00225
2006.60764,0.00149
2004.54747,0.00192
2002.48730,0.00341
2000.42713,0.00456
1998.36695,0.00439
1996.30678,0.00348
1994.24661,0.00296
1992.18644,0.00312
1990.12626,0.00337
1988.06609,0.00314
1986.00592,0.00268
1983.94575,0.00218
1981.88558,0.00113
1979.82540,0.00000
1977.76523,0.00018
1975.70506,0.00121
1973.64489,0.00119
1971.58472,0.00063
1969.52454,0.00103
1967.46437,0.00142
1965.40420,0.00101
1963.34403,0.00105
1961.28386,0.00162
1959.22368,0.00195
1957.16351,0.00204
1955.10334,0.00209
1953.04317,0.00195
1950.98299,0.00153
1948.92282,0.00130
1946.86265,0.00142
1944.80248,0.00145
1942.74231,0.00126
1940.68213,0.00110
1938.62196,0.00095
1936.56179,0.00088
1934.50162,0.00130
1932.44145,0.00182
1930.38127,0.00157
1928.32110,0.00105
1926.26093,0.00110
1924.20076,0.00168
1922.14059,0.00227
1920.08041,0.00212
1918.02024,0.00156
1915.96007,0.00151
1913.89990,0.00195
1911.83972,0.00225
1909.77955,0.00197
1907.71938,0.00151
1905.65921,0.00151
1903.59904,0.00209
1901.53886,0.00271
1899.47869,0.00253
1897.41852,0.00190
1895.35835,0.00180
1893.29818,0.00203
1891.23800,0.00196
1889.17783,0.00169
1887.11766,0.00160
1885.05749,0.00192
1882.99731,0.00232
1880.93714,0.00225
1878.87697,0.00189
1876.81680,0.00176
1874.75663,0.00187
1872.69645,0.00196
1870.63628,0.00179
1868.57611,0.00153
1866.51594,0.00161
1864.45577,0.00205
1862.39559,0.00235
1860.33542,0.00219
1858.27525,0.00188
1856.21508,0.00178
1854.15491,0.00172
1852.09473,0.00146
1850.03456,0.00107
1847.97439,0.00075
1845.91422,0.00044
1843.85404,0.00000
1841.79387,-0.00003
1839.73370,0.00067
1837.67353,0.00125
1835.61336,0.00110
1833.55318,0.00071
1831.49301,0.00071
1829.43284,0.00093
1827.37267,0.00094
1825.31250,0.00085
1823.25232,0.00089
1821.19215,0.00088
1819.13198,0.00074
1817.07181,0.00072
1815.01163,0.00080
1812.95146,0.00080
1810.89129,0.00069
1808.83112,0.00056
1806.77095,0.00060
1804.71077,0.00084
1802.65060,0.00092
1800.59043,0.00071
1798.53026,0.00053
1796.47009,0.00048
1794.40991,0.00047
1792.34974,0.00054
1790.28957,0.00065
1788.22940,0.00068
1786.16923,0.00066
1784.10905,0.00071
1782.04888,0.00076
1779.98871,0.00057
1777.92854,0.00017
1775.86836,0.00000
1773.80819,0.00018
1771.74802,0.00046
1769.68785,0.00062
1767.62768,0.00083
1765.56750,0.00114
1763.50733,0.00147
1761.44716,0.00199
1759.38699,0.00300
1757.32682,0.00442
1755.26664,0.00581
1753.20647,0.00692
1751.14630,0.00817
1749.08613,0.00980
1747.02596,0.01128
1744.96578,0.01241
1742.90561,0.01333
1740.84544,0.01394
1738.78527,0.01425
1736.72509,0.01445
1734.66492,0.01461
1732.60475,0.01449
1730.54458,0.01405
1728.48441,0.01362
1726.42423,0.01358
1724.36406,0.01388
1722.30389,0.01411
1720.24372,0.01410
1718.18355,0.01410
1716.12337,0.01418
1714.06320,0.01416
1712.00303,0.01413
1709.94286,0.01411
1707.88268,0.01398
1705.82251,0.01384
1703.76234,0.01389
1701.70217,0.01414
1699.64200,0.01439
1697.58182,0.01454
1695.52165,0.01486
1693.46148,0.01539
1691.40131,0.01613
1689.34114,0.01719
1687.28096,0.01842
1685.22079,0.01998
1683.16062,0.02202
1681.10045,0.02377
1679.04028,0.02508
1676.98010,0.02628
1674.91993,0.02744
1672.85976,0.02823
1670.79959,0.02837
1668.73941,0.02783
1666.67924,0.02704
1664.61907,0.02642
1662.55890,0.02594
1660.49873,0.02545
1658.43855,0.02492
1656.37838,0.02435
1654.31821,0.02374
1652.25804,0.02343
1650.19787,0.02369
1648.13769,0.02386
1646.07752,0.02370
1644.01735,0.02369
1641.95718,0.02400
1639.89701,0.02460
1637.83683,0.02555
1635.77666,0.02668
1633.71649,0.02735
1631.65632,0.02746
1629.59614,0.02748
1627.53597,0.02767
1625.47580,0.02793
1623.41563,0.02800
1621.35546,0.02796
1619.29528,0.02808
1617.23511,0.02845
1615.17494,0.02904
1613.11477,0.02983
1611.05460,0.03089
1608.99442,0.03212
1606.93425,0.03308
1604.87408,0.03346
1602.81391,0.03321
1600.75373,0.03227
1598.69356,0.03082
1596.63339,0.02926
1594.57322,0.02798
1592.51305,0.02706
1590.45287,0.02629
1588.39270,0.02559
1586.33253,0.02499
1584.27236,0.02432
1582.21219,0.02353
1580.15201,0.02275
1578.09184,0.02202
1576.03167,0.02122
1573.97150,0.02057
1571.91133,0.02002
1569.85115,0.01924
1567.79098,0.01835
1565.73081,0.01759
1563.67064,0.01684
1561.61046,0.01611
1559.55029,0.01539
1557.49012,0.01462
1555.42995,0.01392
1553.36978,0.01331
1551.30960,0.01263
1549.24943,0.01173
1547.18926,0.01076
1545.12909,0.00999
1543.06892,0.00945
1541.00874,0.00888
1538.94857,0.00818
1536.88840,0.00759
1534.82823,0.00711
1532.76805,0.00662
1530.70788,0.00620
1528.64771,0.00594
1526.58754,0.00601
1524.52737,0.00652
1522.46719,0.00725
1520.40702,0.00809
1518.34685,0.00906
1516.28668,0.01008
1514.22651,0.01055
1512.16633,0.01018
1510.10616,0.00920
1508.04599,0.00763
1505.98582,0.00572
1503.92565,0.00452
1501.86547,0.00398
1499.80530,0.00352
1497.74513,0.00289
1495.68496,0.00216
1493.62478,0.00156
1491.56461,0.00124
1489.50444,0.00113
1487.44427,0.00096
1485.38410,0.00072
1483.32392,0.00057
1481.26375,0.00070
1479.20358,0.00126
1477.14341,0.00231
1475.08324,0.00380
1473.02306,0.00572
1470.96289,0.00773
1468.90272,0.00956
1466.84255,0.01136
1464.78238,0.01308
1462.72220,0.01432
1460.66203,0.01511
1458.60186,0.01590
1456.54169,0.01678
1454.48151,0.01738
1452.42134,0.01779
1450.36117,0.01820
1448.30100,0.01874
1446.24083,0.01948
1444.18065,0.02033
1442.12048,0.02125
1440.06031,0.02214
1438.00014,0.02288
1435.93997,0.02349
1433.87979,0.02388
1431.81962,0.02405
1429.75945,0.02414
1427.69928,0.02425
1425.63910,0.02443
1423.57893,0.02469
1421.51876,0.02493
1419.45859,0.02504
1417.39842,0.02504
1415.33824,0.02500
1413.27807,0.02477
1411.21790,0.02422
1409.15773,0.02352
1407.09756,0.02286
1405.03738,0.02216
1402.97721,0.02145
1400.91704,0.02076
1398.85687,0.02000
1396.79670,0.01919
1394.73652,0.01848
1392.67635,0.01808
1390.61618,0.01812
1388.55601,0.01840
1386.49583,0.01874
1384.43566,0.01925
1382.37549,0.01997
1380.31532,0.02068
1378.25515,0.02123
1376.19497,0.02167
1374.13480,0.02200
1372.07463,0.02217
1370.01446,0.02218
1367.95429,0.02209
1365.89411,0.02193
1363.83394,0.02160
1361.77377,0.02106
1359.71360,0.02057
1357.65343,0.02035
1355.59325,0.02026
1353.53308,0.02010
1351.47291,0.01996
1349.41274,0.02000
1347.35256,0.02008
1345.29239,0.01991
1343.23222,0.01957
1341.17205,0.01939
1339.11188,0.01952
1337.05170,0.01970
1334.99153,0.01977
1332.93136,0.01975
1330.87119,0.01961
1328.81102,0.01946
1326.75084,0.01956
1324.69067,0.01991
1322.63050,0.02013
1320.57033,0.02007
1318.51015,0.01985
1316.44998,0.01955
1314.38981,0.01924
1312.32964,0.01903
1310.26947,0.01886
1308.20929,0.01849
1306.14912,0.01786
1304.08895,0.01714
1302.02878,0.01655
1299.96861,0.01628
1297.90843,0.01625
1295.84826,0.01615
1293.78809,0.01597
1291.72792,0.01602
1289.66775,0.01625
1287.60757,0.01643
1285.54740,0.01663
1283.48723,0.01693
1281.42706,0.01715
1279.36688,0.01708
1277.30671,0.01696
1275.24654,0.01708
1273.18637,0.01744
1271.12620,0.01789
1269.06602,0.01847
1267.00585,0.01919
1264.94568,0.01992
1262.88551,0.02056
1260.82534,0.02114
1258.76516,0.02175
1256.70499,0.02235
1254.64482,0.02280
1252.58465,0.02319
1250.52447,0.02356
1248.46430,0.02384
1246.40413,0.02414
1244.34396,0.02445
1242.28379,0.02462
1240.22361,0.02454
1238.16344,0.02426
1236.10327,0.02389
1234.04310,0.02343
1231.98293,0.02293
1229.92275,0.02234
1227.86258,0.02139
1225.80241,0.02008
1223.74224,0.01881
1221.68207,0.01767
1219.62189,0.01653
1217.56172,0.01538
1215.50155,0.01423
1213.44138,0.01301
1211.38120,0.01179
1209.32103,0.01074
1207.26086,0.00973
1205.20069,0.00866
1203.14052,0.00759
1201.08034,0.00636
1199.02017,0.00495
1196.96000,0.00360
1194.89983,0.00237
1192.83966,0.00127
1190.77948,0.00048
1188.71931,0.00011
1186.65914,0.00000
1184.59897,-0.00013
1182.53880,-0.00020
1180.47862,0.00008
1178.41845,0.00100
1176.35828,0.00251
1174.29811,0.00444
1172.23793,0.00665
1170.17776,0.00879
1168.11759,0.01052
1166.05742,0.01167
1163.99725,0.01238
1161.93707,0.01287
1159.87690,0.01331
1157.81673,0.01379
1155.75656,0.01430
1153.69639,0.01481
1151.63621,0.01549
1149.57604,0.01655
1147.51587,0.01782
1145.45570,0.01903
1143.39552,0.02007
1141.33535,0.02086
1139.27518,0.02134
1137.21501,0.02151
1135.15484,0.02187
1133.09466,0.02273
1131.03449,0.02368
1128.97432,0.02463
1126.91415,0.02579
1124.85398,0.02695
1122.79380,0.02810
1120.73363,0.02924
1118.67346,0.03023
1116.61329,0.03115
1114.55312,0.03211
1112.49294,0.03303
1110.43277,0.03403
1108.37260,0.03513
1106.31243,0.03600
1104.25225,0.03669
1102.19208,0.03783
1100.13191,0.03972
1098.07174,0.04182
1096.01157,0.04377
1093.95139,0.04558
1091.89122,0.04720
1089.83105,0.04881
1087.77088,0.05034
1085.71071,0.05176
1083.65053,0.05351
1081.59036,0.05556
1079.53019,0.05753
1077.47002,0.05944
1075.40985,0.06148
1073.34967,0.06354
1071.28950,0.06525
1069.22933,0.06664
1067.16916,0.06795
1065.10898,0.06922
1063.04881,0.07032
1060.98864,0.07134
1058.92847,0.07258
1056.86830,0.07396
1054.80812,0.07552
1052.74795,0.07732
1050.68778,0.07926
1048.62761,0.08125
1046.56744,0.08322
1044.50726,0.08525
1042.44709,0.08742
1040.38692,0.08961
1038.32675,0.09163
1036.26657,0.09306
1034.20640,0.09368
1032.14623,0.09387
1030.08606,0.09396
1028.02589,0.09394
1025.96571,0.09376
1023.90554,0.09337
1021.84537,0.09282
1019.78520,0.09233
1017.72503,0.09214
1015.66485,0.09222
1013.60468,0.09245
1011.54451,0.09278
1009.48434,0.09299
1007.42417,0.09284
1005.36399,0.09247
1003.30382,0.09208
1001.24365,0.09160
999.18348,0.09064
997.12330,0.08907
995.06313,0.08745
993.00296,0.08613
990.94279,0.08455
988.88262,0.08251
986.82244,0.08090
984.76227,0.07987
982.70210,0.07866
980.64193,0.07717
978.58176,0.07591
976.52158,0.07493
974.46141,0.07369
972.40124,0.07206
970.34107,0.07021
968.28089,0.06859
966.22072,0.06736
964.16055,0.06601
962.10038,0.06445
960.04021,0.06293
957.98003,0.06143
955.91986,0.05999
953.85969,0.05866
951.79952,0.05723
949.73935,0.05584
947.67917,0.05466
945.61900,0.05334
943.55883,0.05150
941.49866,0.04902
939.43849,0.04596
937.37831,0.04275
935.31814,0.03979
933.25797,0.03712
931.19780,0.03454
929.13762,0.03193
927.07745,0.02949
925.01728,0.02750
922.95711,0.02570
920.89694,0.02397
918.83676,0.02250
916.77659,0.02110
914.71642,0.01958
912.65625,0.01804
910.59608,0.01667
908.53590,0.01550
906.47573,0.01447
904.41556,0.01388
902.35539,0.01359
900.29522,0.01314
898.23504,0.01310
896.17487,0.01398
894.11470,0.01496
892.05453,0.01510
889.99435,0.01456
887.93418,0.01395
885.87401,0.01314
883.81384,0.01199
881.75367,0.01102
879.69349,0.01032
877.63332,0.00947
875.57315,0.00858
873.51298,0.00791
871.45281,0.00744
869.39263,0.00705
867.33246,0.00655
865.27229,0.00598
863.21212,0.00563
861.15194,0.00560
859.09177,0.00587
857.03160,0.00600
854.97143,0.00582
852.91126,0.00599
850.85108,0.00626
848.79091,0.00589
846.73074,0.00515
844.67057,0.00452
842.61040,0.00455
840.55022,0.00516
838.49005,0.00556
836.42988,0.00580
834.36971,0.00600
832.30954,0.00575
830.24936,0.00480
828.18919,0.00386
826.12902,0.00376
824.06885,0.00383
822.00867,0.00350
819.94850,0.00328
817.88833,0.00322
815.82816,0.00277
813.76799,0.00205
811.70781,0.00170
809.64764,0.00151
807.58747,0.00063
805.52730,0.00000
803.46713,0.00068
801.40695,0.00167
799.34678,0.00198
797.28661,0.00182
795.22644,0.00165
793.16627,0.00168
791.10609,0.00158
789.04592,0.00108
786.98575,0.00062
784.92558,0.00045
782.86540,0.00010
780.80523,-0.00015
778.74506,0.00017
776.68489,0.00041
774.62472,0.00045
772.56454,0.00065
770.50437,0.00057
768.44420,0.00017
766.38403,0.00004
764.32386,0.00032
762.26368,0.00096
760.20351,0.00159
758.14334,0.00158
756.08317,0.00115
754.02299,0.00110
751.96282,0.00142
749.90265,0.00139
747.84248,0.00117
745.78231,0.00068
743.72213,0.00000
741.66196,0.00001
739.60179,0.00040
737.54162,-0.00004
735.48145,-0.00064
733.42127,-0.00022
731.36110,0.00078
729.30093,0.00125
727.24076,0.00137
725.18059,0.00190
723.12041,0.00226
721.06024,0.00214
719.00007,0.00174
716.93990,0.00201
714.87972,0.00274
712.81955,0.00351
710.75938,0.00458
708.69921,0.00578
706.63904,0.00669
704.57886,0.00733
702.51869,0.00761
700.45852,0.00776
698.39835,0.00852
696.33818,0.00962
694.27800,0.00970
692.21783,0.00875
690.15766,0.00840
688.09749,0.00876
686.03731,0.00831
683.97714,0.00700
681.91697,0.00590
679.85680,0.00489
677.79663,0.00372
675.73645,0.00280
673.67628,0.00157
671.61611,0.00000
669.55594,0.00107
667.49577,0.00266
665.43559,0.00023
663.37542,0.00091
661.31525,0.00255
659.25508,0.00416
657.19491,0.00516
655.13473,0.00547
653.07456,0.00551
651.01439,0.00572
648.95422,0.00625
646.89404,0.00642
644.83387,0.00604
642.77370,0.00570
640.71353,0.00626
638.65336,0.00700
636.59318,0.00692
634.53301,0.00639
632.47284,0.00537
630.41267,0.00324
628.35250,0.00135
626.29232,0.00205
624.23215,0.00416
622.17198,0.00455
620.11181,0.00472
618.05164,0.00645
615.99146,0.00716
613.93129,0.00555
611.87112,0.00339
609.81095,0.00287
607.75077,0.00336
605.69060,0.00181
603.63043,-0.00048
601.57026,-0.00106
599.51009,0.00000
