3996.73391,-0.00019
3994.67373,-0.00025
3992.61356,-0.00002
3990.55339,0.00036
3988.49322,0.00053
3986.43305,0.00054
3984.37287,0.00054
3982.31270,0.00049
3980.25253,0.00042
3978.19236,0.00057
3976.13219,0.00082
3974.07201,0.00083
3972.01184,0.00067
3969.95167,0.00067
3967.89150,0.00079
3965.83133,0.00077
3963.77115,0.00058
3961.71098,0.00026
3959.65081,0.00000
3957.59064,0.00003
3955.53046,0.00034
3953.47029,0.00074
3951.41012,0.00108
3949.34995,0.00150
3947.28978,0.00206
3945.22960,0.00227
3943.16943,0.00194
3941.10926,0.00148
3939.04909,0.00106
3936.98892,0.00069
3934.92874,0.00047
3932.86857,0.00044
3930.80840,0.00065
3928.74823,0.00083
3926.68805,0.00067
3924.62788,0.00047
3922.56771,0.00056
3920.50754,0.00092
3918.44737,0.00138
3916.38719,0.00167
3914.32702,0.00187
3912.26685,0.00208
3910.20668,0.00214
3908.14651,0.00191
3906.08633,0.00153
3904.02616,0.00111
3901.96599,0.00093
3899.90582,0.00105
3897.84565,0.00105
3895.78547,0.00090
3893.72530,0.00097
3891.66513,0.00125
3889.60496,0.00133
3887.54478,0.00131
3885.48461,0.00153
3883.42444,0.00189
3881.36427,0.00210
3879.30410,0.00197
3877.24392,0.00147
3875.18375,0.00096
3873.12358,0.00086
3871.06341,0.00135
3869.00324,0.00193
3866.94306,0.00184
3864.88289,0.00155
3862.82272,0.00153
3860.76255,0.00144
3858.70237,0.00121
3856.64220,0.00112
3854.58203,0.00120
3852.52186,0.00134
3850.46169,0.00145
3848.40151,0.00161
3846.34134,0.00193
3844.28117,0.00208
3842.22100,0.00164
3840.16083,0.00110
3838.10065,0.00122
3836.04048,0.00170
3833.98031,0.00189
3831.92014,0.00186
3829.85997,0.00194
3827.79979,0.00231
3825.73962,0.00264
3823.67945,0.00235
3821.61928,0.00163
3819.55910,0.00131
3817.49893,0.00159
3815.43876,0.00198
3813.37859,0.00195
3811.31842,0.00165
3809.25824,0.00178
3807.19807,0.00243
3805.13790,0.00288
3803.07773,0.00311
3801.01756,0.00344
3798.95738,0.00322
3796.89721,0.00257
3794.83704,0.00223
3792.77687,0.00215
3790.71670,0.00206
3788.65652,0.00200
3786.59635,0.00198
3784.53618,0.00190
3782.47601,0.00170
3780.41583,0.00155
3778.35566,0.00172
3776.29549,0.00203
3774.23532,0.00226
3772.17515,0.00236
3770.11497,0.00222
3768.05480,0.00182
3765.99463,0.00131
3763.93446,0.00099
3761.87429,0.00099
3759.81411,0.00145
3757.75394,0.00240
3755.69377,0.00331
3753.63360,0.00371
3751.57342,0.00376
3749.51325,0.00363
3747.45308,0.00308
3745.39291,0.00243
3743.33274,0.00213
3741.27256,0.00201
3739.21239,0.00231
3737.15222,0.00341
3735.09205,0.00454
3733.03188,0.00448
3730.97170,0.00337
3728.91153,0.00197
3726.85136,0.00075
3724.79119,0.00017
3722.73102,0.00043
3720.67084,0.00095
3718.61067,0.00120
3716.55050,0.00096
3714.49033,0.00033
3712.43015,0.00000
3710.36998,0.00071
3708.30981,0.00194
3706.24964,0.00258
3704.18947,0.00264
3702.12929,0.00272
3700.06912,0.00292
3698.00895,0.00289
3695.94878,0.00258
3693.88861,0.00219
3691.82843,0.00198
3689.76826,0.00217
3687.70809,0.00245
3685.64792,0.00242
3683.58775,0.00221
3681.52757,0.00186
3679.46740,0.00133
3677.40723,0.00100
3675.34706,0.00148
3673.28688,0.00234
3671.22671,0.00269
3669.16654,0.00275
3667.10637,0.00284
3665.04620,0.00296
3662.98602,0.00302
3660.92585,0.00293
3658.86568,0.00273
3656.80551,0.00246
3654.74534,0.00231
3652.68516,0.00247
3650.62499,0.00277
3648.56482,0.00298
3646.50465,0.00320
3644.44447,0.00327
3642.38430,0.00319
3640.32413,0.00343
3638.26396,0.00394
3636.20379,0.00426
3634.14361,0.00420
3632.08344,0.00389
3630.02327,0.00383
3627.96310,0.00447
3625.90293,0.00518
3623.84275,0.00527
3621.78258,0.00500
3619.72241,0.00485
3617.66224,0.00499
3615.60207,0.00514
3613.54189,0.00510
3611.48172,0.00506
3609.42155,0.00514
3607.36138,0.00558
3605.30120,0.00626
3603.24103,0.00654
3601.18086,0.00638
3599.12069,0.00640
3597.06052,0.00692
3595.00034,0.00755
3592.94017,0.00793
3590.88000,0.00804
3588.81983,0.00820
3586.75966,0.00881
3584.69948,0.00956
3582.63931,0.00985
3580.57914,0.00987
3578.51897,0.00996
3576.45879,0.01011
3574.39862,0.01040
3572.33845,0.01104
3570.27828,0.01169
3568.21811,0.01163
3566.15793,0.01109
3564.09776,0.01103
3562.03759,0.01155
3559.97742,0.01224
3557.91725,0.01299
3555.85707,0.01355
3553.79690,0.01363
3551.73673,0.01344
3549.67656,0.01339
3547.61639,0.01365
3545.55621,0.01409
3543.49604,0.01452
3541.43587,0.01496
3539.37570,0.01528
3537.31552,0.01555
3535.25535,0.01603
3533.19518,0.01644
3531.13501,0.01644
3529.07484,0.01657
3527.01466,0.01724
3524.95449,0.01812
3522.89432,0.01871
3520.83415,0.01889
3518.77398,0.01872
3516.71380,0.01838
3514.65363,0.01838
3512.59346,0.01889
3510.53329,0.01943
3508.47312,0.01972
3506.41294,0.01998
3504.35277,0.02039
3502.29260,0.02088
3500.23243,0.02143
3498.17225,0.02212
3496.11208,0.02275
3494.05191,0.02305
3491.99174,0.02315
3489.93157,0.02332
3487.87139,0.02376
3485.81122,0.02432
3483.75105,0.02478
3481.69088,0.02525
3479.63071,0.02560
3477.57053,0.02566
3475.51036,0.02578
3473.45019,0.02606
3471.39002,0.02648
3469.32984,0.02708
3467.26967,0.02741
3465.20950,0.02714
3463.14933,0.02686
3461.08916,0.02714
3459.02898,0.02787
3456.96881,0.02860
3454.90864,0.02910
3452.84847,0.02947
3450.78830,0.02953
3448.72812,0.02933
3446.66795,0.02932
3444.60778,0.02970
3442.54761,0.03044
3440.48744,0.03137
3438.42726,0.03205
3436.36709,0.03214
3434.30692,0.03193
3432.24675,0.03204
3430.18657,0.03256
3428.12640,0.03298
3426.06623,0.03303
3424.00606,0.03292
3421.94589,0.03314
3419.88571,0.03388
3417.82554,0.03451
3415.76537,0.03474
3413.70520,0.03500
3411.64503,0.03528
3409.58485,0.03537
3407.52468,0.03536
3405.46451,0.03539
3403.40434,0.03555
3401.34416,0.03601
3399.28399,0.03647
3397.22382,0.03658
3395.16365,0.03666
3393.10348,0.03695
3391.04330,0.03741
3388.98313,0.03780
3386.92296,0.03788
3384.86279,0.03801
3382.80262,0.03846
3380.74244,0.03876
3378.68227,0.03866
3376.62210,0.03850
3374.56193,0.03862
3372.50176,0.03903
3370.44158,0.03941
3368.38141,0.03952
3366.32124,0.03967
3364.26107,0.04009
3362.20089,0.04034
3360.14072,0.04008
3358.08055,0.03985
3356.02038,0.04029
3353.96021,0.04097
3351.90003,0.04124
3349.83986,0.04111
3347.77969,0.04088
3345.71952,0.04074
3343.65935,0.04074
3341.59917,0.04083
3339.53900,0.04092
3337.47883,0.04096
3335.41866,0.04111
3333.35849,0.04128
3331.29831,0.04136
3329.23814,0.04148
3327.17797,0.04160
3325.11780,0.04158
3323.05762,0.04153
3320.99745,0.04144
3318.93728,0.04142
3316.87711,0.04167
3314.81694,0.04207
3312.75676,0.04246
3310.69659,0.04286
3308.63642,0.04319
3306.57625,0.04313
3304.51608,0.04282
3302.45590,0.04257
3300.39573,0.04237
3298.33556,0.04225
3296.27539,0.04238
3294.21521,0.04266
3292.15504,0.04302
3290.09487,0.04335
3288.03470,0.04332
3285.97453,0.04307
3283.91435,0.04297
3281.85418,0.04314
3279.79401,0.04325
3277.73384,0.04303
3275.67367,0.04275
3273.61349,0.04267
3271.55332,0.04259
3269.49315,0.04243
3267.43298,0.04245
3265.37281,0.04250
3263.31263,0.04226
3261.25246,0.04209
3259.19229,0.04221
3257.13212,0.04238
3255.07194,0.04240
3253.01177,0.04234
3250.95160,0.04243
3248.89143,0.04265
3246.83126,0.04258
3244.77108,0.04213
3242.71091,0.04182
3240.65074,0.04182
3238.59057,0.04179
3236.53040,0.04174
3234.47022,0.04182
3232.41005,0.04166
3230.34988,0.04112
3228.28971,0.04056
3226.22954,0.04020
3224.16936,0.04004
3222.10919,0.04004
3220.04902,0.04034
3217.98885,0.04073
3215.92867,0.04077
3213.86850,0.04063
3211.80833,0.04055
3209.74816,0.04031
3207.68799,0.03995
3205.62781,0.03988
3203.56764,0.03978
3201.50747,0.03925
3199.44730,0.03863
3197.38713,0.03837
3195.32695,0.03848
3193.26678,0.03851
3191.20661,0.03826
3189.14644,0.03799
3187.08626,0.03775
3185.02609,0.03752
3182.96592,0.03767
3180.90575,0.03790
3178.84558,0.03765
3176.78540,0.03723
3174.72523,0.03692
3172.66506,0.03664
3170.60489,0.03656
3168.54472,0.03672
3166.48454,0.03670
3164.42437,0.03630
3162.36420,0.03576
3160.30403,0.03544
3158.24386,0.03547
3156.18368,0.03556
3154.12351,0.03532
3152.06334,0.03486
3150.00317,0.03454
3147.94299,0.03455
3145.88282,0.03455
3143.82265,0.03425
3141.76248,0.03385
3139.70231,0.03345
3137.64213,0.03291
3135.58196,0.03247
3133.52179,0.03253
3131.46162,0.03288
3129.40145,0.03267
3127.34127,0.03187
3125.28110,0.03136
3123.22093,0.03131
3121.16076,0.03129
3119.10058,0.03109
3117.04041,0.03078
3114.98024,0.03037
3112.92007,0.02989
3110.85990,0.02946
3108.79972,0.02896
3106.73955,0.02860
3104.67938,0.02877
3102.61921,0.02888
3100.55904,0.02855
3098.49886,0.02823
3096.43869,0.02806
3094.37852,0.02790
3092.31835,0.02795
3090.25818,0.02818
3088.19800,0.02808
3086.13783,0.02761
3084.07766,0.02737
3082.01749,0.02742
3079.95731,0.02740
3077.89714,0.02724
3075.83697,0.02703
3073.77680,0.02673
3071.71663,0.02633
3069.65645,0.02593
3067.59628,0.02553
3065.53611,0.02527
3063.47594,0.02515
3061.41577,0.02491
3059.35559,0.02457
3057.29542,0.02422
3055.23525,0.02384
3053.17508,0.02358
3051.11491,0.02342
3049.05473,0.02331
3046.99456,0.02326
3044.93439,0.02302
3042.87422,0.02271
3040.81404,0.02254
3038.75387,0.02241
3036.69370,0.02226
3034.63353,0.02226
3032.57336,0.02252
3030.51318,0.02258
3028.45301,0.02219
3026.39284,0.02178
3024.33267,0.02172
3022.27250,0.02180
3020.21232,0.02167
3018.15215,0.02140
3016.09198,0.02118
3014.03181,0.02109
3011.97163,0.02114
3009.91146,0.02100
3007.85129,0.02055
3005.79112,0.02007
3003.73095,0.01976
3001.67077,0.01955
2999.61060,0.01938
2997.55043,0.01946
2995.49026,0.01963
2993.43009,0.01968
2991.36991,0.01978
2989.30974,0.01984
2987.24957,0.01975
2985.18940,0.01967
2983.12923,0.01979
2981.06905,0.02024
2979.00888,0.02073
2976.94871,0.02117
2974.88854,0.02177
2972.82836,0.02231
2970.76819,0.02273
2968.70802,0.02341
2966.64785,0.02427
2964.58768,0.02517
2962.52750,0.02612
2960.46733,0.02724
2958.40716,0.02879
2956.34699,0.03043
2954.28682,0.03169
2952.22664,0.03288
2950.16647,0.03445
2948.10630,0.03619
2946.04613,0.03774
2943.98596,0.03913
2941.92578,0.04080
2939.86561,0.04295
2937.80544,0.04522
2935.74527,0.04717
2933.68509,0.04886
2931.62492,0.05047
2929.56475,0.05186
2927.50458,0.05280
2925.44441,0.05341
2923.38423,0.05392
2921.32406,0.05447
2919.26389,0.05473
2917.20372,0.05415
2915.14355,0.05277
2913.08337,0.05102
2911.02320,0.04925
2908.96303,0.04749
2906.90286,0.04579
2904.84268,0.04445
2902.78251,0.04333
2900.72234,0.04198
2898.66217,0.04045
2896.60200,0.03907
2894.54182,0.03792
2892.48165,0.03710
2890.42148,0.03664
2888.36131,0.03612
2886.30114,0.03534
2884.24096,0.03462
2882.18079,0.03412
2880.12062,0.03371
2878.06045,0.03351
2876.00028,0.03364
2873.94010,0.03398
2871.87993,0.03443
2869.81976,0.03487
2867.75959,0.03530
2865.69941,0.03592
2863.63924,0.03681
2861.57907,0.03790
2859.51890,0.03920
2857.45873,0.04071
2855.39855,0.04218
2853.33838,0.04313
2851.27821,0.04331
2849.21804,0.04252
2847.15787,0.04052
2845.09769,0.03777
2843.03752,0.03509
2840.97735,0.03289
2838.91718,0.03119
2836.85700,0.02983
2834.79683,0.02860
2832.73666,0.02755
2830.67649,0.02669
2828.61632,0.02587
2826.55614,0.02530
2824.49597,0.02517
2822.43580,0.02501
2820.37563,0.02452
2818.31546,0.02393
2816.25528,0.02358
2814.19511,0.02334
2812.13494,0.02275
2810.07477,0.02202
2808.01460,0.02157
2805.95442,0.02134
2803.89425,0.02127
2801.83408,0.02144
2799.77391,0.02155
2797.71373,0.02130
2795.65356,0.02088
2793.59339,0.02044
2791.53322,0.02000
2789.47305,0.01973
2787.41287,0.01964
2785.35270,0.01946
2783.29253,0.01930
2781.23236,0.01930
2779.17219,0.01935
2777.11201,0.01923
2775.05184,0.01894
2772.99167,0.01865
2770.93150,0.01858
2768.87133,0.01871
2766.81115,0.01868
2764.75098,0.01857
2762.69081,0.01867
2760.63064,0.01867
2758.57046,0.01827
2756.51029,0.01789
2754.45012,0.01806
2752.38995,0.01832
2750.32978,0.01821
2748.26960,0.01804
2746.20943,0.01799
2744.14926,0.01793
2742.08909,0.01792
2740.02892,0.01790
2737.96874,0.01783
2735.90857,0.01782
2733.84840,0.01786
2731.78823,0.01770
2729.72805,0.01755
2727.66788,0.01762
2725.60771,0.01770
2723.54754,0.01762
2721.48737,0.01748
2719.42719,0.01729
2717.36702,0.01708
2715.30685,0.01701
2713.24668,0.01709
2711.18651,0.01700
2709.12633,0.01680
2707.06616,0.01682
2705.00599,0.01699
2702.94582,0.01706
2700.88565,0.01690
2698.82547,0.01667
2696.76530,0.01672
2694.70513,0.01698
2692.64496,0.01703
2690.58478,0.01693
2688.52461,0.01696
2686.46444,0.01701
2684.40427,0.01703
2682.34410,0.01710
2680.28392,0.01707
2678.22375,0.01680
2676.16358,0.01651
2674.10341,0.01636
2672.04324,0.01621
2669.98306,0.01616
2667.92289,0.01637
2665.86272,0.01656
2663.80255,0.01651
2661.74238,0.01638
2659.68220,0.01626
2657.62203,0.01614
2655.56186,0.01603
2653.50169,0.01588
2651.44151,0.01583
2649.38134,0.01578
2647.32117,0.01555
2645.26100,0.01528
2643.20083,0.01503
2641.14065,0.01495
2639.08048,0.01515
2637.02031,0.01540
2634.96014,0.01548
2632.89997,0.01540
2630.83979,0.01512
2628.77962,0.01469
2626.71945,0.01444
2624.65928,0.01459
2622.59910,0.01478
2620.53893,0.01481
2618.47876,0.01468
2616.41859,0.01451
2614.35842,0.01452
2612.29824,0.01461
2610.23807,0.01469
2608.17790,0.01443
2606.11773,0.01380
2604.05756,0.01338
2601.99738,0.01312
2599.93721,0.01299
2597.87704,0.01315
2595.81687,0.01329
2593.75670,0.01343
2591.69652,0.01362
2589.63635,0.01366
2587.57618,0.01345
2585.51601,0.01311
2583.45583,0.01300
2581.39566,0.01316
2579.33549,0.01324
2577.27532,0.01317
2575.21515,0.01322
2573.15497,0.01340
2571.09480,0.01345
2569.03463,0.01327
2566.97446,0.01295
2564.91429,0.01255
2562.85411,0.01215
2560.79394,0.01191
2558.73377,0.01190
2556.67360,0.01190
2554.61342,0.01177
2552.55325,0.01186
2550.49308,0.01213
2548.43291,0.01226
2546.37274,0.01246
2544.31256,0.01267
2542.25239,0.01246
2540.19222,0.01198
2538.13205,0.01161
2536.07188,0.01131
2534.01170,0.01119
2531.95153,0.01128
2529.89136,0.01109
2527.83119,0.01086
2525.77102,0.01111
2523.71084,0.01152
2521.65067,0.01178
2519.59050,0.01185
2517.53033,0.01188
2515.47015,0.01181
2513.40998,0.01128
2511.34981,0.01073
2509.28964,0.01071
2507.22947,0.01105
2505.16929,0.01114
2503.10912,0.01108
2501.04895,0.01128
2498.98878,0.01121
2496.92861,0.01071
2494.86843,0.01038
2492.80826,0.01020
2490.74809,0.01024
2488.68792,0.01074
2486.62775,0.01117
2484.56757,0.01136
2482.50740,0.01131
2480.44723,0.01083
2478.38706,0.01047
2476.32688,0.01051
2474.26671,0.01063
2472.20654,0.01084
2470.14637,0.01114
2468.08620,0.01129
2466.02602,0.01148
2463.96585,0.01156
2461.90568,0.01117
2459.84551,0.01046
2457.78534,0.00970
2455.72516,0.00948
2453.66499,0.01016
2451.60482,0.01087
2449.54465,0.01100
2447.48447,0.01087
2445.42430,0.01058
2443.36413,0.01016
2441.30396,0.00967
2439.24379,0.00944
2437.18361,0.00954
2435.12344,0.00965
2433.06327,0.00975
2431.00310,0.00981
2428.94293,0.00986
2426.88275,0.01004
2424.82258,0.01040
2422.76241,0.01068
2420.70224,0.01053
2418.64207,0.01011
2416.58189,0.00966
2414.52172,0.00934
2412.46155,0.00917
2410.40138,0.00898
2408.34120,0.00876
2406.28103,0.00863
2404.22086,0.00874
2402.16069,0.00892
2400.10052,0.00908
2398.04034,0.00965
2395.98017,0.01003
2393.92000,0.00968
2391.85983,0.00916
2389.79966,0.00915
2387.73948,0.00945
2385.67931,0.00962
2383.61914,0.00973
2381.55897,0.01007
2379.49880,0.01024
2377.43862,0.00962
2375.37845,0.00886
2373.31828,0.00870
2371.25811,0.00943
2369.19793,0.01160
2367.13776,0.01416
2365.07759,0.01426
2363.01742,0.01070
2360.95725,0.00546
2358.89707,0.00406
2356.83690,0.00633
2354.77673,0.00876
2352.71656,0.01020
2350.65639,0.00941
2348.59621,0.00868
2346.53604,0.01071
2344.47587,0.01178
2342.41570,0.01162
2340.35552,0.01129
2338.29535,0.01149
2336.23518,0.01225
2334.17501,0.01198
2332.11484,0.01128
2330.05466,0.01144
2327.99449,0.01186
2325.93432,0.01116
2323.87415,0.01049
2321.81398,0.01040
2319.75380,0.01095
2317.69363,0.01126
2315.63346,0.01134
2313.57329,0.01107
2311.51312,0.01024
2309.45294,0.00914
2307.39277,0.00836
2305.33260,0.00844
2303.27243,0.00919
2301.21225,0.00995
2299.15208,0.01011
2297.09191,0.00988
2295.03174,0.00973
2292.97157,0.00992
2290.91139,0.01032
2288.85122,0.01050
2286.79105,0.01035
2284.73088,0.00979
2282.67071,0.00879
2280.61053,0.00785
2278.55036,0.00747
2276.49019,0.00752
2274.43002,0.00752
2272.36984,0.00712
2270.30967,0.00659
2268.24950,0.00668
2266.18933,0.00739
2264.12916,0.00777
2262.06898,0.00737
2260.00881,0.00727
2257.94864,0.00786
2255.88847,0.00797
2253.82830,0.00763
2251.76812,0.00777
2249.70795,0.00812
2247.64778,0.00818
2245.58761,0.00836
2243.52744,0.00876
2241.46726,0.00860
2239.40709,0.00809
2237.34692,0.00787
2235.28675,0.00750
2233.22657,0.00747
2231.16640,0.00788
2229.10623,0.00758
2227.04606,0.00626
2224.98589,0.00472
2222.92571,0.00453
2220.86554,0.00581
2218.80537,0.00682
2216.74520,0.00720
2214.68503,0.00764
2212.62485,0.00773
2210.56468,0.00725
2208.50451,0.00670
2206.44434,0.00619
2204.38417,0.00575
2202.32399,0.00573
2200.26382,0.00636
2198.20365,0.00738
2196.14348,0.00833
2194.08330,0.00866
2192.02313,0.00810
2189.96296,0.00682
2187.90279,0.00444
2185.84262,0.00210
2183.78244,0.00244
2181.72227,0.00512
2179.66210,0.00726
2177.60193,0.00713
2175.54176,0.00604
2173.48158,0.00621
2171.42141,0.00830
2169.36124,0.01071
2167.30107,0.01164
2165.24089,0.01097
2163.18072,0.00788
2161.12055,0.00324
2159.06038,0.00114
2157.00021,0.00221
2154.94003,0.00435
2152.87986,0.00644
2150.81969,0.00703
2148.75952,0.00587
2146.69935,0.00490
2144.63917,0.00472
2142.57900,0.00469
2140.51883,0.00542
2138.45866,0.00616
2136.39849,0.00587
2134.33831,0.00589
2132.27814,0.00628
2130.21797,0.00603
2128.15780,0.00536
2126.09762,0.00530
2124.03745,0.00630
2121.97728,0.00693
2119.91711,0.00625
2117.85694,0.00583
2115.79676,0.00647
2113.73659,0.00678
2111.67642,0.00624
2109.61625,0.00553
2107.55608,0.00508
2105.49590,0.00526
2103.43573,0.00602
2101.37556,0.00673
2099.31539,0.00688
2097.25521,0.00673
2095.19504,0.00667
2093.13487,0.00651
2091.07470,0.00621
2089.01453,0.00634
2086.95435,0.00706
2084.89418,0.00787
2082.83401,0.00807
2080.77384,0.00759
2078.71367,0.00717
2076.65349,0.00689
2074.59332,0.00634
2072.53315,0.00612
2070.47298,0.00691
2068.41281,0.00805
2066.35263,0.00826
2064.29246,0.00743
2062.23229,0.00672
2060.17212,0.00647
2058.11194,0.00593
2056.05177,0.00527
2053.99160,0.00512
2051.93143,0.00475
2049.87126,0.00422
2047.81108,0.00496
2045.75091,0.00588
2043.69074,0.00554
2041.63057,0.00558
2039.57040,0.00620
2037.51022,0.00594
2035.45005,0.00528
2033.38988,0.00462
2031.32971,0.00409
2029.26954,0.00446
2027.20936,0.00478
2025.14919,0.00440
2023.08902,0.00491
2021.02885,0.00616
2018.96867,0.00623
2016.90850,0.00576
2014.84833,0.00584
2012.78816,0.00592
2010.72799,0.00561
2008.66781,0.00438
2006.60764,0.00317
2004.54747,0.00383
2002.48730,0.00519
2000.42713,0.00594
1998.36695,0.00597
1996.30678,0.00522
1994.24661,0.00408
1992.18644,0.00329
1990.12626,0.00386
1988.06609,0.00487
1986.00592,0.00495
1983.94575,0.00435
1981.88558,0.00295
1979.82540,0.00093
1977.76523,0.00000
1975.70506,0.00087
1973.64489,0.00183
1971.58472,0.00208
1969.52454,0.00323
1967.46437,0.00516
1965.40420,0.00535
1963.34403,0.00386
1961.28386,0.00296
1959.22368,0.00350
1957.16351,0.00429
1955.10334,0.00439
1953.04317,0.00422
1950.98299,0.00372
1948.92282,0.00307
1946.86265,0.00317
1944.80248,0.00361
1942.74231,0.00333
1940.68213,0.00265
1938.62196,0.00238
1936.56179,0.00276
1934.50162,0.00367
1932.44145,0.00422
1930.38127,0.00357
1928.32110,0.00267
1926.26093,0.00260
1924.20076,0.00304
1922.14059,0.00362
1920.08041,0.00369
1918.02024,0.00316
1915.96007,0.00307
1913.89990,0.00355
1911.83972,0.00396
1909.77955,0.00391
1907.71938,0.00362
1905.65921,0.00374
1903.59904,0.00438
1901.53886,0.00457
1899.47869,0.00382
1897.41852,0.00320
1895.35835,0.00355
1893.29818,0.00410
1891.23800,0.00397
1889.17783,0.00348
1887.11766,0.00326
1885.05749,0.00338
1882.99731,0.00359
1880.93714,0.00370
1878.87697,0.00363
1876.81680,0.00341
1874.75663,0.00318
1872.69645,0.00307
1870.63628,0.00285
1868.57611,0.00236
1866.51594,0.00207
1864.45577,0.00231
1862.39559,0.00282
1860.33542,0.00307
1858.27525,0.00302
1856.21508,0.00299
1854.15491,0.00286
1852.09473,0.00237
1850.03456,0.00174
1847.97439,0.00132
1845.91422,0.00119
1843.85404,0.00114
1841.79387,0.00121
1839.73370,0.00170
1837.67353,0.00217
1835.61336,0.00197
1833.55318,0.00138
1831.49301,0.00115
1829.43284,0.00124
1827.37267,0.00110
1825.31250,0.00075
1823.25232,0.00058
1821.19215,0.00067
1819.13198,0.00092
1817.07181,0.00111
1815.01163,0.00106
1812.95146,0.00091
1810.89129,0.00081
1808.83112,0.00088
1806.77095,0.00111
1804.71077,0.00130
1802.65060,0.00114
1800.59043,0.00065
1798.53026,0.00026
1796.47009,0.00011
1794.40991,0.00002
1792.34974,0.00004
1790.28957,0.00024
1788.22940,0.00044
1786.16923,0.00056
1784.10905,0.00071
1782.04888,0.00090
1779.98871,0.00085
1777.92854,0.00048
1775.86836,0.00009
1773.80819,0.00000
1771.74802,0.00028
1769.68785,0.00078
1767.62768,0.00116
1765.56750,0.00126
1763.50733,0.00137
1761.44716,0.00195
1759.38699,0.00317
1757.32682,0.00470
1755.26664,0.00605
1753.20647,0.00705
1751.14630,0.00808
1749.08613,0.00946
1747.02596,0.01089
1744.96578,0.01206
1742.90561,0.01290
1740.84544,0.01350
1738.78527,0.01401
1736.72509,0.01440
1734.66492,0.01450
1732.60475,0.01435
1730.54458,0.01412
1728.48441,0.01393
1726.42423,0.01384
1724.36406,0.01388
1722.30389,0.01394
1720.24372,0.01388
1718.18355,0.01376
1716.12337,0.01377
1714.06320,0.01399
1712.00303,0.01426
1709.94286,0.01423
1707.88268,0.01377
1705.82251,0.01325
1703.76234,0.01315
1701.70217,0.01325
1699.64200,0.01319
1697.58182,0.01335
1695.52165,0.01415
1693.46148,0.01508
1691.40131,0.01589
1689.34114,0.01695
1687.28096,0.01826
1685.22079,0.01987
1683.16062,0.02194
1681.10045,0.02371
1679.04028,0.02488
1676.98010,0.02582
1674.91993,0.02669
1672.85976,0.02735
1670.79959,0.02766
1668.73941,0.02750
1666.67924,0.02688
1664.61907,0.02624
1662.55890,0.02581
1660.49873,0.02538
1658.43855,0.02476
1656.37838,0.02413
1654.31821,0.02362
1652.25804,0.02349
1650.19787,0.02377
1648.13769,0.02390
1646.07752,0.02376
1644.01735,0.02379
1641.95718,0.02415
1639.89701,0.02471
1637.83683,0.02524
1635.77666,0.02576
1633.71649,0.02629
1631.65632,0.02657
1629.59614,0.02674
1627.53597,0.02709
1625.47580,0.02748
1623.41563,0.02758
1621.35546,0.02753
1619.29528,0.02766
1617.23511,0.02809
1615.17494,0.02866
1613.11477,0.02924
1611.05460,0.03015
1608.99442,0.03148
1606.93425,0.03263
1604.87408,0.03298
1602.81391,0.03258
1600.75373,0.03161
1598.69356,0.03023
1596.63339,0.02871
1594.57322,0.02741
1592.51305,0.02654
1590.45287,0.02591
1588.39270,0.02536
1586.33253,0.02486
1584.27236,0.02415
1582.21219,0.02312
1580.15201,0.02211
1578.09184,0.02135
1576.03167,0.02081
1573.97150,0.02043
1571.91133,0.01985
1569.85115,0.01885
1567.79098,0.01779
1565.73081,0.01702
1563.67064,0.01645
1561.61046,0.01589
1559.55029,0.01494
1557.49012,0.01384
1555.42995,0.01321
1553.36978,0.01275
1551.30960,0.01217
1549.24943,0.01144
1547.18926,0.01065
1545.12909,0.00991
1543.06892,0.00938
1541.00874,0.00900
1538.94857,0.00839
1536.88840,0.00760
1534.82823,0.00681
1532.76805,0.00615
1530.70788,0.00574
1528.64771,0.00552
1526.58754,0.00547
1524.52737,0.00574
1522.46719,0.00649
1520.40702,0.00767
1518.34685,0.00892
1516.28668,0.01006
1514.22651,0.01060
1512.16633,0.01017
1510.10616,0.00901
1508.04599,0.00733
1505.98582,0.00548
1503.92565,0.00424
1501.86547,0.00354
1499.80530,0.00300
1497.74513,0.00241
1495.68496,0.00183
1493.62478,0.00134
1491.56461,0.00102
1489.50444,0.00091
1487.44427,0.00091
1485.38410,0.00085
1483.32392,0.00077
1481.26375,0.00081
1479.20358,0.00124
1477.14341,0.00222
1475.08324,0.00370
1473.02306,0.00559
1470.96289,0.00768
1468.90272,0.00961
1466.84255,0.01134
1464.78238,0.01284
1462.72220,0.01390
1460.66203,0.01460
1458.60186,0.01533
1456.54169,0.01621
1454.48151,0.01689
1452.42134,0.01740
1450.36117,0.01796
1448.30100,0.01870
1446.24083,0.01953
1444.18065,0.02025
1442.12048,0.02091
1440.06031,0.02157
1438.00014,0.02225
1435.93997,0.02296
1433.87979,0.02339
1431.81962,0.02344
1429.75945,0.02344
1427.69928,0.02365
1425.63910,0.02401
1423.57893,0.02440
1421.51876,0.02464
1419.45859,0.02459
1417.39842,0.02442
1415.33824,0.02431
1413.27807,0.02412
1411.21790,0.02367
1409.15773,0.02302
1407.09756,0.02228
1405.03738,0.02155
1402.97721,0.02096
1400.91704,0.02044
1398.85687,0.01974
1396.79670,0.01884
1394.73652,0.01804
1392.67635,0.01767
1390.61618,0.01780
1388.55601,0.01819
1386.49583,0.01860
1384.43566,0.01901
1382.37549,0.01956
1380.31532,0.02021
1378.25515,0.02085
1376.19497,0.02137
1374.13480,0.02164
1372.07463,0.02163
1370.01446,0.02151
1367.95429,0.02141
1365.89411,0.02128
1363.83394,0.02089
1361.77377,0.02027
1359.71360,0.01978
1357.65343,0.01961
1355.59325,0.01950
1353.53308,0.01932
1351.47291,0.01927
1349.41274,0.01940
1347.35256,0.01953
1345.29239,0.01951
1343.23222,0.01931
1341.17205,0.01909
1339.11188,0.01904
1337.05170,0.01914
1334.99153,0.01928
1332.93136,0.01941
1330.87119,0.01939
1328.81102,0.01924
1326.75084,0.01928
1324.69067,0.01956
1322.63050,0.01974
1320.57033,0.01964
1318.51015,0.01934
1316.44998,0.01900
1314.38981,0.01876
1312.32964,0.01870
1310.26947,0.01869
1308.20929,0.01848
1306.14912,0.01792
1304.08895,0.01702
1302.02878,0.01618
1299.96861,0.01582
1297.90843,0.01579
1295.84826,0.01569
1293.78809,0.01557
1291.72792,0.01568
1289.66775,0.01592
1287.60757,0.01609
1285.54740,0.01620
1283.48723,0.01636
1281.42706,0.01656
1279.36688,0.01671
1277.30671,0.01672
1275.24654,0.01661
1273.18637,0.01663
1271.12620,0.01704
1269.06602,0.01781
1267.00585,0.01867
1264.94568,0.01941
1262.88551,0.02002
1260.82534,0.02059
1258.76516,0.02131
1256.70499,0.02209
1254.64482,0.02260
1252.58465,0.02302
1250.52447,0.02351
1248.46430,0.02383
1246.40413,0.02387
1244.34396,0.02390
1242.28379,0.02400
1240.22361,0.02396
1238.16344,0.02370
1236.10327,0.02339
1234.04310,0.02309
1231.98293,0.02267
1229.92275,0.02200
1227.86258,0.02107
1225.80241,0.01998
1223.74224,0.01880
1221.68207,0.01748
1219.62189,0.01609
1217.56172,0.01485
1215.50155,0.01381
1213.44138,0.01269
1211.38120,0.01148
1209.32103,0.01053
1207.26086,0.00976
1205.20069,0.00874
1203.14052,0.00747
1201.08034,0.00615
1199.02017,0.00489
1196.96000,0.00366
1194.89983,0.00227
1192.83966,0.00095
1190.77948,0.00020
1188.71931,0.00000
1186.65914,-0.00010
1184.59897,-0.00014
1182.53880,-0.00018
1180.47862,-0.00005
1178.41845,0.00080
1176.35828,0.00231
1174.29811,0.00420
1172.23793,0.00642
1170.17776,0.00870
1168.11759,0.01048
1166.05742,0.01149
1163.99725,0.01194
1161.93707,0.01218
1159.87690,0.01245
1157.81673,0.01297
1155.75656,0.01361
1153.69639,0.01427
1151.63621,0.01518
1149.57604,0.01617
1147.51587,0.01714
1145.45570,0.01830
1143.39552,0.01955
1141.33535,0.02048
1139.27518,0.02099
1137.21501,0.02116
1135.15484,0.02134
1133.09466,0.02202
1131.03449,0.02299
1128.97432,0.02392
1126.91415,0.02482
1124.85398,0.02582
1122.79380,0.02703
1120.73363,0.02830
1118.67346,0.02943
1116.61329,0.03050
1114.55312,0.03150
1112.49294,0.03240
1110.43277,0.03343
1108.37260,0.03458
1106.31243,0.03538
1104.25225,0.03603
1102.19208,0.03728
1100.13191,0.03921
1098.07174,0.04122
1096.01157,0.04287
1093.95139,0.04448
1091.89122,0.04628
1089.83105,0.04806
1087.77088,0.04988
1085.71071,0.05163
1083.65053,0.05324
1081.59036,0.05493
1079.53019,0.05665
1077.47002,0.05818
1075.40985,0.05984
1073.34967,0.06190
1071.28950,0.06394
1069.22933,0.06549
1067.16916,0.06672
1065.10898,0.06802
1063.04881,0.06917
1060.98864,0.06989
1058.92847,0.07072
1056.86830,0.07221
1054.80812,0.07404
1052.74795,0.07568
1050.68778,0.07738
1048.62761,0.07941
1046.56744,0.08145
1044.50726,0.08357
1042.44709,0.08600
1040.38692,0.08837
1038.32675,0.09021
1036.26657,0.09135
1034.20640,0.09197
1032.14623,0.09230
1030.08606,0.09243
1028.02589,0.09233
1025.96571,0.09204
1023.90554,0.09151
1021.84537,0.09087
1019.78520,0.09053
1017.72503,0.09048
1015.66485,0.09040
1013.60468,0.09065
1011.54451,0.09115
1009.48434,0.09122
1007.42417,0.09069
1005.36399,0.09011
1003.30382,0.08989
1001.24365,0.08951
999.18348,0.08844
997.12330,0.08688
995.06313,0.08537
993.00296,0.08410
990.94279,0.08260
988.88262,0.08067
986.82244,0.07887
984.76227,0.07753
982.70210,0.07645
980.64193,0.07541
978.58176,0.07425
976.52158,0.07312
974.46141,0.07201
972.40124,0.07056
970.34107,0.06892
968.28089,0.06746
966.22072,0.06579
964.16055,0.06356
962.10038,0.06159
960.04021,0.06031
957.98003,0.05938
955.91986,0.05845
953.85969,0.05726
951.79952,0.05592
949.73935,0.05454
947.67917,0.05312
945.61900,0.05171
943.55883,0.05007
941.49866,0.04774
939.43849,0.04478
937.37831,0.04139
935.31814,0.03787
933.25797,0.03477
931.19780,0.03213
929.13762,0.02977
927.07745,0.02779
925.01728,0.02604
922.95711,0.02426
920.89694,0.02251
918.83676,0.02109
916.77659,0.01998
914.71642,0.01881
912.65625,0.01708
910.59608,0.01517
908.53590,0.01382
906.47573,0.01302
904.41556,0.01261
902.35539,0.01242
900.29522,0.01234
898.23504,0.01246
896.17487,0.01291
894.11470,0.01328
892.05453,0.01297
889.99435,0.01269
887.93418,0.01281
885.87401,0.01225
883.81384,0.01120
881.75367,0.01041
879.69349,0.00949
877.63332,0.00846
875.57315,0.00757
873.51298,0.00665
871.45281,0.00587
869.39263,0.00544
867.33246,0.00508
865.27229,0.00475
863.21212,0.00476
861.15194,0.00515
859.09177,0.00557
857.03160,0.00562
854.97143,0.00555
852.91126,0.00579
850.85108,0.00569
848.79091,0.00477
846.73074,0.00369
844.67057,0.00327
842.61040,0.00380
840.55022,0.00438
838.49005,0.00425
836.42988,0.00418
834.36971,0.00455
832.30954,0.00458
830.24936,0.00380
828.18919,0.00258
826.12902,0.00175
824.06885,0.00178
822.00867,0.00262
819.94850,0.00328
817.88833,0.00293
815.82816,0.00231
813.76799,0.00178
811.70781,0.00108
809.64764,0.00041
807.58747,0.00000
805.52730,-0.00013
803.46713,0.00016
801.40695,0.00060
799.34678,0.00077
797.28661,0.00091
795.22644,0.00122
793.16627,0.00092
791.10609,0.00001
789.04592,-0.00055
786.98575,-0.00063
784.92558,-0.00038
782.86540,-0.00016
780.80523,-0.00055
778.74506,-0.00079
776.68489,0.00006
774.62472,0.00063
772.56454,-0.00001
770.50437,-0.00038
768.44420,0.00031
766.38403,0.00086
764.32386,0.00020
762.26368,-0.00036
760.20351,0.00003
758.14334,-0.00022
756.08317,-0.00096
754.02299,-0.00074
751.96282,0.00000
749.90265,0.00014
747.84248,0.00028
745.78231,0.00022
743.72213,-0.00060
741.66196,-0.00152
739.60179,-0.00168
737.54162,-0.00134
735.48145,-0.00139
733.42127,-0.00164
731.36110,-0.00113
729.30093,-0.00034
727.24076,-0.00003
725.18059,0.00028
723.12041,0.00029
721.06024,0.00032
719.00007,0.00042
716.93990,0.00042
714.87972,0.00021
712.81955,0.00075
710.75938,0.00220
708.69921,0.00344
706.63904,0.00466
704.57886,0.00592
702.51869,0.00585
700.45852,0.00493
698.39835,0.00507
696.33818,0.00599
694.27800,0.00599
692.21783,0.00506
690.15766,0.00459
688.09749,0.00430
686.03731,0.00271
683.97714,0.00061
681.91697,0.00000
679.85680,0.00061
677.79663,0.00101
675.73645,0.00087
673.67628,0.00054
671.61611,0.00076
669.55594,0.00274
667.49577,0.00213
665.43559,-0.00219
663.37542,-0.00096
661.31525,0.00203
659.25508,0.00396
657.19491,0.00424
655.13473,0.00387
653.07456,0.00387
651.01439,0.00399
648.95422,0.00335
646.89404,0.00140
644.83387,0.00000
642.77370,0.00096
640.71353,0.00365
638.65336,0.00493
636.59318,0.00338
634.53301,0.00098
632.47284,-0.00038
630.41267,-0.00097
628.35250,-0.00138
626.29232,-0.00081
624.23215,0.00100
622.17198,0.00060
620.11181,-0.00078
618.05164,-0.00103
615.99146,-0.00257
613.93129,-0.00426
611.87112,-0.00212
609.81095,0.00191
607.75077,0.00130
605.69060,-0.00285
603.63043,-0.00487
601.57026,-0.00361
599.51009,0.00000
