3996.73391,0.00031
3994.67373,0.00021
3992.61356,0.00000
3990.55339,0.00004
3988.49322,0.00031
3986.43305,0.00049
3984.37287,0.00060
3982.31270,0.00068
3980.25253,0.00061
3978.19236,0.00059
3976.13219,0.00061
3974.07201,0.00034
3972.01184,0.00000
3969.95167,0.00012
3967.89150,0.00050
3965.83133,0.00072
3963.77115,0.00074
3961.71098,0.00062
3959.65081,0.00054
3957.59064,0.00068
3955.53046,0.00091
3953.47029,0.00099
3951.41012,0.00099
3949.34995,0.00140
3947.28978,0.00204
3945.22960,0.00206
3943.16943,0.00157
3941.10926,0.00132
3939.04909,0.00137
3936.98892,0.00139
3934.92874,0.00124
3932.86857,0.00101
3930.80840,0.00107
3928.74823,0.00139
3926.68805,0.00150
3924.62788,0.00130
3922.56771,0.00098
3920.50754,0.00094
3918.44737,0.00142
3916.38719,0.00196
3914.32702,0.00197
3912.26685,0.00163
3910.20668,0.00134
3908.14651,0.00115
3906.08633,0.00092
3904.02616,0.00072
3901.96599,0.00073
3899.90582,0.00088
3897.84565,0.00105
3895.78547,0.00126
3893.72530,0.00147
3891.66513,0.00169
3889.60496,0.00181
3887.54478,0.00172
3885.48461,0.00152
3883.42444,0.00153
3881.36427,0.00182
3879.30410,0.00200
3877.24392,0.00178
3875.18375,0.00141
3873.12358,0.00126
3871.06341,0.00162
3869.00324,0.00221
3866.94306,0.00230
3864.88289,0.00193
3862.82272,0.00157
3860.76255,0.00135
3858.70237,0.00132
3856.64220,0.00161
3854.58203,0.00234
3852.52186,0.00303
3850.46169,0.00288
3848.40151,0.00242
3846.34134,0.00216
3844.28117,0.00199
3842.22100,0.00147
3840.16083,0.00087
3838.10065,0.00127
3836.04048,0.00247
3833.98031,0.00283
3831.92014,0.00218
3829.85997,0.00167
3827.79979,0.00184
3825.73962,0.00225
3823.67945,0.00247
3821.61928,0.00240
3819.55910,0.00184
3817.49893,0.00103
3815.43876,0.00084
3813.37859,0.00132
3811.31842,0.00175
3809.25824,0.00196
3807.19807,0.00223
3805.13790,0.00247
3803.07773,0.00274
3801.01756,0.00339
3798.95738,0.00380
3796.89721,0.00352
3794.83704,0.00297
3792.77687,0.00250
3790.71670,0.00223
3788.65652,0.00214
3786.59635,0.00207
3784.53618,0.00194
3782.47601,0.00159
3780.41583,0.00114
3778.35566,0.00110
3776.29549,0.00145
3774.23532,0.00199
3772.17515,0.00254
3770.11497,0.00263
3768.05480,0.00225
3765.99463,0.00181
3763.93446,0.00135
3761.87429,0.00104
3759.81411,0.00130
3757.75394,0.00217
3755.69377,0.00302
3753.63360,0.00346
3751.57342,0.00387
3749.51325,0.00446
3747.45308,0.00467
3745.39291,0.00443
3743.33274,0.00382
3741.27256,0.00286
3739.21239,0.00251
3737.15222,0.00338
3735.09205,0.00435
3733.03188,0.00404
3730.97170,0.00303
3728.91153,0.00191
3726.85136,0.00069
3724.79119,0.00000
3722.73102,0.00034
3720.67084,0.00103
3718.61067,0.00147
3716.55050,0.00144
3714.49033,0.00095
3712.43015,0.00062
3710.36998,0.00104
3708.30981,0.00179
3706.24964,0.00191
3704.18947,0.00139
3702.12929,0.00123
3700.06912,0.00176
3698.00895,0.00201
3695.94878,0.00177
3693.88861,0.00173
3691.82843,0.00188
3689.76826,0.00201
3687.70809,0.00226
3685.64792,0.00266
3683.58775,0.00318
3681.52757,0.00350
3679.46740,0.00315
3677.40723,0.00231
3675.34706,0.00199
3673.28688,0.00246
3671.22671,0.00288
3669.16654,0.00307
3667.10637,0.00322
3665.04620,0.00329
3662.98602,0.00343
3660.92585,0.00369
3658.86568,0.00383
3656.80551,0.00374
3654.74534,0.00355
3652.68516,0.00328
3650.62499,0.00278
3648.56482,0.00260
3646.50465,0.00339
3644.44447,0.00421
3642.38430,0.00423
3640.32413,0.00397
3638.26396,0.00407
3636.20379,0.00442
3634.14361,0.00461
3632.08344,0.00441
3630.02327,0.00420
3627.96310,0.00471
3625.90293,0.00550
3623.84275,0.00559
3621.78258,0.00508
3619.72241,0.00475
3617.66224,0.00501
3615.60207,0.00552
3613.54189,0.00584
3611.48172,0.00581
3609.42155,0.00565
3607.36138,0.00586
3605.30120,0.00651
3603.24103,0.00720
3601.18086,0.00765
3599.12069,0.00771
3597.06052,0.00749
3595.00034,0.00741
3592.94017,0.00761
3590.88000,0.00762
3588.81983,0.00766
3586.75966,0.00813
3584.69948,0.00844
3582.63931,0.00840
3580.57914,0.00854
3578.51897,0.00905
3576.45879,0.00981
3574.39862,0.01062
3572.33845,0.01121
3570.27828,0.01152
3568.21811,0.01194
3566.15793,0.01251
3564.09776,0.01239
3562.03759,0.01178
3559.97742,0.01188
3557.91725,0.01275
3555.85707,0.01345
3553.79690,0.01371
3551.73673,0.01370
3549.67656,0.01351
3547.61639,0.01358
3545.55621,0.01402
3543.49604,0.01432
3541.43587,0.01423
3539.37570,0.01406
3537.31552,0.01445
3535.25535,0.01554
3533.19518,0.01638
3531.13501,0.01642
3529.07484,0.01617
3527.01466,0.01630
3524.95449,0.01691
3522.89432,0.01781
3520.83415,0.01870
3518.77398,0.01915
3516.71380,0.01914
3514.65363,0.01911
3512.59346,0.01912
3510.53329,0.01896
3508.47312,0.01905
3506.41294,0.01978
3504.35277,0.02087
3502.29260,0.02179
3500.23243,0.02229
3498.17225,0.02261
3496.11208,0.02306
3494.05191,0.02367
3491.99174,0.02395
3489.93157,0.02382
3487.87139,0.02385
3485.81122,0.02427
3483.75105,0.02473
3481.69088,0.02512
3479.63071,0.02547
3477.57053,0.02559
3475.51036,0.02567
3473.45019,0.02582
3471.39002,0.02599
3469.32984,0.02637
3467.26967,0.02678
3465.20950,0.02690
3463.14933,0.02692
3461.08916,0.02715
3459.02898,0.02768
3456.96881,0.02827
3454.90864,0.02879
3452.84847,0.02908
3450.78830,0.02871
3448.72812,0.02811
3446.66795,0.02822
3444.60778,0.02890
3442.54761,0.02983
3440.48744,0.03093
3438.42726,0.03181
3436.36709,0.03211
3434.30692,0.03204
3432.24675,0.03237
3430.18657,0.03310
3428.12640,0.03347
3426.06623,0.03328
3424.00606,0.03305
3421.94589,0.03338
3419.88571,0.03424
3417.82554,0.03493
3415.76537,0.03525
3413.70520,0.03549
3411.64503,0.03558
3409.58485,0.03525
3407.52468,0.03466
3405.46451,0.03444
3403.40434,0.03485
3401.34416,0.03557
3399.28399,0.03625
3397.22382,0.03681
3395.16365,0.03737
3393.10348,0.03759
3391.04330,0.03738
3388.98313,0.03726
3386.92296,0.03727
3384.86279,0.03738
3382.80262,0.03774
3380.74244,0.03811
3378.68227,0.03815
3376.62210,0.03801
3374.56193,0.03820
3372.50176,0.03886
3370.44158,0.03946
3368.38141,0.03959
3366.32124,0.03951
3364.26107,0.03968
3362.20089,0.04018
3360.14072,0.04061
3358.08055,0.04062
3356.02038,0.04051
3353.96021,0.04063
3351.90003,0.04083
3349.83986,0.04068
3347.77969,0.04016
3345.71952,0.03977
3343.65935,0.03980
3341.59917,0.04014
3339.53900,0.04045
3337.47883,0.04039
3335.41866,0.04024
3333.35849,0.04045
3331.29831,0.04086
3329.23814,0.04115
3327.17797,0.04128
3325.11780,0.04147
3323.05762,0.04154
3320.99745,0.04123
3318.93728,0.04112
3316.87711,0.04146
3314.81694,0.04177
3312.75676,0.04192
3310.69659,0.04190
3308.63642,0.04156
3306.57625,0.04132
3304.51608,0.04154
3302.45590,0.04181
3300.39573,0.04173
3298.33556,0.04176
3296.27539,0.04204
3294.21521,0.04218
3292.15504,0.04227
3290.09487,0.04257
3288.03470,0.04293
3285.97453,0.04313
3283.91435,0.04309
3281.85418,0.04279
3279.79401,0.04227
3277.73384,0.04194
3275.67367,0.04193
3273.61349,0.04186
3271.55332,0.04183
3269.49315,0.04189
3267.43298,0.04184
3265.37281,0.04174
3263.31263,0.04166
3261.25246,0.04167
3259.19229,0.04174
3257.13212,0.04172
3255.07194,0.04172
3253.01177,0.04194
3250.95160,0.04215
3248.89143,0.04202
3246.83126,0.04166
3244.77108,0.04131
3242.71091,0.04106
3240.65074,0.04086
3238.59057,0.04072
3236.53040,0.04076
3234.47022,0.04092
3232.41005,0.04086
3230.34988,0.04047
3228.28971,0.04005
3226.22954,0.03994
3224.16936,0.04001
3222.10919,0.04005
3220.04902,0.04013
3217.98885,0.04011
3215.92867,0.03991
3213.86850,0.03987
3211.80833,0.03984
3209.74816,0.03939
3207.68799,0.03889
3205.62781,0.03881
3203.56764,0.03882
3201.50747,0.03847
3199.44730,0.03803
3197.38713,0.03792
3195.32695,0.03796
3193.26678,0.03788
3191.20661,0.03778
3189.14644,0.03773
3187.08626,0.03743
3185.02609,0.03693
3182.96592,0.03662
3180.90575,0.03654
3178.84558,0.03656
3176.78540,0.03660
3174.72523,0.03652
3172.66506,0.03631
3170.60489,0.03619
3168.54472,0.03614
3166.48454,0.03581
3164.42437,0.03523
3162.36420,0.03494
3160.30403,0.03504
3158.24386,0.03508
3156.18368,0.03492
3154.12351,0.03465
3152.06334,0.03419
3150.00317,0.03364
3147.94299,0.03334
3145.88282,0.03318
3143.82265,0.03291
3141.76248,0.03269
3139.70231,0.03252
3137.64213,0.03223
3135.58196,0.03205
3133.52179,0.03220
3131.46162,0.03229
3129.40145,0.03180
3127.34127,0.03100
3125.28110,0.03077
3123.22093,0.03104
3121.16076,0.03096
3119.10058,0.03051
3117.04041,0.03021
3114.98024,0.03007
3112.92007,0.02983
3110.85990,0.02942
3108.79972,0.02886
3106.73955,0.02838
3104.67938,0.02814
3102.61921,0.02785
3100.55904,0.02734
3098.49886,0.02696
3096.43869,0.02689
3094.37852,0.02698
3092.31835,0.02716
3090.25818,0.02725
3088.19800,0.02689
3086.13783,0.02624
3084.07766,0.02601
3082.01749,0.02618
3079.95731,0.02617
3077.89714,0.02611
3075.83697,0.02620
3073.77680,0.02603
3071.71663,0.02547
3069.65645,0.02491
3067.59628,0.02469
3065.53611,0.02470
3063.47594,0.02462
3061.41577,0.02430
3059.35559,0.02391
3057.29542,0.02366
3055.23525,0.02336
3053.17508,0.02296
3051.11491,0.02275
3049.05473,0.02276
3046.99456,0.02274
3044.93439,0.02241
3042.87422,0.02198
3040.81404,0.02188
3038.75387,0.02191
3036.69370,0.02176
3034.63353,0.02162
3032.57336,0.02164
3030.51318,0.02169
3028.45301,0.02157
3026.39284,0.02130
3024.33267,0.02118
3022.27250,0.02112
3020.21232,0.02092
3018.15215,0.02078
3016.09198,0.02073
3014.03181,0.02061
3011.97163,0.02034
3009.91146,0.01987
3007.85129,0.01948
3005.79112,0.01923
3003.73095,0.01894
3001.67077,0.01868
2999.61060,0.01862
2997.55043,0.01866
2995.49026,0.01881
2993.43009,0.01893
2991.36991,0.01889
2989.30974,0.01894
2987.24957,0.01909
2985.18940,0.01908
2983.12923,0.01927
2981.06905,0.01981
2979.00888,0.02011
2976.94871,0.02025
2974.88854,0.02084
2972.82836,0.02153
2970.76819,0.02185
2968.70802,0.02231
2966.64785,0.02344
2964.58768,0.02495
2962.52750,0.02623
2960.46733,0.02717
2958.40716,0.02813
2956.34699,0.02923
2954.28682,0.03044
2952.22664,0.03184
2950.16647,0.03348
2948.10630,0.03509
2946.04613,0.03638
2943.98596,0.03760
2941.92578,0.03919
2939.86561,0.04119
2937.80544,0.04334
2935.74527,0.04533
2933.68509,0.04714
2931.62492,0.04893
2929.56475,0.05058
2927.50458,0.05182
2925.44441,0.05278
2923.38423,0.05378
2921.32406,0.05451
2919.26389,0.05436
2917.20372,0.05338
2915.14355,0.05199
2913.08337,0.05015
2911.02320,0.04800
2908.96303,0.04612
2906.90286,0.04468
2904.84268,0.04350
2902.78251,0.04240
2900.72234,0.04105
2898.66217,0.03952
2896.60200,0.03813
2894.54182,0.03697
2892.48165,0.03606
2890.42148,0.03547
2888.36131,0.03504
2886.30114,0.03441
2884.24096,0.03362
2882.18079,0.03295
2880.12062,0.03255
2878.06045,0.03250
2876.00028,0.03263
2873.94010,0.03288
2871.87993,0.03331
2869.81976,0.03389
2867.75959,0.03469
2865.69941,0.03541
2863.63924,0.03603
2861.57907,0.03703
2859.51890,0.03836
2857.45873,0.03966
2855.39855,0.04076
2853.33838,0.04177
2851.27821,0.04246
2849.21804,0.04198
2847.15787,0.03998
2845.09769,0.03714
2843.03752,0.03435
2840.97735,0.03206
2838.91718,0.03020
2836.85700,0.02862
2834.79683,0.02732
2832.73666,0.02635
2830.67649,0.02562
2828.61632,0.02494
2826.55614,0.02435
2824.49597,0.02400
2822.43580,0.02372
2820.37563,0.02357
2818.31546,0.02353
2816.25528,0.02321
2814.19511,0.02259
2812.13494,0.02195
2810.07477,0.02139
2808.01460,0.02077
2805.95442,0.02021
2803.89425,0.01985
2801.83408,0.01995
2799.77391,0.02031
2797.71373,0.02020
2795.65356,0.01973
2793.59339,0.01939
2791.53322,0.01907
2789.47305,0.01863
2787.41287,0.01835
2785.35270,0.01845
2783.29253,0.01875
2781.23236,0.01881
2779.17219,0.01846
2777.11201,0.01800
2775.05184,0.01775
2772.99167,0.01768
2770.93150,0.01767
2768.87133,0.01766
2766.81115,0.01749
2764.75098,0.01725
2762.69081,0.01720
2760.63064,0.01706
2758.57046,0.01665
2756.51029,0.01646
2754.45012,0.01661
2752.38995,0.01685
2750.32978,0.01715
2748.26960,0.01734
2746.20943,0.01726
2744.14926,0.01700
2742.08909,0.01674
2740.02892,0.01660
2737.96874,0.01657
2735.90857,0.01657
2733.84840,0.01665
2731.78823,0.01676
2729.72805,0.01677
2727.66788,0.01671
2725.60771,0.01674
2723.54754,0.01672
2721.48737,0.01632
2719.42719,0.01584
2717.36702,0.01577
2715.30685,0.01585
2713.24668,0.01580
2711.18651,0.01574
2709.12633,0.01586
2707.06616,0.01607
2705.00599,0.01609
2702.94582,0.01588
2700.88565,0.01559
2698.82547,0.01538
2696.76530,0.01539
2694.70513,0.01563
2692.64496,0.01574
2690.58478,0.01553
2688.52461,0.01529
2686.46444,0.01522
2684.40427,0.01538
2682.34410,0.01554
2680.28392,0.01552
2678.22375,0.01548
2676.16358,0.01540
2674.10341,0.01526
2672.04324,0.01510
2669.98306,0.01509
2667.92289,0.01521
2665.86272,0.01514
2663.80255,0.01491
2661.74238,0.01471
2659.68220,0.01452
2657.62203,0.01447
2655.56186,0.01450
2653.50169,0.01436
2651.44151,0.01428
2649.38134,0.01454
2647.32117,0.01473
2645.26100,0.01448
2643.20083,0.01418
2641.14065,0.01398
2639.08048,0.01381
2637.02031,0.01393
2634.96014,0.01399
2632.89997,0.01380
2630.83979,0.01374
2628.77962,0.01363
2626.71945,0.01331
2624.65928,0.01325
2622.59910,0.01358
2620.53893,0.01382
2618.47876,0.01367
2616.41859,0.01330
2614.35842,0.01297
2612.29824,0.01277
2610.23807,0.01284
2608.17790,0.01277
2606.11773,0.01222
2604.05756,0.01179
2601.99738,0.01174
2599.93721,0.01185
2597.87704,0.01209
2595.81687,0.01230
2593.75670,0.01227
2591.69652,0.01197
2589.63635,0.01164
2587.57618,0.01143
2585.51601,0.01145
2583.45583,0.01170
2581.39566,0.01198
2579.33549,0.01217
2577.27532,0.01203
2575.21515,0.01175
2573.15497,0.01161
2571.09480,0.01149
2569.03463,0.01141
2566.97446,0.01110
2564.91429,0.01060
2562.85411,0.01031
2560.79394,0.01029
2558.73377,0.01071
2556.67360,0.01137
2554.61342,0.01165
2552.55325,0.01142
2550.49308,0.01080
2548.43291,0.01038
2546.37274,0.01051
2544.31256,0.01064
2542.25239,0.01062
2540.19222,0.01041
2538.13205,0.00995
2536.07188,0.00958
2534.01170,0.00962
2531.95153,0.00999
2529.89136,0.01021
2527.83119,0.00999
2525.77102,0.00954
2523.71084,0.00964
2521.65067,0.01047
2519.59050,0.01109
2517.53033,0.01104
2515.47015,0.01070
2513.40998,0.01029
2511.34981,0.00990
2509.28964,0.00996
2507.22947,0.01034
2505.16929,0.01012
2503.10912,0.00954
2501.04895,0.00938
2498.98878,0.00919
2496.92861,0.00874
2494.86843,0.00842
2492.80826,0.00845
2490.74809,0.00919
2488.68792,0.01017
2486.62775,0.01016
2484.56757,0.00956
2482.50740,0.00920
2480.44723,0.00896
2478.38706,0.00880
2476.32688,0.00887
2474.26671,0.00895
2472.20654,0.00893
2470.14637,0.00891
2468.08620,0.00904
2466.02602,0.00950
2463.96585,0.00990
2461.90568,0.00993
2459.84551,0.00964
2457.78534,0.00916
2455.72516,0.00902
2453.66499,0.00929
2451.60482,0.00930
2449.54465,0.00897
2447.48447,0.00876
2445.42430,0.00853
2443.36413,0.00809
2441.30396,0.00777
2439.24379,0.00798
2437.18361,0.00832
2435.12344,0.00828
2433.06327,0.00811
2431.00310,0.00784
2428.94293,0.00766
2426.88275,0.00805
2424.82258,0.00891
2422.76241,0.00920
2420.70224,0.00869
2418.64207,0.00862
2416.58189,0.00914
2414.52172,0.00931
2412.46155,0.00878
2410.40138,0.00787
2408.34120,0.00739
2406.28103,0.00754
2404.22086,0.00771
2402.16069,0.00769
2400.10052,0.00781
2398.04034,0.00813
2395.98017,0.00818
2393.92000,0.00790
2391.85983,0.00794
2389.79966,0.00837
2387.73948,0.00846
2385.67931,0.00806
2383.61914,0.00780
2381.55897,0.00821
2379.49880,0.00883
2377.43862,0.00884
2375.37845,0.00867
2373.31828,0.00893
2371.25811,0.00909
2369.19793,0.00888
2367.13776,0.00904
2365.07759,0.00966
2363.01742,0.00898
2360.95725,0.00552
2358.89707,0.00316
2356.83690,0.00417
2354.77673,0.00672
2352.71656,0.00825
2350.65639,0.00686
2348.59621,0.00540
2346.53604,0.00766
2344.47587,0.01034
2342.41570,0.01053
2340.35552,0.00742
2338.29535,0.00509
2336.23518,0.00580
2334.17501,0.00664
2332.11484,0.00721
2330.05466,0.00851
2327.99449,0.00956
2325.93432,0.00907
2323.87415,0.00820
2321.81398,0.00807
2319.75380,0.00920
2317.69363,0.00991
2315.63346,0.00996
2313.57329,0.00965
2311.51312,0.00899
2309.45294,0.00828
2307.39277,0.00790
2305.33260,0.00797
2303.27243,0.00833
2301.21225,0.00869
2299.15208,0.00848
2297.09191,0.00784
2295.03174,0.00719
2292.97157,0.00694
2290.91139,0.00727
2288.85122,0.00771
2286.79105,0.00774
2284.73088,0.00719
2282.67071,0.00643
2280.61053,0.00610
2278.55036,0.00624
2276.49019,0.00651
2274.43002,0.00663
2272.36984,0.00662
2270.30967,0.00665
2268.24950,0.00670
2266.18933,0.00664
2264.12916,0.00659
2262.06898,0.00654
2260.00881,0.00659
2257.94864,0.00668
2255.88847,0.00631
2253.82830,0.00586
2251.76812,0.00621
2249.70795,0.00692
2247.64778,0.00700
2245.58761,0.00667
2243.52744,0.00674
2241.46726,0.00706
2239.40709,0.00665
2237.34692,0.00538
2235.28675,0.00457
2233.22657,0.00519
2231.16640,0.00620
2229.10623,0.00609
2227.04606,0.00545
2224.98589,0.00525
2222.92571,0.00572
2220.86554,0.00683
2218.80537,0.00698
2216.74520,0.00614
2214.68503,0.00576
2212.62485,0.00516
2210.56468,0.00458
2208.50451,0.00529
2206.44434,0.00688
2204.38417,0.00824
2202.32399,0.00761
2200.26382,0.00567
2198.20365,0.00501
2196.14348,0.00490
2194.08330,0.00443
2192.02313,0.00499
2189.96296,0.00550
2187.90279,0.00408
2185.84262,0.00227
2183.78244,0.00167
2181.72227,0.00288
2179.66210,0.00538
2177.60193,0.00696
2175.54176,0.00711
2173.48158,0.00644
2171.42141,0.00616
2169.36124,0.00737
2167.30107,0.00864
2165.24089,0.00743
2163.18072,0.00383
2161.12055,0.00165
2159.06038,0.00179
2157.00021,0.00100
2154.94003,0.00091
2152.87986,0.00332
2150.81969,0.00507
2148.75952,0.00428
2146.69935,0.00296
2144.63917,0.00239
2142.57900,0.00222
2140.51883,0.00293
2138.45866,0.00357
2136.39849,0.00310
2134.33831,0.00302
2132.27814,0.00359
2130.21797,0.00348
2128.15780,0.00268
2126.09762,0.00268
2124.03745,0.00436
2121.97728,0.00664
2119.91711,0.00739
2117.85694,0.00616
2115.79676,0.00511
2113.73659,0.00517
2111.67642,0.00528
2109.61625,0.00507
2107.55608,0.00486
2105.49590,0.00476
2103.43573,0.00496
2101.37556,0.00536
2099.31539,0.00546
2097.25521,0.00541
2095.19504,0.00537
2093.13487,0.00486
2091.07470,0.00425
2089.01453,0.00490
2086.95435,0.00598
2084.89418,0.00594
2082.83401,0.00552
2080.77384,0.00552
2078.71367,0.00529
2076.65349,0.00441
2074.59332,0.00339
2072.53315,0.00306
2070.47298,0.00430
2068.41281,0.00623
2066.35263,0.00647
2064.29246,0.00527
2062.23229,0.00443
2060.17212,0.00405
2058.11194,0.00351
2056.05177,0.00294
2053.99160,0.00319
2051.93143,0.00393
2049.87126,0.00403
2047.81108,0.00408
2045.75091,0.00402
2043.69074,0.00283
2041.63057,0.00194
2039.57040,0.00244
2037.51022,0.00292
2035.45005,0.00241
2033.38988,0.00200
2031.32971,0.00344
2029.26954,0.00592
2027.20936,0.00647
2025.14919,0.00477
2023.08902,0.00363
2021.02885,0.00383
2018.96867,0.00344
2016.90850,0.00188
2014.84833,0.00052
2012.78816,0.00148
2010.72799,0.00356
2008.66781,0.00311
2006.60764,0.00161
2004.54747,0.00222
2002.48730,0.00454
2000.42713,0.00633
1998.36695,0.00542
1996.30678,0.00363
1994.24661,0.00390
1992.18644,0.00496
1990.12626,0.00500
1988.06609,0.00481
1986.00592,0.00485
1983.94575,0.00444
1981.88558,0.00306
1979.82540,0.00130
1977.76523,0.00078
1975.70506,0.00106
1973.64489,0.00034
1971.58472,0.00000
1969.52454,0.00164
1967.46437,0.00374
1965.40420,0.00450
1963.34403,0.00418
1961.28386,0.00327
1959.22368,0.00230
1957.16351,0.00251
1955.10334,0.00330
1953.04317,0.00282
1950.98299,0.00175
1948.92282,0.00176
1946.86265,0.00233
1944.80248,0.00236
1942.74231,0.00180
1940.68213,0.00156
1938.62196,0.00193
1936.56179,0.00224
1934.50162,0.00233
1932.44145,0.00217
1930.38127,0.00151
1928.32110,0.00102
1926.26093,0.00129
1924.20076,0.00216
1922.14059,0.00307
1920.08041,0.00324
1918.02024,0.00291
1915.96007,0.00290
1913.89990,0.00321
1911.83972,0.00331
1909.77955,0.00294
1907.71938,0.00267
1905.65921,0.00305
1903.59904,0.00361
1901.53886,0.00364
1899.47869,0.00284
1897.41852,0.00179
1895.35835,0.00144
1893.29818,0.00155
1891.23800,0.00136
1889.17783,0.00125
1887.11766,0.00188
1885.05749,0.00289
1882.99731,0.00355
1880.93714,0.00341
1878.87697,0.00278
1876.81680,0.00237
1874.75663,0.00250
1872.69645,0.00262
1870.63628,0.00214
1868.57611,0.00131
1866.51594,0.00105
1864.45577,0.00151
1862.39559,0.00217
1860.33542,0.00273
1858.27525,0.00278
1856.21508,0.00228
1854.15491,0.00166
1852.09473,0.00123
1850.03456,0.00116
1847.97439,0.00143
1845.91422,0.00180
1843.85404,0.00185
1841.79387,0.00157
1839.73370,0.00144
1837.67353,0.00144
1835.61336,0.00123
1833.55318,0.00079
1831.49301,0.00034
1829.43284,0.00006
1827.37267,0.00000
1825.31250,0.00016
1823.25232,0.00063
1821.19215,0.00113
1819.13198,0.00142
1817.07181,0.00146
1815.01163,0.00119
1812.95146,0.00082
1810.89129,0.00072
1808.83112,0.00089
1806.77095,0.00116
1804.71077,0.00134
1802.65060,0.00115
1800.59043,0.00060
1798.53026,0.00020
1796.47009,0.00015
1794.40991,0.00016
1792.34974,0.00012
1790.28957,0.00023
1788.22940,0.00043
1786.16923,0.00049
1784.10905,0.00052
1782.04888,0.00062
1779.98871,0.00056
1777.92854,0.00025
1775.86836,0.00000
1773.80819,-0.00002
1771.74802,0.00023
1769.68785,0.00063
1767.62768,0.00107
1765.56750,0.00133
1763.50733,0.00144
1761.44716,0.00191
1759.38699,0.00315
1757.32682,0.00480
1755.26664,0.00607
1753.20647,0.00677
1751.14630,0.00766
1749.08613,0.00923
1747.02596,0.01094
1744.96578,0.01220
1742.90561,0.01292
1740.84544,0.01321
1738.78527,0.01335
1736.72509,0.01364
1734.66492,0.01410
1732.60475,0.01441
1730.54458,0.01425
1728.48441,0.01388
1726.42423,0.01363
1724.36406,0.01346
1722.30389,0.01328
1720.24372,0.01327
1718.18355,0.01356
1716.12337,0.01387
1714.06320,0.01401
1712.00303,0.01408
1709.94286,0.01412
1707.88268,0.01401
1705.82251,0.01377
1703.76234,0.01351
1701.70217,0.01324
1699.64200,0.01292
1697.58182,0.01291
1695.52165,0.01349
1693.46148,0.01438
1691.40131,0.01529
1689.34114,0.01633
1687.28096,0.01737
1685.22079,0.01859
1683.16062,0.02060
1681.10045,0.02283
1679.04028,0.02444
1676.98010,0.02549
1674.91993,0.02627
1672.85976,0.02674
1670.79959,0.02673
1668.73941,0.02634
1666.67924,0.02591
1664.61907,0.02560
1662.55890,0.02535
1660.49873,0.02504
1658.43855,0.02464
1656.37838,0.02413
1654.31821,0.02337
1652.25804,0.02275
1650.19787,0.02278
1648.13769,0.02284
1646.07752,0.02285
1644.01735,0.02321
1641.95718,0.02383
1639.89701,0.02444
1637.83683,0.02495
1635.77666,0.02542
1633.71649,0.02597
1631.65632,0.02643
1629.59614,0.02667
1627.53597,0.02684
1625.47580,0.02710
1623.41563,0.02733
1621.35546,0.02745
1619.29528,0.02753
1617.23511,0.02775
1615.17494,0.02835
1613.11477,0.02921
1611.05460,0.03023
1608.99442,0.03142
1606.93425,0.03249
1604.87408,0.03299
1602.81391,0.03268
1600.75373,0.03168
1598.69356,0.03024
1596.63339,0.02860
1594.57322,0.02708
1592.51305,0.02606
1590.45287,0.02552
1588.39270,0.02510
1586.33253,0.02454
1584.27236,0.02370
1582.21219,0.02273
1580.15201,0.02191
1578.09184,0.02119
1576.03167,0.02049
1573.97150,0.02005
1571.91133,0.01960
1569.85115,0.01880
1567.79098,0.01795
1565.73081,0.01726
1563.67064,0.01657
1561.61046,0.01573
1559.55029,0.01469
1557.49012,0.01377
1555.42995,0.01323
1553.36978,0.01277
1551.30960,0.01220
1549.24943,0.01141
1547.18926,0.01037
1545.12909,0.00910
1543.06892,0.00779
1541.00874,0.00690
1538.94857,0.00673
1536.88840,0.00687
1534.82823,0.00670
1532.76805,0.00625
1530.70788,0.00589
1528.64771,0.00573
1526.58754,0.00572
1524.52737,0.00587
1522.46719,0.00632
1520.40702,0.00732
1518.34685,0.00843
1516.28668,0.00916
1514.22651,0.00937
1512.16633,0.00891
1510.10616,0.00788
1508.04599,0.00659
1505.98582,0.00537
1503.92565,0.00458
1501.86547,0.00394
1499.80530,0.00315
1497.74513,0.00230
1495.68496,0.00175
1493.62478,0.00148
1491.56461,0.00126
1489.50444,0.00101
1487.44427,0.00079
1485.38410,0.00065
1483.32392,0.00052
1481.26375,0.00059
1479.20358,0.00110
1477.14341,0.00195
1475.08324,0.00315
1473.02306,0.00495
1470.96289,0.00714
1468.90272,0.00919
1466.84255,0.01102
1464.78238,0.01258
1462.72220,0.01361
1460.66203,0.01405
1458.60186,0.01442
1456.54169,0.01531
1454.48151,0.01639
1452.42134,0.01717
1450.36117,0.01776
1448.30100,0.01843
1446.24083,0.01923
1444.18065,0.02005
1442.12048,0.02084
1440.06031,0.02152
1438.00014,0.02202
1435.93997,0.02250
1433.87979,0.02299
1431.81962,0.02334
1429.75945,0.02340
1427.69928,0.02333
1425.63910,0.02346
1423.57893,0.02380
1421.51876,0.02403
1419.45859,0.02399
1417.39842,0.02385
1415.33824,0.02380
1413.27807,0.02377
1411.21790,0.02350
1409.15773,0.02283
1407.09756,0.02195
1405.03738,0.02119
1402.97721,0.02065
1400.91704,0.02011
1398.85687,0.01943
1396.79670,0.01868
1394.73652,0.01803
1392.67635,0.01767
1390.61618,0.01771
1388.55601,0.01791
1386.49583,0.01822
1384.43566,0.01873
1382.37549,0.01934
1380.31532,0.01998
1378.25515,0.02066
1376.19497,0.02122
1374.13480,0.02148
1372.07463,0.02150
1370.01446,0.02140
1367.95429,0.02125
1365.89411,0.02108
1363.83394,0.02084
1361.77377,0.02038
1359.71360,0.01990
1357.65343,0.01958
1355.59325,0.01941
1353.53308,0.01940
1351.47291,0.01954
1349.41274,0.01970
1347.35256,0.01961
1345.29239,0.01924
1343.23222,0.01888
1341.17205,0.01880
1339.11188,0.01896
1337.05170,0.01910
1334.99153,0.01905
1332.93136,0.01890
1330.87119,0.01876
1328.81102,0.01874
1326.75084,0.01899
1324.69067,0.01938
1322.63050,0.01957
1320.57033,0.01940
1318.51015,0.01899
1316.44998,0.01867
1314.38981,0.01854
1312.32964,0.01840
1310.26947,0.01813
1308.20929,0.01781
1306.14912,0.01728
1304.08895,0.01657
1302.02878,0.01600
1299.96861,0.01564
1297.90843,0.01531
1295.84826,0.01516
1293.78809,0.01529
1291.72792,0.01549
1289.66775,0.01565
1287.60757,0.01587
1285.54740,0.01610
1283.48723,0.01613
1281.42706,0.01607
1279.36688,0.01607
1277.30671,0.01612
1275.24654,0.01622
1273.18637,0.01658
1271.12620,0.01724
1269.06602,0.01790
1267.00585,0.01837
1264.94568,0.01893
1262.88551,0.01965
1260.82534,0.02031
1258.76516,0.02092
1256.70499,0.02157
1254.64482,0.02220
1252.58465,0.02267
1250.52447,0.02278
1248.46430,0.02287
1246.40413,0.02337
1244.34396,0.02404
1242.28379,0.02434
1240.22361,0.02403
1238.16344,0.02357
1236.10327,0.02333
1234.04310,0.02299
1231.98293,0.02231
1229.92275,0.02148
1227.86258,0.02052
1225.80241,0.01926
1223.74224,0.01787
1221.68207,0.01660
1219.62189,0.01552
1217.56172,0.01458
1215.50155,0.01355
1213.44138,0.01236
1211.38120,0.01109
1209.32103,0.00998
1207.26086,0.00924
1205.20069,0.00850
1203.14052,0.00736
1201.08034,0.00597
1199.02017,0.00455
1196.96000,0.00311
1194.89983,0.00189
1192.83966,0.00096
1190.77948,0.00029
1188.71931,0.00000
1186.65914,-0.00014
1184.59897,-0.00015
1182.53880,-0.00010
1180.47862,0.00002
1178.41845,0.00074
1176.35828,0.00230
1174.29811,0.00438
1172.23793,0.00658
1170.17776,0.00852
1168.11759,0.00999
1166.05742,0.01094
1163.99725,0.01145
1161.93707,0.01188
1159.87690,0.01247
1157.81673,0.01315
1155.75656,0.01356
1153.69639,0.01379
1151.63621,0.01449
1149.57604,0.01569
1147.51587,0.01691
1145.45570,0.01798
1143.39552,0.01899
1141.33535,0.01991
1139.27518,0.02060
1137.21501,0.02094
1135.15484,0.02120
1133.09466,0.02177
1131.03449,0.02263
1128.97432,0.02364
1126.91415,0.02466
1124.85398,0.02570
1122.79380,0.02692
1120.73363,0.02813
1118.67346,0.02905
1116.61329,0.03002
1114.55312,0.03106
1112.49294,0.03179
1110.43277,0.03250
1108.37260,0.03351
1106.31243,0.03458
1104.25225,0.03546
1102.19208,0.03646
1100.13191,0.03816
1098.07174,0.04024
1096.01157,0.04200
1093.95139,0.04365
1091.89122,0.04549
1089.83105,0.04726
1087.77088,0.04875
1085.71071,0.05017
1083.65053,0.05176
1081.59036,0.05349
1079.53019,0.05537
1077.47002,0.05731
1075.40985,0.05913
1073.34967,0.06097
1071.28950,0.06267
1069.22933,0.06413
1067.16916,0.06554
1065.10898,0.06701
1063.04881,0.06839
1060.98864,0.06931
1058.92847,0.07019
1056.86830,0.07158
1054.80812,0.07317
1052.74795,0.07478
1050.68778,0.07656
1048.62761,0.07831
1046.56744,0.08009
1044.50726,0.08235
1042.44709,0.08470
1040.38692,0.08676
1038.32675,0.08885
1036.26657,0.09052
1034.20640,0.09112
1032.14623,0.09105
1030.08606,0.09106
1028.02589,0.09132
1025.96571,0.09143
1023.90554,0.09107
1021.84537,0.09041
1019.78520,0.08966
1017.72503,0.08896
1015.66485,0.08857
1013.60468,0.08877
1011.54451,0.08939
1009.48434,0.08967
1007.42417,0.08947
1005.36399,0.08934
1003.30382,0.08919
1001.24365,0.08893
999.18348,0.08800
997.12330,0.08622
995.06313,0.08464
993.00296,0.08349
990.94279,0.08207
988.88262,0.08013
986.82244,0.07811
984.76227,0.07669
982.70210,0.07540
980.64193,0.07391
978.58176,0.07300
976.52158,0.07251
974.46141,0.07146
972.40124,0.06970
970.34107,0.06767
968.28089,0.06604
966.22072,0.06475
964.16055,0.06298
962.10038,0.06095
960.04021,0.05946
957.98003,0.05831
955.91986,0.05715
953.85969,0.05613
951.79952,0.05505
949.73935,0.05365
947.67917,0.05238
945.61900,0.05111
943.55883,0.04914
941.49866,0.04654
939.43849,0.04380
937.37831,0.04106
935.31814,0.03839
933.25797,0.03572
931.19780,0.03290
929.13762,0.03014
927.07745,0.02781
925.01728,0.02606
922.95711,0.02463
920.89694,0.02316
918.83676,0.02152
916.77659,0.01985
914.71642,0.01811
912.65625,0.01619
910.59608,0.01441
908.53590,0.01329
906.47573,0.01293
904.41556,0.01268
902.35539,0.01212
900.29522,0.01192
898.23504,0.01240
896.17487,0.01285
894.11470,0.01323
892.05453,0.01341
889.99435,0.01306
887.93418,0.01269
885.87401,0.01213
883.81384,0.01107
881.75367,0.01050
879.69349,0.01049
877.63332,0.00989
875.57315,0.00856
873.51298,0.00720
871.45281,0.00629
869.39263,0.00582
867.33246,0.00538
865.27229,0.00504
863.21212,0.00488
861.15194,0.00494
859.09177,0.00527
857.03160,0.00532
854.97143,0.00510
852.91126,0.00519
850.85108,0.00497
848.79091,0.00411
846.73074,0.00353
844.67057,0.00371
842.61040,0.00444
840.55022,0.00536
838.49005,0.00599
836.42988,0.00587
834.36971,0.00527
832.30954,0.00501
830.24936,0.00481
828.18919,0.00391
826.12902,0.00300
824.06885,0.00310
822.00867,0.00357
819.94850,0.00343
817.88833,0.00292
815.82816,0.00247
813.76799,0.00196
811.70781,0.00137
809.64764,0.00087
807.58747,0.00050
805.52730,0.00024
803.46713,0.00000
801.40695,-0.00002
799.34678,0.00038
797.28661,0.00066
795.22644,0.00040
793.16627,-0.00037
791.10609,-0.00083
789.04592,-0.00041
786.98575,-0.00000
784.92558,-0.00042
782.86540,-0.00066
780.80523,-0.00024
778.74506,0.00012
776.68489,0.00069
774.62472,0.00158
772.56454,0.00173
770.50437,0.00080
768.44420,-0.00038
766.38403,-0.00111
764.32386,-0.00133
762.26368,-0.00135
760.20351,-0.00139
758.14334,-0.00146
756.08317,-0.00115
754.02299,0.00012
751.96282,0.00157
749.90265,0.00204
747.84248,0.00186
745.78231,0.00144
743.72213,0.00051
741.66196,0.00000
739.60179,0.00010
737.54162,0.00000
735.48145,-0.00035
733.42127,0.00000
731.36110,0.00101
729.30093,0.00164
727.24076,0.00129
725.18059,0.00127
723.12041,0.00187
721.06024,0.00181
719.00007,0.00104
716.93990,0.00149
714.87972,0.00286
712.81955,0.00380
710.75938,0.00413
708.69921,0.00407
706.63904,0.00385
704.57886,0.00422
702.51869,0.00544
700.45852,0.00658
698.39835,0.00710
696.33818,0.00729
694.27800,0.00680
692.21783,0.00561
690.15766,0.00481
688.09749,0.00505
686.03731,0.00575
683.97714,0.00532
681.91697,0.00345
679.85680,0.00139
677.79663,0.00000
675.73645,-0.00048
673.67628,-0.00030
671.61611,0.00048
669.55594,0.00369
667.49577,0.00479
665.43559,0.00027
663.37542,-0.00027
661.31525,0.00075
659.25508,0.00183
657.19491,0.00309
655.13473,0.00453
653.07456,0.00494
651.01439,0.00331
648.95422,0.00120
646.89404,0.00000
644.83387,-0.00015
642.77370,0.00145
640.71353,0.00416
638.65336,0.00560
636.59318,0.00536
634.53301,0.00438
632.47284,0.00203
630.41267,-0.00118
628.35250,-0.00267
626.29232,-0.00111
624.23215,0.00308
622.17198,0.00715
620.11181,0.00547
618.05164,-0.00089
615.99146,-0.00465
613.93129,-0.00359
611.87112,-0.00041
609.81095,0.00006
607.75077,-0.00394
605.69060,-0.00583
603.63043,-0.00301
601.57026,-0.00033
599.51009,0.00000
