3996.73391,0.00013
3994.67373,0.00024
3992.61356,0.00018
3990.55339,0.00012
3988.49322,0.00004
3986.43305,0.00000
3984.37287,0.00007
3982.31270,0.00015
3980.25253,0.00021
3978.19236,0.00046
3976.13219,0.00071
3974.07201,0.00059
3972.01184,0.00041
3969.95167,0.00056
3967.89150,0.00072
3965.83133,0.00062
3963.77115,0.00054
3961.71098,0.00042
3959.65081,0.00028
3957.59064,0.00042
3955.53046,0.00068
3953.47029,0.00082
3951.41012,0.00096
3949.34995,0.00119
3947.28978,0.00125
3945.22960,0.00137
3943.16943,0.00151
3941.10926,0.00111
3939.04909,0.00074
3936.98892,0.00062
3934.92874,0.00062
3932.86857,0.00081
3930.80840,0.00075
3928.74823,0.00050
3926.68805,0.00071
3924.62788,0.00093
3922.56771,0.00051
3920.50754,0.00037
3918.44737,0.00084
3916.38719,0.00116
3914.32702,0.00127
3912.26685,0.00150
3910.20668,0.00124
3908.14651,0.00067
3906.08633,0.00068
3904.02616,0.00076
3901.96599,0.00078
3899.90582,0.00123
3897.84565,0.00082
3895.78547,0.00006
3893.72530,0.00066
3891.66513,0.00155
3889.60496,0.00097
3887.54478,0.00092
3885.48461,0.00154
3883.42444,0.00153
3881.36427,0.00231
3879.30410,0.00218
3877.24392,0.00110
3875.18375,0.00113
3873.12358,0.00131
3871.06341,0.00188
3869.00324,0.00180
3866.94306,0.00121
3864.88289,0.00192
3862.82272,0.00202
3860.76255,0.00100
3858.70237,0.00011
3856.64220,0.00077
3854.58203,0.00299
3852.52186,0.00297
3850.46169,0.00076
3848.40151,0.00000
3846.34134,0.00052
3844.28117,0.00097
3842.22100,0.00060
3840.16083,0.00054
3838.10065,0.00111
3836.04048,0.00118
3833.98031,0.00123
3831.92014,0.00137
3829.85997,0.00112
3827.79979,0.00116
3825.73962,0.00107
3823.67945,0.00132
3821.61928,0.00197
3819.55910,0.00078
3817.49893,0.00067
3815.43876,0.00144
3813.37859,0.00076
3811.31842,0.00046
3809.25824,0.00137
3807.19807,0.00205
3805.13790,0.00119
3803.07773,0.00172
3801.01756,0.00277
3798.95738,0.00224
3796.89721,0.00214
3794.83704,0.00167
3792.77687,0.00107
3790.71670,0.00110
3788.65652,0.00131
3786.59635,0.00162
3784.53618,0.00162
3782.47601,0.00135
3780.41583,0.00157
3778.35566,0.00125
3776.29549,0.00040
3774.23532,0.00027
3772.17515,0.00097
3770.11497,0.00158
3768.05480,0.00122
3765.99463,0.00083
3763.93446,0.00037
3761.87429,0.00066
3759.81411,0.00170
3757.75394,0.00161
3755.69377,0.00103
3753.63360,0.00213
3751.57342,0.00397
3749.51325,0.00316
3747.45308,0.00154
3745.39291,0.00254
3743.33274,0.00216
3741.27256,0.00003
3739.21239,-0.00002
3737.15222,0.00185
3735.09205,0.00330
3733.03188,0.00305
3730.97170,0.00173
3728.91153,0.00050
3726.85136,0.00025
3724.79119,0.00040
3722.73102,0.00074
3720.67084,0.00088
3718.61067,0.00054
3716.55050,0.00001
3714.49033,0.00000
3712.43015,0.00071
3710.36998,0.00101
3708.30981,0.00046
3706.24964,0.00023
3704.18947,0.00107
3702.12929,0.00227
3700.06912,0.00234
3698.00895,0.00196
3695.94878,0.00169
3693.88861,0.00115
3691.82843,0.00125
3689.76826,0.00205
3687.70809,0.00198
3685.64792,0.00123
3683.58775,0.00116
3681.52757,0.00119
3679.46740,0.00094
3677.40723,0.00154
3675.34706,0.00227
3673.28688,0.00131
3671.22671,0.00205
3669.16654,0.00288
3667.10637,0.00205
3665.04620,0.00184
3662.98602,0.00204
3660.92585,0.00190
3658.86568,0.00200
3656.80551,0.00219
3654.74534,0.00120
3652.68516,0.00112
3650.62499,0.00300
3648.56482,0.00386
3646.50465,0.00291
3644.44447,0.00215
3642.38430,0.00250
3640.32413,0.00312
3638.26396,0.00338
3636.20379,0.00325
3634.14361,0.00294
3632.08344,0.00294
3630.02327,0.00418
3627.96310,0.00465
3625.90293,0.00370
3623.84275,0.00374
3621.78258,0.00492
3619.72241,0.00597
3617.66224,0.00548
3615.60207,0.00473
3613.54189,0.00476
3611.48172,0.00472
3609.42155,0.00531
3607.36138,0.00596
3605.30120,0.00574
3603.24103,0.00572
3601.18086,0.00589
3599.12069,0.00575
3597.06052,0.00579
3595.00034,0.00613
3592.94017,0.00615
3590.88000,0.00659
3588.81983,0.00793
3586.75966,0.00854
3584.69948,0.00793
3582.63931,0.00787
3580.57914,0.00843
3578.51897,0.00892
3576.45879,0.00923
3574.39862,0.00932
3572.33845,0.00920
3570.27828,0.00965
3568.21811,0.01098
3566.15793,0.01141
3564.09776,0.01052
3562.03759,0.01019
3559.97742,0.01076
3557.91725,0.01153
3555.85707,0.01218
3553.79690,0.01264
3551.73673,0.01273
3549.67656,0.01284
3547.61639,0.01358
3545.55621,0.01429
3543.49604,0.01434
3541.43587,0.01428
3539.37570,0.01441
3537.31552,0.01467
3535.25535,0.01489
3533.19518,0.01514
3531.13501,0.01562
3529.07484,0.01625
3527.01466,0.01679
3524.95449,0.01715
3522.89432,0.01741
3520.83415,0.01772
3518.77398,0.01812
3516.71380,0.01836
3514.65363,0.01847
3512.59346,0.01867
3510.53329,0.01887
3508.47312,0.01896
3506.41294,0.01951
3504.35277,0.02065
3502.29260,0.02120
3500.23243,0.02122
3498.17225,0.02167
3496.11208,0.02226
3494.05191,0.02248
3491.99174,0.02250
3489.93157,0.02275
3487.87139,0.02328
3485.81122,0.02382
3483.75105,0.02432
3481.69088,0.02468
3479.63071,0.02477
3477.57053,0.02500
3475.51036,0.02557
3473.45019,0.02617
3471.39002,0.02649
3469.32984,0.02669
3467.26967,0.02695
3465.20950,0.02701
3463.14933,0.02697
3461.08916,0.02707
3459.02898,0.02742
3456.96881,0.02794
3454.90864,0.02836
3452.84847,0.02854
3450.78830,0.02844
3448.72812,0.02860
3446.66795,0.02904
3444.60778,0.02940
3442.54761,0.02998
3440.48744,0.03057
3438.42726,0.03101
3436.36709,0.03117
3434.30692,0.03121
3432.24675,0.03163
3430.18657,0.03213
3428.12640,0.03219
3426.06623,0.03207
3424.00606,0.03224
3421.94589,0.03300
3419.88571,0.03408
3417.82554,0.03476
3415.76537,0.03480
3413.70520,0.03460
3411.64503,0.03459
3409.58485,0.03460
3407.52468,0.03449
3405.46451,0.03455
3403.40434,0.03487
3401.34416,0.03529
3399.28399,0.03582
3397.22382,0.03617
3395.16365,0.03643
3393.10348,0.03689
3391.04330,0.03714
3388.98313,0.03708
3386.92296,0.03696
3384.86279,0.03714
3382.80262,0.03772
3380.74244,0.03819
3378.68227,0.03836
3376.62210,0.03849
3374.56193,0.03872
3372.50176,0.03901
3370.44158,0.03925
3368.38141,0.03949
3366.32124,0.03978
3364.26107,0.03991
3362.20089,0.03986
3360.14072,0.03975
3358.08055,0.03981
3356.02038,0.04002
3353.96021,0.04017
3351.90003,0.04034
3349.83986,0.04050
3347.77969,0.04057
3345.71952,0.04049
3343.65935,0.04030
3341.59917,0.04026
3339.53900,0.04029
3337.47883,0.04035
3335.41866,0.04054
3333.35849,0.04064
3331.29831,0.04050
3329.23814,0.04044
3327.17797,0.04072
3325.11780,0.04108
3323.05762,0.04115
3320.99745,0.04098
3318.93728,0.04083
3316.87711,0.04103
3314.81694,0.04151
3312.75676,0.04195
3310.69659,0.04219
3308.63642,0.04222
3306.57625,0.04221
3304.51608,0.04221
3302.45590,0.04199
3300.39573,0.04181
3298.33556,0.04204
3296.27539,0.04234
3294.21521,0.04234
3292.15504,0.04226
3290.09487,0.04228
3288.03470,0.04231
3285.97453,0.04243
3283.91435,0.04267
3281.85418,0.04275
3279.79401,0.04252
3277.73384,0.04232
3275.67367,0.04217
3273.61349,0.04181
3271.55332,0.04147
3269.49315,0.04139
3267.43298,0.04143
3265.37281,0.04152
3263.31263,0.04161
3261.25246,0.04176
3259.19229,0.04198
3257.13212,0.04215
3255.07194,0.04216
3253.01177,0.04207
3250.95160,0.04197
3248.89143,0.04190
3246.83126,0.04170
3244.77108,0.04123
3242.71091,0.04072
3240.65074,0.04046
3238.59057,0.04024
3236.53040,0.04005
3234.47022,0.04014
3232.41005,0.04035
3230.34988,0.04022
3228.28971,0.03977
3226.22954,0.03945
3224.16936,0.03965
3222.10919,0.04021
3220.04902,0.04066
3217.98885,0.04058
3215.92867,0.04012
3213.86850,0.03968
3211.80833,0.03944
3209.74816,0.03929
3207.68799,0.03909
3205.62781,0.03896
3203.56764,0.03871
3201.50747,0.03823
3199.44730,0.03791
3197.38713,0.03780
3195.32695,0.03769
3193.26678,0.03767
3191.20661,0.03771
3189.14644,0.03758
3187.08626,0.03732
3185.02609,0.03702
3182.96592,0.03669
3180.90575,0.03653
3178.84558,0.03659
3176.78540,0.03637
3174.72523,0.03591
3172.66506,0.03566
3170.60489,0.03568
3168.54472,0.03587
3166.48454,0.03592
3164.42437,0.03565
3162.36420,0.03519
3160.30403,0.03477
3158.24386,0.03455
3156.18368,0.03442
3154.12351,0.03414
3152.06334,0.03368
3150.00317,0.03337
3147.94299,0.03335
3145.88282,0.03325
3143.82265,0.03288
3141.76248,0.03258
3139.70231,0.03237
3137.64213,0.03178
3135.58196,0.03110
3133.52179,0.03103
3131.46162,0.03125
3129.40145,0.03113
3127.34127,0.03060
3125.28110,0.03017
3123.22093,0.03010
3121.16076,0.03001
3119.10058,0.02966
3117.04041,0.02935
3114.98024,0.02921
3112.92007,0.02918
3110.85990,0.02907
3108.79972,0.02867
3106.73955,0.02813
3104.67938,0.02785
3102.61921,0.02788
3100.55904,0.02775
3098.49886,0.02733
3096.43869,0.02694
3094.37852,0.02673
3092.31835,0.02677
3090.25818,0.02698
3088.19800,0.02694
3086.13783,0.02650
3084.07766,0.02603
3082.01749,0.02574
3079.95731,0.02568
3077.89714,0.02575
3075.83697,0.02566
3073.77680,0.02523
3071.71663,0.02467
3069.65645,0.02436
3067.59628,0.02431
3065.53611,0.02429
3063.47594,0.02406
3061.41577,0.02356
3059.35559,0.02310
3057.29542,0.02284
3055.23525,0.02265
3053.17508,0.02253
3051.11491,0.02254
3049.05473,0.02245
3046.99456,0.02218
3044.93439,0.02188
3042.87422,0.02161
3040.81404,0.02132
3038.75387,0.02105
3036.69370,0.02091
3034.63353,0.02081
3032.57336,0.02078
3030.51318,0.02088
3028.45301,0.02086
3026.39284,0.02070
3024.33267,0.02059
3022.27250,0.02054
3020.21232,0.02037
3018.15215,0.02014
3016.09198,0.01999
3014.03181,0.01985
3011.97163,0.01973
3009.91146,0.01959
3007.85129,0.01932
3005.79112,0.01889
3003.73095,0.01844
3001.67077,0.01827
2999.61060,0.01834
2997.55043,0.01842
2995.49026,0.01844
2993.43009,0.01845
2991.36991,0.01857
2989.30974,0.01874
2987.24957,0.01867
2985.18940,0.01842
2983.12923,0.01843
2981.06905,0.01890
2979.00888,0.01941
2976.94871,0.01978
2974.88854,0.02026
2972.82836,0.02085
2970.76819,0.02135
2968.70802,0.02198
2966.64785,0.02309
2964.58768,0.02443
2962.52750,0.02543
2960.46733,0.02622
2958.40716,0.02745
2956.34699,0.02911
2954.28682,0.03065
2952.22664,0.03194
2950.16647,0.03331
2948.10630,0.03483
2946.04613,0.03624
2943.98596,0.03758
2941.92578,0.03927
2939.86561,0.04149
2937.80544,0.04386
2935.74527,0.04600
2933.68509,0.04778
2931.62492,0.04936
2929.56475,0.05078
2927.50458,0.05183
2925.44441,0.05271
2923.38423,0.05361
2921.32406,0.05419
2919.26389,0.05409
2917.20372,0.05322
2915.14355,0.05185
2913.08337,0.05023
2911.02320,0.04835
2908.96303,0.04648
2906.90286,0.04482
2904.84268,0.04338
2902.78251,0.04197
2900.72234,0.04050
2898.66217,0.03919
2896.60200,0.03814
2894.54182,0.03723
2892.48165,0.03631
2890.42148,0.03543
2888.36131,0.03476
2886.30114,0.03413
2884.24096,0.03347
2882.18079,0.03299
2880.12062,0.03274
2878.06045,0.03266
2876.00028,0.03262
2873.94010,0.03267
2871.87993,0.03300
2869.81976,0.03350
2867.75959,0.03397
2865.69941,0.03454
2863.63924,0.03535
2861.57907,0.03642
2859.51890,0.03772
2857.45873,0.03918
2855.39855,0.04062
2853.33838,0.04172
2851.27821,0.04222
2849.21804,0.04155
2847.15787,0.03942
2845.09769,0.03666
2843.03752,0.03410
2840.97735,0.03185
2838.91718,0.02995
2836.85700,0.02842
2834.79683,0.02708
2832.73666,0.02601
2830.67649,0.02512
2828.61632,0.02431
2826.55614,0.02376
2824.49597,0.02343
2822.43580,0.02318
2820.37563,0.02304
2818.31546,0.02278
2816.25528,0.02232
2814.19511,0.02191
2812.13494,0.02149
2810.07477,0.02100
2808.01460,0.02059
2805.95442,0.02028
2803.89425,0.02001
2801.83408,0.01983
2799.77391,0.01970
2797.71373,0.01951
2795.65356,0.01929
2793.59339,0.01902
2791.53322,0.01868
2789.47305,0.01832
2787.41287,0.01812
2785.35270,0.01816
2783.29253,0.01822
2781.23236,0.01802
2779.17219,0.01774
2777.11201,0.01754
2775.05184,0.01736
2772.99167,0.01724
2770.93150,0.01727
2768.87133,0.01730
2766.81115,0.01710
2764.75098,0.01680
2762.69081,0.01667
2760.63064,0.01656
2758.57046,0.01627
2756.51029,0.01605
2754.45012,0.01622
2752.38995,0.01650
2750.32978,0.01659
2748.26960,0.01650
2746.20943,0.01633
2744.14926,0.01623
2742.08909,0.01627
2740.02892,0.01637
2737.96874,0.01644
2735.90857,0.01633
2733.84840,0.01612
2731.78823,0.01601
2729.72805,0.01606
2727.66788,0.01613
2725.60771,0.01606
2723.54754,0.01597
2721.48737,0.01587
2719.42719,0.01569
2717.36702,0.01561
2715.30685,0.01558
2713.24668,0.01541
2711.18651,0.01512
2709.12633,0.01501
2707.06616,0.01516
2705.00599,0.01525
2702.94582,0.01526
2700.88565,0.01517
2698.82547,0.01498
2696.76530,0.01493
2694.70513,0.01505
2692.64496,0.01512
2690.58478,0.01500
2688.52461,0.01480
2686.46444,0.01475
2684.40427,0.01489
2682.34410,0.01509
2680.28392,0.01525
2678.22375,0.01517
2676.16358,0.01488
2674.10341,0.01467
2672.04324,0.01449
2669.98306,0.01434
2667.92289,0.01438
2665.86272,0.01446
2663.80255,0.01458
2661.74238,0.01464
2659.68220,0.01439
2657.62203,0.01409
2655.56186,0.01409
2653.50169,0.01423
2651.44151,0.01433
2649.38134,0.01425
2647.32117,0.01396
2645.26100,0.01364
2643.20083,0.01344
2641.14065,0.01335
2639.08048,0.01335
2637.02031,0.01331
2634.96014,0.01316
2632.89997,0.01308
2630.83979,0.01306
2628.77962,0.01289
2626.71945,0.01271
2624.65928,0.01267
2622.59910,0.01271
2620.53893,0.01281
2618.47876,0.01279
2616.41859,0.01250
2614.35842,0.01230
2612.29824,0.01246
2610.23807,0.01270
2608.17790,0.01267
2606.11773,0.01228
2604.05756,0.01182
2601.99738,0.01153
2599.93721,0.01150
2597.87704,0.01163
2595.81687,0.01167
2593.75670,0.01160
2591.69652,0.01150
2589.63635,0.01148
2587.57618,0.01154
2585.51601,0.01156
2583.45583,0.01145
2581.39566,0.01115
2579.33549,0.01081
2577.27532,0.01072
2575.21515,0.01096
2573.15497,0.01117
2571.09480,0.01119
2569.03463,0.01125
2566.97446,0.01109
2564.91429,0.01052
2562.85411,0.01004
2560.79394,0.00993
2558.73377,0.01003
2556.67360,0.01009
2554.61342,0.01010
2552.55325,0.01032
2550.49308,0.01049
2548.43291,0.01041
2546.37274,0.01021
2544.31256,0.00994
2542.25239,0.00974
2540.19222,0.00954
2538.13205,0.00925
2536.07188,0.00901
2534.01170,0.00904
2531.95153,0.00914
2529.89136,0.00894
2527.83119,0.00877
2525.77102,0.00897
2523.71084,0.00932
2521.65067,0.00982
2519.59050,0.01034
2517.53033,0.01036
2515.47015,0.01000
2513.40998,0.00968
2511.34981,0.00946
2509.28964,0.00943
2507.22947,0.00952
2505.16929,0.00914
2503.10912,0.00868
2501.04895,0.00884
2498.98878,0.00902
2496.92861,0.00868
2494.86843,0.00819
2492.80826,0.00806
2490.74809,0.00851
2488.68792,0.00902
2486.62775,0.00903
2484.56757,0.00879
2482.50740,0.00854
2480.44723,0.00824
2478.38706,0.00810
2476.32688,0.00815
2474.26671,0.00814
2472.20654,0.00827
2470.14637,0.00877
2468.08620,0.00911
2466.02602,0.00910
2463.96585,0.00891
2461.90568,0.00873
2459.84551,0.00853
2457.78534,0.00814
2455.72516,0.00794
2453.66499,0.00823
2451.60482,0.00848
2449.54465,0.00835
2447.48447,0.00819
2445.42430,0.00817
2443.36413,0.00797
2441.30396,0.00752
2439.24379,0.00746
2437.18361,0.00784
2435.12344,0.00793
2433.06327,0.00772
2431.00310,0.00764
2428.94293,0.00754
2426.88275,0.00733
2424.82258,0.00750
2422.76241,0.00787
2420.70224,0.00788
2418.64207,0.00773
2416.58189,0.00778
2414.52172,0.00789
2412.46155,0.00757
2410.40138,0.00701
2408.34120,0.00688
2406.28103,0.00699
2404.22086,0.00696
2402.16069,0.00693
2400.10052,0.00697
2398.04034,0.00715
2395.98017,0.00733
2393.92000,0.00735
2391.85983,0.00745
2389.79966,0.00766
2387.73948,0.00774
2385.67931,0.00784
2383.61914,0.00810
2381.55897,0.00852
2379.49880,0.00888
2377.43862,0.00886
2375.37845,0.00828
2373.31828,0.00812
2371.25811,0.00842
2369.19793,0.00813
2367.13776,0.00855
2365.07759,0.01004
2363.01742,0.00896
2360.95725,0.00676
2358.89707,0.00372
2356.83690,0.00392
2354.77673,0.00660
2352.71656,0.00846
2350.65639,0.01198
2348.59621,0.01332
2346.53604,0.00817
2344.47587,0.00667
2342.41570,0.00700
2340.35552,0.00691
2338.29535,0.00716
2336.23518,0.00742
2334.17501,0.00780
2332.11484,0.00831
2330.05466,0.01016
2327.99449,0.01151
2325.93432,0.01180
2323.87415,0.00993
2321.81398,0.00815
2319.75380,0.00750
2317.69363,0.00863
2315.63346,0.00921
2313.57329,0.00878
2311.51312,0.00810
2309.45294,0.00771
2307.39277,0.00769
2305.33260,0.00783
2303.27243,0.00816
2301.21225,0.00824
2299.15208,0.00795
2297.09191,0.00726
2295.03174,0.00684
2292.97157,0.00714
2290.91139,0.00754
2288.85122,0.00744
2286.79105,0.00704
2284.73088,0.00674
2282.67071,0.00653
2280.61053,0.00618
2278.55036,0.00572
2276.49019,0.00540
2274.43002,0.00529
2272.36984,0.00509
2270.30967,0.00484
2268.24950,0.00478
2266.18933,0.00496
2264.12916,0.00542
2262.06898,0.00590
2260.00881,0.00621
2257.94864,0.00639
2255.88847,0.00614
2253.82830,0.00592
2251.76812,0.00623
2249.70795,0.00663
2247.64778,0.00672
2245.58761,0.00655
2243.52744,0.00618
2241.46726,0.00554
2239.40709,0.00529
2237.34692,0.00596
2235.28675,0.00647
2233.22657,0.00608
2231.16640,0.00541
2229.10623,0.00514
2227.04606,0.00472
2224.98589,0.00347
2222.92571,0.00283
2220.86554,0.00370
2218.80537,0.00447
2216.74520,0.00441
2214.68503,0.00429
2212.62485,0.00437
2210.56468,0.00451
2208.50451,0.00473
2206.44434,0.00462
2204.38417,0.00377
2202.32399,0.00304
2200.26382,0.00367
2198.20365,0.00482
2196.14348,0.00489
2194.08330,0.00428
2192.02313,0.00418
2189.96296,0.00431
2187.90279,0.00345
2185.84262,0.00227
2183.78244,0.00245
2181.72227,0.00382
2179.66210,0.00512
2177.60193,0.00530
2175.54176,0.00442
2173.48158,0.00435
2171.42141,0.00600
2169.36124,0.00712
2167.30107,0.00709
2165.24089,0.00737
2163.18072,0.00623
2161.12055,0.00326
2159.06038,0.00113
2157.00021,0.00077
2154.94003,0.00208
2152.87986,0.00431
2150.81969,0.00538
2148.75952,0.00439
2146.69935,0.00335
2144.63917,0.00309
2142.57900,0.00286
2140.51883,0.00325
2138.45866,0.00386
2136.39849,0.00393
2134.33831,0.00398
2132.27814,0.00396
2130.21797,0.00369
2128.15780,0.00325
2126.09762,0.00305
2124.03745,0.00394
2121.97728,0.00523
2119.91711,0.00528
2117.85694,0.00468
2115.79676,0.00490
2113.73659,0.00537
2111.67642,0.00536
2109.61625,0.00531
2107.55608,0.00522
2105.49590,0.00477
2103.43573,0.00464
2101.37556,0.00523
2099.31539,0.00519
2097.25521,0.00417
2095.19504,0.00351
2093.13487,0.00333
2091.07470,0.00309
2089.01453,0.00343
2086.95435,0.00449
2084.89418,0.00537
2082.83401,0.00526
2080.77384,0.00446
2078.71367,0.00413
2076.65349,0.00449
2074.59332,0.00450
2072.53315,0.00396
2070.47298,0.00423
2068.41281,0.00515
2066.35263,0.00493
2064.29246,0.00372
2062.23229,0.00344
2060.17212,0.00409
2058.11194,0.00385
2056.05177,0.00268
2053.99160,0.00223
2051.93143,0.00226
2049.87126,0.00235
2047.81108,0.00353
2045.75091,0.00437
2043.69074,0.00334
2041.63057,0.00192
2039.57040,0.00112
2037.51022,0.00128
2035.45005,0.00242
2033.38988,0.00269
2031.32971,0.00181
2029.26954,0.00211
2027.20936,0.00349
2025.14919,0.00432
2023.08902,0.00456
2021.02885,0.00408
2018.96867,0.00298
2016.90850,0.00231
2014.84833,0.00198
2012.78816,0.00186
2010.72799,0.00180
2008.66781,0.00093
2006.60764,0.00005
2004.54747,0.00072
2002.48730,0.00219
2000.42713,0.00358
1998.36695,0.00446
1996.30678,0.00366
1994.24661,0.00230
1992.18644,0.00230
1990.12626,0.00295
1988.06609,0.00312
1986.00592,0.00301
1983.94575,0.00291
1981.88558,0.00206
1979.82540,0.00055
1977.76523,0.00000
1975.70506,0.00048
1973.64489,0.00036
1971.58472,-0.00001
1969.52454,0.00084
1967.46437,0.00188
1965.40420,0.00154
1963.34403,0.00097
1961.28386,0.00103
1959.22368,0.00132
1957.16351,0.00186
1955.10334,0.00250
1953.04317,0.00252
1950.98299,0.00162
1948.92282,0.00098
1946.86265,0.00109
1944.80248,0.00116
1942.74231,0.00103
1940.68213,0.00076
1938.62196,0.00102
1936.56179,0.00168
1934.50162,0.00228
1932.44145,0.00251
1930.38127,0.00198
1928.32110,0.00128
1926.26093,0.00109
1924.20076,0.00148
1922.14059,0.00156
1920.08041,0.00151
1918.02024,0.00214
1915.96007,0.00230
1913.89990,0.00213
1911.83972,0.00220
1909.77955,0.00225
1907.71938,0.00218
1905.65921,0.00238
1903.59904,0.00285
1901.53886,0.00297
1899.47869,0.00236
1897.41852,0.00165
1895.35835,0.00155
1893.29818,0.00170
1891.23800,0.00187
1889.17783,0.00168
1887.11766,0.00141
1885.05749,0.00206
1882.99731,0.00272
1880.93714,0.00254
1878.87697,0.00223
1876.81680,0.00231
1874.75663,0.00241
1872.69645,0.00233
1870.63628,0.00242
1868.57611,0.00213
1866.51594,0.00120
1864.45577,0.00122
1862.39559,0.00218
1860.33542,0.00257
1858.27525,0.00226
1856.21508,0.00205
1854.15491,0.00205
1852.09473,0.00189
1850.03456,0.00162
1847.97439,0.00132
1845.91422,0.00129
1843.85404,0.00119
1841.79387,0.00058
1839.73370,0.00073
1837.67353,0.00121
1835.61336,0.00098
1833.55318,0.00064
1831.49301,0.00103
1829.43284,0.00117
1827.37267,0.00069
1825.31250,0.00081
1823.25232,0.00089
1821.19215,0.00095
1819.13198,0.00136
1817.07181,0.00158
1815.01163,0.00144
1812.95146,0.00155
1810.89129,0.00176
1808.83112,0.00150
1806.77095,0.00125
1804.71077,0.00135
1802.65060,0.00158
1800.59043,0.00141
1798.53026,0.00072
1796.47009,0.00021
1794.40991,0.00065
1792.34974,0.00148
1790.28957,0.00113
1788.22940,0.00070
1786.16923,0.00110
1784.10905,0.00137
1782.04888,0.00139
1779.98871,0.00107
1777.92854,0.00020
1775.86836,0.00000
1773.80819,0.00098
1771.74802,0.00164
1769.68785,0.00134
1767.62768,0.00136
1765.56750,0.00142
1763.50733,0.00218
1761.44716,0.00318
1759.38699,0.00388
1757.32682,0.00520
1755.26664,0.00606
1753.20647,0.00703
1751.14630,0.00909
1749.08613,0.01085
1747.02596,0.01186
1744.96578,0.01275
1742.90561,0.01371
1740.84544,0.01449
1738.78527,0.01424
1736.72509,0.01435
1734.66492,0.01595
1732.60475,0.01539
1730.54458,0.01404
1728.48441,0.01400
1726.42423,0.01437
1724.36406,0.01461
1722.30389,0.01413
1720.24372,0.01435
1718.18355,0.01581
1716.12337,0.01580
1714.06320,0.01471
1712.00303,0.01423
1709.94286,0.01440
1707.88268,0.01476
1705.82251,0.01449
1703.76234,0.01332
1701.70217,0.01376
1699.64200,0.01435
1697.58182,0.01427
1695.52165,0.01521
1693.46148,0.01509
1691.40131,0.01560
1689.34114,0.01673
1687.28096,0.01818
1685.22079,0.02170
1683.16062,0.02406
1681.10045,0.02403
1679.04028,0.02467
1676.98010,0.02655
1674.91993,0.02790
1672.85976,0.02776
1670.79959,0.02854
1668.73941,0.02857
1666.67924,0.02689
1664.61907,0.02671
1662.55890,0.02722
1660.49873,0.02589
1658.43855,0.02419
1656.37838,0.02438
1654.31821,0.02654
1652.25804,0.02536
1650.19787,0.02252
1648.13769,0.02387
1646.07752,0.02523
1644.01735,0.02420
1641.95718,0.02389
1639.89701,0.02459
1637.83683,0.02651
1635.77666,0.02856
1633.71649,0.02765
1631.65632,0.02666
1629.59614,0.02752
1627.53597,0.02833
1625.47580,0.02870
1623.41563,0.02896
1621.35546,0.02804
1619.29528,0.02825
1617.23511,0.03008
1615.17494,0.03007
1613.11477,0.02965
1611.05460,0.03091
1608.99442,0.03258
1606.93425,0.03357
1604.87408,0.03400
1602.81391,0.03389
1600.75373,0.03285
1598.69356,0.03122
1596.63339,0.02969
1594.57322,0.02855
1592.51305,0.02765
1590.45287,0.02692
1588.39270,0.02627
1586.33253,0.02571
1584.27236,0.02494
1582.21219,0.02363
1580.15201,0.02238
1578.09184,0.02258
1576.03167,0.02265
1573.97150,0.02050
1571.91133,0.01967
1569.85115,0.02015
1567.79098,0.01877
1565.73081,0.01702
1563.67064,0.01563
1561.61046,0.01605
1559.55029,0.01819
1557.49012,0.01568
1555.42995,0.01271
1553.36978,0.01220
1551.30960,0.01223
1549.24943,0.01142
1547.18926,0.00990
1545.12909,0.00922
1543.06892,0.00942
1541.00874,0.01032
1538.94857,0.00889
1536.88840,0.00604
1534.82823,0.00632
1532.76805,0.00695
1530.70788,0.00571
1528.64771,0.00540
1526.58754,0.00570
1524.52737,0.00578
1522.46719,0.00688
1520.40702,0.00761
1518.34685,0.00844
1516.28668,0.00998
1514.22651,0.00993
1512.16633,0.00878
1510.10616,0.00817
1508.04599,0.00895
1505.98582,0.00751
1503.92565,0.00400
1501.86547,0.00294
1499.80530,0.00376
1497.74513,0.00413
1495.68496,0.00265
1493.62478,0.00079
1491.56461,0.00112
1489.50444,0.00218
1487.44427,0.00165
1485.38410,0.00067
1483.32392,0.00061
1481.26375,0.00106
1479.20358,0.00136
1477.14341,0.00225
1475.08324,0.00415
1473.02306,0.00662
1470.96289,0.00775
1468.90272,0.00856
1466.84255,0.01112
1464.78238,0.01343
1462.72220,0.01346
1460.66203,0.01398
1458.60186,0.01674
1456.54169,0.01821
1454.48151,0.01701
1452.42134,0.01695
1450.36117,0.01822
1448.30100,0.01953
1446.24083,0.02015
1444.18065,0.02061
1442.12048,0.02127
1440.06031,0.02201
1438.00014,0.02349
1435.93997,0.02419
1433.87979,0.02346
1431.81962,0.02371
1429.75945,0.02426
1427.69928,0.02395
1425.63910,0.02393
1423.57893,0.02409
1421.51876,0.02454
1419.45859,0.02571
1417.39842,0.02549
1415.33824,0.02464
1413.27807,0.02457
1411.21790,0.02449
1409.15773,0.02384
1407.09756,0.02320
1405.03738,0.02249
1402.97721,0.02125
1400.91704,0.02052
1398.85687,0.02010
1396.79670,0.01944
1394.73652,0.01897
1392.67635,0.01818
1390.61618,0.01794
1388.55601,0.01866
1386.49583,0.01900
1384.43566,0.01906
1382.37549,0.01983
1380.31532,0.02072
1378.25515,0.02127
1376.19497,0.02192
1374.13480,0.02245
1372.07463,0.02213
1370.01446,0.02186
1367.95429,0.02178
1365.89411,0.02170
1363.83394,0.02202
1361.77377,0.02177
1359.71360,0.02080
1357.65343,0.02022
1355.59325,0.02002
1353.53308,0.01988
1351.47291,0.01995
1349.41274,0.02020
1347.35256,0.02024
1345.29239,0.01994
1343.23222,0.01958
1341.17205,0.01965
1339.11188,0.01979
1337.05170,0.01953
1334.99153,0.01938
1332.93136,0.01951
1330.87119,0.01960
1328.81102,0.01967
1326.75084,0.01993
1324.69067,0.02025
1322.63050,0.02031
1320.57033,0.02022
1318.51015,0.01999
1316.44998,0.01966
1314.38981,0.01953
1312.32964,0.01941
1310.26947,0.01911
1308.20929,0.01872
1306.14912,0.01812
1304.08895,0.01740
1302.02878,0.01677
1299.96861,0.01633
1297.90843,0.01604
1295.84826,0.01583
1293.78809,0.01577
1291.72792,0.01595
1289.66775,0.01630
1287.60757,0.01658
1285.54740,0.01675
1283.48723,0.01695
1281.42706,0.01709
1279.36688,0.01704
1277.30671,0.01689
1275.24654,0.01690
1273.18637,0.01736
1271.12620,0.01807
1269.06602,0.01871
1267.00585,0.01932
1264.94568,0.01997
1262.88551,0.02062
1260.82534,0.02119
1258.76516,0.02166
1256.70499,0.02217
1254.64482,0.02278
1252.58465,0.02336
1250.52447,0.02385
1248.46430,0.02414
1246.40413,0.02433
1244.34396,0.02458
1242.28379,0.02471
1240.22361,0.02455
1238.16344,0.02418
1236.10327,0.02377
1234.04310,0.02338
1231.98293,0.02301
1229.92275,0.02260
1227.86258,0.02176
1225.80241,0.02039
1223.74224,0.01892
1221.68207,0.01756
1219.62189,0.01634
1217.56172,0.01524
1215.50155,0.01415
1213.44138,0.01294
1211.38120,0.01174
1209.32103,0.01081
1207.26086,0.01005
1205.20069,0.00912
1203.14052,0.00791
1201.08034,0.00646
1199.02017,0.00500
1196.96000,0.00367
1194.89983,0.00245
1192.83966,0.00143
1190.77948,0.00075
1188.71931,0.00031
1186.65914,0.00000
1184.59897,-0.00016
1182.53880,-0.00010
1180.47862,0.00027
1178.41845,0.00112
1176.35828,0.00242
1174.29811,0.00422
1172.23793,0.00642
1170.17776,0.00858
1168.11759,0.01031
1166.05742,0.01151
1163.99725,0.01228
1161.93707,0.01278
1159.87690,0.01326
1157.81673,0.01377
1155.75656,0.01422
1153.69639,0.01487
1151.63621,0.01582
1149.57604,0.01683
1147.51587,0.01782
1145.45570,0.01880
1143.39552,0.01975
1141.33535,0.02067
1139.27518,0.02139
1137.21501,0.02170
1135.15484,0.02188
1133.09466,0.02243
1131.03449,0.02328
1128.97432,0.02424
1126.91415,0.02536
1124.85398,0.02665
1122.79380,0.02799
1120.73363,0.02922
1118.67346,0.03008
1116.61329,0.03079
1114.55312,0.03183
1112.49294,0.03303
1110.43277,0.03401
1108.37260,0.03492
1106.31243,0.03577
1104.25225,0.03660
1102.19208,0.03780
1100.13191,0.03952
1098.07174,0.04143
1096.01157,0.04326
1093.95139,0.04500
1091.89122,0.04673
1089.83105,0.04844
1087.77088,0.05012
1085.71071,0.05177
1083.65053,0.05341
1081.59036,0.05514
1079.53019,0.05695
1077.47002,0.05881
1075.40985,0.06085
1073.34967,0.06304
1071.28950,0.06492
1069.22933,0.06627
1067.16916,0.06746
1065.10898,0.06880
1063.04881,0.07000
1060.98864,0.07085
1058.92847,0.07192
1056.86830,0.07351
1054.80812,0.07527
1052.74795,0.07699
1050.68778,0.07867
1048.62761,0.08050
1046.56744,0.08256
1044.50726,0.08477
1042.44709,0.08685
1040.38692,0.08876
1038.32675,0.09073
1036.26657,0.09236
1034.20640,0.09322
1032.14623,0.09352
1030.08606,0.09346
1028.02589,0.09312
1025.96571,0.09288
1023.90554,0.09278
1021.84537,0.09245
1019.78520,0.09196
1017.72503,0.09159
1015.66485,0.09140
1013.60468,0.09134
1011.54451,0.09137
1009.48434,0.09145
1007.42417,0.09146
1005.36399,0.09136
1003.30382,0.09114
1001.24365,0.09076
999.18348,0.08996
997.12330,0.08844
995.06313,0.08658
993.00296,0.08498
990.94279,0.08351
988.88262,0.08180
986.82244,0.08013
984.76227,0.07895
982.70210,0.07785
980.64193,0.07633
978.58176,0.07485
976.52158,0.07375
974.46141,0.07266
972.40124,0.07130
970.34107,0.06980
968.28089,0.06842
966.22072,0.06707
964.16055,0.06539
962.10038,0.06362
960.04021,0.06204
957.98003,0.06057
955.91986,0.05919
953.85969,0.05806
951.79952,0.05702
949.73935,0.05576
947.67917,0.05445
945.61900,0.05287
943.55883,0.05063
941.49866,0.04801
939.43849,0.04498
937.37831,0.04160
935.31814,0.03848
933.25797,0.03588
931.19780,0.03339
929.13762,0.03078
927.07745,0.02851
925.01728,0.02683
922.95711,0.02524
920.89694,0.02358
918.83676,0.02200
916.77659,0.02037
914.71642,0.01879
912.65625,0.01724
910.59608,0.01574
908.53590,0.01466
906.47573,0.01391
904.41556,0.01341
902.35539,0.01303
900.29522,0.01272
898.23504,0.01280
896.17487,0.01319
894.11470,0.01358
892.05453,0.01351
889.99435,0.01306
887.93418,0.01290
885.87401,0.01262
883.81384,0.01161
881.75367,0.01048
879.69349,0.00962
877.63332,0.00880
875.57315,0.00792
873.51298,0.00697
871.45281,0.00636
869.39263,0.00606
867.33246,0.00551
865.27229,0.00504
863.21212,0.00480
861.15194,0.00471
859.09177,0.00491
857.03160,0.00504
854.97143,0.00504
852.91126,0.00539
850.85108,0.00571
848.79091,0.00535
846.73074,0.00449
844.67057,0.00373
842.61040,0.00396
840.55022,0.00483
838.49005,0.00514
836.42988,0.00520
834.36971,0.00539
832.30954,0.00512
830.24936,0.00438
828.18919,0.00355
826.12902,0.00306
824.06885,0.00294
822.00867,0.00270
819.94850,0.00208
817.88833,0.00134
815.82816,0.00100
813.76799,0.00123
811.70781,0.00173
809.64764,0.00206
807.58747,0.00155
805.52730,0.00039
803.46713,0.00000
801.40695,0.00058
799.34678,0.00112
797.28661,0.00112
795.22644,0.00103
793.16627,0.00084
791.10609,0.00035
789.04592,0.00002
786.98575,0.00004
784.92558,0.00006
782.86540,-0.00023
780.80523,-0.00082
778.74506,-0.00089
776.68489,-0.00000
774.62472,0.00092
772.56454,0.00089
770.50437,0.00029
768.44420,-0.00009
766.38403,-0.00033
764.32386,-0.00053
762.26368,-0.00043
760.20351,-0.00040
758.14334,-0.00056
756.08317,-0.00051
754.02299,-0.00022
751.96282,0.00000
749.90265,-0.00029
747.84248,-0.00040
745.78231,-0.00058
743.72213,-0.00145
741.66196,-0.00183
739.60179,-0.00133
737.54162,-0.00127
735.48145,-0.00188
733.42127,-0.00198
731.36110,-0.00111
729.30093,-0.00008
727.24076,0.00033
725.18059,0.00046
723.12041,0.00086
721.06024,0.00070
719.00007,0.00157
716.93990,0.00278
714.87972,0.00341
712.81955,0.00357
710.75938,0.00391
708.69921,0.00494
706.63904,0.00627
704.57886,0.00723
702.51869,0.00766
700.45852,0.00829
698.39835,0.00941
696.33818,0.01004
694.27800,0.00963
692.21783,0.00913
690.15766,0.00907
688.09749,0.00852
686.03731,0.00738
683.97714,0.00701
681.91697,0.00765
679.85680,0.00770
677.79663,0.00667
675.73645,0.00609
673.67628,0.00786
671.61611,0.01067
669.55594,0.00527
667.49577,0.00000
665.43559,0.00772
663.37542,0.00640
661.31525,0.00485
659.25508,0.00627
657.19491,0.00814
655.13473,0.00939
653.07456,0.00948
651.01439,0.00788
648.95422,0.00577
646.89404,0.00420
644.83387,0.00181
642.77370,0.00000
640.71353,0.00111
638.65336,0.00444
636.59318,0.00664
634.53301,0.00609
632.47284,0.00365
630.41267,0.00079
628.35250,-0.00116
626.29232,-0.00068
624.23215,0.00246
622.17198,0.00442
620.11181,0.00205
618.05164,-0.00089
615.99146,0.00053
613.93129,0.00311
611.87112,0.00255
609.81095,0.00097
607.75077,-0.00046
605.69060,-0.00247
603.63043,-0.00352
601.57026,-0.00218
599.51009,0.00000
