3996.73391,-0.00009
3994.67373,0.00006
3992.61356,0.00016
3990.55339,0.00013
3988.49322,0.00006
3986.43305,0.00006
3984.37287,0.00017
3982.31270,0.00025
3980.25253,0.00025
3978.19236,0.00023
3976.13219,0.00027
3974.07201,0.00033
3972.01184,0.00026
3969.95167,0.00006
3967.89150,0.00000
3965.83133,0.00028
3963.77115,0.00074
3961.71098,0.00107
3959.65081,0.00116
3957.59064,0.00108
3955.53046,0.00097
3953.47029,0.00092
3951.41012,0.00094
3949.34995,0.00104
3947.28978,0.00119
3945.22960,0.00138
3943.16943,0.00163
3941.10926,0.00185
3939.04909,0.00186
3936.98892,0.00159
3934.92874,0.00118
3932.86857,0.00081
3930.80840,0.00061
3928.74823,0.00059
3926.68805,0.00066
3924.62788,0.00070
3922.56771,0.00064
3920.50754,0.00048
3918.44737,0.00032
3916.38719,0.00024
3914.32702,0.00029
3912.26685,0.00047
3910.20668,0.00073
3908.14651,0.00093
3906.08633,0.00091
3904.02616,0.00067
3901.96599,0.00038
3899.90582,0.00024
3897.84565,0.00029
3895.78547,0.00038
3893.72530,0.00049
3891.66513,0.00072
3889.60496,0.00094
3887.54478,0.00093
3885.48461,0.00069
3883.42444,0.00046
3881.36427,0.00041
3879.30410,0.00063
3877.24392,0.00100
3875.18375,0.00135
3873.12358,0.00161
3871.06341,0.00181
3869.00324,0.00200
3866.94306,0.00212
3864.88289,0.00212
3862.82272,0.00195
3860.76255,0.00161
3858.70237,0.00118
3856.64220,0.00088
3854.58203,0.00090
3852.52186,0.00116
3850.46169,0.00145
3848.40151,0.00164
3846.34134,0.00167
3844.28117,0.00147
3842.22100,0.00107
3840.16083,0.00062
3838.10065,0.00033
3836.04048,0.00031
3833.98031,0.00045
3831.92014,0.00067
3829.85997,0.00099
3827.79979,0.00137
3825.73962,0.00167
3823.67945,0.00168
3821.61928,0.00138
3819.55910,0.00099
3817.49893,0.00084
3815.43876,0.00102
3813.37859,0.00129
3811.31842,0.00143
3809.25824,0.00145
3807.19807,0.00155
3805.13790,0.00184
3803.07773,0.00227
3801.01756,0.00266
3798.95738,0.00285
3796.89721,0.00277
3794.83704,0.00255
3792.77687,0.00232
3790.71670,0.00221
3788.65652,0.00221
3786.59635,0.00224
3784.53618,0.00219
3782.47601,0.00200
3780.41583,0.00172
3778.35566,0.00149
3776.29549,0.00147
3774.23532,0.00167
3772.17515,0.00199
3770.11497,0.00233
3768.05480,0.00260
3765.99463,0.00270
3763.93446,0.00260
3761.87429,0.00235
3759.81411,0.00204
3757.75394,0.00174
3755.69377,0.00138
3753.63360,0.00092
3751.57342,0.00056
3749.51325,0.00054
3747.45308,0.00076
3745.39291,0.00094
3743.33274,0.00098
3741.27256,0.00081
3739.21239,0.00041
3737.15222,0.00001
3735.09205,0.00000
3733.03188,0.00056
3730.97170,0.00142
3728.91153,0.00212
3726.85136,0.00244
3724.79119,0.00237
3722.73102,0.00201
3720.67084,0.00152
3718.61067,0.00108
3716.55050,0.00079
3714.49033,0.00065
3712.43015,0.00064
3710.36998,0.00087
3708.30981,0.00131
3706.24964,0.00181
3704.18947,0.00223
3702.12929,0.00255
3700.06912,0.00285
3698.00895,0.00313
3695.94878,0.00328
3693.88861,0.00319
3691.82843,0.00290
3689.76826,0.00260
3687.70809,0.00245
3685.64792,0.00254
3683.58775,0.00277
3681.52757,0.00298
3679.46740,0.00303
3677.40723,0.00285
3675.34706,0.00246
3673.28688,0.00204
3671.22671,0.00180
3669.16654,0.00192
3667.10637,0.00228
3665.04620,0.00256
3662.98602,0.00270
3660.92585,0.00280
3658.86568,0.00302
3656.80551,0.00329
3654.74534,0.00334
3652.68516,0.00294
3650.62499,0.00238
3648.56482,0.00229
3646.50465,0.00290
3644.44447,0.00372
3642.38430,0.00423
3640.32413,0.00431
3638.26396,0.00419
3636.20379,0.00405
3634.14361,0.00385
3632.08344,0.00356
3630.02327,0.00338
3627.96310,0.00342
3625.90293,0.00350
3623.84275,0.00333
3621.78258,0.00288
3619.72241,0.00246
3617.66224,0.00237
3615.60207,0.00255
3613.54189,0.00288
3611.48172,0.00339
3609.42155,0.00410
3607.36138,0.00488
3605.30120,0.00559
3603.24103,0.00616
3601.18086,0.00661
3599.12069,0.00692
3597.06052,0.00705
3595.00034,0.00701
3592.94017,0.00679
3590.88000,0.00644
3588.81983,0.00608
3586.75966,0.00595
3584.69948,0.00618
3582.63931,0.00657
3580.57914,0.00692
3578.51897,0.00716
3576.45879,0.00732
3574.39862,0.00735
3572.33845,0.00721
3570.27828,0.00700
3568.21811,0.00687
3566.15793,0.00697
3564.09776,0.00731
3562.03759,0.00770
3559.97742,0.00798
3557.91725,0.00819
3555.85707,0.00846
3553.79690,0.00888
3551.73673,0.00937
3549.67656,0.00976
3547.61639,0.01001
3545.55621,0.01018
3543.49604,0.01031
3541.43587,0.01045
3539.37570,0.01069
3537.31552,0.01112
3535.25535,0.01169
3533.19518,0.01214
3531.13501,0.01212
3529.07484,0.01160
3527.01466,0.01092
3524.95449,0.01052
3522.89432,0.01061
3520.83415,0.01108
3518.77398,0.01165
3516.71380,0.01213
3514.65363,0.01243
3512.59346,0.01262
3510.53329,0.01278
3508.47312,0.01290
3506.41294,0.01286
3504.35277,0.01265
3502.29260,0.01252
3500.23243,0.01263
3498.17225,0.01294
3496.11208,0.01328
3494.05191,0.01355
3491.99174,0.01376
3489.93157,0.01390
3487.87139,0.01398
3485.81122,0.01403
3483.75105,0.01414
3481.69088,0.01439
3479.63071,0.01471
3477.57053,0.01493
3475.51036,0.01489
3473.45019,0.01469
3471.39002,0.01454
3469.32984,0.01461
3467.26967,0.01481
3465.20950,0.01501
3463.14933,0.01513
3461.08916,0.01516
3459.02898,0.01515
3456.96881,0.01523
3454.90864,0.01544
3452.84847,0.01568
3450.78830,0.01585
3448.72812,0.01598
3446.66795,0.01609
3444.60778,0.01617
3442.54761,0.01622
3440.48744,0.01625
3438.42726,0.01632
3436.36709,0.01651
3434.30692,0.01687
3432.24675,0.01734
3430.18657,0.01771
3428.12640,0.01777
3426.06623,0.01748
3424.00606,0.01705
3421.94589,0.01678
3419.88571,0.01677
3417.82554,0.01699
3415.76537,0.01738
3413.70520,0.01784
3411.64503,0.01822
3409.58485,0.01840
3407.52468,0.01839
3405.46451,0.01827
3403.40434,0.01812
3401.34416,0.01801
3399.28399,0.01803
3397.22382,0.01824
3395.16365,0.01860
3393.10348,0.01896
3391.04330,0.01922
3388.98313,0.01936
3386.92296,0.01941
3384.86279,0.01943
3382.80262,0.01950
3380.74244,0.01961
3378.68227,0.01969
3376.62210,0.01968
3374.56193,0.01966
3372.50176,0.01967
3370.44158,0.01969
3368.38141,0.01969
3366.32124,0.01965
3364.26107,0.01958
3362.20089,0.01946
3360.14072,0.01932
3358.08055,0.01916
3356.02038,0.01898
3353.96021,0.01889
3351.90003,0.01906
3349.83986,0.01943
3347.77969,0.01977
3345.71952,0.01998
3343.65935,0.02013
3341.59917,0.02035
3339.53900,0.02061
3337.47883,0.02082
3335.41866,0.02095
3333.35849,0.02094
3331.29831,0.02079
3329.23814,0.02055
3327.17797,0.02027
3325.11780,0.02005
3323.05762,0.02001
3320.99745,0.02015
3318.93728,0.02037
3316.87711,0.02058
3314.81694,0.02074
3312.75676,0.02088
3310.69659,0.02097
3308.63642,0.02097
3306.57625,0.02084
3304.51608,0.02062
3302.45590,0.02044
3300.39573,0.02035
3298.33556,0.02032
3296.27539,0.02028
3294.21521,0.02021
3292.15504,0.02015
3290.09487,0.02016
3288.03470,0.02022
3285.97453,0.02034
3283.91435,0.02049
3281.85418,0.02060
3279.79401,0.02062
3277.73384,0.02058
3275.67367,0.02056
3273.61349,0.02055
3271.55332,0.02052
3269.49315,0.02047
3267.43298,0.02045
3265.37281,0.02043
3263.31263,0.02041
3261.25246,0.02040
3259.19229,0.02039
3257.13212,0.02036
3255.07194,0.02032
3253.01177,0.02028
3250.95160,0.02029
3248.89143,0.02028
3246.83126,0.02021
3244.77108,0.02015
3242.71091,0.02020
3240.65074,0.02030
3238.59057,0.02029
3236.53040,0.02015
3234.47022,0.02001
3232.41005,0.01996
3230.34988,0.01993
3228.28971,0.01981
3226.22954,0.01964
3224.16936,0.01953
3222.10919,0.01950
3220.04902,0.01948
3217.98885,0.01942
3215.92867,0.01935
3213.86850,0.01935
3211.80833,0.01945
3209.74816,0.01961
3207.68799,0.01973
3205.62781,0.01974
3203.56764,0.01964
3201.50747,0.01952
3199.44730,0.01943
3197.38713,0.01933
3195.32695,0.01917
3193.26678,0.01892
3191.20661,0.01862
3189.14644,0.01832
3187.08626,0.01813
3185.02609,0.01810
3182.96592,0.01815
3180.90575,0.01817
3178.84558,0.01808
3176.78540,0.01794
3174.72523,0.01781
3172.66506,0.01772
3170.60489,0.01759
3168.54472,0.01738
3166.48454,0.01712
3164.42437,0.01694
3162.36420,0.01687
3160.30403,0.01685
3158.24386,0.01677
3156.18368,0.01658
3154.12351,0.01627
3152.06334,0.01598
3150.00317,0.01582
3147.94299,0.01581
3145.88282,0.01585
3143.82265,0.01587
3141.76248,0.01589
3139.70231,0.01593
3137.64213,0.01596
3135.58196,0.01587
3133.52179,0.01557
3131.46162,0.01509
3129.40145,0.01454
3127.34127,0.01409
3125.28110,0.01380
3123.22093,0.01370
3121.16076,0.01376
3119.10058,0.01393
3117.04041,0.01408
3114.98024,0.01409
3112.92007,0.01392
3110.85990,0.01365
3108.79972,0.01338
3106.73955,0.01319
3104.67938,0.01308
3102.61921,0.01301
3100.55904,0.01292
3098.49886,0.01276
3096.43869,0.01259
3094.37852,0.01248
3092.31835,0.01242
3090.25818,0.01234
3088.19800,0.01218
3086.13783,0.01196
3084.07766,0.01174
3082.01749,0.01157
3079.95731,0.01146
3077.89714,0.01142
3075.83697,0.01137
3073.77680,0.01129
3071.71663,0.01119
3069.65645,0.01111
3067.59628,0.01104
3065.53611,0.01096
3063.47594,0.01085
3061.41577,0.01074
3059.35559,0.01068
3057.29542,0.01069
3055.23525,0.01075
3053.17508,0.01081
3051.11491,0.01081
3049.05473,0.01070
3046.99456,0.01050
3044.93439,0.01020
3042.87422,0.00982
3040.81404,0.00950
3038.75387,0.00940
3036.69370,0.00954
3034.63353,0.00979
3032.57336,0.00998
3030.51318,0.01002
3028.45301,0.00994
3026.39284,0.00981
3024.33267,0.00968
3022.27250,0.00952
3020.21232,0.00931
3018.15215,0.00906
3016.09198,0.00884
3014.03181,0.00868
3011.97163,0.00859
3009.91146,0.00857
3007.85129,0.00852
3005.79112,0.00839
3003.73095,0.00824
3001.67077,0.00820
2999.61060,0.00828
2997.55043,0.00840
2995.49026,0.00852
2993.43009,0.00869
2991.36991,0.00876
2989.30974,0.00859
2987.24957,0.00830
2985.18940,0.00820
2983.12923,0.00846
2981.06905,0.00895
2979.00888,0.00942
2976.94871,0.00968
2974.88854,0.00977
2972.82836,0.00977
2970.76819,0.00971
2968.70802,0.00957
2966.64785,0.00941
2964.58768,0.00933
2962.52750,0.00942
2960.46733,0.00967
2958.40716,0.00995
2956.34699,0.01017
2954.28682,0.01035
2952.22664,0.01049
2950.16647,0.01067
2948.10630,0.01092
2946.04613,0.01111
2943.98596,0.01117
2941.92578,0.01124
2939.86561,0.01138
2937.80544,0.01151
2935.74527,0.01157
2933.68509,0.01156
2931.62492,0.01149
2929.56475,0.01145
2927.50458,0.01152
2925.44441,0.01155
2923.38423,0.01138
2921.32406,0.01121
2919.26389,0.01125
2917.20372,0.01138
2915.14355,0.01141
2913.08337,0.01129
2911.02320,0.01112
2908.96303,0.01108
2906.90286,0.01121
2904.84268,0.01122
2902.78251,0.01102
2900.72234,0.01086
2898.66217,0.01087
2896.60200,0.01105
2894.54182,0.01131
2892.48165,0.01143
2890.42148,0.01126
2888.36131,0.01090
2886.30114,0.01049
2884.24096,0.01019
2882.18079,0.01018
2880.12062,0.01027
2878.06045,0.01020
2876.00028,0.01012
2873.94010,0.01009
2871.87993,0.01000
2869.81976,0.00989
2867.75959,0.00978
2865.69941,0.00962
2863.63924,0.00935
2861.57907,0.00906
2859.51890,0.00896
2857.45873,0.00908
2855.39855,0.00931
2853.33838,0.00954
2851.27821,0.00961
2849.21804,0.00927
2847.15787,0.00868
2845.09769,0.00828
2843.03752,0.00826
2840.97735,0.00846
2838.91718,0.00867
2836.85700,0.00876
2834.79683,0.00865
2832.73666,0.00837
2830.67649,0.00823
2828.61632,0.00831
2826.55614,0.00831
2824.49597,0.00810
2822.43580,0.00796
2820.37563,0.00794
2818.31546,0.00786
2816.25528,0.00781
2814.19511,0.00799
2812.13494,0.00817
2810.07477,0.00800
2808.01460,0.00761
2805.95442,0.00739
2803.89425,0.00747
2801.83408,0.00758
2799.77391,0.00751
2797.71373,0.00729
2795.65356,0.00710
2793.59339,0.00707
2791.53322,0.00723
2789.47305,0.00750
2787.41287,0.00772
2785.35270,0.00775
2783.29253,0.00762
2781.23236,0.00740
2779.17219,0.00711
2777.11201,0.00687
2775.05184,0.00692
2772.99167,0.00726
2770.93150,0.00754
2768.87133,0.00753
2766.81115,0.00727
2764.75098,0.00695
2762.69081,0.00670
2760.63064,0.00662
2758.57046,0.00670
2756.51029,0.00687
2754.45012,0.00696
2752.38995,0.00687
2750.32978,0.00682
2748.26960,0.00696
2746.20943,0.00719
2744.14926,0.00735
2742.08909,0.00736
2740.02892,0.00719
2737.96874,0.00693
2735.90857,0.00678
2733.84840,0.00673
2731.78823,0.00664
2729.72805,0.00659
2727.66788,0.00672
2725.60771,0.00697
2723.54754,0.00713
2721.48737,0.00711
2719.42719,0.00700
2717.36702,0.00691
2715.30685,0.00687
2713.24668,0.00686
2711.18651,0.00676
2709.12633,0.00653
2707.06616,0.00632
2705.00599,0.00635
2702.94582,0.00660
2700.88565,0.00676
2698.82547,0.00667
2696.76530,0.00651
2694.70513,0.00644
2692.64496,0.00641
2690.58478,0.00639
2688.52461,0.00644
2686.46444,0.00650
2684.40427,0.00645
2682.34410,0.00638
2680.28392,0.00641
2678.22375,0.00642
2676.16358,0.00628
2674.10341,0.00612
2672.04324,0.00611
2669.98306,0.00628
2667.92289,0.00653
2665.86272,0.00672
2663.80255,0.00680
2661.74238,0.00681
2659.68220,0.00681
2657.62203,0.00685
2655.56186,0.00679
2653.50169,0.00659
2651.44151,0.00652
2649.38134,0.00668
2647.32117,0.00671
2645.26100,0.00650
2643.20083,0.00635
2641.14065,0.00634
2639.08048,0.00629
2637.02031,0.00616
2634.96014,0.00600
2632.89997,0.00568
2630.83979,0.00532
2628.77962,0.00527
2626.71945,0.00549
2624.65928,0.00572
2622.59910,0.00587
2620.53893,0.00593
2618.47876,0.00582
2616.41859,0.00559
2614.35842,0.00551
2612.29824,0.00571
2610.23807,0.00590
2608.17790,0.00579
2606.11773,0.00539
2604.05756,0.00501
2601.99738,0.00504
2599.93721,0.00544
2597.87704,0.00578
2595.81687,0.00584
2593.75670,0.00558
2591.69652,0.00520
2589.63635,0.00495
2587.57618,0.00487
2585.51601,0.00493
2583.45583,0.00506
2581.39566,0.00497
2579.33549,0.00467
2577.27532,0.00466
2575.21515,0.00507
2573.15497,0.00552
2571.09480,0.00563
2569.03463,0.00546
2566.97446,0.00521
2564.91429,0.00488
2562.85411,0.00450
2560.79394,0.00439
2558.73377,0.00451
2556.67360,0.00439
2554.61342,0.00418
2552.55325,0.00447
2550.49308,0.00515
2548.43291,0.00542
2546.37274,0.00503
2544.31256,0.00456
2542.25239,0.00460
2540.19222,0.00499
2538.13205,0.00514
2536.07188,0.00479
2534.01170,0.00425
2531.95153,0.00411
2529.89136,0.00458
2527.83119,0.00523
2525.77102,0.00559
2523.71084,0.00582
2521.65067,0.00618
2519.59050,0.00643
2517.53033,0.00631
2515.47015,0.00588
2513.40998,0.00543
2511.34981,0.00516
2509.28964,0.00499
2507.22947,0.00473
2505.16929,0.00447
2503.10912,0.00443
2501.04895,0.00461
2498.98878,0.00489
2496.92861,0.00515
2494.86843,0.00509
2492.80826,0.00466
2490.74809,0.00432
2488.68792,0.00448
2486.62775,0.00488
2484.56757,0.00514
2482.50740,0.00522
2480.44723,0.00526
2478.38706,0.00532
2476.32688,0.00536
2474.26671,0.00526
2472.20654,0.00497
2470.14637,0.00467
2468.08620,0.00464
2466.02602,0.00484
2463.96585,0.00502
2461.90568,0.00514
2459.84551,0.00524
2457.78534,0.00525
2455.72516,0.00516
2453.66499,0.00504
2451.60482,0.00487
2449.54465,0.00478
2447.48447,0.00510
2445.42430,0.00557
2443.36413,0.00557
2441.30396,0.00521
2439.24379,0.00500
2437.18361,0.00505
2435.12344,0.00523
2433.06327,0.00542
2431.00310,0.00554
2428.94293,0.00541
2426.88275,0.00502
2424.82258,0.00473
2422.76241,0.00468
2420.70224,0.00468
2418.64207,0.00462
2416.58189,0.00455
2414.52172,0.00458
2412.46155,0.00465
2410.40138,0.00469
2408.34120,0.00463
2406.28103,0.00455
2404.22086,0.00457
2402.16069,0.00477
2400.10052,0.00507
2398.04034,0.00519
2395.98017,0.00506
2393.92000,0.00482
2391.85983,0.00467
2389.79966,0.00471
2387.73948,0.00481
2385.67931,0.00485
2383.61914,0.00484
2381.55897,0.00491
2379.49880,0.00512
2377.43862,0.00538
2375.37845,0.00549
2373.31828,0.00530
2371.25811,0.00494
2369.19793,0.00457
2367.13776,0.00380
2365.07759,0.00237
2363.01742,0.00088
2360.95725,0.00014
2358.89707,0.00032
2356.83690,0.00115
2354.77673,0.00228
2352.71656,0.00324
2350.65639,0.00392
2348.59621,0.00464
2346.53604,0.00578
2344.47587,0.00732
2342.41570,0.00870
2340.35552,0.00939
2338.29535,0.00942
2336.23518,0.00908
2334.17501,0.00838
2332.11484,0.00747
2330.05466,0.00680
2327.99449,0.00671
2325.93432,0.00696
2323.87415,0.00702
2321.81398,0.00675
2319.75380,0.00648
2317.69363,0.00635
2315.63346,0.00612
2313.57329,0.00569
2311.51312,0.00525
2309.45294,0.00506
2307.39277,0.00521
2305.33260,0.00551
2303.27243,0.00576
2301.21225,0.00580
2299.15208,0.00564
2297.09191,0.00552
2295.03174,0.00561
2292.97157,0.00588
2290.91139,0.00613
2288.85122,0.00626
2286.79105,0.00628
2284.73088,0.00620
2282.67071,0.00605
2280.61053,0.00586
2278.55036,0.00566
2276.49019,0.00543
2274.43002,0.00516
2272.36984,0.00486
2270.30967,0.00466
2268.24950,0.00457
2266.18933,0.00457
2264.12916,0.00459
2262.06898,0.00453
2260.00881,0.00431
2257.94864,0.00402
2255.88847,0.00386
2253.82830,0.00399
2251.76812,0.00443
2249.70795,0.00508
2247.64778,0.00560
2245.58761,0.00531
2243.52744,0.00417
2241.46726,0.00318
2239.40709,0.00321
2237.34692,0.00369
2235.28675,0.00365
2233.22657,0.00318
2231.16640,0.00298
2229.10623,0.00327
2227.04606,0.00372
2224.98589,0.00431
2222.92571,0.00500
2220.86554,0.00500
2218.80537,0.00395
2216.74520,0.00266
2214.68503,0.00224
2212.62485,0.00291
2210.56468,0.00391
2208.50451,0.00460
2206.44434,0.00470
2204.38417,0.00429
2202.32399,0.00386
2200.26382,0.00394
2198.20365,0.00477
2196.14348,0.00598
2194.08330,0.00649
2192.02313,0.00618
2189.96296,0.00600
2187.90279,0.00627
2185.84262,0.00641
2183.78244,0.00570
2181.72227,0.00412
2179.66210,0.00256
2177.60193,0.00201
2175.54176,0.00245
2173.48158,0.00309
2171.42141,0.00395
2169.36124,0.00553
2167.30107,0.00762
2165.24089,0.00913
2163.18072,0.00871
2161.12055,0.00598
2159.06038,0.00251
2157.00021,0.00088
2154.94003,0.00154
2152.87986,0.00242
2150.81969,0.00209
2148.75952,0.00150
2146.69935,0.00236
2144.63917,0.00417
2142.57900,0.00482
2140.51883,0.00393
2138.45866,0.00287
2136.39849,0.00268
2134.33831,0.00329
2132.27814,0.00411
2130.21797,0.00484
2128.15780,0.00528
2126.09762,0.00522
2124.03745,0.00484
2121.97728,0.00454
2119.91711,0.00442
2117.85694,0.00464
2115.79676,0.00516
2113.73659,0.00535
2111.67642,0.00514
2109.61625,0.00523
2107.55608,0.00571
2105.49590,0.00584
2103.43573,0.00545
2101.37556,0.00493
2099.31539,0.00459
2097.25521,0.00458
2095.19504,0.00488
2093.13487,0.00519
2091.07470,0.00525
2089.01453,0.00501
2086.95435,0.00459
2084.89418,0.00422
2082.83401,0.00406
2080.77384,0.00412
2078.71367,0.00426
2076.65349,0.00432
2074.59332,0.00423
2072.53315,0.00403
2070.47298,0.00397
2068.41281,0.00420
2066.35263,0.00457
2064.29246,0.00475
2062.23229,0.00451
2060.17212,0.00400
2058.11194,0.00352
2056.05177,0.00343
2053.99160,0.00397
2051.93143,0.00510
2049.87126,0.00623
2047.81108,0.00663
2045.75091,0.00610
2043.69074,0.00503
2041.63057,0.00387
2039.57040,0.00294
2037.51022,0.00250
2035.45005,0.00261
2033.38988,0.00309
2031.32971,0.00353
2029.26954,0.00344
2027.20936,0.00305
2025.14919,0.00314
2023.08902,0.00388
2021.02885,0.00441
2018.96867,0.00383
2016.90850,0.00229
2014.84833,0.00076
2012.78816,0.00000
2010.72799,0.00012
2008.66781,0.00087
2006.60764,0.00174
2004.54747,0.00241
2002.48730,0.00301
2000.42713,0.00364
1998.36695,0.00421
1996.30678,0.00452
1994.24661,0.00452
1992.18644,0.00428
1990.12626,0.00401
1988.06609,0.00385
1986.00592,0.00363
1983.94575,0.00323
1981.88558,0.00268
1979.82540,0.00216
1977.76523,0.00182
1975.70506,0.00168
1973.64489,0.00158
1971.58472,0.00142
1969.52454,0.00124
1967.46437,0.00126
1965.40420,0.00151
1963.34403,0.00181
1961.28386,0.00220
1959.22368,0.00281
1957.16351,0.00341
1955.10334,0.00367
1953.04317,0.00350
1950.98299,0.00304
1948.92282,0.00252
1946.86265,0.00209
1944.80248,0.00186
1942.74231,0.00191
1940.68213,0.00213
1938.62196,0.00230
1936.56179,0.00241
1934.50162,0.00261
1932.44145,0.00284
1930.38127,0.00291
1928.32110,0.00274
1926.26093,0.00232
1924.20076,0.00178
1922.14059,0.00124
1920.08041,0.00088
1918.02024,0.00090
1915.96007,0.00135
1913.89990,0.00193
1911.83972,0.00239
1909.77955,0.00272
1907.71938,0.00301
1905.65921,0.00319
1903.59904,0.00316
1901.53886,0.00296
1899.47869,0.00271
1897.41852,0.00258
1895.35835,0.00264
1893.29818,0.00282
1891.23800,0.00282
1889.17783,0.00258
1887.11766,0.00236
1885.05749,0.00239
1882.99731,0.00263
1880.93714,0.00293
1878.87697,0.00315
1876.81680,0.00333
1874.75663,0.00349
1872.69645,0.00360
1870.63628,0.00360
1868.57611,0.00349
1866.51594,0.00336
1864.45577,0.00322
1862.39559,0.00304
1860.33542,0.00287
1858.27525,0.00278
1856.21508,0.00273
1854.15491,0.00269
1852.09473,0.00262
1850.03456,0.00254
1847.97439,0.00257
1845.91422,0.00276
1843.85404,0.00303
1841.79387,0.00319
1839.73370,0.00308
1837.67353,0.00271
1835.61336,0.00231
1833.55318,0.00207
1831.49301,0.00205
1829.43284,0.00223
1827.37267,0.00249
1825.31250,0.00263
1823.25232,0.00258
1821.19215,0.00239
1819.13198,0.00224
1817.07181,0.00222
1815.01163,0.00231
1812.95146,0.00239
1810.89129,0.00241
1808.83112,0.00240
1806.77095,0.00242
1804.71077,0.00246
1802.65060,0.00250
1800.59043,0.00254
1798.53026,0.00256
1796.47009,0.00248
1794.40991,0.00224
1792.34974,0.00197
1790.28957,0.00189
1788.22940,0.00199
1786.16923,0.00216
1784.10905,0.00232
1782.04888,0.00247
1779.98871,0.00253
1777.92854,0.00242
1775.86836,0.00217
1773.80819,0.00195
1771.74802,0.00194
1769.68785,0.00219
1767.62768,0.00249
1765.56750,0.00262
1763.50733,0.00260
1761.44716,0.00258
1759.38699,0.00269
1757.32682,0.00288
1755.26664,0.00310
1753.20647,0.00336
1751.14630,0.00372
1749.08613,0.00418
1747.02596,0.00458
1744.96578,0.00477
1742.90561,0.00478
1740.84544,0.00474
1738.78527,0.00471
1736.72509,0.00465
1734.66492,0.00464
1732.60475,0.00482
1730.54458,0.00516
1728.48441,0.00546
1726.42423,0.00559
1724.36406,0.00552
1722.30389,0.00532
1720.24372,0.00499
1718.18355,0.00457
1716.12337,0.00418
1714.06320,0.00394
1712.00303,0.00380
1709.94286,0.00366
1707.88268,0.00347
1705.82251,0.00330
1703.76234,0.00321
1701.70217,0.00316
1699.64200,0.00315
1697.58182,0.00322
1695.52165,0.00341
1693.46148,0.00363
1691.40131,0.00376
1689.34114,0.00368
1687.28096,0.00341
1685.22079,0.00317
1683.16062,0.00320
1681.10045,0.00344
1679.04028,0.00370
1676.98010,0.00392
1674.91993,0.00420
1672.85976,0.00457
1670.79959,0.00500
1668.73941,0.00547
1666.67924,0.00591
1664.61907,0.00625
1662.55890,0.00649
1660.49873,0.00666
1658.43855,0.00667
1656.37838,0.00650
1654.31821,0.00632
1652.25804,0.00642
1650.19787,0.00681
1648.13769,0.00730
1646.07752,0.00776
1644.01735,0.00803
1641.95718,0.00801
1639.89701,0.00782
1637.83683,0.00770
1635.77666,0.00785
1633.71649,0.00826
1631.65632,0.00870
1629.59614,0.00903
1627.53597,0.00923
1625.47580,0.00932
1623.41563,0.00932
1621.35546,0.00924
1619.29528,0.00910
1617.23511,0.00895
1615.17494,0.00887
1613.11477,0.00880
1611.05460,0.00867
1608.99442,0.00849
1606.93425,0.00834
1604.87408,0.00818
1602.81391,0.00796
1600.75373,0.00766
1598.69356,0.00727
1596.63339,0.00681
1594.57322,0.00635
1592.51305,0.00594
1590.45287,0.00564
1588.39270,0.00540
1586.33253,0.00515
1584.27236,0.00481
1582.21219,0.00436
1580.15201,0.00382
1578.09184,0.00329
1576.03167,0.00292
1573.97150,0.00272
1571.91133,0.00257
1569.85115,0.00241
1567.79098,0.00223
1565.73081,0.00201
1563.67064,0.00175
1561.61046,0.00152
1559.55029,0.00144
1557.49012,0.00153
1555.42995,0.00164
1553.36978,0.00168
1551.30960,0.00162
1549.24943,0.00143
1547.18926,0.00111
1545.12909,0.00068
1543.06892,0.00025
1541.00874,0.00000
1538.94857,0.00004
1536.88840,0.00032
1534.82823,0.00061
1532.76805,0.00077
1530.70788,0.00077
1528.64771,0.00065
1526.58754,0.00047
1524.52737,0.00032
1522.46719,0.00029
1520.40702,0.00039
1518.34685,0.00054
1516.28668,0.00064
1514.22651,0.00069
1512.16633,0.00068
1510.10616,0.00059
1508.04599,0.00055
1505.98582,0.00070
1503.92565,0.00098
1501.86547,0.00113
1499.80530,0.00109
1497.74513,0.00095
1495.68496,0.00085
1493.62478,0.00079
1491.56461,0.00079
1489.50444,0.00095
1487.44427,0.00132
1485.38410,0.00175
1483.32392,0.00209
1481.26375,0.00233
1479.20358,0.00247
1477.14341,0.00253
1475.08324,0.00255
1473.02306,0.00266
1470.96289,0.00291
1468.90272,0.00319
1466.84255,0.00340
1464.78238,0.00352
1462.72220,0.00359
1460.66203,0.00355
1458.60186,0.00350
1456.54169,0.00364
1454.48151,0.00398
1452.42134,0.00433
1450.36117,0.00456
1448.30100,0.00474
1446.24083,0.00492
1444.18065,0.00510
1442.12048,0.00526
1440.06031,0.00541
1438.00014,0.00554
1435.93997,0.00569
1433.87979,0.00585
1431.81962,0.00600
1429.75945,0.00612
1427.69928,0.00623
1425.63910,0.00631
1423.57893,0.00637
1421.51876,0.00646
1419.45859,0.00666
1417.39842,0.00699
1415.33824,0.00733
1413.27807,0.00752
1411.21790,0.00749
1409.15773,0.00732
1407.09756,0.00708
1405.03738,0.00684
1402.97721,0.00658
1400.91704,0.00631
1398.85687,0.00606
1396.79670,0.00587
1394.73652,0.00576
1392.67635,0.00571
1390.61618,0.00570
1388.55601,0.00574
1386.49583,0.00585
1384.43566,0.00603
1382.37549,0.00621
1380.31532,0.00637
1378.25515,0.00651
1376.19497,0.00663
1374.13480,0.00671
1372.07463,0.00670
1370.01446,0.00660
1367.95429,0.00645
1365.89411,0.00628
1363.83394,0.00610
1361.77377,0.00601
1359.71360,0.00608
1357.65343,0.00621
1355.59325,0.00626
1353.53308,0.00625
1351.47291,0.00620
1349.41274,0.00608
1347.35256,0.00588
1345.29239,0.00560
1343.23222,0.00530
1341.17205,0.00508
1339.11188,0.00503
1337.05170,0.00515
1334.99153,0.00533
1332.93136,0.00552
1330.87119,0.00568
1328.81102,0.00579
1326.75084,0.00583
1324.69067,0.00582
1322.63050,0.00575
1320.57033,0.00564
1318.51015,0.00553
1316.44998,0.00552
1314.38981,0.00559
1312.32964,0.00571
1310.26947,0.00573
1308.20929,0.00556
1306.14912,0.00527
1304.08895,0.00498
1302.02878,0.00479
1299.96861,0.00471
1297.90843,0.00470
1295.84826,0.00469
1293.78809,0.00462
1291.72792,0.00453
1289.66775,0.00449
1287.60757,0.00453
1285.54740,0.00454
1283.48723,0.00449
1281.42706,0.00439
1279.36688,0.00429
1277.30671,0.00422
1275.24654,0.00425
1273.18637,0.00441
1271.12620,0.00465
1269.06602,0.00491
1267.00585,0.00516
1264.94568,0.00536
1262.88551,0.00552
1260.82534,0.00567
1258.76516,0.00581
1256.70499,0.00595
1254.64482,0.00609
1252.58465,0.00626
1250.52447,0.00647
1248.46430,0.00670
1246.40413,0.00685
1244.34396,0.00684
1242.28379,0.00669
1240.22361,0.00644
1238.16344,0.00619
1236.10327,0.00598
1234.04310,0.00583
1231.98293,0.00569
1229.92275,0.00548
1227.86258,0.00517
1225.80241,0.00481
1223.74224,0.00447
1221.68207,0.00418
1219.62189,0.00392
1217.56172,0.00365
1215.50155,0.00338
1213.44138,0.00319
1211.38120,0.00311
1209.32103,0.00304
1207.26086,0.00287
1205.20069,0.00255
1203.14052,0.00216
1201.08034,0.00178
1199.02017,0.00139
1196.96000,0.00095
1194.89983,0.00045
1192.83966,0.00009
1190.77948,0.00000
1188.71931,0.00002
1186.65914,0.00000
1184.59897,0.00008
1182.53880,0.00035
1180.47862,0.00070
1178.41845,0.00103
1176.35828,0.00133
1174.29811,0.00155
1172.23793,0.00168
1170.17776,0.00193
1168.11759,0.00246
1166.05742,0.00311
1163.99725,0.00363
1161.93707,0.00403
1159.87690,0.00448
1157.81673,0.00495
1155.75656,0.00535
1153.69639,0.00584
1151.63621,0.00637
1149.57604,0.00667
1147.51587,0.00676
1145.45570,0.00688
1143.39552,0.00697
1141.33535,0.00689
1139.27518,0.00677
1137.21501,0.00688
1135.15484,0.00717
1133.09466,0.00744
1131.03449,0.00771
1128.97432,0.00815
1126.91415,0.00868
1124.85398,0.00905
1122.79380,0.00928
1120.73363,0.00965
1118.67346,0.01015
1116.61329,0.01054
1114.55312,0.01074
1112.49294,0.01091
1110.43277,0.01120
1108.37260,0.01171
1106.31243,0.01237
1104.25225,0.01292
1102.19208,0.01313
1100.13191,0.01313
1098.07174,0.01338
1096.01157,0.01409
1093.95139,0.01503
1091.89122,0.01582
1089.83105,0.01625
1087.77088,0.01658
1085.71071,0.01699
1083.65053,0.01740
1081.59036,0.01788
1079.53019,0.01860
1077.47002,0.01936
1075.40985,0.01989
1073.34967,0.02024
1071.28950,0.02055
1069.22933,0.02075
1067.16916,0.02078
1065.10898,0.02081
1063.04881,0.02100
1060.98864,0.02121
1058.92847,0.02128
1056.86830,0.02140
1054.80812,0.02182
1052.74795,0.02235
1050.68778,0.02272
1048.62761,0.02301
1046.56744,0.02334
1044.50726,0.02366
1042.44709,0.02391
1040.38692,0.02409
1038.32675,0.02427
1036.26657,0.02445
1034.20640,0.02451
1032.14623,0.02442
1030.08606,0.02430
1028.02589,0.02430
1025.96571,0.02440
1023.90554,0.02452
1021.84537,0.02467
1019.78520,0.02488
1017.72503,0.02498
1015.66485,0.02483
1013.60468,0.02456
1011.54451,0.02443
1009.48434,0.02446
1007.42417,0.02459
1005.36399,0.02483
1003.30382,0.02492
1001.24365,0.02460
999.18348,0.02410
997.12330,0.02374
995.06313,0.02339
993.00296,0.02288
990.94279,0.02248
988.88262,0.02231
986.82244,0.02206
984.76227,0.02154
982.70210,0.02106
980.64193,0.02082
978.58176,0.02077
976.52158,0.02087
974.46141,0.02111
972.40124,0.02126
970.34107,0.02101
968.28089,0.02036
966.22072,0.01970
964.16055,0.01936
962.10038,0.01926
960.04021,0.01916
957.98003,0.01903
955.91986,0.01893
953.85969,0.01876
951.79952,0.01851
949.73935,0.01810
947.67917,0.01741
945.61900,0.01665
943.55883,0.01612
941.49866,0.01556
939.43849,0.01469
937.37831,0.01377
935.31814,0.01290
933.25797,0.01184
931.19780,0.01076
929.13762,0.00992
927.07745,0.00913
925.01728,0.00824
922.95711,0.00744
920.89694,0.00691
918.83676,0.00670
916.77659,0.00675
914.71642,0.00670
912.65625,0.00640
910.59608,0.00601
908.53590,0.00562
906.47573,0.00514
904.41556,0.00474
902.35539,0.00483
900.29522,0.00534
898.23504,0.00561
896.17487,0.00535
894.11470,0.00510
892.05453,0.00527
889.99435,0.00548
887.93418,0.00525
885.87401,0.00479
883.81384,0.00447
881.75367,0.00425
879.69349,0.00389
877.63332,0.00335
875.57315,0.00290
873.51298,0.00284
871.45281,0.00298
869.39263,0.00291
867.33246,0.00267
865.27229,0.00259
863.21212,0.00271
861.15194,0.00277
859.09177,0.00261
857.03160,0.00246
854.97143,0.00237
852.91126,0.00218
850.85108,0.00207
848.79091,0.00217
846.73074,0.00231
844.67057,0.00242
842.61040,0.00258
840.55022,0.00282
838.49005,0.00292
836.42988,0.00272
834.36971,0.00252
832.30954,0.00249
830.24936,0.00219
828.18919,0.00135
826.12902,0.00042
824.06885,0.00000
822.00867,0.00042
819.94850,0.00162
817.88833,0.00277
815.82816,0.00328
813.76799,0.00356
811.70781,0.00383
809.64764,0.00378
807.58747,0.00351
805.52730,0.00341
803.46713,0.00338
801.40695,0.00294
799.34678,0.00224
797.28661,0.00191
795.22644,0.00180
793.16627,0.00151
791.10609,0.00143
789.04592,0.00180
786.98575,0.00208
784.92558,0.00186
782.86540,0.00158
780.80523,0.00188
778.74506,0.00241
776.68489,0.00249
774.62472,0.00216
772.56454,0.00161
770.50437,0.00111
768.44420,0.00112
766.38403,0.00172
764.32386,0.00281
762.26368,0.00411
760.20351,0.00468
758.14334,0.00389
756.08317,0.00235
754.02299,0.00122
751.96282,0.00116
749.90265,0.00194
747.84248,0.00261
745.78231,0.00235
743.72213,0.00140
741.66196,0.00049
739.60179,0.00019
737.54162,0.00060
735.48145,0.00145
733.42127,0.00233
731.36110,0.00280
729.30093,0.00272
727.24076,0.00245
725.18059,0.00246
723.12041,0.00285
721.06024,0.00334
719.00007,0.00370
716.93990,0.00387
714.87972,0.00393
712.81955,0.00388
710.75938,0.00370
708.69921,0.00348
706.63904,0.00349
704.57886,0.00384
702.51869,0.00429
700.45852,0.00456
698.39835,0.00470
696.33818,0.00482
694.27800,0.00498
692.21783,0.00536
690.15766,0.00600
688.09749,0.00658
686.03731,0.00677
683.97714,0.00643
681.91697,0.00565
679.85680,0.00471
677.79663,0.00424
675.73645,0.00478
673.67628,0.00610
671.61611,0.00725
669.55594,0.00746
667.49577,0.00660
665.43559,0.00556
663.37542,0.00529
661.31525,0.00580
659.25508,0.00648
657.19491,0.00687
655.13473,0.00684
653.07456,0.00676
651.01439,0.00729
648.95422,0.00866
646.89404,0.01008
644.83387,0.01052
642.77370,0.00984
640.71353,0.00886
638.65336,0.00850
636.59318,0.00898
634.53301,0.00961
632.47284,0.00966
630.41267,0.00898
628.35250,0.00826
626.29232,0.00850
624.23215,0.00955
622.17198,0.00980
620.11181,0.00873
618.05164,0.00734
615.99146,0.00650
613.93129,0.00606
611.87112,0.00516
609.81095,0.00339
607.75077,0.00124
605.69060,0.00000
603.63043,-0.00087
601.57026,-0.00013
599.51009,0.00000
