3996.73391,0.00020
3994.67373,0.00020
3992.61356,0.00014
3990.55339,0.00004
3988.49322,0.00005
3986.43305,0.00019
3984.37287,0.00037
3982.31270,0.00054
3980.25253,0.00059
3978.19236,0.00036
3976.13219,0.00003
3974.07201,0.00000
3972.01184,0.00019
3969.95167,0.00020
3967.89150,0.00013
3965.83133,0.00014
3963.77115,0.00012
3961.71098,0.00008
3959.65081,0.00029
3957.59064,0.00058
3955.53046,0.00058
3953.47029,0.00034
3951.41012,0.00020
3949.34995,0.00029
3947.28978,0.00044
3945.22960,0.00055
3943.16943,0.00062
3941.10926,0.00062
3939.04909,0.00048
3936.98892,0.00033
3934.92874,0.00032
3932.86857,0.00046
3930.80840,0.00048
3928.74823,0.00022
3926.68805,-0.00002
3924.62788,0.00003
3922.56771,0.00033
3920.50754,0.00062
3918.44737,0.00063
3916.38719,0.00032
3914.32702,0.00004
3912.26685,0.00002
3910.20668,0.00018
3908.14651,0.00034
3906.08633,0.00047
3904.02616,0.00069
3901.96599,0.00100
3899.90582,0.00126
3897.84565,0.00132
3895.78547,0.00120
3893.72530,0.00093
3891.66513,0.00062
3889.60496,0.00045
3887.54478,0.00039
3885.48461,0.00036
3883.42444,0.00050
3881.36427,0.00068
3879.30410,0.00076
3877.24392,0.00087
3875.18375,0.00096
3873.12358,0.00081
3871.06341,0.00053
3869.00324,0.00027
3866.94306,0.00005
3864.88289,0.00000
3862.82272,0.00029
3860.76255,0.00077
3858.70237,0.00103
3856.64220,0.00089
3854.58203,0.00061
3852.52186,0.00042
3850.46169,0.00025
3848.40151,0.00022
3846.34134,0.00036
3844.28117,0.00054
3842.22100,0.00074
3840.16083,0.00090
3838.10065,0.00089
3836.04048,0.00070
3833.98031,0.00043
3831.92014,0.00034
3829.85997,0.00053
3827.79979,0.00078
3825.73962,0.00098
3823.67945,0.00129
3821.61928,0.00152
3819.55910,0.00139
3817.49893,0.00115
3815.43876,0.00101
3813.37859,0.00094
3811.31842,0.00102
3809.25824,0.00116
3807.19807,0.00109
3805.13790,0.00094
3803.07773,0.00095
3801.01756,0.00103
3798.95738,0.00096
3796.89721,0.00079
3794.83704,0.00078
3792.77687,0.00105
3790.71670,0.00123
3788.65652,0.00112
3786.59635,0.00097
3784.53618,0.00090
3782.47601,0.00083
3780.41583,0.00080
3778.35566,0.00086
3776.29549,0.00096
3774.23532,0.00099
3772.17515,0.00083
3770.11497,0.00052
3768.05480,0.00028
3765.99463,0.00044
3763.93446,0.00099
3761.87429,0.00158
3759.81411,0.00186
3757.75394,0.00167
3755.69377,0.00126
3753.63360,0.00101
3751.57342,0.00098
3749.51325,0.00115
3747.45308,0.00129
3745.39291,0.00106
3743.33274,0.00068
3741.27256,0.00069
3739.21239,0.00088
3737.15222,0.00076
3735.09205,0.00043
3733.03188,0.00035
3730.97170,0.00073
3728.91153,0.00120
3726.85136,0.00150
3724.79119,0.00158
3722.73102,0.00139
3720.67084,0.00115
3718.61067,0.00092
3716.55050,0.00102
3714.49033,0.00119
3712.43015,0.00094
3710.36998,0.00073
3708.30981,0.00074
3706.24964,0.00105
3704.18947,0.00161
3702.12929,0.00220
3700.06912,0.00230
3698.00895,0.00176
3695.94878,0.00127
3693.88861,0.00127
3691.82843,0.00168
3689.76826,0.00190
3687.70809,0.00174
3685.64792,0.00142
3683.58775,0.00119
3681.52757,0.00095
3679.46740,0.00071
3677.40723,0.00053
3675.34706,0.00074
3673.28688,0.00126
3671.22671,0.00171
3669.16654,0.00194
3667.10637,0.00201
3665.04620,0.00204
3662.98602,0.00200
3660.92585,0.00197
3658.86568,0.00202
3656.80551,0.00187
3654.74534,0.00162
3652.68516,0.00190
3650.62499,0.00287
3648.56482,0.00370
3646.50465,0.00374
3644.44447,0.00360
3642.38430,0.00359
3640.32413,0.00355
3638.26396,0.00358
3636.20379,0.00378
3634.14361,0.00402
3632.08344,0.00426
3630.02327,0.00436
3627.96310,0.00429
3625.90293,0.00428
3623.84275,0.00471
3621.78258,0.00541
3619.72241,0.00589
3617.66224,0.00597
3615.60207,0.00603
3613.54189,0.00648
3611.48172,0.00688
3609.42155,0.00701
3607.36138,0.00703
3605.30120,0.00710
3603.24103,0.00740
3601.18086,0.00769
3599.12069,0.00788
3597.06052,0.00797
3595.00034,0.00817
3592.94017,0.00841
3590.88000,0.00871
3588.81983,0.00904
3586.75966,0.00952
3584.69948,0.00995
3582.63931,0.01030
3580.57914,0.01062
3578.51897,0.01078
3576.45879,0.01092
3574.39862,0.01116
3572.33845,0.01142
3570.27828,0.01157
3568.21811,0.01158
3566.15793,0.01162
3564.09776,0.01195
3562.03759,0.01240
3559.97742,0.01270
3557.91725,0.01290
3555.85707,0.01311
3553.79690,0.01335
3551.73673,0.01373
3549.67656,0.01433
3547.61639,0.01492
3545.55621,0.01531
3543.49604,0.01550
3541.43587,0.01549
3539.37570,0.01550
3537.31552,0.01571
3535.25535,0.01598
3533.19518,0.01624
3531.13501,0.01661
3529.07484,0.01701
3527.01466,0.01724
3524.95449,0.01735
3522.89432,0.01757
3520.83415,0.01795
3518.77398,0.01833
3516.71380,0.01858
3514.65363,0.01890
3512.59346,0.01942
3510.53329,0.01981
3508.47312,0.01989
3506.41294,0.01992
3504.35277,0.02017
3502.29260,0.02054
3500.23243,0.02079
3498.17225,0.02086
3496.11208,0.02096
3494.05191,0.02127
3491.99174,0.02165
3489.93157,0.02189
3487.87139,0.02206
3485.81122,0.02231
3483.75105,0.02247
3481.69088,0.02239
3479.63071,0.02237
3477.57053,0.02277
3475.51036,0.02350
3473.45019,0.02412
3471.39002,0.02433
3469.32984,0.02435
3467.26967,0.02446
3465.20950,0.02463
3463.14933,0.02477
3461.08916,0.02488
3459.02898,0.02495
3456.96881,0.02508
3454.90864,0.02539
3452.84847,0.02579
3450.78830,0.02630
3448.72812,0.02677
3446.66795,0.02696
3444.60778,0.02697
3442.54761,0.02708
3440.48744,0.02732
3438.42726,0.02757
3436.36709,0.02777
3434.30692,0.02796
3432.24675,0.02817
3430.18657,0.02833
3428.12640,0.02853
3426.06623,0.02880
3424.00606,0.02905
3421.94589,0.02930
3419.88571,0.02948
3417.82554,0.02954
3415.76537,0.02961
3413.70520,0.02978
3411.64503,0.02999
3409.58485,0.03011
3407.52468,0.03025
3405.46451,0.03054
3403.40434,0.03052
3401.34416,0.03029
3399.28399,0.03057
3397.22382,0.03114
3395.16365,0.03138
3393.10348,0.03146
3391.04330,0.03173
3388.98313,0.03194
3386.92296,0.03187
3384.86279,0.03180
3382.80262,0.03188
3380.74244,0.03193
3378.68227,0.03214
3376.62210,0.03260
3374.56193,0.03286
3372.50176,0.03276
3370.44158,0.03270
3368.38141,0.03270
3366.32124,0.03271
3364.26107,0.03287
3362.20089,0.03316
3360.14072,0.03351
3358.08055,0.03383
3356.02038,0.03393
3353.96021,0.03387
3351.90003,0.03380
3349.83986,0.03376
3347.77969,0.03377
3345.71952,0.03383
3343.65935,0.03374
3341.59917,0.03362
3339.53900,0.03385
3337.47883,0.03432
3335.41866,0.03464
3333.35849,0.03464
3331.29831,0.03457
3329.23814,0.03462
3327.17797,0.03470
3325.11780,0.03463
3323.05762,0.03440
3320.99745,0.03429
3318.93728,0.03451
3316.87711,0.03471
3314.81694,0.03476
3312.75676,0.03486
3310.69659,0.03497
3308.63642,0.03498
3306.57625,0.03511
3304.51608,0.03534
3302.45590,0.03544
3300.39573,0.03537
3298.33556,0.03523
3296.27539,0.03500
3294.21521,0.03485
3292.15504,0.03497
3290.09487,0.03512
3288.03470,0.03521
3285.97453,0.03529
3283.91435,0.03532
3281.85418,0.03517
3279.79401,0.03490
3277.73384,0.03486
3275.67367,0.03521
3273.61349,0.03551
3271.55332,0.03539
3269.49315,0.03505
3267.43298,0.03472
3265.37281,0.03458
3263.31263,0.03471
3261.25246,0.03481
3259.19229,0.03473
3257.13212,0.03460
3255.07194,0.03455
3253.01177,0.03457
3250.95160,0.03458
3248.89143,0.03460
3246.83126,0.03470
3244.77108,0.03477
3242.71091,0.03468
3240.65074,0.03447
3238.59057,0.03425
3236.53040,0.03408
3234.47022,0.03406
3232.41005,0.03408
3230.34988,0.03393
3228.28971,0.03378
3226.22954,0.03382
3224.16936,0.03386
3222.10919,0.03363
3220.04902,0.03331
3217.98885,0.03319
3215.92867,0.03314
3213.86850,0.03306
3211.80833,0.03294
3209.74816,0.03268
3207.68799,0.03245
3205.62781,0.03248
3203.56764,0.03248
3201.50747,0.03216
3199.44730,0.03167
3197.38713,0.03128
3195.32695,0.03109
3193.26678,0.03105
3191.20661,0.03100
3189.14644,0.03086
3187.08626,0.03070
3185.02609,0.03051
3182.96592,0.03027
3180.90575,0.02992
3178.84558,0.02949
3176.78540,0.02926
3174.72523,0.02932
3172.66506,0.02939
3170.60489,0.02930
3168.54472,0.02911
3166.48454,0.02876
3164.42437,0.02829
3162.36420,0.02790
3160.30403,0.02770
3158.24386,0.02766
3156.18368,0.02772
3154.12351,0.02775
3152.06334,0.02753
3150.00317,0.02698
3147.94299,0.02646
3145.88282,0.02622
3143.82265,0.02614
3141.76248,0.02590
3139.70231,0.02549
3137.64213,0.02503
3135.58196,0.02460
3133.52179,0.02434
3131.46162,0.02428
3129.40145,0.02424
3127.34127,0.02416
3125.28110,0.02401
3123.22093,0.02373
3121.16076,0.02342
3119.10058,0.02310
3117.04041,0.02276
3114.98024,0.02258
3112.92007,0.02256
3110.85990,0.02243
3108.79972,0.02214
3106.73955,0.02195
3104.67938,0.02178
3102.61921,0.02154
3100.55904,0.02136
3098.49886,0.02120
3096.43869,0.02087
3094.37852,0.02050
3092.31835,0.02038
3090.25818,0.02041
3088.19800,0.02034
3086.13783,0.02007
3084.07766,0.01963
3082.01749,0.01919
3079.95731,0.01899
3077.89714,0.01884
3075.83697,0.01853
3073.77680,0.01810
3071.71663,0.01764
3069.65645,0.01730
3067.59628,0.01724
3065.53611,0.01732
3063.47594,0.01723
3061.41577,0.01694
3059.35559,0.01672
3057.29542,0.01667
3055.23525,0.01654
3053.17508,0.01620
3051.11491,0.01593
3049.05473,0.01591
3046.99456,0.01594
3044.93439,0.01585
3042.87422,0.01578
3040.81404,0.01575
3038.75387,0.01558
3036.69370,0.01523
3034.63353,0.01505
3032.57336,0.01503
3030.51318,0.01486
3028.45301,0.01453
3026.39284,0.01431
3024.33267,0.01423
3022.27250,0.01401
3020.21232,0.01371
3018.15215,0.01373
3016.09198,0.01397
3014.03181,0.01398
3011.97163,0.01370
3009.91146,0.01343
3007.85129,0.01342
3005.79112,0.01352
3003.73095,0.01343
3001.67077,0.01317
2999.61060,0.01288
2997.55043,0.01269
2995.49026,0.01270
2993.43009,0.01279
2991.36991,0.01288
2989.30974,0.01307
2987.24957,0.01326
2985.18940,0.01336
2983.12923,0.01340
2981.06905,0.01351
2979.00888,0.01367
2976.94871,0.01380
2974.88854,0.01397
2972.82836,0.01401
2970.76819,0.01393
2968.70802,0.01402
2966.64785,0.01434
2964.58768,0.01458
2962.52750,0.01464
2960.46733,0.01484
2958.40716,0.01529
2956.34699,0.01570
2954.28682,0.01589
2952.22664,0.01602
2950.16647,0.01620
2948.10630,0.01647
2946.04613,0.01677
2943.98596,0.01700
2941.92578,0.01714
2939.86561,0.01734
2937.80544,0.01766
2935.74527,0.01789
2933.68509,0.01790
2931.62492,0.01786
2929.56475,0.01784
2927.50458,0.01760
2925.44441,0.01731
2923.38423,0.01718
2921.32406,0.01707
2919.26389,0.01700
2917.20372,0.01694
2915.14355,0.01674
2913.08337,0.01641
2911.02320,0.01612
2908.96303,0.01595
2906.90286,0.01586
2904.84268,0.01578
2902.78251,0.01579
2900.72234,0.01592
2898.66217,0.01597
2896.60200,0.01582
2894.54182,0.01567
2892.48165,0.01562
2890.42148,0.01560
2888.36131,0.01548
2886.30114,0.01534
2884.24096,0.01532
2882.18079,0.01529
2880.12062,0.01513
2878.06045,0.01501
2876.00028,0.01511
2873.94010,0.01522
2871.87993,0.01503
2869.81976,0.01473
2867.75959,0.01451
2865.69941,0.01424
2863.63924,0.01396
2861.57907,0.01386
2859.51890,0.01382
2857.45873,0.01369
2855.39855,0.01352
2853.33838,0.01324
2851.27821,0.01293
2849.21804,0.01271
2847.15787,0.01266
2845.09769,0.01260
2843.03752,0.01236
2840.97735,0.01212
2838.91718,0.01204
2836.85700,0.01188
2834.79683,0.01156
2832.73666,0.01142
2830.67649,0.01138
2828.61632,0.01130
2826.55614,0.01128
2824.49597,0.01131
2822.43580,0.01128
2820.37563,0.01114
2818.31546,0.01099
2816.25528,0.01096
2814.19511,0.01098
2812.13494,0.01088
2810.07477,0.01066
2808.01460,0.01050
2805.95442,0.01041
2803.89425,0.01028
2801.83408,0.01009
2799.77391,0.01006
2797.71373,0.01015
2795.65356,0.01016
2793.59339,0.01018
2791.53322,0.01019
2789.47305,0.01008
2787.41287,0.00992
2785.35270,0.00979
2783.29253,0.00967
2781.23236,0.00946
2779.17219,0.00925
2777.11201,0.00931
2775.05184,0.00951
2772.99167,0.00960
2770.93150,0.00964
2768.87133,0.00960
2766.81115,0.00946
2764.75098,0.00940
2762.69081,0.00942
2760.63064,0.00941
2758.57046,0.00928
2756.51029,0.00916
2754.45012,0.00913
2752.38995,0.00918
2750.32978,0.00931
2748.26960,0.00935
2746.20943,0.00918
2744.14926,0.00897
2742.08909,0.00900
2740.02892,0.00918
2737.96874,0.00913
2735.90857,0.00889
2733.84840,0.00880
2731.78823,0.00889
2729.72805,0.00891
2727.66788,0.00882
2725.60771,0.00878
2723.54754,0.00881
2721.48737,0.00881
2719.42719,0.00874
2717.36702,0.00867
2715.30685,0.00864
2713.24668,0.00855
2711.18651,0.00839
2709.12633,0.00834
2707.06616,0.00837
2705.00599,0.00833
2702.94582,0.00831
2700.88565,0.00826
2698.82547,0.00821
2696.76530,0.00833
2694.70513,0.00846
2692.64496,0.00841
2690.58478,0.00831
2688.52461,0.00829
2686.46444,0.00832
2684.40427,0.00828
2682.34410,0.00818
2680.28392,0.00810
2678.22375,0.00801
2676.16358,0.00791
2674.10341,0.00789
2672.04324,0.00796
2669.98306,0.00795
2667.92289,0.00786
2665.86272,0.00784
2663.80255,0.00786
2661.74238,0.00779
2659.68220,0.00772
2657.62203,0.00771
2655.56186,0.00772
2653.50169,0.00767
2651.44151,0.00757
2649.38134,0.00762
2647.32117,0.00782
2645.26100,0.00793
2643.20083,0.00783
2641.14065,0.00769
2639.08048,0.00768
2637.02031,0.00766
2634.96014,0.00750
2632.89997,0.00735
2630.83979,0.00732
2628.77962,0.00722
2626.71945,0.00704
2624.65928,0.00694
2622.59910,0.00688
2620.53893,0.00686
2618.47876,0.00685
2616.41859,0.00679
2614.35842,0.00690
2612.29824,0.00701
2610.23807,0.00689
2608.17790,0.00677
2606.11773,0.00683
2604.05756,0.00681
2601.99738,0.00656
2599.93721,0.00633
2597.87704,0.00629
2595.81687,0.00632
2593.75670,0.00640
2591.69652,0.00644
2589.63635,0.00628
2587.57618,0.00610
2585.51601,0.00614
2583.45583,0.00620
2581.39566,0.00617
2579.33549,0.00613
2577.27532,0.00600
2575.21515,0.00578
2573.15497,0.00562
2571.09480,0.00562
2569.03463,0.00588
2566.97446,0.00615
2564.91429,0.00616
2562.85411,0.00611
2560.79394,0.00608
2558.73377,0.00593
2556.67360,0.00588
2554.61342,0.00610
2552.55325,0.00620
2550.49308,0.00607
2548.43291,0.00606
2546.37274,0.00614
2544.31256,0.00609
2542.25239,0.00591
2540.19222,0.00574
2538.13205,0.00574
2536.07188,0.00577
2534.01170,0.00564
2531.95153,0.00563
2529.89136,0.00574
2527.83119,0.00579
2525.77102,0.00583
2523.71084,0.00582
2521.65067,0.00585
2519.59050,0.00601
2517.53033,0.00610
2515.47015,0.00597
2513.40998,0.00575
2511.34981,0.00555
2509.28964,0.00542
2507.22947,0.00532
2505.16929,0.00519
2503.10912,0.00518
2501.04895,0.00531
2498.98878,0.00536
2496.92861,0.00535
2494.86843,0.00546
2492.80826,0.00568
2490.74809,0.00570
2488.68792,0.00518
2486.62775,0.00451
2484.56757,0.00425
2482.50740,0.00462
2480.44723,0.00529
2478.38706,0.00556
2476.32688,0.00541
2474.26671,0.00532
2472.20654,0.00528
2470.14637,0.00504
2468.08620,0.00475
2466.02602,0.00471
2463.96585,0.00488
2461.90568,0.00502
2459.84551,0.00523
2457.78534,0.00553
2455.72516,0.00548
2453.66499,0.00523
2451.60482,0.00517
2449.54465,0.00524
2447.48447,0.00543
2445.42430,0.00561
2443.36413,0.00556
2441.30396,0.00536
2439.24379,0.00523
2437.18361,0.00511
2435.12344,0.00495
2433.06327,0.00497
2431.00310,0.00514
2428.94293,0.00521
2426.88275,0.00507
2424.82258,0.00507
2422.76241,0.00532
2420.70224,0.00534
2418.64207,0.00513
2416.58189,0.00510
2414.52172,0.00520
2412.46155,0.00513
2410.40138,0.00488
2408.34120,0.00475
2406.28103,0.00473
2404.22086,0.00463
2402.16069,0.00468
2400.10052,0.00489
2398.04034,0.00495
2395.98017,0.00501
2393.92000,0.00509
2391.85983,0.00510
2389.79966,0.00506
2387.73948,0.00510
2385.67931,0.00544
2383.61914,0.00574
2381.55897,0.00563
2379.49880,0.00542
2377.43862,0.00556
2375.37845,0.00524
2373.31828,0.00503
2371.25811,0.00499
2369.19793,0.00471
2367.13776,0.00589
2365.07759,0.00771
2363.01742,0.00645
2360.95725,0.00729
2358.89707,0.00661
2356.83690,0.00480
2354.77673,0.00368
2352.71656,0.00442
2350.65639,0.00975
2348.59621,0.01248
2346.53604,0.00485
2344.47587,0.00308
2342.41570,0.00482
2340.35552,0.00636
2338.29535,0.00746
2336.23518,0.00714
2334.17501,0.00656
2332.11484,0.00631
2330.05466,0.00764
2327.99449,0.00850
2325.93432,0.00941
2323.87415,0.00770
2321.81398,0.00616
2319.75380,0.00525
2317.69363,0.00648
2315.63346,0.00690
2313.57329,0.00672
2311.51312,0.00677
2309.45294,0.00645
2307.39277,0.00607
2305.33260,0.00608
2303.27243,0.00623
2301.21225,0.00581
2299.15208,0.00555
2297.09191,0.00545
2295.03174,0.00525
2292.97157,0.00519
2290.91139,0.00527
2288.85122,0.00535
2286.79105,0.00538
2284.73088,0.00525
2282.67071,0.00505
2280.61053,0.00510
2278.55036,0.00551
2276.49019,0.00581
2274.43002,0.00574
2272.36984,0.00545
2270.30967,0.00534
2268.24950,0.00552
2266.18933,0.00556
2264.12916,0.00520
2262.06898,0.00486
2260.00881,0.00517
2257.94864,0.00610
2255.88847,0.00621
2253.82830,0.00549
2251.76812,0.00530
2249.70795,0.00538
2247.64778,0.00505
2245.58761,0.00521
2243.52744,0.00569
2241.46726,0.00567
2239.40709,0.00573
2237.34692,0.00599
2235.28675,0.00581
2233.22657,0.00497
2231.16640,0.00427
2229.10623,0.00471
2227.04606,0.00544
2224.98589,0.00539
2222.92571,0.00513
2220.86554,0.00480
2218.80537,0.00432
2216.74520,0.00419
2214.68503,0.00424
2212.62485,0.00425
2210.56468,0.00439
2208.50451,0.00471
2206.44434,0.00486
2204.38417,0.00450
2202.32399,0.00455
2200.26382,0.00524
2198.20365,0.00549
2196.14348,0.00524
2194.08330,0.00531
2192.02313,0.00523
2189.96296,0.00448
2187.90279,0.00433
2185.84262,0.00489
2183.78244,0.00465
2181.72227,0.00434
2179.66210,0.00438
2177.60193,0.00375
2175.54176,0.00317
2173.48158,0.00311
2171.42141,0.00293
2169.36124,0.00287
2167.30107,0.00361
2165.24089,0.00472
2163.18072,0.00456
2161.12055,0.00277
2159.06038,0.00128
2157.00021,0.00116
2154.94003,0.00174
2152.87986,0.00238
2150.81969,0.00249
2148.75952,0.00255
2146.69935,0.00287
2144.63917,0.00285
2142.57900,0.00314
2140.51883,0.00368
2138.45866,0.00338
2136.39849,0.00269
2134.33831,0.00245
2132.27814,0.00289
2130.21797,0.00379
2128.15780,0.00463
2126.09762,0.00500
2124.03745,0.00466
2121.97728,0.00450
2119.91711,0.00522
2117.85694,0.00597
2115.79676,0.00597
2113.73659,0.00544
2111.67642,0.00519
2109.61625,0.00542
2107.55608,0.00568
2105.49590,0.00576
2103.43573,0.00560
2101.37556,0.00503
2099.31539,0.00430
2097.25521,0.00418
2095.19504,0.00471
2093.13487,0.00508
2091.07470,0.00508
2089.01453,0.00507
2086.95435,0.00516
2084.89418,0.00525
2082.83401,0.00527
2080.77384,0.00541
2078.71367,0.00566
2076.65349,0.00584
2074.59332,0.00619
2072.53315,0.00656
2070.47298,0.00634
2068.41281,0.00561
2066.35263,0.00496
2064.29246,0.00462
2062.23229,0.00452
2060.17212,0.00454
2058.11194,0.00455
2056.05177,0.00452
2053.99160,0.00486
2051.93143,0.00546
2049.87126,0.00507
2047.81108,0.00414
2045.75091,0.00419
2043.69074,0.00466
2041.63057,0.00515
2039.57040,0.00582
2037.51022,0.00574
2035.45005,0.00494
2033.38988,0.00433
2031.32971,0.00296
2029.26954,0.00074
2027.20936,0.00000
2025.14919,0.00096
2023.08902,0.00206
2021.02885,0.00301
2018.96867,0.00381
2016.90850,0.00411
2014.84833,0.00409
2012.78816,0.00418
2010.72799,0.00400
2008.66781,0.00306
2006.60764,0.00213
2004.54747,0.00203
2002.48730,0.00267
2000.42713,0.00398
1998.36695,0.00495
1996.30678,0.00455
1994.24661,0.00326
1992.18644,0.00234
1990.12626,0.00287
1988.06609,0.00436
1986.00592,0.00538
1983.94575,0.00502
1981.88558,0.00342
1979.82540,0.00175
1977.76523,0.00126
1975.70506,0.00196
1973.64489,0.00236
1971.58472,0.00161
1969.52454,0.00086
1967.46437,0.00130
1965.40420,0.00243
1963.34403,0.00289
1961.28386,0.00256
1959.22368,0.00252
1957.16351,0.00286
1955.10334,0.00284
1953.04317,0.00267
1950.98299,0.00251
1948.92282,0.00206
1946.86265,0.00145
1944.80248,0.00111
1942.74231,0.00165
1940.68213,0.00261
1938.62196,0.00239
1936.56179,0.00149
1934.50162,0.00138
1932.44145,0.00168
1930.38127,0.00187
1928.32110,0.00221
1926.26093,0.00248
1924.20076,0.00236
1922.14059,0.00216
1920.08041,0.00208
1918.02024,0.00220
1915.96007,0.00246
1913.89990,0.00243
1911.83972,0.00213
1909.77955,0.00195
1907.71938,0.00204
1905.65921,0.00223
1903.59904,0.00237
1901.53886,0.00252
1899.47869,0.00266
1897.41852,0.00256
1895.35835,0.00219
1893.29818,0.00187
1891.23800,0.00177
1889.17783,0.00170
1887.11766,0.00162
1885.05749,0.00175
1882.99731,0.00212
1880.93714,0.00232
1878.87697,0.00219
1876.81680,0.00189
1874.75663,0.00153
1872.69645,0.00131
1870.63628,0.00142
1868.57611,0.00171
1866.51594,0.00198
1864.45577,0.00214
1862.39559,0.00213
1860.33542,0.00201
1858.27525,0.00193
1856.21508,0.00190
1854.15491,0.00189
1852.09473,0.00186
1850.03456,0.00174
1847.97439,0.00145
1845.91422,0.00110
1843.85404,0.00096
1841.79387,0.00116
1839.73370,0.00142
1837.67353,0.00155
1835.61336,0.00149
1833.55318,0.00130
1831.49301,0.00126
1829.43284,0.00146
1827.37267,0.00150
1825.31250,0.00132
1823.25232,0.00128
1821.19215,0.00131
1819.13198,0.00113
1817.07181,0.00086
1815.01163,0.00078
1812.95146,0.00087
1810.89129,0.00106
1808.83112,0.00134
1806.77095,0.00152
1804.71077,0.00147
1802.65060,0.00126
1800.59043,0.00114
1798.53026,0.00125
1796.47009,0.00142
1794.40991,0.00156
1792.34974,0.00160
1790.28957,0.00151
1788.22940,0.00138
1786.16923,0.00120
1784.10905,0.00101
1782.04888,0.00095
1779.98871,0.00105
1777.92854,0.00113
1775.86836,0.00102
1773.80819,0.00081
1771.74802,0.00078
1769.68785,0.00102
1767.62768,0.00129
1765.56750,0.00140
1763.50733,0.00144
1761.44716,0.00172
1759.38699,0.00228
1757.32682,0.00277
1755.26664,0.00306
1753.20647,0.00331
1751.14630,0.00370
1749.08613,0.00427
1747.02596,0.00484
1744.96578,0.00519
1742.90561,0.00544
1740.84544,0.00579
1738.78527,0.00599
1736.72509,0.00596
1734.66492,0.00612
1732.60475,0.00653
1730.54458,0.00673
1728.48441,0.00662
1726.42423,0.00636
1724.36406,0.00611
1722.30389,0.00594
1720.24372,0.00583
1718.18355,0.00573
1716.12337,0.00555
1714.06320,0.00521
1712.00303,0.00473
1709.94286,0.00421
1707.88268,0.00387
1705.82251,0.00387
1703.76234,0.00397
1701.70217,0.00390
1699.64200,0.00375
1697.58182,0.00374
1695.52165,0.00392
1693.46148,0.00411
1691.40131,0.00424
1689.34114,0.00443
1687.28096,0.00468
1685.22079,0.00500
1683.16062,0.00546
1681.10045,0.00583
1679.04028,0.00609
1676.98010,0.00648
1674.91993,0.00697
1672.85976,0.00740
1670.79959,0.00792
1668.73941,0.00862
1666.67924,0.00904
1664.61907,0.00927
1662.55890,0.00975
1660.49873,0.01048
1658.43855,0.01103
1656.37838,0.01134
1654.31821,0.01187
1652.25804,0.01277
1650.19787,0.01324
1648.13769,0.01337
1646.07752,0.01365
1644.01735,0.01389
1641.95718,0.01399
1639.89701,0.01407
1637.83683,0.01422
1635.77666,0.01453
1633.71649,0.01486
1631.65632,0.01497
1629.59614,0.01497
1627.53597,0.01490
1625.47580,0.01486
1623.41563,0.01499
1621.35546,0.01507
1619.29528,0.01502
1617.23511,0.01504
1615.17494,0.01500
1613.11477,0.01465
1611.05460,0.01423
1608.99442,0.01396
1606.93425,0.01370
1604.87408,0.01328
1602.81391,0.01263
1600.75373,0.01177
1598.69356,0.01088
1596.63339,0.01015
1594.57322,0.00956
1592.51305,0.00897
1590.45287,0.00829
1588.39270,0.00761
1586.33253,0.00701
1584.27236,0.00642
1582.21219,0.00576
1580.15201,0.00512
1578.09184,0.00456
1576.03167,0.00409
1573.97150,0.00374
1571.91133,0.00344
1569.85115,0.00318
1567.79098,0.00295
1565.73081,0.00266
1563.67064,0.00227
1561.61046,0.00183
1559.55029,0.00151
1557.49012,0.00148
1555.42995,0.00151
1553.36978,0.00154
1551.30960,0.00157
1549.24943,0.00154
1547.18926,0.00148
1545.12909,0.00140
1543.06892,0.00121
1541.00874,0.00096
1538.94857,0.00082
1536.88840,0.00077
1534.82823,0.00077
1532.76805,0.00072
1530.70788,0.00057
1528.64771,0.00045
1526.58754,0.00044
1524.52737,0.00052
1522.46719,0.00056
1520.40702,0.00041
1518.34685,0.00022
1516.28668,0.00019
1514.22651,0.00027
1512.16633,0.00036
1510.10616,0.00048
1508.04599,0.00070
1505.98582,0.00088
1503.92565,0.00080
1501.86547,0.00061
1499.80530,0.00052
1497.74513,0.00057
1495.68496,0.00070
1493.62478,0.00078
1491.56461,0.00083
1489.50444,0.00095
1487.44427,0.00106
1485.38410,0.00111
1483.32392,0.00121
1481.26375,0.00143
1479.20358,0.00171
1477.14341,0.00206
1475.08324,0.00253
1473.02306,0.00316
1470.96289,0.00380
1468.90272,0.00424
1466.84255,0.00462
1464.78238,0.00510
1462.72220,0.00554
1460.66203,0.00581
1458.60186,0.00620
1456.54169,0.00685
1454.48151,0.00725
1452.42134,0.00729
1450.36117,0.00731
1448.30100,0.00743
1446.24083,0.00758
1444.18065,0.00774
1442.12048,0.00793
1440.06031,0.00823
1438.00014,0.00872
1435.93997,0.00929
1433.87979,0.00963
1431.81962,0.00978
1429.75945,0.01002
1427.69928,0.01038
1425.63910,0.01075
1423.57893,0.01103
1421.51876,0.01121
1419.45859,0.01152
1417.39842,0.01191
1415.33824,0.01201
1413.27807,0.01188
1411.21790,0.01174
1409.15773,0.01166
1407.09756,0.01159
1405.03738,0.01137
1402.97721,0.01091
1400.91704,0.01034
1398.85687,0.00993
1396.79670,0.00977
1394.73652,0.00974
1392.67635,0.00968
1390.61618,0.00951
1388.55601,0.00945
1386.49583,0.00970
1384.43566,0.01011
1382.37549,0.01039
1380.31532,0.01060
1378.25515,0.01086
1376.19497,0.01103
1374.13480,0.01112
1372.07463,0.01123
1370.01446,0.01133
1367.95429,0.01133
1365.89411,0.01118
1363.83394,0.01103
1361.77377,0.01097
1359.71360,0.01091
1357.65343,0.01075
1355.59325,0.01052
1353.53308,0.01024
1351.47291,0.00998
1349.41274,0.00979
1347.35256,0.00960
1345.29239,0.00938
1343.23222,0.00925
1341.17205,0.00927
1339.11188,0.00938
1337.05170,0.00947
1334.99153,0.00946
1332.93136,0.00939
1330.87119,0.00933
1328.81102,0.00935
1326.75084,0.00946
1324.69067,0.00954
1322.63050,0.00951
1320.57033,0.00948
1318.51015,0.00958
1316.44998,0.00978
1314.38981,0.00995
1312.32964,0.00999
1310.26947,0.00990
1308.20929,0.00974
1306.14912,0.00947
1304.08895,0.00909
1302.02878,0.00883
1299.96861,0.00879
1297.90843,0.00874
1295.84826,0.00855
1293.78809,0.00825
1291.72792,0.00793
1289.66775,0.00775
1287.60757,0.00772
1285.54740,0.00771
1283.48723,0.00773
1281.42706,0.00775
1279.36688,0.00776
1277.30671,0.00784
1275.24654,0.00800
1273.18637,0.00826
1271.12620,0.00859
1269.06602,0.00892
1267.00585,0.00935
1264.94568,0.00988
1262.88551,0.01040
1260.82534,0.01084
1258.76516,0.01122
1256.70499,0.01151
1254.64482,0.01173
1252.58465,0.01188
1250.52447,0.01189
1248.46430,0.01184
1246.40413,0.01194
1244.34396,0.01202
1242.28379,0.01187
1240.22361,0.01157
1238.16344,0.01128
1236.10327,0.01098
1234.04310,0.01067
1231.98293,0.01024
1229.92275,0.00968
1227.86258,0.00915
1225.80241,0.00876
1223.74224,0.00838
1221.68207,0.00793
1219.62189,0.00748
1217.56172,0.00708
1215.50155,0.00666
1213.44138,0.00622
1211.38120,0.00572
1209.32103,0.00509
1207.26086,0.00443
1205.20069,0.00381
1203.14052,0.00308
1201.08034,0.00226
1199.02017,0.00156
1196.96000,0.00105
1194.89983,0.00068
1192.83966,0.00035
1190.77948,0.00007
1188.71931,0.00000
1186.65914,0.00008
1184.59897,0.00026
1182.53880,0.00054
1180.47862,0.00103
1178.41845,0.00166
1176.35828,0.00229
1174.29811,0.00300
1172.23793,0.00391
1170.17776,0.00497
1168.11759,0.00597
1166.05742,0.00690
1163.99725,0.00781
1161.93707,0.00866
1159.87690,0.00938
1157.81673,0.01000
1155.75656,0.01070
1153.69639,0.01148
1151.63621,0.01213
1149.57604,0.01266
1147.51587,0.01308
1145.45570,0.01342
1143.39552,0.01376
1141.33535,0.01408
1139.27518,0.01436
1137.21501,0.01461
1135.15484,0.01488
1133.09466,0.01528
1131.03449,0.01580
1128.97432,0.01651
1126.91415,0.01746
1124.85398,0.01842
1122.79380,0.01927
1120.73363,0.02016
1118.67346,0.02101
1116.61329,0.02165
1114.55312,0.02222
1112.49294,0.02306
1110.43277,0.02402
1108.37260,0.02477
1106.31243,0.02545
1104.25225,0.02628
1102.19208,0.02727
1100.13191,0.02822
1098.07174,0.02923
1096.01157,0.03052
1093.95139,0.03184
1091.89122,0.03292
1089.83105,0.03400
1087.77088,0.03522
1085.71071,0.03634
1083.65053,0.03724
1081.59036,0.03804
1079.53019,0.03895
1077.47002,0.04008
1075.40985,0.04114
1073.34967,0.04199
1071.28950,0.04279
1069.22933,0.04362
1067.16916,0.04438
1065.10898,0.04502
1063.04881,0.04548
1060.98864,0.04589
1058.92847,0.04633
1056.86830,0.04689
1054.80812,0.04747
1052.74795,0.04799
1050.68778,0.04865
1048.62761,0.04944
1046.56744,0.05009
1044.50726,0.05064
1042.44709,0.05137
1040.38692,0.05216
1038.32675,0.05277
1036.26657,0.05313
1034.20640,0.05317
1032.14623,0.05308
1030.08606,0.05317
1028.02589,0.05343
1025.96571,0.05351
1023.90554,0.05332
1021.84537,0.05313
1019.78520,0.05318
1017.72503,0.05329
1015.66485,0.05321
1013.60468,0.05306
1011.54451,0.05298
1009.48434,0.05279
1007.42417,0.05248
1005.36399,0.05202
1003.30382,0.05130
1001.24365,0.05050
999.18348,0.04984
997.12330,0.04908
995.06313,0.04824
993.00296,0.04760
990.94279,0.04712
988.88262,0.04662
986.82244,0.04597
984.76227,0.04520
982.70210,0.04457
980.64193,0.04421
978.58176,0.04383
976.52158,0.04315
974.46141,0.04235
972.40124,0.04160
970.34107,0.04071
968.28089,0.03968
966.22072,0.03878
964.16055,0.03800
962.10038,0.03730
960.04021,0.03659
957.98003,0.03580
955.91986,0.03513
953.85969,0.03449
951.79952,0.03351
949.73935,0.03238
947.67917,0.03133
945.61900,0.03002
943.55883,0.02837
941.49866,0.02656
939.43849,0.02451
937.37831,0.02239
935.31814,0.02033
933.25797,0.01821
931.19780,0.01636
929.13762,0.01505
927.07745,0.01399
925.01728,0.01287
922.95711,0.01170
920.89694,0.01073
918.83676,0.01001
916.77659,0.00929
914.71642,0.00851
912.65625,0.00782
910.59608,0.00728
908.53590,0.00688
906.47573,0.00657
904.41556,0.00647
902.35539,0.00663
900.29522,0.00685
898.23504,0.00702
896.17487,0.00730
894.11470,0.00747
892.05453,0.00729
889.99435,0.00691
887.93418,0.00648
885.87401,0.00620
883.81384,0.00611
881.75367,0.00580
879.69349,0.00514
877.63332,0.00463
875.57315,0.00437
873.51298,0.00423
871.45281,0.00438
869.39263,0.00469
867.33246,0.00462
865.27229,0.00408
863.21212,0.00346
861.15194,0.00314
859.09177,0.00312
857.03160,0.00328
854.97143,0.00345
852.91126,0.00334
850.85108,0.00309
848.79091,0.00295
846.73074,0.00298
844.67057,0.00308
842.61040,0.00290
840.55022,0.00245
838.49005,0.00210
836.42988,0.00171
834.36971,0.00115
832.30954,0.00071
830.24936,0.00053
828.18919,0.00048
826.12902,0.00058
824.06885,0.00090
822.00867,0.00123
819.94850,0.00139
817.88833,0.00161
815.82816,0.00206
813.76799,0.00243
811.70781,0.00243
809.64764,0.00233
807.58747,0.00225
805.52730,0.00192
803.46713,0.00136
801.40695,0.00097
799.34678,0.00116
797.28661,0.00138
795.22644,0.00115
793.16627,0.00103
791.10609,0.00112
789.04592,0.00110
786.98575,0.00097
784.92558,0.00079
782.86540,0.00064
780.80523,0.00080
778.74506,0.00117
776.68489,0.00141
774.62472,0.00176
772.56454,0.00196
770.50437,0.00162
768.44420,0.00144
766.38403,0.00178
764.32386,0.00210
762.26368,0.00215
760.20351,0.00208
758.14334,0.00196
756.08317,0.00176
754.02299,0.00191
751.96282,0.00247
749.90265,0.00265
747.84248,0.00251
745.78231,0.00266
743.72213,0.00277
741.66196,0.00250
739.60179,0.00252
737.54162,0.00291
735.48145,0.00268
733.42127,0.00225
731.36110,0.00295
729.30093,0.00427
727.24076,0.00495
725.18059,0.00510
723.12041,0.00556
721.06024,0.00509
719.00007,0.00600
716.93990,0.00682
714.87972,0.00674
712.81955,0.00670
710.75938,0.00715
708.69921,0.00779
706.63904,0.00826
704.57886,0.00872
702.51869,0.00915
700.45852,0.00925
698.39835,0.00888
696.33818,0.00848
694.27800,0.00886
692.21783,0.01012
690.15766,0.01146
688.09749,0.01192
686.03731,0.01135
683.97714,0.01048
681.91697,0.00998
679.85680,0.01000
677.79663,0.01064
675.73645,0.01180
673.67628,0.01441
671.61611,0.01791
669.55594,0.00997
667.49577,0.00000
665.43559,0.01395
663.37542,0.01311
661.31525,0.01029
659.25508,0.01036
657.19491,0.01107
655.13473,0.01154
653.07456,0.01146
651.01439,0.01032
648.95422,0.00903
646.89404,0.00939
644.83387,0.00978
642.77370,0.01003
640.71353,0.00932
638.65336,0.00660
636.59318,0.00374
634.53301,0.00308
632.47284,0.00392
630.41267,0.00453
628.35250,0.00446
626.29232,0.00404
624.23215,0.00352
622.17198,0.00340
620.11181,0.00307
618.05164,0.00272
615.99146,0.00318
613.93129,0.00353
611.87112,0.00349
609.81095,0.00309
607.75077,0.00120
605.69060,-0.00069
603.63043,-0.00023
601.57026,0.00096
599.51009,0.00000
