3996.73391,-0.00397
3994.67373,-0.00366
3992.61356,-0.00367
3990.55339,-0.00357
3988.49322,-0.00327
3986.43305,-0.00304
3984.37287,-0.00287
3982.31270,-0.00280
3980.25253,-0.00266
3978.19236,-0.00238
3976.13219,-0.00206
3974.07201,-0.00154
3972.01184,-0.00098
3969.95167,-0.00082
3967.89150,-0.00101
3965.83133,-0.00100
3963.77115,-0.00055
3961.71098,-0.00003
3959.65081,0.00029
3957.59064,0.00027
3955.53046,-0.00004
3953.47029,0.00000
3951.41012,0.00077
3949.34995,0.00147
3947.28978,0.00118
3945.22960,0.00035
3943.16943,0.00000
3941.10926,0.00031
3939.04909,0.00094
3936.98892,0.00127
3934.92874,0.00141
3932.86857,0.00159
3930.80840,0.00182
3928.74823,0.00208
3926.68805,0.00224
3924.62788,0.00220
3922.56771,0.00200
3920.50754,0.00177
3918.44737,0.00158
3916.38719,0.00147
3914.32702,0.00152
3912.26685,0.00167
3910.20668,0.00187
3908.14651,0.00225
3906.08633,0.00280
3904.02616,0.00309
3901.96599,0.00280
3899.90582,0.00216
3897.84565,0.00185
3895.78547,0.00195
3893.72530,0.00192
3891.66513,0.00181
3889.60496,0.00207
3887.54478,0.00220
3885.48461,0.00170
3883.42444,0.00092
3881.36427,0.00025
3879.30410,0.00000
3877.24392,0.00038
3875.18375,0.00108
3873.12358,0.00179
3871.06341,0.00238
3869.00324,0.00250
3866.94306,0.00190
3864.88289,0.00121
3862.82272,0.00147
3860.76255,0.00226
3858.70237,0.00235
3856.64220,0.00183
3854.58203,0.00140
3852.52186,0.00174
3850.46169,0.00252
3848.40151,0.00291
3846.34134,0.00286
3844.28117,0.00244
3842.22100,0.00189
3840.16083,0.00202
3838.10065,0.00291
3836.04048,0.00340
3833.98031,0.00319
3831.92014,0.00299
3829.85997,0.00301
3827.79979,0.00293
3825.73962,0.00249
3823.67945,0.00172
3821.61928,0.00100
3819.55910,0.00105
3817.49893,0.00144
3815.43876,0.00122
3813.37859,0.00104
3811.31842,0.00143
3809.25824,0.00193
3807.19807,0.00197
3805.13790,0.00143
3803.07773,0.00100
3801.01756,0.00112
3798.95738,0.00133
3796.89721,0.00141
3794.83704,0.00170
3792.77687,0.00201
3790.71670,0.00181
3788.65652,0.00120
3786.59635,0.00061
3784.53618,0.00051
3782.47601,0.00120
3780.41583,0.00210
3778.35566,0.00238
3776.29549,0.00227
3774.23532,0.00233
3772.17515,0.00259
3770.11497,0.00269
3768.05480,0.00240
3765.99463,0.00212
3763.93446,0.00211
3761.87429,0.00210
3759.81411,0.00192
3757.75394,0.00212
3755.69377,0.00291
3753.63360,0.00345
3751.57342,0.00329
3749.51325,0.00290
3747.45308,0.00235
3745.39291,0.00178
3743.33274,0.00165
3741.27256,0.00181
3739.21239,0.00195
3737.15222,0.00204
3735.09205,0.00213
3733.03188,0.00200
3730.97170,0.00164
3728.91153,0.00172
3726.85136,0.00221
3724.79119,0.00209
3722.73102,0.00101
3720.67084,0.00000
3718.61067,0.00026
3716.55050,0.00140
3714.49033,0.00215
3712.43015,0.00206
3710.36998,0.00166
3708.30981,0.00150
3706.24964,0.00172
3704.18947,0.00218
3702.12929,0.00226
3700.06912,0.00194
3698.00895,0.00186
3695.94878,0.00189
3693.88861,0.00182
3691.82843,0.00181
3689.76826,0.00180
3687.70809,0.00162
3685.64792,0.00165
3683.58775,0.00185
3681.52757,0.00186
3679.46740,0.00195
3677.40723,0.00244
3675.34706,0.00292
3673.28688,0.00249
3671.22671,0.00131
3669.16654,0.00060
3667.10637,0.00081
3665.04620,0.00119
3662.98602,0.00125
3660.92585,0.00109
3658.86568,0.00108
3656.80551,0.00133
3654.74534,0.00171
3652.68516,0.00226
3650.62499,0.00295
3648.56482,0.00310
3646.50465,0.00238
3644.44447,0.00160
3642.38430,0.00135
3640.32413,0.00154
3638.26396,0.00172
3636.20379,0.00161
3634.14361,0.00131
3632.08344,0.00130
3630.02327,0.00180
3627.96310,0.00228
3625.90293,0.00268
3623.84275,0.00300
3621.78258,0.00318
3619.72241,0.00361
3617.66224,0.00409
3615.60207,0.00388
3613.54189,0.00351
3611.48172,0.00390
3609.42155,0.00448
3607.36138,0.00438
3605.30120,0.00413
3603.24103,0.00408
3601.18086,0.00374
3599.12069,0.00321
3597.06052,0.00328
3595.00034,0.00404
3592.94017,0.00501
3590.88000,0.00598
3588.81983,0.00645
3586.75966,0.00598
3584.69948,0.00536
3582.63931,0.00515
3580.57914,0.00527
3578.51897,0.00565
3576.45879,0.00607
3574.39862,0.00636
3572.33845,0.00691
3570.27828,0.00788
3568.21811,0.00857
3566.15793,0.00849
3564.09776,0.00839
3562.03759,0.00875
3559.97742,0.00934
3557.91725,0.00993
3555.85707,0.01021
3553.79690,0.01016
3551.73673,0.01004
3549.67656,0.01011
3547.61639,0.01034
3545.55621,0.01059
3543.49604,0.01089
3541.43587,0.01119
3539.37570,0.01144
3537.31552,0.01182
3535.25535,0.01236
3533.19518,0.01297
3531.13501,0.01366
3529.07484,0.01436
3527.01466,0.01486
3524.95449,0.01487
3522.89432,0.01443
3520.83415,0.01405
3518.77398,0.01416
3516.71380,0.01478
3514.65363,0.01549
3512.59346,0.01563
3510.53329,0.01519
3508.47312,0.01520
3506.41294,0.01636
3504.35277,0.01775
3502.29260,0.01811
3500.23243,0.01773
3498.17225,0.01781
3496.11208,0.01857
3494.05191,0.01919
3491.99174,0.01934
3489.93157,0.01965
3487.87139,0.02041
3485.81122,0.02083
3483.75105,0.02063
3481.69088,0.02053
3479.63071,0.02081
3477.57053,0.02103
3475.51036,0.02101
3473.45019,0.02127
3471.39002,0.02198
3469.32984,0.02257
3467.26967,0.02291
3465.20950,0.02328
3463.14933,0.02376
3461.08916,0.02442
3459.02898,0.02491
3456.96881,0.02489
3454.90864,0.02477
3452.84847,0.02489
3450.78830,0.02521
3448.72812,0.02579
3446.66795,0.02632
3444.60778,0.02654
3442.54761,0.02699
3440.48744,0.02801
3438.42726,0.02852
3436.36709,0.02804
3434.30692,0.02783
3432.24675,0.02833
3430.18657,0.02885
3428.12640,0.02925
3426.06623,0.02973
3424.00606,0.03000
3421.94589,0.02987
3419.88571,0.03009
3417.82554,0.03104
3415.76537,0.03172
3413.70520,0.03146
3411.64503,0.03099
3409.58485,0.03100
3407.52468,0.03110
3405.46451,0.03133
3403.40434,0.03208
3401.34416,0.03256
3399.28399,0.03247
3397.22382,0.03248
3395.16365,0.03241
3393.10348,0.03213
3391.04330,0.03235
3388.98313,0.03305
3386.92296,0.03362
3384.86279,0.03415
3382.80262,0.03481
3380.74244,0.03516
3378.68227,0.03491
3376.62210,0.03447
3374.56193,0.03438
3372.50176,0.03478
3370.44158,0.03538
3368.38141,0.03586
3366.32124,0.03633
3364.26107,0.03674
3362.20089,0.03684
3360.14072,0.03672
3358.08055,0.03654
3356.02038,0.03646
3353.96021,0.03627
3351.90003,0.03588
3349.83986,0.03584
3347.77969,0.03633
3345.71952,0.03694
3343.65935,0.03738
3341.59917,0.03758
3339.53900,0.03768
3337.47883,0.03740
3335.41866,0.03694
3333.35849,0.03708
3331.29831,0.03785
3329.23814,0.03867
3327.17797,0.03891
3325.11780,0.03839
3323.05762,0.03761
3320.99745,0.03722
3318.93728,0.03753
3316.87711,0.03828
3314.81694,0.03857
3312.75676,0.03837
3310.69659,0.03860
3308.63642,0.03902
3306.57625,0.03892
3304.51608,0.03852
3302.45590,0.03855
3300.39573,0.03892
3298.33556,0.03895
3296.27539,0.03905
3294.21521,0.03948
3292.15504,0.03947
3290.09487,0.03929
3288.03470,0.03944
3285.97453,0.03947
3283.91435,0.03950
3281.85418,0.03973
3279.79401,0.03980
3277.73384,0.03952
3275.67367,0.03904
3273.61349,0.03849
3271.55332,0.03810
3269.49315,0.03815
3267.43298,0.03835
3265.37281,0.03839
3263.31263,0.03870
3261.25246,0.03919
3259.19229,0.03924
3257.13212,0.03888
3255.07194,0.03858
3253.01177,0.03865
3250.95160,0.03877
3248.89143,0.03856
3246.83126,0.03847
3244.77108,0.03868
3242.71091,0.03854
3240.65074,0.03801
3238.59057,0.03762
3236.53040,0.03778
3234.47022,0.03849
3232.41005,0.03885
3230.34988,0.03842
3228.28971,0.03784
3226.22954,0.03764
3224.16936,0.03757
3222.10919,0.03748
3220.04902,0.03755
3217.98885,0.03758
3215.92867,0.03724
3213.86850,0.03680
3211.80833,0.03693
3209.74816,0.03758
3207.68799,0.03781
3205.62781,0.03715
3203.56764,0.03624
3201.50747,0.03602
3199.44730,0.03651
3197.38713,0.03681
3195.32695,0.03660
3193.26678,0.03638
3191.20661,0.03632
3189.14644,0.03618
3187.08626,0.03598
3185.02609,0.03601
3182.96592,0.03618
3180.90575,0.03590
3178.84558,0.03524
3176.78540,0.03483
3174.72523,0.03473
3172.66506,0.03496
3170.60489,0.03535
3168.54472,0.03563
3166.48454,0.03585
3164.42437,0.03554
3162.36420,0.03440
3160.30403,0.03330
3158.24386,0.03296
3156.18368,0.03290
3154.12351,0.03263
3152.06334,0.03220
3150.00317,0.03176
3147.94299,0.03158
3145.88282,0.03181
3143.82265,0.03183
3141.76248,0.03122
3139.70231,0.03107
3137.64213,0.03171
3135.58196,0.03199
3133.52179,0.03179
3131.46162,0.03175
3129.40145,0.03188
3127.34127,0.03198
3125.28110,0.03184
3123.22093,0.03122
3121.16076,0.03036
3119.10058,0.02971
3117.04041,0.02936
3114.98024,0.02934
3112.92007,0.02958
3110.85990,0.02976
3108.79972,0.02965
3106.73955,0.02929
3104.67938,0.02898
3102.61921,0.02893
3100.55904,0.02907
3098.49886,0.02891
3096.43869,0.02836
3094.37852,0.02811
3092.31835,0.02817
3090.25818,0.02793
3088.19800,0.02751
3086.13783,0.02737
3084.07766,0.02727
3082.01749,0.02689
3079.95731,0.02664
3077.89714,0.02664
3075.83697,0.02661
3073.77680,0.02665
3071.71663,0.02699
3069.65645,0.02707
3067.59628,0.02651
3065.53611,0.02596
3063.47594,0.02563
3061.41577,0.02505
3059.35559,0.02448
3057.29542,0.02442
3055.23525,0.02467
3053.17508,0.02474
3051.11491,0.02461
3049.05473,0.02445
3046.99456,0.02422
3044.93439,0.02374
3042.87422,0.02311
3040.81404,0.02284
3038.75387,0.02318
3036.69370,0.02359
3034.63353,0.02334
3032.57336,0.02278
3030.51318,0.02258
3028.45301,0.02256
3026.39284,0.02255
3024.33267,0.02262
3022.27250,0.02264
3020.21232,0.02255
3018.15215,0.02219
3016.09198,0.02142
3014.03181,0.02085
3011.97163,0.02070
3009.91146,0.02044
3007.85129,0.02025
3005.79112,0.02038
3003.73095,0.02043
3001.67077,0.02022
2999.61060,0.02001
2997.55043,0.01993
2995.49026,0.01987
2993.43009,0.01991
2991.36991,0.01997
2989.30974,0.01987
2987.24957,0.02000
2985.18940,0.02031
2983.12923,0.02039
2981.06905,0.02028
2979.00888,0.02014
2976.94871,0.02026
2974.88854,0.02067
2972.82836,0.02090
2970.76819,0.02095
2968.70802,0.02130
2966.64785,0.02231
2964.58768,0.02373
2962.52750,0.02485
2960.46733,0.02555
2958.40716,0.02619
2956.34699,0.02700
2954.28682,0.02802
2952.22664,0.02919
2950.16647,0.03058
2948.10630,0.03212
2946.04613,0.03363
2943.98596,0.03528
2941.92578,0.03699
2939.86561,0.03832
2937.80544,0.03969
2935.74527,0.04150
2933.68509,0.04338
2931.62492,0.04504
2929.56475,0.04667
2927.50458,0.04819
2925.44441,0.04935
2923.38423,0.05030
2921.32406,0.05133
2919.26389,0.05240
2917.20372,0.05273
2915.14355,0.05179
2913.08337,0.05029
2911.02320,0.04861
2908.96303,0.04676
2906.90286,0.04502
2904.84268,0.04342
2902.78251,0.04223
2900.72234,0.04149
2898.66217,0.04067
2896.60200,0.03952
2894.54182,0.03839
2892.48165,0.03757
2890.42148,0.03666
2888.36131,0.03580
2886.30114,0.03540
2884.24096,0.03504
2882.18079,0.03457
2880.12062,0.03411
2878.06045,0.03362
2876.00028,0.03338
2873.94010,0.03344
2871.87993,0.03365
2869.81976,0.03402
2867.75959,0.03443
2865.69941,0.03486
2863.63924,0.03555
2861.57907,0.03659
2859.51890,0.03788
2857.45873,0.03930
2855.39855,0.04090
2853.33838,0.04262
2851.27821,0.04410
2849.21804,0.04421
2847.15787,0.04232
2845.09769,0.03952
2843.03752,0.03698
2840.97735,0.03479
2838.91718,0.03314
2836.85700,0.03210
2834.79683,0.03116
2832.73666,0.03017
2830.67649,0.02923
2828.61632,0.02841
2826.55614,0.02779
2824.49597,0.02723
2822.43580,0.02676
2820.37563,0.02630
2818.31546,0.02578
2816.25528,0.02543
2814.19511,0.02535
2812.13494,0.02547
2810.07477,0.02568
2808.01460,0.02574
2805.95442,0.02533
2803.89425,0.02470
2801.83408,0.02442
2799.77391,0.02426
2797.71373,0.02404
2795.65356,0.02380
2793.59339,0.02355
2791.53322,0.02345
2789.47305,0.02329
2787.41287,0.02280
2785.35270,0.02249
2783.29253,0.02261
2781.23236,0.02250
2779.17219,0.02199
2777.11201,0.02186
2775.05184,0.02220
2772.99167,0.02229
2770.93150,0.02202
2768.87133,0.02179
2766.81115,0.02183
2764.75098,0.02217
2762.69081,0.02239
2760.63064,0.02219
2758.57046,0.02167
2756.51029,0.02114
2754.45012,0.02107
2752.38995,0.02126
2750.32978,0.02115
2748.26960,0.02099
2746.20943,0.02109
2744.14926,0.02109
2742.08909,0.02113
2740.02892,0.02146
2737.96874,0.02151
2735.90857,0.02105
2733.84840,0.02074
2731.78823,0.02089
2729.72805,0.02098
2727.66788,0.02086
2725.60771,0.02093
2723.54754,0.02102
2721.48737,0.02080
2719.42719,0.02060
2717.36702,0.02036
2715.30685,0.02001
2713.24668,0.02010
2711.18651,0.02066
2709.12633,0.02101
2707.06616,0.02072
2705.00599,0.02026
2702.94582,0.02018
2700.88565,0.02021
2698.82547,0.01987
2696.76530,0.01941
2694.70513,0.01942
2692.64496,0.01966
2690.58478,0.01969
2688.52461,0.01959
2686.46444,0.01963
2684.40427,0.01978
2682.34410,0.01974
2680.28392,0.01951
2678.22375,0.01926
2676.16358,0.01900
2674.10341,0.01884
2672.04324,0.01897
2669.98306,0.01912
2667.92289,0.01891
2665.86272,0.01862
2663.80255,0.01858
2661.74238,0.01871
2659.68220,0.01898
2657.62203,0.01932
2655.56186,0.01951
2653.50169,0.01953
2651.44151,0.01952
2649.38134,0.01938
2647.32117,0.01917
2645.26100,0.01907
2643.20083,0.01893
2641.14065,0.01863
2639.08048,0.01827
2637.02031,0.01794
2634.96014,0.01773
2632.89997,0.01752
2630.83979,0.01741
2628.77962,0.01771
2626.71945,0.01828
2624.65928,0.01871
2622.59910,0.01875
2620.53893,0.01850
2618.47876,0.01808
2616.41859,0.01755
2614.35842,0.01715
2612.29824,0.01699
2610.23807,0.01719
2608.17790,0.01760
2606.11773,0.01770
2604.05756,0.01741
2601.99738,0.01690
2599.93721,0.01658
2597.87704,0.01682
2595.81687,0.01702
2593.75670,0.01676
2591.69652,0.01656
2589.63635,0.01694
2587.57618,0.01748
2585.51601,0.01717
2583.45583,0.01624
2581.39566,0.01579
2579.33549,0.01607
2577.27532,0.01657
2575.21515,0.01685
2573.15497,0.01661
2571.09480,0.01582
2569.03463,0.01509
2566.97446,0.01505
2564.91429,0.01546
2562.85411,0.01582
2560.79394,0.01575
2558.73377,0.01534
2556.67360,0.01532
2554.61342,0.01569
2552.55325,0.01581
2550.49308,0.01565
2548.43291,0.01528
2546.37274,0.01475
2544.31256,0.01461
2542.25239,0.01524
2540.19222,0.01587
2538.13205,0.01578
2536.07188,0.01529
2534.01170,0.01498
2531.95153,0.01533
2529.89136,0.01593
2527.83119,0.01578
2525.77102,0.01504
2523.71084,0.01451
2521.65067,0.01443
2519.59050,0.01460
2517.53033,0.01472
2515.47015,0.01486
2513.40998,0.01512
2511.34981,0.01518
2509.28964,0.01471
2507.22947,0.01415
2505.16929,0.01394
2503.10912,0.01392
2501.04895,0.01428
2498.98878,0.01498
2496.92861,0.01520
2494.86843,0.01484
2492.80826,0.01450
2490.74809,0.01423
2488.68792,0.01406
2486.62775,0.01406
2484.56757,0.01414
2482.50740,0.01411
2480.44723,0.01387
2478.38706,0.01384
2476.32688,0.01405
2474.26671,0.01420
2472.20654,0.01388
2470.14637,0.01298
2468.08620,0.01245
2466.02602,0.01248
2463.96585,0.01275
2461.90568,0.01316
2459.84551,0.01327
2457.78534,0.01328
2455.72516,0.01365
2453.66499,0.01411
2451.60482,0.01403
2449.54465,0.01323
2447.48447,0.01232
2445.42430,0.01218
2443.36413,0.01289
2441.30396,0.01344
2439.24379,0.01294
2437.18361,0.01197
2435.12344,0.01169
2433.06327,0.01213
2431.00310,0.01280
2428.94293,0.01316
2426.88275,0.01321
2424.82258,0.01360
2422.76241,0.01374
2420.70224,0.01295
2418.64207,0.01206
2416.58189,0.01208
2414.52172,0.01273
2412.46155,0.01325
2410.40138,0.01343
2408.34120,0.01325
2406.28103,0.01305
2404.22086,0.01305
2402.16069,0.01287
2400.10052,0.01227
2398.04034,0.01194
2395.98017,0.01200
2393.92000,0.01208
2391.85983,0.01206
2389.79966,0.01217
2387.73948,0.01256
2385.67931,0.01297
2383.61914,0.01326
2381.55897,0.01353
2379.49880,0.01347
2377.43862,0.01289
2375.37845,0.01308
2373.31828,0.01416
2371.25811,0.01465
2369.19793,0.01472
2367.13776,0.01460
2365.07759,0.01371
2363.01742,0.01221
2360.95725,0.00979
2358.89707,0.00853
2356.83690,0.00881
2354.77673,0.01075
2352.71656,0.01316
2350.65639,0.01262
2348.59621,0.01119
2346.53604,0.01256
2344.47587,0.01434
2342.41570,0.01540
2340.35552,0.01376
2338.29535,0.01076
2336.23518,0.01046
2334.17501,0.01199
2332.11484,0.01213
2330.05466,0.01095
2327.99449,0.01087
2325.93432,0.01133
2323.87415,0.01177
2321.81398,0.01230
2319.75380,0.01279
2317.69363,0.01236
2315.63346,0.01185
2313.57329,0.01214
2311.51312,0.01304
2309.45294,0.01363
2307.39277,0.01326
2305.33260,0.01237
2303.27243,0.01180
2301.21225,0.01169
2299.15208,0.01160
2297.09191,0.01197
2295.03174,0.01295
2292.97157,0.01357
2290.91139,0.01327
2288.85122,0.01259
2286.79105,0.01206
2284.73088,0.01176
2282.67071,0.01180
2280.61053,0.01186
2278.55036,0.01141
2276.49019,0.01097
2274.43002,0.01099
2272.36984,0.01107
2270.30967,0.01121
2268.24950,0.01162
2266.18933,0.01153
2264.12916,0.01045
2262.06898,0.00983
2260.00881,0.01048
2257.94864,0.01071
2255.88847,0.00973
2253.82830,0.00885
2251.76812,0.00861
2249.70795,0.00817
2247.64778,0.00764
2245.58761,0.00817
2243.52744,0.00859
2241.46726,0.00805
2239.40709,0.00835
2237.34692,0.00996
2235.28675,0.01067
2233.22657,0.00974
2231.16640,0.00972
2229.10623,0.01106
2227.04606,0.01068
2224.98589,0.00839
2222.92571,0.00790
2220.86554,0.00983
2218.80537,0.01066
2216.74520,0.00970
2214.68503,0.00927
2212.62485,0.01004
2210.56468,0.01019
2208.50451,0.00844
2206.44434,0.00658
2204.38417,0.00718
2202.32399,0.00943
2200.26382,0.01048
2198.20365,0.01056
2196.14348,0.01089
2194.08330,0.01002
2192.02313,0.00774
2189.96296,0.00632
2187.90279,0.00680
2185.84262,0.00782
2183.78244,0.00791
2181.72227,0.00815
2179.66210,0.00881
2177.60193,0.00824
2175.54176,0.00624
2173.48158,0.00483
2171.42141,0.00483
2169.36124,0.00393
2167.30107,0.00310
2165.24089,0.00575
2163.18072,0.00896
2161.12055,0.00951
2159.06038,0.00900
2157.00021,0.00698
2154.94003,0.00496
2152.87986,0.00548
2150.81969,0.00665
2148.75952,0.00615
2146.69935,0.00481
2144.63917,0.00556
2142.57900,0.00841
2140.51883,0.01004
2138.45866,0.00913
2136.39849,0.00822
2134.33831,0.00916
2132.27814,0.01041
2130.21797,0.01056
2128.15780,0.00985
2126.09762,0.00927
2124.03745,0.00997
2121.97728,0.01089
2119.91711,0.01002
2117.85694,0.00851
2115.79676,0.00813
2113.73659,0.00796
2111.67642,0.00798
2109.61625,0.00887
2107.55608,0.00878
2105.49590,0.00738
2103.43573,0.00717
2101.37556,0.00818
2099.31539,0.00895
2097.25521,0.00977
2095.19504,0.01079
2093.13487,0.01131
2091.07470,0.01119
2089.01453,0.01026
2086.95435,0.00873
2084.89418,0.00810
2082.83401,0.00879
2080.77384,0.00940
2078.71367,0.00923
2076.65349,0.00897
2074.59332,0.00891
2072.53315,0.00861
2070.47298,0.00805
2068.41281,0.00731
2066.35263,0.00648
2064.29246,0.00610
2062.23229,0.00687
2060.17212,0.00858
2058.11194,0.00981
2056.05177,0.00977
2053.99160,0.00944
2051.93143,0.00986
2049.87126,0.01025
2047.81108,0.00902
2045.75091,0.00700
2043.69074,0.00647
2041.63057,0.00737
2039.57040,0.00880
2037.51022,0.00994
2035.45005,0.00948
2033.38988,0.00856
2031.32971,0.00797
2029.26954,0.00646
2027.20936,0.00528
2025.14919,0.00565
2023.08902,0.00693
2021.02885,0.00778
2018.96867,0.00829
2016.90850,0.00953
2014.84833,0.00900
2012.78816,0.00609
2010.72799,0.00494
2008.66781,0.00729
2006.60764,0.01024
2004.54747,0.01073
2002.48730,0.00961
2000.42713,0.00892
1998.36695,0.00809
1996.30678,0.00617
1994.24661,0.00427
1992.18644,0.00399
1990.12626,0.00553
1988.06609,0.00759
1986.00592,0.00913
1983.94575,0.00971
1981.88558,0.00945
1979.82540,0.00863
1977.76523,0.00660
1975.70506,0.00539
1973.64489,0.00743
1971.58472,0.00903
1969.52454,0.00788
1967.46437,0.00650
1965.40420,0.00624
1963.34403,0.00611
1961.28386,0.00481
1959.22368,0.00255
1957.16351,0.00055
1955.10334,0.00000
1953.04317,0.00166
1950.98299,0.00425
1948.92282,0.00548
1946.86265,0.00516
1944.80248,0.00483
1942.74231,0.00533
1940.68213,0.00625
1938.62196,0.00642
1936.56179,0.00530
1934.50162,0.00392
1932.44145,0.00307
1930.38127,0.00258
1928.32110,0.00289
1926.26093,0.00432
1924.20076,0.00570
1922.14059,0.00574
1920.08041,0.00521
1918.02024,0.00546
1915.96007,0.00647
1913.89990,0.00679
1911.83972,0.00579
1909.77955,0.00480
1907.71938,0.00434
1905.65921,0.00382
1903.59904,0.00364
1901.53886,0.00394
1899.47869,0.00434
1897.41852,0.00487
1895.35835,0.00527
1893.29818,0.00534
1891.23800,0.00544
1889.17783,0.00578
1887.11766,0.00617
1885.05749,0.00596
1882.99731,0.00484
1880.93714,0.00370
1878.87697,0.00351
1876.81680,0.00410
1874.75663,0.00468
1872.69645,0.00497
1870.63628,0.00519
1868.57611,0.00550
1866.51594,0.00569
1864.45577,0.00542
1862.39559,0.00486
1860.33542,0.00447
1858.27525,0.00426
1856.21508,0.00389
1854.15491,0.00331
1852.09473,0.00272
1850.03456,0.00234
1847.97439,0.00225
1845.91422,0.00241
1843.85404,0.00276
1841.79387,0.00308
1839.73370,0.00320
1837.67353,0.00315
1835.61336,0.00308
1833.55318,0.00314
1831.49301,0.00312
1829.43284,0.00285
1827.37267,0.00264
1825.31250,0.00264
1823.25232,0.00271
1821.19215,0.00273
1819.13198,0.00256
1817.07181,0.00206
1815.01163,0.00154
1812.95146,0.00136
1810.89129,0.00157
1808.83112,0.00195
1806.77095,0.00228
1804.71077,0.00242
1802.65060,0.00217
1800.59043,0.00160
1798.53026,0.00117
1796.47009,0.00129
1794.40991,0.00157
1792.34974,0.00146
1790.28957,0.00115
1788.22940,0.00094
1786.16923,0.00077
1784.10905,0.00061
1782.04888,0.00044
1779.98871,0.00020
1777.92854,0.00000
1775.86836,-0.00005
1773.80819,0.00012
1771.74802,0.00036
1769.68785,0.00051
1767.62768,0.00058
1765.56750,0.00066
1763.50733,0.00063
1761.44716,0.00052
1759.38699,0.00092
1757.32682,0.00205
1755.26664,0.00318
1753.20647,0.00377
1751.14630,0.00432
1749.08613,0.00533
1747.02596,0.00650
1744.96578,0.00757
1742.90561,0.00846
1740.84544,0.00925
1738.78527,0.01025
1736.72509,0.01130
1734.66492,0.01175
1732.60475,0.01143
1730.54458,0.01110
1728.48441,0.01124
1726.42423,0.01169
1724.36406,0.01206
1722.30389,0.01212
1720.24372,0.01200
1718.18355,0.01202
1716.12337,0.01243
1714.06320,0.01302
1712.00303,0.01351
1709.94286,0.01371
1707.88268,0.01359
1705.82251,0.01317
1703.76234,0.01255
1701.70217,0.01198
1699.64200,0.01149
1697.58182,0.01123
1695.52165,0.01154
1693.46148,0.01225
1691.40131,0.01302
1689.34114,0.01382
1687.28096,0.01474
1685.22079,0.01601
1683.16062,0.01787
1681.10045,0.01989
1679.04028,0.02193
1676.98010,0.02367
1674.91993,0.02461
1672.85976,0.02478
1670.79959,0.02447
1668.73941,0.02411
1666.67924,0.02418
1664.61907,0.02458
1662.55890,0.02468
1660.49873,0.02412
1658.43855,0.02350
1656.37838,0.02327
1654.31821,0.02309
1652.25804,0.02257
1650.19787,0.02215
1648.13769,0.02195
1646.07752,0.02166
1644.01735,0.02157
1641.95718,0.02211
1639.89701,0.02316
1637.83683,0.02422
1635.77666,0.02494
1633.71649,0.02533
1631.65632,0.02553
1629.59614,0.02567
1627.53597,0.02601
1625.47580,0.02660
1623.41563,0.02711
1621.35546,0.02749
1619.29528,0.02778
1617.23511,0.02793
1615.17494,0.02832
1613.11477,0.02920
1611.05460,0.03044
1608.99442,0.03185
1606.93425,0.03297
1604.87408,0.03341
1602.81391,0.03314
1600.75373,0.03219
1598.69356,0.03082
1596.63339,0.02954
1594.57322,0.02855
1592.51305,0.02776
1590.45287,0.02694
1588.39270,0.02595
1586.33253,0.02494
1584.27236,0.02427
1582.21219,0.02400
1580.15201,0.02392
1578.09184,0.02359
1576.03167,0.02245
1573.97150,0.02099
1571.91133,0.02008
1569.85115,0.01957
1567.79098,0.01906
1565.73081,0.01847
1563.67064,0.01809
1561.61046,0.01798
1559.55029,0.01721
1557.49012,0.01536
1555.42995,0.01411
1553.36978,0.01372
1551.30960,0.01356
1549.24943,0.01321
1547.18926,0.01265
1545.12909,0.01232
1543.06892,0.01249
1541.00874,0.01242
1538.94857,0.01123
1536.88840,0.00999
1534.82823,0.00925
1532.76805,0.00859
1530.70788,0.00804
1528.64771,0.00770
1526.58754,0.00734
1524.52737,0.00721
1522.46719,0.00804
1520.40702,0.00969
1518.34685,0.01081
1516.28668,0.01110
1514.22651,0.01137
1512.16633,0.01163
1510.10616,0.01119
1508.04599,0.00973
1505.98582,0.00781
1503.92565,0.00663
1501.86547,0.00606
1499.80530,0.00528
1497.74513,0.00413
1495.68496,0.00323
1493.62478,0.00290
1491.56461,0.00276
1489.50444,0.00226
1487.44427,0.00134
1485.38410,0.00055
1483.32392,0.00038
1481.26375,0.00094
1479.20358,0.00175
1477.14341,0.00242
1475.08324,0.00322
1473.02306,0.00458
1470.96289,0.00617
1468.90272,0.00766
1466.84255,0.00916
1464.78238,0.01066
1462.72220,0.01179
1460.66203,0.01247
1458.60186,0.01312
1456.54169,0.01397
1454.48151,0.01474
1452.42134,0.01530
1450.36117,0.01584
1448.30100,0.01659
1446.24083,0.01770
1444.18065,0.01893
1442.12048,0.01982
1440.06031,0.02029
1438.00014,0.02080
1435.93997,0.02156
1433.87979,0.02200
1431.81962,0.02186
1429.75945,0.02153
1427.69928,0.02134
1425.63910,0.02130
1423.57893,0.02131
1421.51876,0.02130
1419.45859,0.02146
1417.39842,0.02162
1415.33824,0.02154
1413.27807,0.02132
1411.21790,0.02092
1409.15773,0.02038
1407.09756,0.01995
1405.03738,0.01955
1402.97721,0.01900
1400.91704,0.01834
1398.85687,0.01765
1396.79670,0.01700
1394.73652,0.01647
1392.67635,0.01620
1390.61618,0.01633
1388.55601,0.01679
1386.49583,0.01731
1384.43566,0.01774
1382.37549,0.01829
1380.31532,0.01894
1378.25515,0.01942
1376.19497,0.01973
1374.13480,0.02005
1372.07463,0.02043
1370.01446,0.02070
1367.95429,0.02065
1365.89411,0.02018
1363.83394,0.01964
1361.77377,0.01934
1359.71360,0.01926
1357.65343,0.01925
1355.59325,0.01919
1353.53308,0.01896
1351.47291,0.01856
1349.41274,0.01825
1347.35256,0.01827
1345.29239,0.01843
1343.23222,0.01853
1341.17205,0.01866
1339.11188,0.01881
1337.05170,0.01870
1334.99153,0.01834
1332.93136,0.01814
1330.87119,0.01823
1328.81102,0.01840
1326.75084,0.01866
1324.69067,0.01887
1322.63050,0.01876
1320.57033,0.01861
1318.51015,0.01879
1316.44998,0.01910
1314.38981,0.01927
1312.32964,0.01919
1310.26947,0.01870
1308.20929,0.01785
1306.14912,0.01696
1304.08895,0.01624
1302.02878,0.01560
1299.96861,0.01505
1297.90843,0.01466
1295.84826,0.01447
1293.78809,0.01461
1291.72792,0.01492
1289.66775,0.01520
1287.60757,0.01545
1285.54740,0.01573
1283.48723,0.01606
1281.42706,0.01643
1279.36688,0.01663
1277.30671,0.01640
1275.24654,0.01602
1273.18637,0.01605
1271.12620,0.01645
1269.06602,0.01678
1267.00585,0.01710
1264.94568,0.01771
1262.88551,0.01848
1260.82534,0.01933
1258.76516,0.02001
1256.70499,0.02032
1254.64482,0.02071
1252.58465,0.02146
1250.52447,0.02207
1248.46430,0.02220
1246.40413,0.02226
1244.34396,0.02246
1242.28379,0.02270
1240.22361,0.02293
1238.16344,0.02291
1236.10327,0.02248
1234.04310,0.02185
1231.98293,0.02124
1229.92275,0.02058
1227.86258,0.01989
1225.80241,0.01929
1223.74224,0.01862
1221.68207,0.01753
1219.62189,0.01616
1217.56172,0.01497
1215.50155,0.01405
1213.44138,0.01318
1211.38120,0.01226
1209.32103,0.01144
1207.26086,0.01077
1205.20069,0.00996
1203.14052,0.00882
1201.08034,0.00744
1199.02017,0.00587
1196.96000,0.00434
1194.89983,0.00313
1192.83966,0.00210
1190.77948,0.00121
1188.71931,0.00067
1186.65914,0.00034
1184.59897,0.00000
1182.53880,-0.00013
1180.47862,0.00022
1178.41845,0.00079
1176.35828,0.00128
1174.29811,0.00192
1172.23793,0.00340
1170.17776,0.00557
1168.11759,0.00756
1166.05742,0.00904
1163.99725,0.00997
1161.93707,0.01025
1159.87690,0.01033
1157.81673,0.01049
1155.75656,0.01049
1153.69639,0.01082
1151.63621,0.01190
1149.57604,0.01327
1147.51587,0.01429
1145.45570,0.01470
1143.39552,0.01507
1141.33535,0.01592
1139.27518,0.01695
1137.21501,0.01793
1135.15484,0.01857
1133.09466,0.01875
1131.03449,0.01922
1128.97432,0.02016
1126.91415,0.02120
1124.85398,0.02214
1122.79380,0.02289
1120.73363,0.02385
1118.67346,0.02522
1116.61329,0.02660
1114.55312,0.02789
1112.49294,0.02923
1110.43277,0.03056
1108.37260,0.03163
1106.31243,0.03238
1104.25225,0.03315
1102.19208,0.03422
1100.13191,0.03563
1098.07174,0.03699
1096.01157,0.03833
1093.95139,0.04004
1091.89122,0.04169
1089.83105,0.04311
1087.77088,0.04466
1085.71071,0.04619
1083.65053,0.04784
1081.59036,0.04990
1079.53019,0.05184
1077.47002,0.05351
1075.40985,0.05536
1073.34967,0.05733
1071.28950,0.05898
1069.22933,0.06052
1067.16916,0.06250
1065.10898,0.06423
1063.04881,0.06508
1060.98864,0.06609
1058.92847,0.06769
1056.86830,0.06916
1054.80812,0.07057
1052.74795,0.07216
1050.68778,0.07386
1048.62761,0.07549
1046.56744,0.07735
1044.50726,0.07960
1042.44709,0.08170
1040.38692,0.08341
1038.32675,0.08458
1036.26657,0.08580
1034.20640,0.08752
1032.14623,0.08869
1030.08606,0.08834
1028.02589,0.08726
1025.96571,0.08684
1023.90554,0.08710
1021.84537,0.08704
1019.78520,0.08633
1017.72503,0.08542
1015.66485,0.08480
1013.60468,0.08479
1011.54451,0.08527
1009.48434,0.08570
1007.42417,0.08566
1005.36399,0.08533
1003.30382,0.08489
1001.24365,0.08413
999.18348,0.08317
997.12330,0.08220
995.06313,0.08104
993.00296,0.07948
990.94279,0.07749
988.88262,0.07576
986.82244,0.07458
984.76227,0.07347
982.70210,0.07238
980.64193,0.07108
978.58176,0.06950
976.52158,0.06805
974.46141,0.06675
972.40124,0.06549
970.34107,0.06432
968.28089,0.06309
966.22072,0.06169
964.16055,0.06009
962.10038,0.05849
960.04021,0.05699
957.98003,0.05525
955.91986,0.05340
953.85969,0.05187
951.79952,0.05081
949.73935,0.05009
947.67917,0.04899
945.61900,0.04689
943.55883,0.04461
941.49866,0.04299
939.43849,0.04143
937.37831,0.03932
935.31814,0.03668
933.25797,0.03424
931.19780,0.03260
929.13762,0.03089
927.07745,0.02859
925.01728,0.02624
922.95711,0.02426
920.89694,0.02302
918.83676,0.02282
916.77659,0.02311
914.71642,0.02233
912.65625,0.02028
910.59608,0.01827
908.53590,0.01661
906.47573,0.01530
904.41556,0.01445
902.35539,0.01394
900.29522,0.01417
898.23504,0.01475
896.17487,0.01450
894.11470,0.01389
892.05453,0.01409
889.99435,0.01459
887.93418,0.01418
885.87401,0.01317
883.81384,0.01216
881.75367,0.01080
879.69349,0.00962
877.63332,0.00935
875.57315,0.00925
873.51298,0.00876
871.45281,0.00835
869.39263,0.00787
867.33246,0.00723
865.27229,0.00707
863.21212,0.00721
861.15194,0.00740
859.09177,0.00777
857.03160,0.00776
854.97143,0.00737
852.91126,0.00726
850.85108,0.00674
848.79091,0.00602
846.73074,0.00605
844.67057,0.00625
842.61040,0.00646
840.55022,0.00655
838.49005,0.00609
836.42988,0.00546
834.36971,0.00575
832.30954,0.00695
830.24936,0.00761
828.18919,0.00691
826.12902,0.00524
824.06885,0.00425
822.00867,0.00451
819.94850,0.00449
817.88833,0.00362
815.82816,0.00292
813.76799,0.00280
811.70781,0.00269
809.64764,0.00266
807.58747,0.00280
805.52730,0.00267
803.46713,0.00225
801.40695,0.00194
799.34678,0.00204
797.28661,0.00219
795.22644,0.00176
793.16627,0.00124
791.10609,0.00137
789.04592,0.00161
786.98575,0.00186
784.92558,0.00279
782.86540,0.00383
780.80523,0.00338
778.74506,0.00230
776.68489,0.00258
774.62472,0.00329
772.56454,0.00315
770.50437,0.00264
768.44420,0.00236
766.38403,0.00209
764.32386,0.00162
762.26368,0.00126
760.20351,0.00156
758.14334,0.00260
756.08317,0.00342
754.02299,0.00364
751.96282,0.00371
749.90265,0.00387
747.84248,0.00380
745.78231,0.00348
743.72213,0.00392
741.66196,0.00456
739.60179,0.00379
737.54162,0.00163
735.48145,0.00000
733.42127,0.00072
731.36110,0.00319
729.30093,0.00400
727.24076,0.00329
725.18059,0.00328
723.12041,0.00363
721.06024,0.00432
719.00007,0.00473
716.93990,0.00493
714.87972,0.00504
712.81955,0.00470
710.75938,0.00425
708.69921,0.00420
706.63904,0.00461
704.57886,0.00568
702.51869,0.00717
700.45852,0.00801
698.39835,0.00725
696.33818,0.00549
694.27800,0.00442
692.21783,0.00444
690.15766,0.00504
688.09749,0.00649
686.03731,0.00785
683.97714,0.00743
681.91697,0.00581
679.85680,0.00416
677.79663,0.00276
675.73645,0.00225
673.67628,0.00287
671.61611,0.00496
669.55594,0.01088
667.49577,0.01431
665.43559,0.00840
663.37542,0.00508
661.31525,0.00497
659.25508,0.00580
657.19491,0.00551
655.13473,0.00454
653.07456,0.00404
651.01439,0.00376
648.95422,0.00361
646.89404,0.00342
644.83387,0.00385
642.77370,0.00563
640.71353,0.00781
638.65336,0.00825
636.59318,0.00587
634.53301,0.00295
632.47284,0.00321
630.41267,0.00539
628.35250,0.00532
626.29232,0.00260
624.23215,0.00065
622.17198,-0.00053
620.11181,-0.00198
618.05164,-0.00141
615.99146,0.00278
613.93129,0.00863
611.87112,0.01097
609.81095,0.00745
607.75077,0.00423
605.69060,0.00203
603.63043,-0.00227
601.57026,-0.00407
599.51009,0.00000
