3996.73391,0.00052
3994.67373,0.00025
3992.61356,0.00007
3990.55339,0.00000
3988.49322,0.00023
3986.43305,0.00045
3984.37287,0.00038
3982.31270,0.00017
3980.25253,0.00019
3978.19236,0.00039
3976.13219,0.00052
3974.07201,0.00056
3972.01184,0.00052
3969.95167,0.00058
3967.89150,0.00082
3965.83133,0.00091
3963.77115,0.00068
3961.71098,0.00049
3959.65081,0.00060
3957.59064,0.00065
3955.53046,0.00061
3953.47029,0.00081
3951.41012,0.00123
3949.34995,0.00149
3947.28978,0.00146
3945.22960,0.00093
3943.16943,0.00031
3941.10926,0.00057
3939.04909,0.00106
3936.98892,0.00101
3934.92874,0.00055
3932.86857,0.00019
3930.80840,0.00075
3928.74823,0.00173
3926.68805,0.00182
3924.62788,0.00149
3922.56771,0.00177
3920.50754,0.00195
3918.44737,0.00168
3916.38719,0.00163
3914.32702,0.00194
3912.26685,0.00189
3910.20668,0.00171
3908.14651,0.00182
3906.08633,0.00180
3904.02616,0.00179
3901.96599,0.00179
3899.90582,0.00137
3897.84565,0.00180
3895.78547,0.00272
3893.72530,0.00250
3891.66513,0.00188
3889.60496,0.00229
3887.54478,0.00201
3885.48461,0.00133
3883.42444,0.00157
3881.36427,0.00103
3879.30410,0.00132
3877.24392,0.00229
3875.18375,0.00188
3873.12358,0.00153
3871.06341,0.00146
3869.00324,0.00203
3866.94306,0.00217
3864.88289,0.00071
3862.82272,0.00080
3860.76255,0.00261
3858.70237,0.00376
3856.64220,0.00282
3854.58203,0.00020
3852.52186,0.00000
3850.46169,0.00228
3848.40151,0.00338
3846.34134,0.00328
3844.28117,0.00296
3842.22100,0.00272
3840.16083,0.00186
3838.10065,0.00104
3836.04048,0.00144
3833.98031,0.00184
3831.92014,0.00204
3829.85997,0.00259
3827.79979,0.00269
3825.73962,0.00283
3823.67945,0.00229
3821.61928,0.00091
3819.55910,0.00186
3817.49893,0.00224
3815.43876,0.00138
3813.37859,0.00186
3811.31842,0.00219
3809.25824,0.00134
3807.19807,0.00073
3805.13790,0.00146
3803.07773,0.00083
3801.01756,0.00026
3798.95738,0.00144
3796.89721,0.00158
3794.83704,0.00167
3792.77687,0.00200
3790.71670,0.00187
3788.65652,0.00164
3786.59635,0.00124
3784.53618,0.00122
3782.47601,0.00182
3780.41583,0.00163
3778.35566,0.00129
3776.29549,0.00188
3774.23532,0.00261
3772.17515,0.00260
3770.11497,0.00212
3768.05480,0.00206
3765.99463,0.00190
3763.93446,0.00199
3761.87429,0.00146
3759.81411,0.00031
3757.75394,0.00097
3755.69377,0.00286
3753.63360,0.00293
3751.57342,0.00153
3749.51325,0.00192
3747.45308,0.00250
3745.39291,0.00065
3743.33274,0.00042
3741.27256,0.00209
3739.21239,0.00231
3737.15222,0.00124
3735.09205,0.00078
3733.03188,0.00152
3730.97170,0.00254
3728.91153,0.00294
3726.85136,0.00249
3724.79119,0.00214
3722.73102,0.00160
3720.67084,0.00114
3718.61067,0.00140
3716.55050,0.00215
3714.49033,0.00206
3712.43015,0.00088
3710.36998,0.00057
3708.30981,0.00135
3706.24964,0.00211
3704.18947,0.00216
3702.12929,0.00163
3700.06912,0.00140
3698.00895,0.00147
3695.94878,0.00189
3693.88861,0.00236
3691.82843,0.00184
3689.76826,0.00076
3687.70809,0.00090
3685.64792,0.00184
3683.58775,0.00207
3681.52757,0.00182
3679.46740,0.00157
3677.40723,0.00065
3675.34706,0.00052
3673.28688,0.00244
3671.22671,0.00178
3669.16654,0.00048
3667.10637,0.00123
3665.04620,0.00149
3662.98602,0.00109
3660.92585,0.00105
3658.86568,0.00096
3656.80551,0.00091
3654.74534,0.00214
3652.68516,0.00260
3650.62499,0.00103
3648.56482,0.00000
3646.50465,0.00056
3644.44447,0.00130
3642.38430,0.00127
3640.32413,0.00136
3638.26396,0.00206
3636.20379,0.00276
3634.14361,0.00295
3632.08344,0.00258
3630.02327,0.00138
3627.96310,0.00159
3625.90293,0.00317
3623.84275,0.00345
3621.78258,0.00259
3619.72241,0.00225
3617.66224,0.00328
3615.60207,0.00362
3613.54189,0.00313
3611.48172,0.00344
3609.42155,0.00361
3607.36138,0.00344
3605.30120,0.00383
3603.24103,0.00413
3601.18086,0.00394
3599.12069,0.00376
3597.06052,0.00350
3595.00034,0.00338
3592.94017,0.00413
3590.88000,0.00507
3588.81983,0.00500
3586.75966,0.00508
3584.69948,0.00585
3582.63931,0.00585
3580.57914,0.00535
3578.51897,0.00538
3576.45879,0.00602
3574.39862,0.00682
3572.33845,0.00749
3570.27828,0.00772
3568.21811,0.00757
3566.15793,0.00801
3564.09776,0.00877
3562.03759,0.00893
3559.97742,0.00907
3557.91725,0.00957
3555.85707,0.00991
3553.79690,0.00989
3551.73673,0.01009
3549.67656,0.01042
3547.61639,0.01039
3545.55621,0.01070
3543.49604,0.01147
3541.43587,0.01179
3539.37570,0.01165
3537.31552,0.01175
3535.25535,0.01234
3533.19518,0.01300
3531.13501,0.01340
3529.07484,0.01365
3527.01466,0.01394
3524.95449,0.01423
3522.89432,0.01436
3520.83415,0.01447
3518.77398,0.01452
3516.71380,0.01486
3514.65363,0.01562
3512.59346,0.01622
3510.53329,0.01615
3508.47312,0.01620
3506.41294,0.01708
3504.35277,0.01804
3502.29260,0.01856
3500.23243,0.01867
3498.17225,0.01867
3496.11208,0.01907
3494.05191,0.01964
3491.99174,0.01987
3489.93157,0.02009
3487.87139,0.02084
3485.81122,0.02173
3483.75105,0.02175
3481.69088,0.02131
3479.63071,0.02173
3477.57053,0.02257
3475.51036,0.02271
3473.45019,0.02245
3471.39002,0.02264
3469.32984,0.02323
3467.26967,0.02394
3465.20950,0.02452
3463.14933,0.02458
3461.08916,0.02452
3459.02898,0.02468
3456.96881,0.02489
3454.90864,0.02540
3452.84847,0.02611
3450.78830,0.02659
3448.72812,0.02674
3446.66795,0.02694
3444.60778,0.02758
3442.54761,0.02843
3440.48744,0.02933
3438.42726,0.02971
3436.36709,0.02938
3434.30692,0.02899
3432.24675,0.02908
3430.18657,0.02951
3428.12640,0.03006
3426.06623,0.03054
3424.00606,0.03059
3421.94589,0.03032
3419.88571,0.03078
3417.82554,0.03195
3415.76537,0.03256
3413.70520,0.03240
3411.64503,0.03224
3409.58485,0.03247
3407.52468,0.03270
3405.46451,0.03293
3403.40434,0.03343
3401.34416,0.03385
3399.28399,0.03405
3397.22382,0.03423
3395.16365,0.03407
3393.10348,0.03383
3391.04330,0.03444
3388.98313,0.03529
3386.92296,0.03556
3384.86279,0.03570
3382.80262,0.03602
3380.74244,0.03618
3378.68227,0.03618
3376.62210,0.03619
3374.56193,0.03613
3372.50176,0.03626
3370.44158,0.03684
3368.38141,0.03770
3366.32124,0.03854
3364.26107,0.03890
3362.20089,0.03879
3360.14072,0.03874
3358.08055,0.03869
3356.02038,0.03858
3353.96021,0.03859
3351.90003,0.03843
3349.83986,0.03813
3347.77969,0.03818
3345.71952,0.03863
3343.65935,0.03892
3341.59917,0.03891
3339.53900,0.03901
3337.47883,0.03912
3335.41866,0.03916
3333.35849,0.03950
3331.29831,0.03998
3329.23814,0.04024
3327.17797,0.04014
3325.11780,0.03982
3323.05762,0.03965
3320.99745,0.03973
3318.93728,0.03987
3316.87711,0.04012
3314.81694,0.04024
3312.75676,0.04013
3310.69659,0.04032
3308.63642,0.04079
3306.57625,0.04081
3304.51608,0.04020
3302.45590,0.03985
3300.39573,0.04022
3298.33556,0.04075
3296.27539,0.04111
3294.21521,0.04124
3292.15504,0.04104
3290.09487,0.04089
3288.03470,0.04077
3285.97453,0.04042
3283.91435,0.04027
3281.85418,0.04031
3279.79401,0.04035
3277.73384,0.04074
3275.67367,0.04137
3273.61349,0.04162
3271.55332,0.04124
3269.49315,0.04063
3267.43298,0.04047
3265.37281,0.04076
3263.31263,0.04103
3261.25246,0.04109
3259.19229,0.04107
3257.13212,0.04098
3255.07194,0.04066
3253.01177,0.04050
3250.95160,0.04068
3248.89143,0.04079
3246.83126,0.04073
3244.77108,0.04058
3242.71091,0.04024
3240.65074,0.04004
3238.59057,0.04036
3236.53040,0.04075
3234.47022,0.04073
3232.41005,0.04037
3230.34988,0.03983
3228.28971,0.03918
3226.22954,0.03885
3224.16936,0.03906
3222.10919,0.03944
3220.04902,0.03965
3217.98885,0.03969
3215.92867,0.03941
3213.86850,0.03906
3211.80833,0.03915
3209.74816,0.03931
3207.68799,0.03918
3205.62781,0.03877
3203.56764,0.03821
3201.50747,0.03801
3199.44730,0.03826
3197.38713,0.03829
3195.32695,0.03792
3193.26678,0.03777
3191.20661,0.03818
3189.14644,0.03860
3187.08626,0.03846
3185.02609,0.03799
3182.96592,0.03761
3180.90575,0.03733
3178.84558,0.03700
3176.78540,0.03661
3174.72523,0.03611
3172.66506,0.03579
3170.60489,0.03590
3168.54472,0.03620
3166.48454,0.03654
3164.42437,0.03654
3162.36420,0.03593
3160.30403,0.03510
3158.24386,0.03459
3156.18368,0.03432
3154.12351,0.03399
3152.06334,0.03369
3150.00317,0.03355
3147.94299,0.03344
3145.88282,0.03340
3143.82265,0.03330
3141.76248,0.03292
3139.70231,0.03283
3137.64213,0.03311
3135.58196,0.03296
3133.52179,0.03245
3131.46162,0.03219
3129.40145,0.03219
3127.34127,0.03226
3125.28110,0.03202
3123.22093,0.03136
3121.16076,0.03076
3119.10058,0.03044
3117.04041,0.03035
3114.98024,0.03053
3112.92007,0.03068
3110.85990,0.03026
3108.79972,0.02948
3106.73955,0.02903
3104.67938,0.02897
3102.61921,0.02908
3100.55904,0.02929
3098.49886,0.02916
3096.43869,0.02878
3094.37852,0.02877
3092.31835,0.02865
3090.25818,0.02817
3088.19800,0.02803
3086.13783,0.02823
3084.07766,0.02809
3082.01749,0.02753
3079.95731,0.02704
3077.89714,0.02691
3075.83697,0.02704
3073.77680,0.02713
3071.71663,0.02699
3069.65645,0.02654
3067.59628,0.02598
3065.53611,0.02567
3063.47594,0.02565
3061.41577,0.02557
3059.35559,0.02522
3057.29542,0.02484
3055.23525,0.02476
3053.17508,0.02493
3051.11491,0.02508
3049.05473,0.02499
3046.99456,0.02465
3044.93439,0.02422
3042.87422,0.02376
3040.81404,0.02357
3038.75387,0.02374
3036.69370,0.02383
3034.63353,0.02361
3032.57336,0.02318
3030.51318,0.02275
3028.45301,0.02232
3026.39284,0.02199
3024.33267,0.02206
3022.27250,0.02222
3020.21232,0.02215
3018.15215,0.02183
3016.09198,0.02126
3014.03181,0.02085
3011.97163,0.02075
3009.91146,0.02062
3007.85129,0.02053
3005.79112,0.02047
3003.73095,0.02034
3001.67077,0.02035
2999.61060,0.02057
2997.55043,0.02054
2995.49026,0.02017
2993.43009,0.02005
2991.36991,0.02010
2989.30974,0.01995
2987.24957,0.01992
2985.18940,0.02016
2983.12923,0.02030
2981.06905,0.02033
2979.00888,0.02042
2976.94871,0.02044
2974.88854,0.02051
2972.82836,0.02081
2970.76819,0.02121
2968.70802,0.02174
2966.64785,0.02265
2964.58768,0.02387
2962.52750,0.02502
2960.46733,0.02601
2958.40716,0.02696
2956.34699,0.02794
2954.28682,0.02899
2952.22664,0.03023
2950.16647,0.03178
2948.10630,0.03332
2946.04613,0.03468
2943.98596,0.03634
2941.92578,0.03836
2939.86561,0.04008
2937.80544,0.04164
2935.74527,0.04375
2933.68509,0.04608
2931.62492,0.04793
2929.56475,0.04948
2927.50458,0.05095
2925.44441,0.05208
2923.38423,0.05310
2921.32406,0.05432
2919.26389,0.05545
2917.20372,0.05583
2915.14355,0.05489
2913.08337,0.05294
2911.02320,0.05076
2908.96303,0.04872
2906.90286,0.04689
2904.84268,0.04534
2902.78251,0.04433
2900.72234,0.04360
2898.66217,0.04246
2896.60200,0.04102
2894.54182,0.03977
2892.48165,0.03881
2890.42148,0.03800
2888.36131,0.03745
2886.30114,0.03714
2884.24096,0.03674
2882.18079,0.03629
2880.12062,0.03578
2878.06045,0.03531
2876.00028,0.03518
2873.94010,0.03507
2871.87993,0.03480
2869.81976,0.03501
2867.75959,0.03582
2865.69941,0.03668
2863.63924,0.03734
2861.57907,0.03814
2859.51890,0.03944
2857.45873,0.04100
2855.39855,0.04263
2853.33838,0.04431
2851.27821,0.04558
2849.21804,0.04550
2847.15787,0.04371
2845.09769,0.04106
2843.03752,0.03846
2840.97735,0.03611
2838.91718,0.03418
2836.85700,0.03276
2834.79683,0.03162
2832.73666,0.03061
2830.67649,0.02988
2828.61632,0.02950
2826.55614,0.02913
2824.49597,0.02847
2822.43580,0.02781
2820.37563,0.02712
2818.31546,0.02639
2816.25528,0.02592
2814.19511,0.02572
2812.13494,0.02558
2810.07477,0.02554
2808.01460,0.02558
2805.95442,0.02536
2803.89425,0.02499
2801.83408,0.02476
2799.77391,0.02445
2797.71373,0.02415
2795.65356,0.02396
2793.59339,0.02371
2791.53322,0.02341
2789.47305,0.02312
2787.41287,0.02296
2785.35270,0.02286
2783.29253,0.02257
2781.23236,0.02222
2779.17219,0.02203
2777.11201,0.02217
2775.05184,0.02248
2772.99167,0.02239
2770.93150,0.02188
2768.87133,0.02136
2766.81115,0.02130
2764.75098,0.02170
2762.69081,0.02178
2760.63064,0.02138
2758.57046,0.02095
2756.51029,0.02073
2754.45012,0.02086
2752.38995,0.02105
2750.32978,0.02098
2748.26960,0.02080
2746.20943,0.02073
2744.14926,0.02077
2742.08909,0.02093
2740.02892,0.02111
2737.96874,0.02093
2735.90857,0.02055
2733.84840,0.02054
2731.78823,0.02081
2729.72805,0.02092
2727.66788,0.02085
2725.60771,0.02067
2723.54754,0.02043
2721.48737,0.02017
2719.42719,0.02000
2717.36702,0.01994
2715.30685,0.01987
2713.24668,0.01993
2711.18651,0.02026
2709.12633,0.02040
2707.06616,0.01994
2705.00599,0.01937
2702.94582,0.01928
2700.88565,0.01937
2698.82547,0.01921
2696.76530,0.01898
2694.70513,0.01900
2692.64496,0.01905
2690.58478,0.01902
2688.52461,0.01912
2686.46444,0.01938
2684.40427,0.01957
2682.34410,0.01943
2680.28392,0.01905
2678.22375,0.01882
2676.16358,0.01881
2674.10341,0.01884
2672.04324,0.01898
2669.98306,0.01902
2667.92289,0.01872
2665.86272,0.01854
2663.80255,0.01870
2661.74238,0.01889
2659.68220,0.01886
2657.62203,0.01867
2655.56186,0.01849
2653.50169,0.01844
2651.44151,0.01855
2649.38134,0.01873
2647.32117,0.01877
2645.26100,0.01852
2643.20083,0.01824
2641.14065,0.01813
2639.08048,0.01790
2637.02031,0.01757
2634.96014,0.01732
2632.89997,0.01716
2630.83979,0.01709
2628.77962,0.01704
2626.71945,0.01709
2624.65928,0.01733
2622.59910,0.01744
2620.53893,0.01733
2618.47876,0.01713
2616.41859,0.01689
2614.35842,0.01678
2612.29824,0.01679
2610.23807,0.01694
2608.17790,0.01706
2606.11773,0.01678
2604.05756,0.01646
2601.99738,0.01645
2599.93721,0.01640
2597.87704,0.01627
2595.81687,0.01625
2593.75670,0.01607
2591.69652,0.01577
2589.63635,0.01589
2587.57618,0.01620
2585.51601,0.01596
2583.45583,0.01532
2581.39566,0.01493
2579.33549,0.01517
2577.27532,0.01558
2575.21515,0.01555
2573.15497,0.01525
2571.09480,0.01510
2569.03463,0.01513
2566.97446,0.01520
2564.91429,0.01526
2562.85411,0.01515
2560.79394,0.01471
2558.73377,0.01436
2556.67360,0.01435
2554.61342,0.01453
2552.55325,0.01496
2550.49308,0.01515
2548.43291,0.01454
2546.37274,0.01373
2544.31256,0.01345
2542.25239,0.01388
2540.19222,0.01434
2538.13205,0.01430
2536.07188,0.01426
2534.01170,0.01442
2531.95153,0.01452
2529.89136,0.01437
2527.83119,0.01373
2525.77102,0.01292
2523.71084,0.01256
2521.65067,0.01296
2519.59050,0.01373
2517.53033,0.01406
2515.47015,0.01413
2513.40998,0.01433
2511.34981,0.01420
2509.28964,0.01363
2507.22947,0.01308
2505.16929,0.01256
2503.10912,0.01221
2501.04895,0.01271
2498.98878,0.01367
2496.92861,0.01396
2494.86843,0.01364
2492.80826,0.01332
2490.74809,0.01301
2488.68792,0.01284
2486.62775,0.01271
2484.56757,0.01268
2482.50740,0.01283
2480.44723,0.01261
2478.38706,0.01248
2476.32688,0.01292
2474.26671,0.01300
2472.20654,0.01249
2470.14637,0.01218
2468.08620,0.01227
2466.02602,0.01226
2463.96585,0.01211
2461.90568,0.01201
2459.84551,0.01203
2457.78534,0.01240
2455.72516,0.01286
2453.66499,0.01302
2451.60482,0.01273
2449.54465,0.01187
2447.48447,0.01147
2445.42430,0.01189
2443.36413,0.01224
2441.30396,0.01223
2439.24379,0.01170
2437.18361,0.01079
2435.12344,0.01034
2433.06327,0.01078
2431.00310,0.01183
2428.94293,0.01252
2426.88275,0.01251
2424.82258,0.01239
2422.76241,0.01206
2420.70224,0.01152
2418.64207,0.01124
2416.58189,0.01136
2414.52172,0.01150
2412.46155,0.01141
2410.40138,0.01143
2408.34120,0.01151
2406.28103,0.01121
2404.22086,0.01082
2402.16069,0.01079
2400.10052,0.01068
2398.04034,0.01050
2395.98017,0.01081
2393.92000,0.01132
2391.85983,0.01149
2389.79966,0.01156
2387.73948,0.01197
2385.67931,0.01256
2383.61914,0.01281
2381.55897,0.01264
2379.49880,0.01231
2377.43862,0.01223
2375.37845,0.01239
2373.31828,0.01275
2371.25811,0.01340
2369.19793,0.01383
2367.13776,0.01390
2365.07759,0.01445
2363.01742,0.01451
2360.95725,0.01368
2358.89707,0.01062
2356.83690,0.00940
2354.77673,0.01063
2352.71656,0.01147
2350.65639,0.01370
2348.59621,0.01533
2346.53604,0.01304
2344.47587,0.01280
2342.41570,0.01304
2340.35552,0.01251
2338.29535,0.01173
2336.23518,0.01104
2334.17501,0.01145
2332.11484,0.01166
2330.05466,0.01112
2327.99449,0.01043
2325.93432,0.01061
2323.87415,0.01048
2321.81398,0.01076
2319.75380,0.01068
2317.69363,0.01041
2315.63346,0.01017
2313.57329,0.01063
2311.51312,0.01160
2309.45294,0.01223
2307.39277,0.01212
2305.33260,0.01146
2303.27243,0.01097
2301.21225,0.01085
2299.15208,0.01105
2297.09191,0.01120
2295.03174,0.01127
2292.97157,0.01140
2290.91139,0.01133
2288.85122,0.01094
2286.79105,0.01053
2284.73088,0.01019
2282.67071,0.00995
2280.61053,0.00983
2278.55036,0.00976
2276.49019,0.00976
2274.43002,0.00997
2272.36984,0.01003
2270.30967,0.00952
2268.24950,0.00884
2266.18933,0.00863
2264.12916,0.00869
2262.06898,0.00897
2260.00881,0.00950
2257.94864,0.00986
2255.88847,0.00952
2253.82830,0.00867
2251.76812,0.00786
2249.70795,0.00721
2247.64778,0.00707
2245.58761,0.00777
2243.52744,0.00835
2241.46726,0.00846
2239.40709,0.00859
2237.34692,0.00876
2235.28675,0.00838
2233.22657,0.00737
2231.16640,0.00703
2229.10623,0.00777
2227.04606,0.00854
2224.98589,0.00860
2222.92571,0.00817
2220.86554,0.00791
2218.80537,0.00765
2216.74520,0.00712
2214.68503,0.00683
2212.62485,0.00730
2210.56468,0.00762
2208.50451,0.00650
2206.44434,0.00506
2204.38417,0.00520
2202.32399,0.00639
2200.26382,0.00700
2198.20365,0.00718
2196.14348,0.00746
2194.08330,0.00682
2192.02313,0.00572
2189.96296,0.00554
2187.90279,0.00585
2185.84262,0.00573
2183.78244,0.00530
2181.72227,0.00575
2179.66210,0.00652
2177.60193,0.00613
2175.54176,0.00530
2173.48158,0.00517
2171.42141,0.00507
2169.36124,0.00449
2167.30107,0.00552
2165.24089,0.00757
2163.18072,0.00755
2161.12055,0.00597
2159.06038,0.00447
2157.00021,0.00305
2154.94003,0.00154
2152.87986,0.00113
2150.81969,0.00269
2148.75952,0.00429
2146.69935,0.00475
2144.63917,0.00581
2142.57900,0.00805
2140.51883,0.00934
2138.45866,0.00837
2136.39849,0.00693
2134.33831,0.00666
2132.27814,0.00691
2130.21797,0.00670
2128.15780,0.00636
2126.09762,0.00650
2124.03745,0.00689
2121.97728,0.00740
2119.91711,0.00758
2117.85694,0.00737
2115.79676,0.00700
2113.73659,0.00624
2111.67642,0.00592
2109.61625,0.00677
2107.55608,0.00745
2105.49590,0.00686
2103.43573,0.00616
2101.37556,0.00668
2099.31539,0.00775
2097.25521,0.00792
2095.19504,0.00710
2093.13487,0.00635
2091.07470,0.00622
2089.01453,0.00640
2086.95435,0.00625
2084.89418,0.00592
2082.83401,0.00623
2080.77384,0.00714
2078.71367,0.00745
2076.65349,0.00667
2074.59332,0.00593
2072.53315,0.00602
2070.47298,0.00637
2068.41281,0.00636
2066.35263,0.00567
2064.29246,0.00458
2062.23229,0.00420
2060.17212,0.00499
2058.11194,0.00677
2056.05177,0.00845
2053.99160,0.00916
2051.93143,0.00989
2049.87126,0.01025
2047.81108,0.00797
2045.75091,0.00469
2043.69074,0.00363
2041.63057,0.00388
2039.57040,0.00408
2037.51022,0.00407
2035.45005,0.00390
2033.38988,0.00432
2031.32971,0.00473
2029.26954,0.00399
2027.20936,0.00319
2025.14919,0.00358
2023.08902,0.00518
2021.02885,0.00681
2018.96867,0.00626
2016.90850,0.00455
2014.84833,0.00381
2012.78816,0.00335
2010.72799,0.00326
2008.66781,0.00356
2006.60764,0.00407
2004.54747,0.00496
2002.48730,0.00517
2000.42713,0.00468
1998.36695,0.00466
1996.30678,0.00501
1994.24661,0.00466
1992.18644,0.00421
1990.12626,0.00494
1988.06609,0.00565
1986.00592,0.00514
1983.94575,0.00440
1981.88558,0.00508
1979.82540,0.00528
1977.76523,0.00266
1975.70506,0.00097
1973.64489,0.00241
1971.58472,0.00316
1969.52454,0.00241
1967.46437,0.00256
1965.40420,0.00381
1963.34403,0.00470
1961.28386,0.00483
1959.22368,0.00389
1957.16351,0.00154
1955.10334,0.00000
1953.04317,0.00111
1950.98299,0.00304
1948.92282,0.00398
1946.86265,0.00405
1944.80248,0.00353
1942.74231,0.00373
1940.68213,0.00552
1938.62196,0.00593
1936.56179,0.00378
1934.50162,0.00150
1932.44145,0.00109
1930.38127,0.00240
1928.32110,0.00394
1926.26093,0.00491
1924.20076,0.00529
1922.14059,0.00545
1920.08041,0.00472
1918.02024,0.00332
1915.96007,0.00339
1913.89990,0.00410
1911.83972,0.00414
1909.77955,0.00378
1907.71938,0.00319
1905.65921,0.00252
1903.59904,0.00264
1901.53886,0.00359
1899.47869,0.00456
1897.41852,0.00498
1895.35835,0.00476
1893.29818,0.00446
1891.23800,0.00405
1889.17783,0.00414
1887.11766,0.00513
1885.05749,0.00524
1882.99731,0.00414
1880.93714,0.00325
1878.87697,0.00333
1876.81680,0.00382
1874.75663,0.00409
1872.69645,0.00413
1870.63628,0.00371
1868.57611,0.00357
1866.51594,0.00435
1864.45577,0.00448
1862.39559,0.00354
1860.33542,0.00282
1858.27525,0.00305
1856.21508,0.00349
1854.15491,0.00322
1852.09473,0.00245
1850.03456,0.00214
1847.97439,0.00251
1845.91422,0.00227
1843.85404,0.00163
1841.79387,0.00215
1839.73370,0.00251
1837.67353,0.00232
1835.61336,0.00254
1833.55318,0.00286
1831.49301,0.00227
1829.43284,0.00175
1827.37267,0.00190
1825.31250,0.00167
1823.25232,0.00199
1821.19215,0.00271
1819.13198,0.00285
1817.07181,0.00255
1815.01163,0.00232
1812.95146,0.00209
1810.89129,0.00184
1808.83112,0.00187
1806.77095,0.00218
1804.71077,0.00245
1802.65060,0.00214
1800.59043,0.00162
1798.53026,0.00179
1796.47009,0.00229
1794.40991,0.00192
1792.34974,0.00113
1790.28957,0.00160
1788.22940,0.00209
1786.16923,0.00158
1784.10905,0.00117
1782.04888,0.00096
1779.98871,0.00089
1777.92854,0.00128
1775.86836,0.00117
1773.80819,0.00017
1771.74802,0.00000
1769.68785,0.00110
1767.62768,0.00175
1765.56750,0.00186
1763.50733,0.00100
1761.44716,0.00056
1759.38699,0.00172
1757.32682,0.00295
1755.26664,0.00442
1753.20647,0.00527
1751.14630,0.00530
1749.08613,0.00620
1747.02596,0.00766
1744.96578,0.00878
1742.90561,0.00960
1740.84544,0.01062
1738.78527,0.01268
1736.72509,0.01388
1734.66492,0.01243
1732.60475,0.01222
1730.54458,0.01310
1728.48441,0.01346
1726.42423,0.01382
1724.36406,0.01417
1722.30389,0.01463
1720.24372,0.01389
1718.18355,0.01200
1716.12337,0.01230
1714.06320,0.01437
1712.00303,0.01581
1709.94286,0.01593
1707.88268,0.01506
1705.82251,0.01431
1703.76234,0.01450
1701.70217,0.01354
1699.64200,0.01272
1697.58182,0.01291
1695.52165,0.01278
1693.46148,0.01427
1691.40131,0.01555
1689.34114,0.01659
1687.28096,0.01745
1685.22079,0.01697
1683.16062,0.01901
1681.10045,0.02303
1679.04028,0.02525
1676.98010,0.02574
1674.91993,0.02627
1672.85976,0.02721
1670.79959,0.02632
1668.73941,0.02607
1666.67924,0.02747
1664.61907,0.02697
1662.55890,0.02531
1660.49873,0.02541
1658.43855,0.02622
1656.37838,0.02535
1654.31821,0.02242
1652.25804,0.02302
1650.19787,0.02593
1648.13769,0.02445
1646.07752,0.02259
1644.01735,0.02397
1641.95718,0.02556
1639.89701,0.02617
1637.83683,0.02524
1635.77666,0.02435
1633.71649,0.02680
1631.65632,0.02900
1629.59614,0.02877
1627.53597,0.02851
1625.47580,0.02887
1623.41563,0.02927
1621.35546,0.03060
1619.29528,0.03073
1617.23511,0.02946
1615.17494,0.03053
1613.11477,0.03260
1611.05460,0.03351
1608.99442,0.03427
1606.93425,0.03534
1604.87408,0.03601
1602.81391,0.03579
1600.75373,0.03488
1598.69356,0.03347
1596.63339,0.03192
1594.57322,0.03062
1592.51305,0.02958
1590.45287,0.02856
1588.39270,0.02756
1586.33253,0.02667
1584.27236,0.02597
1582.21219,0.02577
1580.15201,0.02580
1578.09184,0.02449
1576.03167,0.02286
1573.97150,0.02344
1571.91133,0.02303
1569.85115,0.02100
1567.79098,0.02068
1565.73081,0.02095
1563.67064,0.02098
1561.61046,0.01922
1559.55029,0.01506
1557.49012,0.01509
1555.42995,0.01686
1553.36978,0.01690
1551.30960,0.01597
1549.24943,0.01509
1547.18926,0.01481
1545.12909,0.01426
1543.06892,0.01348
1541.00874,0.01164
1538.94857,0.01103
1536.88840,0.01219
1534.82823,0.01098
1532.76805,0.00955
1530.70788,0.01001
1528.64771,0.00953
1526.58754,0.00851
1524.52737,0.00826
1522.46719,0.00823
1520.40702,0.01000
1518.34685,0.01198
1516.28668,0.01262
1514.22651,0.01366
1512.16633,0.01421
1510.10616,0.01277
1508.04599,0.00865
1505.98582,0.00653
1503.92565,0.00824
1501.86547,0.00847
1499.80530,0.00642
1497.74513,0.00416
1495.68496,0.00376
1493.62478,0.00433
1491.56461,0.00313
1489.50444,0.00132
1487.44427,0.00108
1485.38410,0.00133
1483.32392,0.00115
1481.26375,0.00137
1479.20358,0.00254
1477.14341,0.00341
1475.08324,0.00361
1473.02306,0.00418
1470.96289,0.00684
1468.90272,0.00965
1466.84255,0.01051
1464.78238,0.01136
1462.72220,0.01366
1460.66203,0.01465
1458.60186,0.01326
1456.54169,0.01335
1454.48151,0.01609
1452.42134,0.01770
1450.36117,0.01795
1448.30100,0.01817
1446.24083,0.01924
1444.18065,0.02063
1442.12048,0.02172
1440.06031,0.02220
1438.00014,0.02149
1435.93997,0.02178
1433.87979,0.02370
1431.81962,0.02415
1429.75945,0.02353
1427.69928,0.02339
1425.63910,0.02323
1423.57893,0.02325
1421.51876,0.02311
1419.45859,0.02233
1417.39842,0.02305
1415.33824,0.02423
1413.27807,0.02410
1411.21790,0.02334
1409.15773,0.02277
1407.09756,0.02211
1405.03738,0.02150
1402.97721,0.02146
1400.91704,0.02080
1398.85687,0.01953
1396.79670,0.01857
1394.73652,0.01789
1392.67635,0.01815
1390.61618,0.01833
1388.55601,0.01775
1386.49583,0.01796
1384.43566,0.01912
1382.37549,0.01994
1380.31532,0.02047
1378.25515,0.02100
1376.19497,0.02117
1374.13480,0.02134
1372.07463,0.02219
1370.01446,0.02271
1367.95429,0.02269
1365.89411,0.02233
1363.83394,0.02124
1361.77377,0.02054
1359.71360,0.02077
1357.65343,0.02088
1355.59325,0.02069
1353.53308,0.02052
1351.47291,0.02035
1349.41274,0.02015
1347.35256,0.02004
1345.29239,0.02003
1343.23222,0.02004
1341.17205,0.01977
1339.11188,0.01962
1337.05170,0.01998
1334.99153,0.02026
1332.93136,0.02029
1330.87119,0.02016
1328.81102,0.02004
1326.75084,0.02017
1324.69067,0.02053
1322.63050,0.02075
1320.57033,0.02072
1318.51015,0.02083
1316.44998,0.02117
1314.38981,0.02123
1312.32964,0.02092
1310.26947,0.02027
1308.20929,0.01931
1306.14912,0.01835
1304.08895,0.01751
1302.02878,0.01669
1299.96861,0.01605
1297.90843,0.01580
1295.84826,0.01588
1293.78809,0.01606
1291.72792,0.01621
1289.66775,0.01640
1287.60757,0.01675
1285.54740,0.01712
1283.48723,0.01732
1281.42706,0.01757
1279.36688,0.01788
1277.30671,0.01793
1275.24654,0.01780
1273.18637,0.01774
1271.12620,0.01793
1269.06602,0.01827
1267.00585,0.01869
1264.94568,0.01928
1262.88551,0.01995
1260.82534,0.02075
1258.76516,0.02178
1256.70499,0.02259
1254.64482,0.02303
1252.58465,0.02336
1250.52447,0.02348
1248.46430,0.02345
1246.40413,0.02368
1244.34396,0.02418
1242.28379,0.02446
1240.22361,0.02451
1238.16344,0.02455
1236.10327,0.02439
1234.04310,0.02383
1231.98293,0.02304
1229.92275,0.02220
1227.86258,0.02147
1225.80241,0.02090
1223.74224,0.02023
1221.68207,0.01914
1219.62189,0.01774
1217.56172,0.01642
1215.50155,0.01529
1213.44138,0.01419
1211.38120,0.01319
1209.32103,0.01235
1207.26086,0.01161
1205.20069,0.01087
1203.14052,0.00985
1201.08034,0.00834
1199.02017,0.00651
1196.96000,0.00486
1194.89983,0.00365
1192.83966,0.00271
1190.77948,0.00176
1188.71931,0.00092
1186.65914,0.00032
1184.59897,0.00000
1182.53880,0.00005
1180.47862,0.00042
1178.41845,0.00099
1176.35828,0.00176
1174.29811,0.00288
1172.23793,0.00474
1170.17776,0.00687
1168.11759,0.00853
1166.05742,0.00963
1163.99725,0.01020
1161.93707,0.01040
1159.87690,0.01076
1157.81673,0.01133
1155.75656,0.01173
1153.69639,0.01238
1151.63621,0.01356
1149.57604,0.01465
1147.51587,0.01552
1145.45570,0.01640
1143.39552,0.01713
1141.33535,0.01777
1139.27518,0.01854
1137.21501,0.01935
1135.15484,0.01982
1133.09466,0.02011
1131.03449,0.02086
1128.97432,0.02195
1126.91415,0.02280
1124.85398,0.02362
1122.79380,0.02491
1120.73363,0.02649
1118.67346,0.02793
1116.61329,0.02930
1114.55312,0.03083
1112.49294,0.03238
1110.43277,0.03364
1108.37260,0.03457
1106.31243,0.03524
1104.25225,0.03582
1102.19208,0.03668
1100.13191,0.03812
1098.07174,0.03983
1096.01157,0.04130
1093.95139,0.04290
1091.89122,0.04490
1089.83105,0.04681
1087.77088,0.04834
1085.71071,0.04967
1083.65053,0.05133
1081.59036,0.05335
1079.53019,0.05534
1077.47002,0.05746
1075.40985,0.05996
1073.34967,0.06238
1071.28950,0.06430
1069.22933,0.06586
1067.16916,0.06737
1065.10898,0.06884
1063.04881,0.07008
1060.98864,0.07119
1058.92847,0.07226
1056.86830,0.07327
1054.80812,0.07471
1052.74795,0.07682
1050.68778,0.07925
1048.62761,0.08175
1046.56744,0.08414
1044.50726,0.08624
1042.44709,0.08827
1040.38692,0.09034
1038.32675,0.09198
1036.26657,0.09311
1034.20640,0.09428
1032.14623,0.09532
1030.08606,0.09545
1028.02589,0.09486
1025.96571,0.09438
1023.90554,0.09432
1021.84537,0.09423
1019.78520,0.09359
1017.72503,0.09269
1015.66485,0.09215
1013.60468,0.09230
1011.54451,0.09294
1009.48434,0.09315
1007.42417,0.09254
1005.36399,0.09183
1003.30382,0.09131
1001.24365,0.09067
999.18348,0.08968
997.12330,0.08808
995.06313,0.08623
993.00296,0.08454
990.94279,0.08271
988.88262,0.08086
986.82244,0.07935
984.76227,0.07817
982.70210,0.07710
980.64193,0.07572
978.58176,0.07421
976.52158,0.07286
974.46141,0.07124
972.40124,0.06956
970.34107,0.06824
968.28089,0.06699
966.22072,0.06561
964.16055,0.06412
962.10038,0.06242
960.04021,0.06046
957.98003,0.05852
955.91986,0.05698
953.85969,0.05578
951.79952,0.05461
949.73935,0.05341
947.67917,0.05209
945.61900,0.05039
943.55883,0.04835
941.49866,0.04620
939.43849,0.04400
937.37831,0.04168
935.31814,0.03932
933.25797,0.03695
931.19780,0.03443
929.13762,0.03173
927.07745,0.02943
925.01728,0.02788
922.95711,0.02647
920.89694,0.02503
918.83676,0.02419
916.77659,0.02345
914.71642,0.02172
912.65625,0.01960
910.59608,0.01813
908.53590,0.01702
906.47573,0.01620
904.41556,0.01553
902.35539,0.01465
900.29522,0.01428
898.23504,0.01464
896.17487,0.01457
894.11470,0.01409
892.05453,0.01412
889.99435,0.01428
887.93418,0.01389
885.87401,0.01321
883.81384,0.01263
881.75367,0.01159
879.69349,0.01018
877.63332,0.00926
875.57315,0.00892
873.51298,0.00880
871.45281,0.00862
869.39263,0.00800
867.33246,0.00722
865.27229,0.00730
863.21212,0.00785
861.15194,0.00762
859.09177,0.00681
857.03160,0.00616
854.97143,0.00617
852.91126,0.00686
850.85108,0.00710
848.79091,0.00638
846.73074,0.00562
844.67057,0.00561
842.61040,0.00591
840.55022,0.00598
838.49005,0.00603
836.42988,0.00596
834.36971,0.00573
832.30954,0.00600
830.24936,0.00656
828.18919,0.00637
826.12902,0.00494
824.06885,0.00347
822.00867,0.00285
819.94850,0.00260
817.88833,0.00254
815.82816,0.00245
813.76799,0.00197
811.70781,0.00152
809.64764,0.00167
807.58747,0.00210
805.52730,0.00233
803.46713,0.00223
801.40695,0.00157
799.34678,0.00077
797.28661,0.00079
795.22644,0.00138
793.16627,0.00151
791.10609,0.00083
789.04592,0.00009
786.98575,0.00003
784.92558,0.00039
782.86540,0.00111
780.80523,0.00191
778.74506,0.00219
776.68489,0.00242
774.62472,0.00277
772.56454,0.00254
770.50437,0.00173
768.44420,0.00138
766.38403,0.00184
764.32386,0.00217
762.26368,0.00190
760.20351,0.00175
758.14334,0.00252
756.08317,0.00337
754.02299,0.00342
751.96282,0.00311
749.90265,0.00251
747.84248,0.00177
745.78231,0.00156
743.72213,0.00224
741.66196,0.00310
739.60179,0.00282
737.54162,0.00167
735.48145,0.00051
733.42127,0.00000
731.36110,0.00077
729.30093,0.00208
727.24076,0.00230
725.18059,0.00259
723.12041,0.00369
721.06024,0.00362
719.00007,0.00282
716.93990,0.00224
714.87972,0.00274
712.81955,0.00377
710.75938,0.00417
708.69921,0.00394
706.63904,0.00371
704.57886,0.00391
702.51869,0.00476
700.45852,0.00621
698.39835,0.00747
696.33818,0.00768
694.27800,0.00678
692.21783,0.00559
690.15766,0.00521
688.09749,0.00578
686.03731,0.00657
683.97714,0.00705
681.91697,0.00675
679.85680,0.00534
677.79663,0.00384
675.73645,0.00399
673.67628,0.00645
671.61611,0.00887
669.55594,0.00481
667.49577,0.00072
665.43559,0.00628
663.37542,0.00550
661.31525,0.00419
659.25508,0.00493
657.19491,0.00574
655.13473,0.00584
653.07456,0.00583
651.01439,0.00593
648.95422,0.00566
646.89404,0.00499
644.83387,0.00453
642.77370,0.00508
640.71353,0.00490
638.65336,0.00250
636.59318,0.00000
634.53301,-0.00051
632.47284,-0.00003
630.41267,-0.00021
628.35250,-0.00106
626.29232,-0.00206
624.23215,-0.00198
622.17198,-0.00161
620.11181,-0.00227
618.05164,0.00034
615.99146,0.00621
613.93129,0.00907
611.87112,0.00723
609.81095,0.00301
607.75077,0.00061
605.69060,0.00137
603.63043,0.00287
601.57026,0.00228
599.51009,0.00000
