3996.73391,0.00099
3994.67373,0.00079
3992.61356,0.00086
3990.55339,0.00103
3988.49322,0.00096
3986.43305,0.00071
3984.37287,0.00036
3982.31270,0.00002
3980.25253,0.00000
3978.19236,0.00033
3976.13219,0.00067
3974.07201,0.00096
3972.01184,0.00119
3969.95167,0.00130
3967.89150,0.00131
3965.83133,0.00131
3963.77115,0.00119
3961.71098,0.00091
3959.65081,0.00066
3957.59064,0.00061
3955.53046,0.00068
3953.47029,0.00094
3951.41012,0.00149
3949.34995,0.00195
3947.28978,0.00172
3945.22960,0.00090
3943.16943,0.00025
3941.10926,0.00036
3939.04909,0.00090
3936.98892,0.00124
3934.92874,0.00132
3932.86857,0.00129
3930.80840,0.00130
3928.74823,0.00144
3926.68805,0.00161
3924.62788,0.00160
3922.56771,0.00149
3920.50754,0.00149
3918.44737,0.00146
3916.38719,0.00136
3914.32702,0.00143
3912.26685,0.00156
3910.20668,0.00143
3908.14651,0.00135
3906.08633,0.00161
3904.02616,0.00178
3901.96599,0.00147
3899.90582,0.00120
3897.84565,0.00154
3895.78547,0.00214
3893.72530,0.00240
3891.66513,0.00211
3889.60496,0.00164
3887.54478,0.00137
3885.48461,0.00123
3883.42444,0.00092
3881.36427,0.00046
3879.30410,0.00045
3877.24392,0.00094
3875.18375,0.00133
3873.12358,0.00152
3871.06341,0.00168
3869.00324,0.00161
3866.94306,0.00109
3864.88289,0.00055
3862.82272,0.00079
3860.76255,0.00147
3858.70237,0.00172
3856.64220,0.00151
3854.58203,0.00094
3852.52186,0.00041
3850.46169,0.00075
3848.40151,0.00149
3846.34134,0.00205
3844.28117,0.00238
3842.22100,0.00245
3840.16083,0.00227
3838.10065,0.00200
3836.04048,0.00179
3833.98031,0.00184
3831.92014,0.00218
3829.85997,0.00255
3827.79979,0.00249
3825.73962,0.00192
3823.67945,0.00138
3821.61928,0.00128
3819.55910,0.00156
3817.49893,0.00155
3815.43876,0.00110
3813.37859,0.00105
3811.31842,0.00131
3809.25824,0.00120
3807.19807,0.00092
3805.13790,0.00087
3803.07773,0.00084
3801.01756,0.00095
3798.95738,0.00141
3796.89721,0.00166
3794.83704,0.00153
3792.77687,0.00144
3790.71670,0.00151
3788.65652,0.00159
3786.59635,0.00146
3784.53618,0.00123
3782.47601,0.00134
3780.41583,0.00152
3778.35566,0.00138
3776.29549,0.00144
3774.23532,0.00201
3772.17515,0.00259
3770.11497,0.00263
3768.05480,0.00225
3765.99463,0.00201
3763.93446,0.00193
3761.87429,0.00167
3759.81411,0.00135
3757.75394,0.00160
3755.69377,0.00224
3753.63360,0.00245
3751.57342,0.00230
3749.51325,0.00218
3747.45308,0.00161
3745.39291,0.00079
3743.33274,0.00074
3741.27256,0.00129
3739.21239,0.00175
3737.15222,0.00207
3735.09205,0.00220
3733.03188,0.00209
3730.97170,0.00212
3728.91153,0.00253
3726.85136,0.00269
3724.79119,0.00190
3722.73102,0.00065
3720.67084,0.00000
3718.61067,0.00040
3716.55050,0.00128
3714.49033,0.00184
3712.43015,0.00165
3710.36998,0.00089
3708.30981,0.00051
3706.24964,0.00075
3704.18947,0.00143
3702.12929,0.00190
3700.06912,0.00173
3698.00895,0.00143
3695.94878,0.00129
3693.88861,0.00128
3691.82843,0.00129
3689.76826,0.00118
3687.70809,0.00095
3685.64792,0.00113
3683.58775,0.00133
3681.52757,0.00106
3679.46740,0.00065
3677.40723,0.00058
3675.34706,0.00085
3673.28688,0.00126
3671.22671,0.00159
3669.16654,0.00180
3667.10637,0.00184
3665.04620,0.00163
3662.98602,0.00138
3660.92585,0.00138
3658.86568,0.00160
3656.80551,0.00175
3654.74534,0.00180
3652.68516,0.00211
3650.62499,0.00260
3648.56482,0.00248
3646.50465,0.00184
3644.44447,0.00136
3642.38430,0.00098
3640.32413,0.00099
3638.26396,0.00170
3636.20379,0.00240
3634.14361,0.00246
3632.08344,0.00225
3630.02327,0.00235
3627.96310,0.00258
3625.90293,0.00275
3623.84275,0.00287
3621.78258,0.00294
3619.72241,0.00332
3617.66224,0.00374
3615.60207,0.00354
3613.54189,0.00326
3611.48172,0.00367
3609.42155,0.00422
3607.36138,0.00432
3605.30120,0.00427
3603.24103,0.00425
3601.18086,0.00407
3599.12069,0.00379
3597.06052,0.00384
3595.00034,0.00396
3592.94017,0.00412
3590.88000,0.00478
3588.81983,0.00573
3586.75966,0.00600
3584.69948,0.00556
3582.63931,0.00523
3580.57914,0.00539
3578.51897,0.00579
3576.45879,0.00612
3574.39862,0.00638
3572.33845,0.00683
3570.27828,0.00761
3568.21811,0.00832
3566.15793,0.00849
3564.09776,0.00836
3562.03759,0.00841
3559.97742,0.00884
3557.91725,0.00947
3555.85707,0.00996
3553.79690,0.01030
3551.73673,0.01051
3549.67656,0.01058
3547.61639,0.01079
3545.55621,0.01137
3543.49604,0.01203
3541.43587,0.01225
3539.37570,0.01209
3537.31552,0.01224
3535.25535,0.01285
3533.19518,0.01342
3531.13501,0.01372
3529.07484,0.01399
3527.01466,0.01424
3524.95449,0.01418
3522.89432,0.01389
3520.83415,0.01393
3518.77398,0.01455
3516.71380,0.01537
3514.65363,0.01598
3512.59346,0.01614
3510.53329,0.01593
3508.47312,0.01613
3506.41294,0.01725
3504.35277,0.01848
3502.29260,0.01870
3500.23243,0.01831
3498.17225,0.01849
3496.11208,0.01923
3494.05191,0.01968
3491.99174,0.01991
3489.93157,0.02054
3487.87139,0.02142
3485.81122,0.02196
3483.75105,0.02202
3481.69088,0.02212
3479.63071,0.02261
3477.57053,0.02309
3475.51036,0.02288
3473.45019,0.02237
3471.39002,0.02255
3469.32984,0.02335
3467.26967,0.02408
3465.20950,0.02445
3463.14933,0.02468
3461.08916,0.02507
3459.02898,0.02540
3456.96881,0.02546
3454.90864,0.02569
3452.84847,0.02607
3450.78830,0.02642
3448.72812,0.02693
3446.66795,0.02736
3444.60778,0.02765
3442.54761,0.02837
3440.48744,0.02949
3438.42726,0.03013
3436.36709,0.02995
3434.30692,0.02973
3432.24675,0.02993
3430.18657,0.03002
3428.12640,0.03003
3426.06623,0.03056
3424.00606,0.03129
3421.94589,0.03149
3419.88571,0.03162
3417.82554,0.03232
3415.76537,0.03292
3413.70520,0.03301
3411.64503,0.03299
3409.58485,0.03304
3407.52468,0.03311
3405.46451,0.03347
3403.40434,0.03416
3401.34416,0.03454
3399.28399,0.03450
3397.22382,0.03447
3395.16365,0.03434
3393.10348,0.03424
3391.04330,0.03455
3388.98313,0.03499
3386.92296,0.03536
3384.86279,0.03594
3382.80262,0.03660
3380.74244,0.03666
3378.68227,0.03628
3376.62210,0.03639
3374.56193,0.03698
3372.50176,0.03741
3370.44158,0.03763
3368.38141,0.03802
3366.32124,0.03874
3364.26107,0.03931
3362.20089,0.03936
3360.14072,0.03907
3358.08055,0.03885
3356.02038,0.03892
3353.96021,0.03896
3351.90003,0.03869
3349.83986,0.03858
3347.77969,0.03890
3345.71952,0.03928
3343.65935,0.03939
3341.59917,0.03922
3339.53900,0.03918
3337.47883,0.03922
3335.41866,0.03932
3333.35849,0.03985
3331.29831,0.04051
3329.23814,0.04071
3327.17797,0.04044
3325.11780,0.04000
3323.05762,0.03976
3320.99745,0.03990
3318.93728,0.04022
3316.87711,0.04058
3314.81694,0.04083
3312.75676,0.04078
3310.69659,0.04086
3308.63642,0.04127
3306.57625,0.04132
3304.51608,0.04089
3302.45590,0.04073
3300.39573,0.04108
3298.33556,0.04141
3296.27539,0.04156
3294.21521,0.04154
3292.15504,0.04136
3290.09487,0.04137
3288.03470,0.04151
3285.97453,0.04154
3283.91435,0.04157
3281.85418,0.04143
3279.79401,0.04115
3277.73384,0.04127
3275.67367,0.04152
3273.61349,0.04143
3271.55332,0.04102
3269.49315,0.04057
3267.43298,0.04055
3265.37281,0.04102
3263.31263,0.04152
3261.25246,0.04163
3259.19229,0.04144
3257.13212,0.04113
3255.07194,0.04065
3253.01177,0.04042
3250.95160,0.04066
3248.89143,0.04095
3246.83126,0.04110
3244.77108,0.04099
3242.71091,0.04063
3240.65074,0.04052
3238.59057,0.04074
3236.53040,0.04088
3234.47022,0.04067
3232.41005,0.04016
3230.34988,0.03966
3228.28971,0.03937
3226.22954,0.03940
3224.16936,0.03966
3222.10919,0.03987
3220.04902,0.03984
3217.98885,0.03957
3215.92867,0.03917
3213.86850,0.03890
3211.80833,0.03904
3209.74816,0.03932
3207.68799,0.03914
3205.62781,0.03848
3203.56764,0.03777
3201.50747,0.03752
3199.44730,0.03785
3197.38713,0.03811
3195.32695,0.03794
3193.26678,0.03791
3191.20661,0.03828
3189.14644,0.03852
3187.08626,0.03835
3185.02609,0.03805
3182.96592,0.03773
3180.90575,0.03722
3178.84558,0.03667
3176.78540,0.03644
3174.72523,0.03635
3172.66506,0.03625
3170.60489,0.03614
3168.54472,0.03614
3166.48454,0.03636
3164.42437,0.03650
3162.36420,0.03618
3160.30403,0.03553
3158.24386,0.03502
3156.18368,0.03472
3154.12351,0.03437
3152.06334,0.03402
3150.00317,0.03385
3147.94299,0.03386
3145.88282,0.03398
3143.82265,0.03385
3141.76248,0.03333
3139.70231,0.03315
3137.64213,0.03328
3135.58196,0.03299
3133.52179,0.03249
3131.46162,0.03225
3129.40145,0.03213
3127.34127,0.03207
3125.28110,0.03194
3123.22093,0.03154
3121.16076,0.03110
3119.10058,0.03078
3117.04041,0.03063
3114.98024,0.03067
3112.92007,0.03069
3110.85990,0.03041
3108.79972,0.02993
3106.73955,0.02958
3104.67938,0.02947
3102.61921,0.02957
3100.55904,0.02962
3098.49886,0.02927
3096.43869,0.02886
3094.37852,0.02878
3092.31835,0.02863
3090.25818,0.02819
3088.19800,0.02804
3086.13783,0.02825
3084.07766,0.02819
3082.01749,0.02776
3079.95731,0.02740
3077.89714,0.02733
3075.83697,0.02731
3073.77680,0.02718
3071.71663,0.02694
3069.65645,0.02657
3067.59628,0.02616
3065.53611,0.02589
3063.47594,0.02582
3061.41577,0.02580
3059.35559,0.02560
3057.29542,0.02537
3055.23525,0.02535
3053.17508,0.02536
3051.11491,0.02530
3049.05473,0.02518
3046.99456,0.02496
3044.93439,0.02465
3042.87422,0.02417
3040.81404,0.02371
3038.75387,0.02354
3036.69370,0.02356
3034.63353,0.02337
3032.57336,0.02301
3030.51318,0.02284
3028.45301,0.02276
3026.39284,0.02267
3024.33267,0.02270
3022.27250,0.02270
3020.21232,0.02251
3018.15215,0.02214
3016.09198,0.02168
3014.03181,0.02134
3011.97163,0.02112
3009.91146,0.02088
3007.85129,0.02072
3005.79112,0.02061
3003.73095,0.02049
3001.67077,0.02056
2999.61060,0.02077
2997.55043,0.02065
2995.49026,0.02025
2993.43009,0.02015
2991.36991,0.02018
2989.30974,0.01990
2987.24957,0.01981
2985.18940,0.02022
2983.12923,0.02062
2981.06905,0.02073
2979.00888,0.02063
2976.94871,0.02054
2974.88854,0.02070
2972.82836,0.02108
2970.76819,0.02142
2968.70802,0.02194
2966.64785,0.02300
2964.58768,0.02433
2962.52750,0.02544
2960.46733,0.02618
2958.40716,0.02689
2956.34699,0.02777
2954.28682,0.02867
2952.22664,0.02990
2950.16647,0.03157
2948.10630,0.03328
2946.04613,0.03483
2943.98596,0.03646
2941.92578,0.03835
2939.86561,0.04019
2937.80544,0.04193
2935.74527,0.04408
2933.68509,0.04639
2931.62492,0.04825
2929.56475,0.04995
2927.50458,0.05168
2925.44441,0.05299
2923.38423,0.05389
2921.32406,0.05486
2919.26389,0.05584
2917.20372,0.05623
2915.14355,0.05542
2913.08337,0.05356
2911.02320,0.05138
2908.96303,0.04923
2906.90286,0.04724
2904.84268,0.04566
2902.78251,0.04459
2900.72234,0.04367
2898.66217,0.04254
2896.60200,0.04124
2894.54182,0.03999
2892.48165,0.03900
2890.42148,0.03821
2888.36131,0.03752
2886.30114,0.03689
2884.24096,0.03629
2882.18079,0.03582
2880.12062,0.03542
2878.06045,0.03512
2876.00028,0.03527
2873.94010,0.03548
2871.87993,0.03532
2869.81976,0.03531
2867.75959,0.03585
2865.69941,0.03670
2863.63924,0.03762
2861.57907,0.03860
2859.51890,0.03975
2857.45873,0.04118
2855.39855,0.04293
2853.33838,0.04468
2851.27821,0.04588
2849.21804,0.04584
2847.15787,0.04413
2845.09769,0.04133
2843.03752,0.03841
2840.97735,0.03598
2838.91718,0.03429
2836.85700,0.03307
2834.79683,0.03187
2832.73666,0.03066
2830.67649,0.02981
2828.61632,0.02945
2826.55614,0.02909
2824.49597,0.02847
2822.43580,0.02774
2820.37563,0.02688
2818.31546,0.02615
2816.25528,0.02581
2814.19511,0.02574
2812.13494,0.02577
2810.07477,0.02588
2808.01460,0.02601
2805.95442,0.02579
2803.89425,0.02522
2801.83408,0.02475
2799.77391,0.02436
2797.71373,0.02410
2795.65356,0.02400
2793.59339,0.02381
2791.53322,0.02349
2789.47305,0.02317
2787.41287,0.02293
2785.35270,0.02273
2783.29253,0.02254
2781.23236,0.02226
2779.17219,0.02199
2777.11201,0.02207
2775.05184,0.02248
2772.99167,0.02255
2770.93150,0.02211
2768.87133,0.02167
2766.81115,0.02162
2764.75098,0.02187
2762.69081,0.02187
2760.63064,0.02158
2758.57046,0.02129
2756.51029,0.02103
2754.45012,0.02098
2752.38995,0.02105
2750.32978,0.02088
2748.26960,0.02063
2746.20943,0.02056
2744.14926,0.02052
2742.08909,0.02054
2740.02892,0.02069
2737.96874,0.02074
2735.90857,0.02058
2733.84840,0.02042
2731.78823,0.02050
2729.72805,0.02073
2727.66788,0.02092
2725.60771,0.02096
2723.54754,0.02068
2721.48737,0.02020
2719.42719,0.01996
2717.36702,0.01990
2715.30685,0.01980
2713.24668,0.01982
2711.18651,0.02002
2709.12633,0.02013
2707.06616,0.01989
2705.00599,0.01948
2702.94582,0.01934
2700.88565,0.01942
2698.82547,0.01937
2696.76530,0.01933
2694.70513,0.01947
2692.64496,0.01951
2690.58478,0.01944
2688.52461,0.01945
2686.46444,0.01957
2684.40427,0.01967
2682.34410,0.01956
2680.28392,0.01923
2678.22375,0.01892
2676.16358,0.01871
2674.10341,0.01857
2672.04324,0.01858
2669.98306,0.01863
2667.92289,0.01852
2665.86272,0.01842
2663.80255,0.01846
2661.74238,0.01859
2659.68220,0.01876
2657.62203,0.01882
2655.56186,0.01877
2653.50169,0.01865
2651.44151,0.01861
2649.38134,0.01875
2647.32117,0.01879
2645.26100,0.01849
2643.20083,0.01810
2641.14065,0.01797
2639.08048,0.01788
2637.02031,0.01761
2634.96014,0.01741
2632.89997,0.01733
2630.83979,0.01704
2628.77962,0.01675
2626.71945,0.01702
2624.65928,0.01743
2622.59910,0.01738
2620.53893,0.01716
2618.47876,0.01688
2616.41859,0.01644
2614.35842,0.01625
2612.29824,0.01628
2610.23807,0.01644
2608.17790,0.01678
2606.11773,0.01696
2604.05756,0.01684
2601.99738,0.01665
2599.93721,0.01650
2597.87704,0.01644
2595.81687,0.01635
2593.75670,0.01610
2591.69652,0.01575
2589.63635,0.01572
2587.57618,0.01605
2585.51601,0.01604
2583.45583,0.01549
2581.39566,0.01498
2579.33549,0.01500
2577.27532,0.01534
2575.21515,0.01545
2573.15497,0.01520
2571.09480,0.01486
2569.03463,0.01460
2566.97446,0.01440
2564.91429,0.01432
2562.85411,0.01446
2560.79394,0.01445
2558.73377,0.01420
2556.67360,0.01420
2554.61342,0.01442
2552.55325,0.01455
2550.49308,0.01432
2548.43291,0.01373
2546.37274,0.01335
2544.31256,0.01346
2542.25239,0.01397
2540.19222,0.01437
2538.13205,0.01432
2536.07188,0.01418
2534.01170,0.01417
2531.95153,0.01436
2529.89136,0.01449
2527.83119,0.01402
2525.77102,0.01318
2523.71084,0.01273
2521.65067,0.01292
2519.59050,0.01347
2517.53033,0.01390
2515.47015,0.01399
2513.40998,0.01362
2511.34981,0.01287
2509.28964,0.01243
2507.22947,0.01267
2505.16929,0.01289
2503.10912,0.01279
2501.04895,0.01304
2498.98878,0.01358
2496.92861,0.01352
2494.86843,0.01307
2492.80826,0.01308
2490.74809,0.01338
2488.68792,0.01341
2486.62775,0.01298
2484.56757,0.01261
2482.50740,0.01272
2480.44723,0.01265
2478.38706,0.01229
2476.32688,0.01233
2474.26671,0.01249
2472.20654,0.01219
2470.14637,0.01171
2468.08620,0.01162
2466.02602,0.01194
2463.96585,0.01210
2461.90568,0.01175
2459.84551,0.01145
2457.78534,0.01169
2455.72516,0.01209
2453.66499,0.01248
2451.60482,0.01245
2449.54465,0.01152
2447.48447,0.01095
2445.42430,0.01143
2443.36413,0.01189
2441.30396,0.01191
2439.24379,0.01161
2437.18361,0.01113
2435.12344,0.01104
2433.06327,0.01134
2431.00310,0.01178
2428.94293,0.01227
2426.88275,0.01242
2424.82258,0.01223
2422.76241,0.01184
2420.70224,0.01143
2418.64207,0.01138
2416.58189,0.01164
2414.52172,0.01183
2412.46155,0.01184
2410.40138,0.01182
2408.34120,0.01157
2406.28103,0.01105
2404.22086,0.01078
2402.16069,0.01078
2400.10052,0.01048
2398.04034,0.01023
2395.98017,0.01069
2393.92000,0.01132
2391.85983,0.01142
2389.79966,0.01115
2387.73948,0.01105
2385.67931,0.01126
2383.61914,0.01163
2381.55897,0.01174
2379.49880,0.01137
2377.43862,0.01105
2375.37845,0.01195
2373.31828,0.01317
2371.25811,0.01364
2369.19793,0.01345
2367.13776,0.01246
2365.07759,0.01286
2363.01742,0.01541
2360.95725,0.01238
2358.89707,0.00741
2356.83690,0.00682
2354.77673,0.01010
2352.71656,0.01224
2350.65639,0.00914
2348.59621,0.00724
2346.53604,0.01222
2344.47587,0.01327
2342.41570,0.01181
2340.35552,0.01012
2338.29535,0.00824
2336.23518,0.00860
2334.17501,0.01075
2332.11484,0.01223
2330.05466,0.01113
2327.99449,0.00978
2325.93432,0.00862
2323.87415,0.00938
2321.81398,0.01093
2319.75380,0.01191
2317.69363,0.01058
2315.63346,0.00980
2313.57329,0.01043
2311.51312,0.01128
2309.45294,0.01167
2307.39277,0.01147
2305.33260,0.01074
2303.27243,0.00992
2301.21225,0.00970
2299.15208,0.00967
2297.09191,0.01003
2295.03174,0.01076
2292.97157,0.01123
2290.91139,0.01124
2288.85122,0.01097
2286.79105,0.01046
2284.73088,0.00972
2282.67071,0.00923
2280.61053,0.00940
2278.55036,0.00983
2276.49019,0.01002
2274.43002,0.00981
2272.36984,0.00928
2270.30967,0.00868
2268.24950,0.00858
2266.18933,0.00909
2264.12916,0.00950
2262.06898,0.00949
2260.00881,0.00949
2257.94864,0.00962
2255.88847,0.00943
2253.82830,0.00855
2251.76812,0.00757
2249.70795,0.00692
2247.64778,0.00667
2245.58761,0.00690
2243.52744,0.00728
2241.46726,0.00779
2239.40709,0.00833
2237.34692,0.00836
2235.28675,0.00776
2233.22657,0.00723
2231.16640,0.00760
2229.10623,0.00827
2227.04606,0.00818
2224.98589,0.00762
2222.92571,0.00742
2220.86554,0.00802
2218.80537,0.00878
2216.74520,0.00828
2214.68503,0.00734
2212.62485,0.00802
2210.56468,0.00877
2208.50451,0.00741
2206.44434,0.00543
2204.38417,0.00536
2202.32399,0.00696
2200.26382,0.00774
2198.20365,0.00725
2196.14348,0.00676
2194.08330,0.00615
2192.02313,0.00521
2189.96296,0.00473
2187.90279,0.00534
2185.84262,0.00634
2183.78244,0.00636
2181.72227,0.00567
2179.66210,0.00483
2177.60193,0.00387
2175.54176,0.00298
2173.48158,0.00317
2171.42141,0.00441
2169.36124,0.00440
2167.30107,0.00382
2165.24089,0.00496
2163.18072,0.00621
2161.12055,0.00561
2159.06038,0.00419
2157.00021,0.00313
2154.94003,0.00190
2152.87986,0.00152
2150.81969,0.00381
2148.75952,0.00623
2146.69935,0.00611
2144.63917,0.00590
2142.57900,0.00731
2140.51883,0.00842
2138.45866,0.00764
2136.39849,0.00622
2134.33831,0.00643
2132.27814,0.00803
2130.21797,0.00865
2128.15780,0.00749
2126.09762,0.00640
2124.03745,0.00642
2121.97728,0.00673
2119.91711,0.00657
2117.85694,0.00632
2115.79676,0.00621
2113.73659,0.00564
2111.67642,0.00488
2109.61625,0.00483
2107.55608,0.00513
2105.49590,0.00491
2103.43573,0.00487
2101.37556,0.00567
2099.31539,0.00622
2097.25521,0.00629
2095.19504,0.00658
2093.13487,0.00651
2091.07470,0.00581
2089.01453,0.00562
2086.95435,0.00597
2084.89418,0.00615
2082.83401,0.00654
2080.77384,0.00729
2078.71367,0.00769
2076.65349,0.00755
2074.59332,0.00719
2072.53315,0.00695
2070.47298,0.00698
2068.41281,0.00655
2066.35263,0.00512
2064.29246,0.00386
2062.23229,0.00408
2060.17212,0.00521
2058.11194,0.00628
2056.05177,0.00685
2053.99160,0.00718
2051.93143,0.00827
2049.87126,0.00958
2047.81108,0.00878
2045.75091,0.00604
2043.69074,0.00396
2041.63057,0.00322
2039.57040,0.00348
2037.51022,0.00444
2035.45005,0.00490
2033.38988,0.00434
2031.32971,0.00354
2029.26954,0.00364
2027.20936,0.00474
2025.14919,0.00522
2023.08902,0.00486
2021.02885,0.00492
2018.96867,0.00517
2016.90850,0.00509
2014.84833,0.00423
2012.78816,0.00295
2010.72799,0.00276
2008.66781,0.00312
2006.60764,0.00344
2004.54747,0.00463
2002.48730,0.00594
2000.42713,0.00628
1998.36695,0.00604
1996.30678,0.00546
1994.24661,0.00424
1992.18644,0.00340
1990.12626,0.00437
1988.06609,0.00583
1986.00592,0.00572
1983.94575,0.00452
1981.88558,0.00384
1979.82540,0.00334
1977.76523,0.00138
1975.70506,0.00000
1973.64489,0.00144
1971.58472,0.00335
1969.52454,0.00375
1967.46437,0.00313
1965.40420,0.00278
1963.34403,0.00314
1961.28386,0.00343
1959.22368,0.00288
1957.16351,0.00113
1955.10334,-0.00013
1953.04317,0.00064
1950.98299,0.00221
1948.92282,0.00338
1946.86265,0.00387
1944.80248,0.00368
1942.74231,0.00405
1940.68213,0.00547
1938.62196,0.00579
1936.56179,0.00394
1934.50162,0.00159
1932.44145,0.00066
1930.38127,0.00128
1928.32110,0.00239
1926.26093,0.00327
1924.20076,0.00385
1922.14059,0.00400
1920.08041,0.00348
1918.02024,0.00274
1915.96007,0.00283
1913.89990,0.00353
1911.83972,0.00393
1909.77955,0.00418
1907.71938,0.00429
1905.65921,0.00394
1903.59904,0.00362
1901.53886,0.00373
1899.47869,0.00404
1897.41852,0.00427
1895.35835,0.00420
1893.29818,0.00389
1891.23800,0.00357
1889.17783,0.00349
1887.11766,0.00385
1885.05749,0.00396
1882.99731,0.00341
1880.93714,0.00290
1878.87697,0.00298
1876.81680,0.00329
1874.75663,0.00337
1872.69645,0.00323
1870.63628,0.00313
1868.57611,0.00328
1866.51594,0.00360
1864.45577,0.00342
1862.39559,0.00266
1860.33542,0.00211
1858.27525,0.00228
1856.21508,0.00266
1854.15491,0.00250
1852.09473,0.00181
1850.03456,0.00126
1847.97439,0.00118
1845.91422,0.00114
1843.85404,0.00111
1841.79387,0.00149
1839.73370,0.00198
1837.67353,0.00214
1835.61336,0.00200
1833.55318,0.00181
1831.49301,0.00158
1829.43284,0.00121
1827.37267,0.00089
1825.31250,0.00090
1823.25232,0.00132
1821.19215,0.00198
1819.13198,0.00232
1817.07181,0.00201
1815.01163,0.00150
1812.95146,0.00124
1810.89129,0.00115
1808.83112,0.00121
1806.77095,0.00153
1804.71077,0.00182
1802.65060,0.00169
1800.59043,0.00124
1798.53026,0.00087
1796.47009,0.00083
1794.40991,0.00096
1792.34974,0.00102
1790.28957,0.00103
1788.22940,0.00098
1786.16923,0.00079
1784.10905,0.00069
1782.04888,0.00083
1779.98871,0.00095
1777.92854,0.00081
1775.86836,0.00043
1773.80819,0.00005
1771.74802,0.00000
1769.68785,0.00021
1767.62768,0.00048
1765.56750,0.00062
1763.50733,0.00057
1761.44716,0.00077
1759.38699,0.00167
1757.32682,0.00290
1755.26664,0.00384
1753.20647,0.00441
1751.14630,0.00510
1749.08613,0.00603
1747.02596,0.00694
1744.96578,0.00779
1742.90561,0.00876
1740.84544,0.01003
1738.78527,0.01151
1736.72509,0.01255
1734.66492,0.01280
1732.60475,0.01272
1730.54458,0.01269
1728.48441,0.01271
1726.42423,0.01296
1724.36406,0.01329
1722.30389,0.01333
1720.24372,0.01308
1718.18355,0.01289
1716.12337,0.01318
1714.06320,0.01395
1712.00303,0.01460
1709.94286,0.01471
1707.88268,0.01440
1705.82251,0.01386
1703.76234,0.01322
1701.70217,0.01263
1699.64200,0.01210
1697.58182,0.01187
1695.52165,0.01231
1693.46148,0.01332
1691.40131,0.01444
1689.34114,0.01549
1687.28096,0.01640
1685.22079,0.01751
1683.16062,0.01936
1681.10045,0.02146
1679.04028,0.02335
1676.98010,0.02493
1674.91993,0.02600
1672.85976,0.02637
1670.79959,0.02615
1668.73941,0.02586
1666.67924,0.02583
1664.61907,0.02567
1662.55890,0.02521
1660.49873,0.02478
1658.43855,0.02448
1656.37838,0.02403
1654.31821,0.02342
1652.25804,0.02319
1650.19787,0.02340
1648.13769,0.02328
1646.07752,0.02284
1644.01735,0.02300
1641.95718,0.02387
1639.89701,0.02480
1637.83683,0.02533
1635.77666,0.02579
1633.71649,0.02668
1631.65632,0.02753
1629.59614,0.02792
1627.53597,0.02810
1625.47580,0.02848
1623.41563,0.02909
1621.35546,0.02969
1619.29528,0.03005
1617.23511,0.03027
1615.17494,0.03079
1613.11477,0.03174
1611.05460,0.03293
1608.99442,0.03414
1606.93425,0.03509
1604.87408,0.03559
1602.81391,0.03550
1600.75373,0.03464
1598.69356,0.03323
1596.63339,0.03179
1594.57322,0.03054
1592.51305,0.02946
1590.45287,0.02857
1588.39270,0.02777
1586.33253,0.02692
1584.27236,0.02608
1582.21219,0.02545
1580.15201,0.02505
1578.09184,0.02449
1576.03167,0.02335
1573.97150,0.02220
1571.91133,0.02145
1569.85115,0.02082
1567.79098,0.02036
1565.73081,0.02001
1563.67064,0.01946
1561.61046,0.01848
1559.55029,0.01669
1557.49012,0.01490
1555.42995,0.01461
1553.36978,0.01496
1551.30960,0.01485
1549.24943,0.01417
1547.18926,0.01342
1545.12909,0.01295
1543.06892,0.01259
1541.00874,0.01172
1538.94857,0.01048
1536.88840,0.00995
1534.82823,0.00975
1532.76805,0.00927
1530.70788,0.00876
1528.64771,0.00833
1526.58754,0.00780
1524.52737,0.00745
1522.46719,0.00790
1520.40702,0.00925
1518.34685,0.01065
1516.28668,0.01154
1514.22651,0.01192
1512.16633,0.01177
1510.10616,0.01090
1508.04599,0.00917
1505.98582,0.00721
1503.92565,0.00626
1501.86547,0.00586
1499.80530,0.00511
1497.74513,0.00391
1495.68496,0.00295
1493.62478,0.00256
1491.56461,0.00224
1489.50444,0.00163
1487.44427,0.00097
1485.38410,0.00055
1483.32392,0.00045
1481.26375,0.00083
1479.20358,0.00159
1477.14341,0.00233
1475.08324,0.00308
1473.02306,0.00433
1470.96289,0.00617
1468.90272,0.00812
1466.84255,0.00988
1464.78238,0.01140
1462.72220,0.01247
1460.66203,0.01298
1458.60186,0.01334
1456.54169,0.01415
1454.48151,0.01527
1452.42134,0.01631
1450.36117,0.01723
1448.30100,0.01819
1446.24083,0.01927
1444.18065,0.02039
1442.12048,0.02134
1440.06031,0.02187
1438.00014,0.02205
1435.93997,0.02239
1433.87979,0.02299
1431.81962,0.02339
1429.75945,0.02336
1427.69928,0.02305
1425.63910,0.02268
1423.57893,0.02239
1421.51876,0.02232
1419.45859,0.02259
1417.39842,0.02311
1415.33824,0.02345
1413.27807,0.02341
1411.21790,0.02308
1409.15773,0.02258
1407.09756,0.02198
1405.03738,0.02135
1402.97721,0.02072
1400.91704,0.02000
1398.85687,0.01909
1396.79670,0.01818
1394.73652,0.01754
1392.67635,0.01730
1390.61618,0.01733
1388.55601,0.01751
1386.49583,0.01804
1384.43566,0.01890
1382.37549,0.01975
1380.31532,0.02042
1378.25515,0.02087
1376.19497,0.02116
1374.13480,0.02145
1372.07463,0.02182
1370.01446,0.02210
1367.95429,0.02212
1365.89411,0.02183
1363.83394,0.02125
1361.77377,0.02066
1359.71360,0.02046
1357.65343,0.02051
1355.59325,0.02046
1353.53308,0.02017
1351.47291,0.01984
1349.41274,0.01965
1347.35256,0.01958
1345.29239,0.01958
1343.23222,0.01966
1341.17205,0.01979
1339.11188,0.01988
1337.05170,0.01978
1334.99153,0.01963
1332.93136,0.01969
1330.87119,0.01987
1328.81102,0.02001
1326.75084,0.02018
1324.69067,0.02040
1322.63050,0.02047
1320.57033,0.02049
1318.51015,0.02069
1316.44998,0.02089
1314.38981,0.02086
1312.32964,0.02055
1310.26947,0.01993
1308.20929,0.01909
1306.14912,0.01824
1304.08895,0.01751
1302.02878,0.01687
1299.96861,0.01630
1297.90843,0.01584
1295.84826,0.01560
1293.78809,0.01562
1291.72792,0.01581
1289.66775,0.01602
1287.60757,0.01630
1285.54740,0.01663
1283.48723,0.01697
1281.42706,0.01741
1279.36688,0.01777
1277.30671,0.01779
1275.24654,0.01757
1273.18637,0.01749
1271.12620,0.01767
1269.06602,0.01791
1267.00585,0.01828
1264.94568,0.01901
1262.88551,0.01990
1260.82534,0.02079
1258.76516,0.02160
1256.70499,0.02217
1254.64482,0.02268
1252.58465,0.02319
1250.52447,0.02342
1248.46430,0.02346
1246.40413,0.02359
1244.34396,0.02382
1242.28379,0.02404
1240.22361,0.02431
1238.16344,0.02449
1236.10327,0.02424
1234.04310,0.02362
1231.98293,0.02289
1229.92275,0.02215
1227.86258,0.02138
1225.80241,0.02060
1223.74224,0.01983
1221.68207,0.01886
1219.62189,0.01766
1217.56172,0.01639
1215.50155,0.01519
1213.44138,0.01410
1211.38120,0.01313
1209.32103,0.01225
1207.26086,0.01135
1205.20069,0.01040
1203.14052,0.00929
1201.08034,0.00791
1199.02017,0.00629
1196.96000,0.00473
1194.89983,0.00356
1192.83966,0.00249
1190.77948,0.00138
1188.71931,0.00062
1186.65914,0.00021
1184.59897,0.00000
1182.53880,-0.00008
1180.47862,0.00003
1178.41845,0.00046
1176.35828,0.00135
1174.29811,0.00275
1172.23793,0.00456
1170.17776,0.00650
1168.11759,0.00824
1166.05742,0.00950
1163.99725,0.01007
1161.93707,0.01019
1159.87690,0.01051
1157.81673,0.01097
1155.75656,0.01126
1153.69639,0.01198
1151.63621,0.01329
1149.57604,0.01447
1147.51587,0.01539
1145.45570,0.01630
1143.39552,0.01708
1141.33535,0.01771
1139.27518,0.01848
1137.21501,0.01934
1135.15484,0.01988
1133.09466,0.02026
1131.03449,0.02096
1128.97432,0.02196
1126.91415,0.02290
1124.85398,0.02382
1122.79380,0.02494
1120.73363,0.02630
1118.67346,0.02780
1116.61329,0.02924
1114.55312,0.03059
1112.49294,0.03195
1110.43277,0.03318
1108.37260,0.03420
1106.31243,0.03497
1104.25225,0.03564
1102.19208,0.03670
1100.13191,0.03830
1098.07174,0.03997
1096.01157,0.04131
1093.95139,0.04284
1091.89122,0.04485
1089.83105,0.04685
1087.77088,0.04859
1085.71071,0.05023
1083.65053,0.05211
1081.59036,0.05416
1079.53019,0.05605
1077.47002,0.05791
1075.40985,0.06008
1073.34967,0.06249
1071.28950,0.06478
1069.22933,0.06667
1067.16916,0.06821
1065.10898,0.06942
1063.04881,0.07033
1060.98864,0.07132
1058.92847,0.07260
1056.86830,0.07397
1054.80812,0.07566
1052.74795,0.07797
1050.68778,0.08043
1048.62761,0.08259
1046.56744,0.08466
1044.50726,0.08676
1042.44709,0.08868
1040.38692,0.09047
1038.32675,0.09213
1036.26657,0.09357
1034.20640,0.09493
1032.14623,0.09602
1030.08606,0.09621
1028.02589,0.09564
1025.96571,0.09504
1023.90554,0.09475
1021.84537,0.09464
1019.78520,0.09427
1017.72503,0.09361
1015.66485,0.09306
1013.60468,0.09295
1011.54451,0.09321
1009.48434,0.09339
1007.42417,0.09312
1005.36399,0.09253
1003.30382,0.09178
1001.24365,0.09104
999.18348,0.09029
997.12330,0.08908
995.06313,0.08741
993.00296,0.08537
990.94279,0.08325
988.88262,0.08170
986.82244,0.08055
984.76227,0.07942
982.70210,0.07825
980.64193,0.07682
978.58176,0.07523
976.52158,0.07375
974.46141,0.07213
972.40124,0.07065
970.34107,0.06954
968.28089,0.06802
966.22072,0.06620
964.16055,0.06478
962.10038,0.06327
960.04021,0.06148
957.98003,0.05991
955.91986,0.05845
953.85969,0.05686
951.79952,0.05532
949.73935,0.05417
947.67917,0.05324
945.61900,0.05177
943.55883,0.04979
941.49866,0.04775
939.43849,0.04536
937.37831,0.04268
935.31814,0.04026
933.25797,0.03788
931.19780,0.03517
929.13762,0.03239
927.07745,0.03013
925.01728,0.02846
922.95711,0.02681
920.89694,0.02522
918.83676,0.02436
916.77659,0.02377
914.71642,0.02231
912.65625,0.02029
910.59608,0.01842
908.53590,0.01685
906.47573,0.01605
904.41556,0.01569
902.35539,0.01508
900.29522,0.01481
898.23504,0.01522
896.17487,0.01546
894.11470,0.01531
892.05453,0.01540
889.99435,0.01543
887.93418,0.01474
885.87401,0.01363
883.81384,0.01268
881.75367,0.01167
879.69349,0.01060
877.63332,0.00992
875.57315,0.00955
873.51298,0.00938
871.45281,0.00916
869.39263,0.00848
867.33246,0.00789
865.27229,0.00782
863.21212,0.00757
861.15194,0.00696
859.09177,0.00645
857.03160,0.00618
854.97143,0.00627
852.91126,0.00649
850.85108,0.00640
848.79091,0.00619
846.73074,0.00584
844.67057,0.00557
842.61040,0.00584
840.55022,0.00628
838.49005,0.00655
836.42988,0.00637
834.36971,0.00608
832.30954,0.00637
830.24936,0.00648
828.18919,0.00558
826.12902,0.00418
824.06885,0.00346
822.00867,0.00359
819.94850,0.00375
817.88833,0.00379
815.82816,0.00385
813.76799,0.00332
811.70781,0.00242
809.64764,0.00243
807.58747,0.00304
805.52730,0.00286
803.46713,0.00210
801.40695,0.00149
799.34678,0.00089
797.28661,0.00017
795.22644,0.00000
793.16627,0.00091
791.10609,0.00192
789.04592,0.00167
786.98575,0.00087
784.92558,0.00078
782.86540,0.00137
780.80523,0.00173
778.74506,0.00185
776.68489,0.00220
774.62472,0.00214
772.56454,0.00188
770.50437,0.00206
768.44420,0.00197
766.38403,0.00177
764.32386,0.00177
762.26368,0.00104
760.20351,0.00056
758.14334,0.00136
756.08317,0.00174
754.02299,0.00103
751.96282,0.00049
749.90265,0.00030
747.84248,0.00000
745.78231,-0.00015
743.72213,0.00057
741.66196,0.00106
739.60179,0.00005
737.54162,-0.00135
735.48145,-0.00209
733.42127,-0.00199
731.36110,-0.00047
729.30093,0.00107
727.24076,0.00088
725.18059,0.00031
723.12041,0.00038
721.06024,0.00139
719.00007,0.00159
716.93990,0.00164
714.87972,0.00211
712.81955,0.00242
710.75938,0.00247
708.69921,0.00249
706.63904,0.00282
704.57886,0.00346
702.51869,0.00405
700.45852,0.00451
698.39835,0.00486
696.33818,0.00509
694.27800,0.00503
692.21783,0.00442
690.15766,0.00341
688.09749,0.00264
686.03731,0.00214
683.97714,0.00152
681.91697,0.00098
679.85680,0.00055
677.79663,0.00000
675.73645,-0.00023
673.67628,0.00011
671.61611,0.00059
669.55594,0.00733
667.49577,0.01180
665.43559,0.00184
663.37542,0.00135
661.31525,0.00229
659.25508,0.00216
657.19491,0.00192
655.13473,0.00127
653.07456,0.00041
651.01439,0.00056
648.95422,0.00217
646.89404,0.00266
644.83387,0.00170
642.77370,0.00102
640.71353,0.00099
638.65336,0.00003
636.59318,-0.00158
634.53301,-0.00163
632.47284,-0.00000
630.41267,0.00103
628.35250,0.00088
626.29232,0.00070
624.23215,0.00047
622.17198,-0.00084
620.11181,-0.00248
618.05164,-0.00098
615.99146,0.00252
613.93129,0.00385
611.87112,0.00256
609.81095,-0.00031
607.75077,-0.00058
605.69060,0.00109
603.63043,-0.00011
601.57026,-0.00163
599.51009,0.00000
