3996.73391,0.00021
3994.67373,0.00031
3992.61356,0.00039
3990.55339,0.00054
3988.49322,0.00047
3986.43305,0.00016
3984.37287,-0.00002
3982.31270,0.00000
3980.25253,0.00005
3978.19236,0.00031
3976.13219,0.00074
3974.07201,0.00091
3972.01184,0.00072
3969.95167,0.00052
3967.89150,0.00050
3965.83133,0.00054
3963.77115,0.00068
3961.71098,0.00077
3959.65081,0.00067
3957.59064,0.00064
3955.53046,0.00075
3953.47029,0.00083
3951.41012,0.00090
3949.34995,0.00097
3947.28978,0.00090
3945.22960,0.00110
3943.16943,0.00150
3941.10926,0.00121
3939.04909,0.00067
3936.98892,0.00043
3934.92874,0.00065
3932.86857,0.00126
3930.80840,0.00132
3928.74823,0.00084
3926.68805,0.00089
3924.62788,0.00115
3922.56771,0.00086
3920.50754,0.00075
3918.44737,0.00099
3916.38719,0.00105
3914.32702,0.00096
3912.26685,0.00109
3910.20668,0.00106
3908.14651,0.00103
3906.08633,0.00168
3904.02616,0.00218
3901.96599,0.00201
3899.90582,0.00192
3897.84565,0.00117
3895.78547,0.00038
3893.72530,0.00103
3891.66513,0.00191
3889.60496,0.00135
3887.54478,0.00134
3885.48461,0.00180
3883.42444,0.00139
3881.36427,0.00174
3879.30410,0.00137
3877.24392,0.00052
3875.18375,0.00100
3873.12358,0.00138
3871.06341,0.00171
3869.00324,0.00139
3866.94306,0.00091
3864.88289,0.00179
3862.82272,0.00194
3860.76255,0.00092
3858.70237,0.00000
3856.64220,0.00065
3854.58203,0.00305
3852.52186,0.00328
3850.46169,0.00114
3848.40151,0.00034
3846.34134,0.00090
3844.28117,0.00134
3842.22100,0.00104
3840.16083,0.00126
3838.10065,0.00182
3836.04048,0.00140
3833.98031,0.00111
3831.92014,0.00136
3829.85997,0.00133
3827.79979,0.00132
3825.73962,0.00094
3823.67945,0.00107
3821.61928,0.00197
3819.55910,0.00112
3817.49893,0.00128
3815.43876,0.00216
3813.37859,0.00145
3811.31842,0.00097
3809.25824,0.00160
3807.19807,0.00205
3805.13790,0.00136
3803.07773,0.00223
3801.01756,0.00316
3798.95738,0.00235
3796.89721,0.00244
3794.83704,0.00242
3792.77687,0.00211
3790.71670,0.00208
3788.65652,0.00206
3786.59635,0.00230
3784.53618,0.00231
3782.47601,0.00211
3780.41583,0.00272
3778.35566,0.00296
3776.29549,0.00240
3774.23532,0.00216
3772.17515,0.00248
3770.11497,0.00266
3768.05480,0.00214
3765.99463,0.00193
3763.93446,0.00159
3761.87429,0.00180
3759.81411,0.00275
3757.75394,0.00251
3755.69377,0.00162
3753.63360,0.00210
3751.57342,0.00291
3749.51325,0.00138
3747.45308,0.00000
3745.39291,0.00140
3743.33274,0.00162
3741.27256,0.00042
3739.21239,0.00092
3737.15222,0.00267
3735.09205,0.00344
3733.03188,0.00264
3730.97170,0.00155
3728.91153,0.00151
3726.85136,0.00266
3724.79119,0.00318
3722.73102,0.00305
3720.67084,0.00273
3718.61067,0.00212
3716.55050,0.00149
3714.49033,0.00184
3712.43015,0.00292
3710.36998,0.00292
3708.30981,0.00209
3706.24964,0.00178
3704.18947,0.00235
3702.12929,0.00299
3700.06912,0.00266
3698.00895,0.00231
3695.94878,0.00230
3693.88861,0.00215
3691.82843,0.00264
3689.76826,0.00350
3687.70809,0.00296
3685.64792,0.00184
3683.58775,0.00181
3681.52757,0.00221
3679.46740,0.00249
3677.40723,0.00343
3675.34706,0.00371
3673.28688,0.00205
3671.22671,0.00283
3669.16654,0.00404
3667.10637,0.00322
3665.04620,0.00299
3662.98602,0.00344
3660.92585,0.00355
3658.86568,0.00377
3656.80551,0.00403
3654.74534,0.00309
3652.68516,0.00305
3650.62499,0.00479
3648.56482,0.00509
3646.50465,0.00384
3644.44447,0.00339
3642.38430,0.00419
3640.32413,0.00484
3638.26396,0.00486
3636.20379,0.00475
3634.14361,0.00463
3632.08344,0.00469
3630.02327,0.00587
3627.96310,0.00597
3625.90293,0.00471
3623.84275,0.00468
3621.78258,0.00580
3619.72241,0.00669
3617.66224,0.00603
3615.60207,0.00531
3613.54189,0.00550
3611.48172,0.00562
3609.42155,0.00611
3607.36138,0.00655
3605.30120,0.00651
3603.24103,0.00695
3601.18086,0.00752
3599.12069,0.00752
3597.06052,0.00767
3595.00034,0.00795
3592.94017,0.00761
3590.88000,0.00759
3588.81983,0.00874
3586.75966,0.00927
3584.69948,0.00865
3582.63931,0.00867
3580.57914,0.00928
3578.51897,0.00966
3576.45879,0.00977
3574.39862,0.00967
3572.33845,0.00954
3570.27828,0.01019
3568.21811,0.01145
3566.15793,0.01142
3564.09776,0.01031
3562.03759,0.01003
3559.97742,0.01044
3557.91725,0.01085
3555.85707,0.01125
3553.79690,0.01171
3551.73673,0.01169
3549.67656,0.01132
3547.61639,0.01152
3545.55621,0.01198
3543.49604,0.01205
3541.43587,0.01206
3539.37570,0.01241
3537.31552,0.01295
3535.25535,0.01320
3533.19518,0.01325
3531.13501,0.01335
3529.07484,0.01334
3527.01466,0.01334
3524.95449,0.01371
3522.89432,0.01406
3520.83415,0.01406
3518.77398,0.01414
3516.71380,0.01438
3514.65363,0.01470
3512.59346,0.01519
3510.53329,0.01563
3508.47312,0.01557
3506.41294,0.01537
3504.35277,0.01577
3502.29260,0.01606
3500.23243,0.01596
3498.17225,0.01603
3496.11208,0.01620
3494.05191,0.01619
3491.99174,0.01627
3489.93157,0.01671
3487.87139,0.01713
3485.81122,0.01710
3483.75105,0.01718
3481.69088,0.01743
3479.63071,0.01732
3477.57053,0.01726
3475.51036,0.01740
3473.45019,0.01749
3471.39002,0.01774
3469.32984,0.01823
3467.26967,0.01867
3465.20950,0.01883
3463.14933,0.01889
3461.08916,0.01898
3459.02898,0.01921
3456.96881,0.01937
3454.90864,0.01928
3452.84847,0.01932
3450.78830,0.01977
3448.72812,0.02038
3446.66795,0.02037
3444.60778,0.01979
3442.54761,0.01963
3440.48744,0.01981
3438.42726,0.02012
3436.36709,0.02047
3434.30692,0.02069
3432.24675,0.02070
3430.18657,0.02060
3428.12640,0.02064
3426.06623,0.02081
3424.00606,0.02100
3421.94589,0.02126
3419.88571,0.02151
3417.82554,0.02172
3415.76537,0.02193
3413.70520,0.02204
3411.64503,0.02219
3409.58485,0.02236
3407.52468,0.02232
3405.46451,0.02228
3403.40434,0.02252
3401.34416,0.02280
3399.28399,0.02285
3397.22382,0.02292
3395.16365,0.02300
3393.10348,0.02312
3391.04330,0.02302
3388.98313,0.02293
3386.92296,0.02308
3384.86279,0.02324
3382.80262,0.02348
3380.74244,0.02379
3378.68227,0.02379
3376.62210,0.02351
3374.56193,0.02347
3372.50176,0.02369
3370.44158,0.02378
3368.38141,0.02377
3366.32124,0.02390
3364.26107,0.02411
3362.20089,0.02419
3360.14072,0.02407
3358.08055,0.02394
3356.02038,0.02387
3353.96021,0.02388
3351.90003,0.02412
3349.83986,0.02447
3347.77969,0.02464
3345.71952,0.02461
3343.65935,0.02459
3341.59917,0.02464
3339.53900,0.02459
3337.47883,0.02460
3335.41866,0.02484
3333.35849,0.02505
3331.29831,0.02509
3329.23814,0.02500
3327.17797,0.02494
3325.11780,0.02495
3323.05762,0.02491
3320.99745,0.02484
3318.93728,0.02481
3316.87711,0.02483
3314.81694,0.02492
3312.75676,0.02507
3310.69659,0.02530
3308.63642,0.02543
3306.57625,0.02534
3304.51608,0.02532
3302.45590,0.02535
3300.39573,0.02522
3298.33556,0.02507
3296.27539,0.02501
3294.21521,0.02486
3292.15504,0.02460
3290.09487,0.02447
3288.03470,0.02475
3285.97453,0.02519
3283.91435,0.02528
3281.85418,0.02507
3279.79401,0.02487
3277.73384,0.02479
3275.67367,0.02479
3273.61349,0.02471
3271.55332,0.02466
3269.49315,0.02476
3267.43298,0.02480
3265.37281,0.02475
3263.31263,0.02479
3261.25246,0.02488
3259.19229,0.02482
3257.13212,0.02468
3255.07194,0.02468
3253.01177,0.02468
3250.95160,0.02462
3248.89143,0.02462
3246.83126,0.02475
3244.77108,0.02482
3242.71091,0.02463
3240.65074,0.02438
3238.59057,0.02424
3236.53040,0.02418
3234.47022,0.02419
3232.41005,0.02418
3230.34988,0.02412
3228.28971,0.02400
3226.22954,0.02380
3224.16936,0.02361
3222.10919,0.02353
3220.04902,0.02346
3217.98885,0.02331
3215.92867,0.02328
3213.86850,0.02343
3211.80833,0.02349
3209.74816,0.02331
3207.68799,0.02292
3205.62781,0.02265
3203.56764,0.02251
3201.50747,0.02226
3199.44730,0.02207
3197.38713,0.02214
3195.32695,0.02230
3193.26678,0.02234
3191.20661,0.02214
3189.14644,0.02193
3187.08626,0.02185
3185.02609,0.02171
3182.96592,0.02147
3180.90575,0.02128
3178.84558,0.02112
3176.78540,0.02094
3174.72523,0.02092
3172.66506,0.02096
3170.60489,0.02076
3168.54472,0.02044
3166.48454,0.02024
3164.42437,0.02019
3162.36420,0.02012
3160.30403,0.01993
3158.24386,0.01973
3156.18368,0.01954
3154.12351,0.01933
3152.06334,0.01910
3150.00317,0.01897
3147.94299,0.01891
3145.88282,0.01876
3143.82265,0.01849
3141.76248,0.01818
3139.70231,0.01799
3137.64213,0.01788
3135.58196,0.01780
3133.52179,0.01775
3131.46162,0.01756
3129.40145,0.01713
3127.34127,0.01676
3125.28110,0.01670
3123.22093,0.01676
3121.16076,0.01670
3119.10058,0.01659
3117.04041,0.01645
3114.98024,0.01630
3112.92007,0.01616
3110.85990,0.01596
3108.79972,0.01576
3106.73955,0.01566
3104.67938,0.01558
3102.61921,0.01540
3100.55904,0.01507
3098.49886,0.01474
3096.43869,0.01455
3094.37852,0.01433
3092.31835,0.01422
3090.25818,0.01433
3088.19800,0.01450
3086.13783,0.01451
3084.07766,0.01429
3082.01749,0.01392
3079.95731,0.01363
3077.89714,0.01348
3075.83697,0.01335
3073.77680,0.01319
3071.71663,0.01307
3069.65645,0.01302
3067.59628,0.01292
3065.53611,0.01257
3063.47594,0.01221
3061.41577,0.01214
3059.35559,0.01220
3057.29542,0.01220
3055.23525,0.01217
3053.17508,0.01207
3051.11491,0.01188
3049.05473,0.01175
3046.99456,0.01176
3044.93439,0.01163
3042.87422,0.01138
3040.81404,0.01123
3038.75387,0.01102
3036.69370,0.01071
3034.63353,0.01058
3032.57336,0.01070
3030.51318,0.01075
3028.45301,0.01057
3026.39284,0.01036
3024.33267,0.01034
3022.27250,0.01047
3020.21232,0.01046
3018.15215,0.01029
3016.09198,0.01010
3014.03181,0.00995
3011.97163,0.00989
3009.91146,0.00986
3007.85129,0.00976
3005.79112,0.00956
3003.73095,0.00936
3001.67077,0.00931
2999.61060,0.00935
2997.55043,0.00931
2995.49026,0.00932
2993.43009,0.00953
2991.36991,0.00978
2989.30974,0.00989
2987.24957,0.00985
2985.18940,0.00978
2983.12923,0.00978
2981.06905,0.00988
2979.00888,0.01010
2976.94871,0.01031
2974.88854,0.01028
2972.82836,0.01013
2970.76819,0.01014
2968.70802,0.01034
2966.64785,0.01048
2964.58768,0.01049
2962.52750,0.01054
2960.46733,0.01082
2958.40716,0.01116
2956.34699,0.01144
2954.28682,0.01173
2952.22664,0.01198
2950.16647,0.01208
2948.10630,0.01211
2946.04613,0.01227
2943.98596,0.01256
2941.92578,0.01293
2939.86561,0.01326
2937.80544,0.01333
2935.74527,0.01318
2933.68509,0.01315
2931.62492,0.01334
2929.56475,0.01346
2927.50458,0.01342
2925.44441,0.01330
2923.38423,0.01312
2921.32406,0.01296
2919.26389,0.01287
2917.20372,0.01269
2915.14355,0.01241
2913.08337,0.01228
2911.02320,0.01225
2908.96303,0.01218
2906.90286,0.01213
2904.84268,0.01200
2902.78251,0.01178
2900.72234,0.01170
2898.66217,0.01180
2896.60200,0.01196
2894.54182,0.01199
2892.48165,0.01188
2890.42148,0.01180
2888.36131,0.01178
2886.30114,0.01173
2884.24096,0.01162
2882.18079,0.01155
2880.12062,0.01149
2878.06045,0.01133
2876.00028,0.01116
2873.94010,0.01097
2871.87993,0.01078
2869.81976,0.01066
2867.75959,0.01053
2865.69941,0.01037
2863.63924,0.01033
2861.57907,0.01045
2859.51890,0.01041
2857.45873,0.01017
2855.39855,0.01003
2853.33838,0.00995
2851.27821,0.00974
2849.21804,0.00954
2847.15787,0.00944
2845.09769,0.00930
2843.03752,0.00902
2840.97735,0.00881
2838.91718,0.00880
2836.85700,0.00880
2834.79683,0.00881
2832.73666,0.00882
2830.67649,0.00875
2828.61632,0.00870
2826.55614,0.00851
2824.49597,0.00827
2822.43580,0.00816
2820.37563,0.00802
2818.31546,0.00784
2816.25528,0.00785
2814.19511,0.00800
2812.13494,0.00813
2810.07477,0.00813
2808.01460,0.00797
2805.95442,0.00778
2803.89425,0.00769
2801.83408,0.00762
2799.77391,0.00758
2797.71373,0.00766
2795.65356,0.00774
2793.59339,0.00772
2791.53322,0.00768
2789.47305,0.00763
2787.41287,0.00754
2785.35270,0.00737
2783.29253,0.00717
2781.23236,0.00698
2779.17219,0.00698
2777.11201,0.00715
2775.05184,0.00720
2772.99167,0.00706
2770.93150,0.00686
2768.87133,0.00675
2766.81115,0.00682
2764.75098,0.00697
2762.69081,0.00703
2760.63064,0.00699
2758.57046,0.00693
2756.51029,0.00698
2754.45012,0.00707
2752.38995,0.00709
2750.32978,0.00715
2748.26960,0.00721
2746.20943,0.00711
2744.14926,0.00695
2742.08909,0.00691
2740.02892,0.00698
2737.96874,0.00699
2735.90857,0.00689
2733.84840,0.00675
2731.78823,0.00660
2729.72805,0.00655
2727.66788,0.00670
2725.60771,0.00679
2723.54754,0.00669
2721.48737,0.00656
2719.42719,0.00649
2717.36702,0.00646
2715.30685,0.00647
2713.24668,0.00652
2711.18651,0.00668
2709.12633,0.00677
2707.06616,0.00668
2705.00599,0.00657
2702.94582,0.00648
2700.88565,0.00631
2698.82547,0.00617
2696.76530,0.00622
2694.70513,0.00636
2692.64496,0.00636
2690.58478,0.00627
2688.52461,0.00623
2686.46444,0.00622
2684.40427,0.00622
2682.34410,0.00614
2680.28392,0.00602
2678.22375,0.00606
2676.16358,0.00616
2674.10341,0.00613
2672.04324,0.00601
2669.98306,0.00591
2667.92289,0.00591
2665.86272,0.00601
2663.80255,0.00612
2661.74238,0.00618
2659.68220,0.00616
2657.62203,0.00606
2655.56186,0.00593
2653.50169,0.00596
2651.44151,0.00606
2649.38134,0.00602
2647.32117,0.00583
2645.26100,0.00565
2643.20083,0.00556
2641.14065,0.00555
2639.08048,0.00562
2637.02031,0.00566
2634.96014,0.00559
2632.89997,0.00547
2630.83979,0.00546
2628.77962,0.00553
2626.71945,0.00544
2624.65928,0.00528
2622.59910,0.00523
2620.53893,0.00527
2618.47876,0.00532
2616.41859,0.00540
2614.35842,0.00541
2612.29824,0.00526
2610.23807,0.00509
2608.17790,0.00500
2606.11773,0.00500
2604.05756,0.00508
2601.99738,0.00517
2599.93721,0.00513
2597.87704,0.00497
2595.81687,0.00496
2593.75670,0.00508
2591.69652,0.00510
2589.63635,0.00507
2587.57618,0.00504
2585.51601,0.00492
2583.45583,0.00471
2581.39566,0.00453
2579.33549,0.00442
2577.27532,0.00430
2575.21515,0.00423
2573.15497,0.00451
2571.09480,0.00488
2569.03463,0.00492
2566.97446,0.00469
2564.91429,0.00453
2562.85411,0.00462
2560.79394,0.00476
2558.73377,0.00493
2556.67360,0.00503
2554.61342,0.00482
2552.55325,0.00453
2550.49308,0.00430
2548.43291,0.00412
2546.37274,0.00422
2544.31256,0.00443
2542.25239,0.00453
2540.19222,0.00461
2538.13205,0.00465
2536.07188,0.00453
2534.01170,0.00430
2531.95153,0.00421
2529.89136,0.00428
2527.83119,0.00430
2525.77102,0.00425
2523.71084,0.00415
2521.65067,0.00409
2519.59050,0.00420
2517.53033,0.00442
2515.47015,0.00460
2513.40998,0.00460
2511.34981,0.00451
2509.28964,0.00447
2507.22947,0.00419
2505.16929,0.00380
2503.10912,0.00392
2501.04895,0.00430
2498.98878,0.00435
2496.92861,0.00416
2494.86843,0.00389
2492.80826,0.00369
2490.74809,0.00382
2488.68792,0.00420
2486.62775,0.00438
2484.56757,0.00424
2482.50740,0.00407
2480.44723,0.00406
2478.38706,0.00413
2476.32688,0.00439
2474.26671,0.00473
2472.20654,0.00459
2470.14637,0.00412
2468.08620,0.00391
2466.02602,0.00397
2463.96585,0.00414
2461.90568,0.00428
2459.84551,0.00431
2457.78534,0.00421
2455.72516,0.00412
2453.66499,0.00412
2451.60482,0.00412
2449.54465,0.00417
2447.48447,0.00421
2445.42430,0.00398
2443.36413,0.00368
2441.30396,0.00357
2439.24379,0.00364
2437.18361,0.00389
2435.12344,0.00405
2433.06327,0.00399
2431.00310,0.00386
2428.94293,0.00383
2426.88275,0.00386
2424.82258,0.00381
2422.76241,0.00383
2420.70224,0.00391
2418.64207,0.00383
2416.58189,0.00356
2414.52172,0.00333
2412.46155,0.00337
2410.40138,0.00354
2408.34120,0.00374
2406.28103,0.00393
2404.22086,0.00392
2402.16069,0.00365
2400.10052,0.00330
2398.04034,0.00303
2395.98017,0.00315
2393.92000,0.00339
2391.85983,0.00340
2389.79966,0.00330
2387.73948,0.00337
2385.67931,0.00371
2383.61914,0.00415
2381.55897,0.00430
2379.49880,0.00410
2377.43862,0.00379
2375.37845,0.00346
2373.31828,0.00313
2371.25811,0.00307
2369.19793,0.00323
2367.13776,0.00319
2365.07759,0.00318
2363.01742,0.00366
2360.95725,0.00414
2358.89707,0.00431
2356.83690,0.00438
2354.77673,0.00405
2352.71656,0.00350
2350.65639,0.00346
2348.59621,0.00368
2346.53604,0.00359
2344.47587,0.00346
2342.41570,0.00364
2340.35552,0.00384
2338.29535,0.00394
2336.23518,0.00391
2334.17501,0.00353
2332.11484,0.00305
2330.05466,0.00314
2327.99449,0.00379
2325.93432,0.00433
2323.87415,0.00427
2321.81398,0.00392
2319.75380,0.00388
2317.69363,0.00414
2315.63346,0.00429
2313.57329,0.00403
2311.51312,0.00351
2309.45294,0.00319
2307.39277,0.00321
2305.33260,0.00347
2303.27243,0.00392
2301.21225,0.00426
2299.15208,0.00427
2297.09191,0.00411
2295.03174,0.00399
2292.97157,0.00396
2290.91139,0.00400
2288.85122,0.00398
2286.79105,0.00392
2284.73088,0.00396
2282.67071,0.00405
2280.61053,0.00404
2278.55036,0.00400
2276.49019,0.00402
2274.43002,0.00404
2272.36984,0.00391
2270.30967,0.00368
2268.24950,0.00362
2266.18933,0.00381
2264.12916,0.00388
2262.06898,0.00363
2260.00881,0.00346
2257.94864,0.00350
2255.88847,0.00355
2253.82830,0.00337
2251.76812,0.00306
2249.70795,0.00320
2247.64778,0.00361
2245.58761,0.00338
2243.52744,0.00310
2241.46726,0.00326
2239.40709,0.00356
2237.34692,0.00348
2235.28675,0.00283
2233.22657,0.00239
2231.16640,0.00230
2229.10623,0.00194
2227.04606,0.00167
2224.98589,0.00180
2222.92571,0.00230
2220.86554,0.00307
2218.80537,0.00338
2216.74520,0.00347
2214.68503,0.00414
2212.62485,0.00470
2210.56468,0.00433
2208.50451,0.00356
2206.44434,0.00330
2204.38417,0.00360
2202.32399,0.00352
2200.26382,0.00308
2198.20365,0.00320
2196.14348,0.00350
2194.08330,0.00342
2192.02313,0.00343
2189.96296,0.00398
2187.90279,0.00445
2185.84262,0.00386
2183.78244,0.00280
2181.72227,0.00239
2179.66210,0.00242
2177.60193,0.00240
2175.54176,0.00246
2173.48158,0.00257
2171.42141,0.00269
2169.36124,0.00294
2167.30107,0.00292
2165.24089,0.00250
2163.18072,0.00271
2161.12055,0.00336
2159.06038,0.00256
2157.00021,0.00157
2154.94003,0.00187
2152.87986,0.00197
2150.81969,0.00172
2148.75952,0.00185
2146.69935,0.00212
2144.63917,0.00221
2142.57900,0.00211
2140.51883,0.00185
2138.45866,0.00161
2136.39849,0.00178
2134.33831,0.00238
2132.27814,0.00261
2130.21797,0.00256
2128.15780,0.00279
2126.09762,0.00297
2124.03745,0.00292
2121.97728,0.00284
2119.91711,0.00290
2117.85694,0.00330
2115.79676,0.00359
2113.73659,0.00334
2111.67642,0.00310
2109.61625,0.00329
2107.55608,0.00372
2105.49590,0.00398
2103.43573,0.00353
2101.37556,0.00280
2099.31539,0.00280
2097.25521,0.00309
2095.19504,0.00345
2093.13487,0.00386
2091.07470,0.00401
2089.01453,0.00394
2086.95435,0.00378
2084.89418,0.00347
2082.83401,0.00355
2080.77384,0.00415
2078.71367,0.00456
2076.65349,0.00453
2074.59332,0.00428
2072.53315,0.00400
2070.47298,0.00365
2068.41281,0.00326
2066.35263,0.00308
2064.29246,0.00300
2062.23229,0.00290
2060.17212,0.00318
2058.11194,0.00361
2056.05177,0.00361
2053.99160,0.00352
2051.93143,0.00354
2049.87126,0.00354
2047.81108,0.00367
2045.75091,0.00369
2043.69074,0.00361
2041.63057,0.00401
2039.57040,0.00457
2037.51022,0.00508
2035.45005,0.00566
2033.38988,0.00548
2031.32971,0.00410
2029.26954,0.00238
2027.20936,0.00113
2025.14919,0.00027
2023.08902,0.00000
2021.02885,0.00075
2018.96867,0.00203
2016.90850,0.00251
2014.84833,0.00231
2012.78816,0.00284
2010.72799,0.00395
2008.66781,0.00459
2006.60764,0.00428
2004.54747,0.00355
2002.48730,0.00300
2000.42713,0.00265
1998.36695,0.00254
1996.30678,0.00260
1994.24661,0.00276
1992.18644,0.00278
1990.12626,0.00256
1988.06609,0.00261
1986.00592,0.00253
1983.94575,0.00263
1981.88558,0.00351
1979.82540,0.00419
1977.76523,0.00392
1975.70506,0.00330
1973.64489,0.00275
1971.58472,0.00233
1969.52454,0.00192
1967.46437,0.00134
1965.40420,0.00109
1963.34403,0.00154
1961.28386,0.00196
1959.22368,0.00210
1957.16351,0.00228
1955.10334,0.00220
1953.04317,0.00208
1950.98299,0.00225
1948.92282,0.00213
1946.86265,0.00179
1944.80248,0.00184
1942.74231,0.00209
1940.68213,0.00182
1938.62196,0.00179
1936.56179,0.00217
1934.50162,0.00230
1932.44145,0.00237
1930.38127,0.00246
1928.32110,0.00211
1926.26093,0.00172
1924.20076,0.00221
1922.14059,0.00261
1920.08041,0.00243
1918.02024,0.00231
1915.96007,0.00183
1913.89990,0.00173
1911.83972,0.00206
1909.77955,0.00224
1907.71938,0.00223
1905.65921,0.00223
1903.59904,0.00230
1901.53886,0.00220
1899.47869,0.00205
1897.41852,0.00227
1895.35835,0.00259
1893.29818,0.00240
1891.23800,0.00232
1889.17783,0.00228
1887.11766,0.00186
1885.05749,0.00175
1882.99731,0.00184
1880.93714,0.00198
1878.87697,0.00226
1876.81680,0.00241
1874.75663,0.00215
1872.69645,0.00185
1870.63628,0.00226
1868.57611,0.00259
1866.51594,0.00187
1864.45577,0.00139
1862.39559,0.00170
1860.33542,0.00215
1858.27525,0.00245
1856.21508,0.00252
1854.15491,0.00232
1852.09473,0.00201
1850.03456,0.00178
1847.97439,0.00163
1845.91422,0.00205
1843.85404,0.00253
1841.79387,0.00189
1839.73370,0.00152
1837.67353,0.00178
1835.61336,0.00172
1833.55318,0.00153
1831.49301,0.00199
1829.43284,0.00212
1827.37267,0.00159
1825.31250,0.00178
1823.25232,0.00189
1821.19215,0.00175
1819.13198,0.00182
1817.07181,0.00168
1815.01163,0.00133
1812.95146,0.00153
1810.89129,0.00210
1808.83112,0.00206
1806.77095,0.00172
1804.71077,0.00167
1802.65060,0.00201
1800.59043,0.00225
1798.53026,0.00186
1796.47009,0.00140
1794.40991,0.00184
1792.34974,0.00256
1790.28957,0.00181
1788.22940,0.00095
1786.16923,0.00119
1784.10905,0.00155
1782.04888,0.00180
1779.98871,0.00179
1777.92854,0.00112
1775.86836,0.00085
1773.80819,0.00165
1771.74802,0.00200
1769.68785,0.00130
1767.62768,0.00113
1765.56750,0.00127
1763.50733,0.00202
1761.44716,0.00251
1759.38699,0.00222
1757.32682,0.00246
1755.26664,0.00236
1753.20647,0.00264
1751.14630,0.00390
1749.08613,0.00431
1747.02596,0.00387
1744.96578,0.00388
1742.90561,0.00448
1740.84544,0.00501
1738.78527,0.00446
1736.72509,0.00432
1734.66492,0.00596
1732.60475,0.00578
1730.54458,0.00484
1728.48441,0.00490
1726.42423,0.00516
1724.36406,0.00532
1722.30389,0.00481
1720.24372,0.00496
1718.18355,0.00606
1716.12337,0.00538
1714.06320,0.00387
1712.00303,0.00326
1709.94286,0.00338
1707.88268,0.00377
1705.82251,0.00356
1703.76234,0.00241
1701.70217,0.00297
1699.64200,0.00364
1697.58182,0.00317
1695.52165,0.00338
1693.46148,0.00260
1691.40131,0.00255
1689.34114,0.00287
1687.28096,0.00314
1685.22079,0.00502
1683.16062,0.00537
1681.10045,0.00398
1679.04028,0.00388
1676.98010,0.00500
1674.91993,0.00556
1672.85976,0.00520
1670.79959,0.00643
1668.73941,0.00710
1666.67924,0.00620
1664.61907,0.00693
1662.55890,0.00830
1660.49873,0.00770
1658.43855,0.00673
1656.37838,0.00776
1654.31821,0.01094
1652.25804,0.01048
1650.19787,0.00766
1648.13769,0.00903
1646.07752,0.01063
1644.01735,0.00951
1641.95718,0.00880
1639.89701,0.00913
1637.83683,0.01068
1635.77666,0.01206
1633.71649,0.01057
1631.65632,0.00955
1629.59614,0.01054
1627.53597,0.01121
1625.47580,0.01140
1623.41563,0.01165
1621.35546,0.01058
1619.29528,0.01046
1617.23511,0.01190
1615.17494,0.01136
1613.11477,0.01018
1611.05460,0.01035
1608.99442,0.01058
1606.93425,0.01022
1604.87408,0.00997
1602.81391,0.00995
1600.75373,0.00956
1598.69356,0.00893
1596.63339,0.00853
1594.57322,0.00815
1592.51305,0.00759
1590.45287,0.00711
1588.39270,0.00674
1586.33253,0.00637
1584.27236,0.00591
1582.21219,0.00518
1580.15201,0.00455
1578.09184,0.00524
1576.03167,0.00560
1573.97150,0.00353
1571.91133,0.00299
1569.85115,0.00413
1567.79098,0.00341
1565.73081,0.00220
1563.67064,0.00138
1561.61046,0.00263
1559.55029,0.00591
1557.49012,0.00423
1555.42995,0.00160
1553.36978,0.00132
1551.30960,0.00177
1549.24943,0.00175
1547.18926,0.00129
1545.12909,0.00162
1543.06892,0.00248
1541.00874,0.00371
1538.94857,0.00256
1536.88840,0.00015
1534.82823,0.00102
1532.76805,0.00207
1530.70788,0.00105
1528.64771,0.00106
1526.58754,0.00147
1524.52737,0.00122
1522.46719,0.00184
1520.40702,0.00167
1518.34685,0.00110
1516.28668,0.00127
1514.22651,0.00060
1512.16633,0.00000
1510.10616,0.00080
1508.04599,0.00358
1505.98582,0.00394
1503.92565,0.00115
1501.86547,0.00037
1499.80530,0.00175
1497.74513,0.00295
1495.68496,0.00228
1493.62478,0.00112
1491.56461,0.00198
1489.50444,0.00321
1487.44427,0.00277
1485.38410,0.00212
1483.32392,0.00237
1481.26375,0.00284
1479.20358,0.00276
1477.14341,0.00297
1475.08324,0.00389
1473.02306,0.00482
1470.96289,0.00404
1468.90272,0.00315
1466.84255,0.00423
1464.78238,0.00519
1462.72220,0.00422
1460.66203,0.00429
1458.60186,0.00674
1456.54169,0.00754
1454.48151,0.00557
1452.42134,0.00489
1450.36117,0.00574
1448.30100,0.00667
1446.24083,0.00669
1444.18065,0.00638
1442.12048,0.00625
1440.06031,0.00636
1438.00014,0.00747
1435.93997,0.00788
1433.87979,0.00697
1431.81962,0.00728
1429.75945,0.00801
1427.69928,0.00789
1425.63910,0.00805
1423.57893,0.00826
1421.51876,0.00864
1419.45859,0.00977
1417.39842,0.00944
1415.33824,0.00853
1413.27807,0.00862
1411.21790,0.00890
1409.15773,0.00872
1407.09756,0.00871
1405.03738,0.00874
1402.97721,0.00813
1400.91704,0.00802
1398.85687,0.00837
1396.79670,0.00837
1394.73652,0.00819
1392.67635,0.00729
1390.61618,0.00686
1388.55601,0.00755
1386.49583,0.00778
1384.43566,0.00737
1382.37549,0.00749
1380.31532,0.00790
1378.25515,0.00820
1376.19497,0.00865
1374.13480,0.00890
1372.07463,0.00837
1370.01446,0.00813
1367.95429,0.00817
1365.89411,0.00811
1363.83394,0.00848
1361.77377,0.00841
1359.71360,0.00778
1357.65343,0.00766
1355.59325,0.00787
1353.53308,0.00788
1351.47291,0.00774
1349.41274,0.00753
1347.35256,0.00721
1345.29239,0.00691
1343.23222,0.00683
1341.17205,0.00723
1339.11188,0.00752
1337.05170,0.00715
1334.99153,0.00679
1332.93136,0.00675
1330.87119,0.00677
1328.81102,0.00680
1326.75084,0.00687
1324.69067,0.00687
1322.63050,0.00688
1320.57033,0.00700
1318.51015,0.00697
1316.44998,0.00684
1314.38981,0.00696
1312.32964,0.00696
1310.26947,0.00673
1308.20929,0.00662
1306.14912,0.00657
1304.08895,0.00649
1302.02878,0.00639
1299.96861,0.00630
1297.90843,0.00622
1295.84826,0.00611
1293.78809,0.00593
1291.72792,0.00576
1289.66775,0.00573
1287.60757,0.00579
1285.54740,0.00578
1283.48723,0.00572
1281.42706,0.00570
1279.36688,0.00580
1277.30671,0.00589
1275.24654,0.00584
1273.18637,0.00587
1271.12620,0.00603
1269.06602,0.00616
1267.00585,0.00634
1264.94568,0.00664
1262.88551,0.00695
1260.82534,0.00720
1258.76516,0.00733
1256.70499,0.00752
1254.64482,0.00780
1252.58465,0.00799
1250.52447,0.00805
1248.46430,0.00800
1246.40413,0.00789
1244.34396,0.00775
1242.28379,0.00760
1240.22361,0.00742
1238.16344,0.00721
1236.10327,0.00704
1234.04310,0.00688
1231.98293,0.00668
1229.92275,0.00639
1227.86258,0.00606
1225.80241,0.00580
1223.74224,0.00562
1221.68207,0.00542
1219.62189,0.00514
1217.56172,0.00483
1215.50155,0.00450
1213.44138,0.00410
1211.38120,0.00366
1209.32103,0.00329
1207.26086,0.00294
1205.20069,0.00256
1203.14052,0.00215
1201.08034,0.00174
1199.02017,0.00138
1196.96000,0.00109
1194.89983,0.00076
1192.83966,0.00037
1190.77948,0.00011
1188.71931,0.00004
1186.65914,0.00000
1184.59897,0.00006
1182.53880,0.00034
1180.47862,0.00072
1178.41845,0.00104
1176.35828,0.00129
1174.29811,0.00172
1172.23793,0.00236
1170.17776,0.00303
1168.11759,0.00363
1166.05742,0.00412
1163.99725,0.00450
1161.93707,0.00489
1159.87690,0.00536
1157.81673,0.00583
1155.75656,0.00625
1153.69639,0.00668
1151.63621,0.00709
1149.57604,0.00741
1147.51587,0.00765
1145.45570,0.00782
1143.39552,0.00807
1141.33535,0.00836
1139.27518,0.00847
1137.21501,0.00852
1135.15484,0.00878
1133.09466,0.00914
1131.03449,0.00935
1128.97432,0.00959
1126.91415,0.00998
1124.85398,0.01043
1122.79380,0.01086
1120.73363,0.01120
1118.67346,0.01150
1116.61329,0.01190
1114.55312,0.01236
1112.49294,0.01267
1110.43277,0.01292
1108.37260,0.01318
1106.31243,0.01345
1104.25225,0.01382
1102.19208,0.01434
1100.13191,0.01502
1098.07174,0.01568
1096.01157,0.01622
1093.95139,0.01678
1091.89122,0.01736
1089.83105,0.01784
1087.77088,0.01824
1085.71071,0.01859
1083.65053,0.01896
1081.59036,0.01951
1079.53019,0.02018
1077.47002,0.02066
1075.40985,0.02100
1073.34967,0.02143
1071.28950,0.02195
1069.22933,0.02241
1067.16916,0.02280
1065.10898,0.02308
1063.04881,0.02310
1060.98864,0.02304
1058.92847,0.02317
1056.86830,0.02344
1054.80812,0.02371
1052.74795,0.02397
1050.68778,0.02428
1048.62761,0.02459
1046.56744,0.02483
1044.50726,0.02507
1042.44709,0.02543
1040.38692,0.02596
1038.32675,0.02639
1036.26657,0.02657
1034.20640,0.02657
1032.14623,0.02646
1030.08606,0.02641
1028.02589,0.02650
1025.96571,0.02661
1023.90554,0.02675
1021.84537,0.02694
1019.78520,0.02696
1017.72503,0.02688
1015.66485,0.02704
1013.60468,0.02730
1011.54451,0.02727
1009.48434,0.02697
1007.42417,0.02660
1005.36399,0.02634
1003.30382,0.02624
1001.24365,0.02606
999.18348,0.02567
997.12330,0.02531
995.06313,0.02497
993.00296,0.02458
990.94279,0.02436
988.88262,0.02425
986.82244,0.02401
984.76227,0.02373
982.70210,0.02350
980.64193,0.02317
978.58176,0.02285
976.52158,0.02263
974.46141,0.02245
972.40124,0.02217
970.34107,0.02173
968.28089,0.02133
966.22072,0.02095
964.16055,0.02048
962.10038,0.02012
960.04021,0.02002
957.98003,0.02004
955.91986,0.01998
953.85969,0.01967
951.79952,0.01918
949.73935,0.01868
947.67917,0.01817
945.61900,0.01763
943.55883,0.01704
941.49866,0.01629
939.43849,0.01538
937.37831,0.01441
935.31814,0.01332
933.25797,0.01224
931.19780,0.01138
929.13762,0.01062
927.07745,0.00976
925.01728,0.00892
922.95711,0.00825
920.89694,0.00771
918.83676,0.00713
916.77659,0.00647
914.71642,0.00593
912.65625,0.00559
910.59608,0.00521
908.53590,0.00467
906.47573,0.00423
904.41556,0.00413
902.35539,0.00427
900.29522,0.00444
898.23504,0.00464
896.17487,0.00485
894.11470,0.00497
892.05453,0.00483
889.99435,0.00453
887.93418,0.00445
885.87401,0.00452
883.81384,0.00420
881.75367,0.00347
879.69349,0.00301
877.63332,0.00285
875.57315,0.00259
873.51298,0.00233
871.45281,0.00228
869.39263,0.00236
867.33246,0.00246
865.27229,0.00253
863.21212,0.00253
861.15194,0.00245
859.09177,0.00225
857.03160,0.00205
854.97143,0.00206
852.91126,0.00209
850.85108,0.00195
848.79091,0.00178
846.73074,0.00152
844.67057,0.00120
842.61040,0.00115
840.55022,0.00122
838.49005,0.00105
836.42988,0.00068
834.36971,0.00028
832.30954,0.00000
830.24936,0.00003
828.18919,0.00031
826.12902,0.00072
824.06885,0.00100
822.00867,0.00086
819.94850,0.00064
817.88833,0.00078
815.82816,0.00118
813.76799,0.00151
811.70781,0.00153
809.64764,0.00150
807.58747,0.00156
805.52730,0.00160
803.46713,0.00162
801.40695,0.00144
799.34678,0.00123
797.28661,0.00114
795.22644,0.00086
793.16627,0.00058
791.10609,0.00059
789.04592,0.00070
786.98575,0.00077
784.92558,0.00094
782.86540,0.00098
780.80523,0.00068
778.74506,0.00052
776.68489,0.00083
774.62472,0.00118
772.56454,0.00111
770.50437,0.00083
768.44420,0.00068
766.38403,0.00067
764.32386,0.00075
762.26368,0.00095
760.20351,0.00110
758.14334,0.00105
756.08317,0.00106
754.02299,0.00122
751.96282,0.00109
749.90265,0.00040
747.84248,0.00000
745.78231,0.00053
743.72213,0.00124
741.66196,0.00130
739.60179,0.00115
737.54162,0.00139
735.48145,0.00147
733.42127,0.00091
731.36110,0.00051
729.30093,0.00046
727.24076,0.00034
725.18059,0.00049
723.12041,0.00105
721.06024,0.00130
719.00007,0.00115
716.93990,0.00101
714.87972,0.00124
712.81955,0.00172
710.75938,0.00195
708.69921,0.00159
706.63904,0.00091
704.57886,0.00053
702.51869,0.00085
700.45852,0.00159
698.39835,0.00205
696.33818,0.00196
694.27800,0.00139
692.21783,0.00060
690.15766,0.00025
688.09749,0.00078
686.03731,0.00150
683.97714,0.00162
681.91697,0.00137
679.85680,0.00112
677.79663,0.00117
675.73645,0.00153
673.67628,0.00155
671.61611,0.00089
669.55594,0.00039
667.49577,0.00073
665.43559,0.00106
663.37542,0.00143
661.31525,0.00197
659.25508,0.00256
657.19491,0.00267
655.13473,0.00218
653.07456,0.00201
651.01439,0.00261
648.95422,0.00309
646.89404,0.00291
644.83387,0.00267
642.77370,0.00279
640.71353,0.00270
638.65336,0.00222
636.59318,0.00209
634.53301,0.00266
632.47284,0.00326
630.41267,0.00321
628.35250,0.00263
626.29232,0.00185
624.23215,0.00070
622.17198,0.00000
620.11181,0.00002
618.05164,0.00016
615.99146,0.00128
613.93129,0.00316
611.87112,0.00296
609.81095,0.00074
607.75077,-0.00086
605.69060,-0.00112
603.63043,-0.00100
601.57026,-0.00064
599.51009,0.00000
