3996.73391,0.00044
3994.67373,0.00042
3992.61356,0.00039
3990.55339,0.00033
3988.49322,0.00028
3986.43305,0.00026
3984.37287,0.00019
3982.31270,0.00003
3980.25253,0.00000
3978.19236,0.00021
3976.13219,0.00048
3974.07201,0.00060
3972.01184,0.00054
3969.95167,0.00046
3967.89150,0.00048
3965.83133,0.00042
3963.77115,0.00022
3961.71098,0.00013
3959.65081,0.00022
3957.59064,0.00035
3955.53046,0.00049
3953.47029,0.00058
3951.41012,0.00051
3949.34995,0.00036
3947.28978,0.00032
3945.22960,0.00051
3943.16943,0.00072
3941.10926,0.00077
3939.04909,0.00068
3936.98892,0.00065
3934.92874,0.00072
3932.86857,0.00082
3930.80840,0.00086
3928.74823,0.00088
3926.68805,0.00093
3924.62788,0.00096
3922.56771,0.00083
3920.50754,0.00054
3918.44737,0.00026
3916.38719,0.00023
3914.32702,0.00046
3912.26685,0.00067
3910.20668,0.00072
3908.14651,0.00069
3906.08633,0.00074
3904.02616,0.00085
3901.96599,0.00089
3899.90582,0.00086
3897.84565,0.00085
3895.78547,0.00078
3893.72530,0.00067
3891.66513,0.00058
3889.60496,0.00051
3887.54478,0.00053
3885.48461,0.00060
3883.42444,0.00071
3881.36427,0.00082
3879.30410,0.00080
3877.24392,0.00065
3875.18375,0.00053
3873.12358,0.00044
3871.06341,0.00031
3869.00324,0.00026
3866.94306,0.00029
3864.88289,0.00033
3862.82272,0.00041
3860.76255,0.00045
3858.70237,0.00035
3856.64220,0.00031
3854.58203,0.00066
3852.52186,0.00116
3850.46169,0.00118
3848.40151,0.00093
3846.34134,0.00090
3844.28117,0.00106
3842.22100,0.00115
3840.16083,0.00113
3838.10065,0.00103
3836.04048,0.00084
3833.98031,0.00066
3831.92014,0.00071
3829.85997,0.00086
3827.79979,0.00083
3825.73962,0.00074
3823.67945,0.00080
3821.61928,0.00101
3819.55910,0.00112
3817.49893,0.00102
3815.43876,0.00097
3813.37859,0.00102
3811.31842,0.00096
3809.25824,0.00085
3807.19807,0.00081
3805.13790,0.00094
3803.07773,0.00128
3801.01756,0.00162
3798.95738,0.00170
3796.89721,0.00162
3794.83704,0.00151
3792.77687,0.00142
3790.71670,0.00131
3788.65652,0.00126
3786.59635,0.00125
3784.53618,0.00120
3782.47601,0.00115
3780.41583,0.00125
3778.35566,0.00146
3776.29549,0.00159
3774.23532,0.00167
3772.17515,0.00170
3770.11497,0.00166
3768.05480,0.00168
3765.99463,0.00177
3763.93446,0.00172
3761.87429,0.00154
3759.81411,0.00142
3757.75394,0.00146
3755.69377,0.00158
3753.63360,0.00175
3751.57342,0.00195
3749.51325,0.00170
3747.45308,0.00080
3745.39291,0.00000
3743.33274,0.00001
3741.27256,0.00041
3739.21239,0.00083
3737.15222,0.00145
3735.09205,0.00188
3733.03188,0.00169
3730.97170,0.00140
3728.91153,0.00143
3726.85136,0.00169
3724.79119,0.00195
3722.73102,0.00208
3720.67084,0.00195
3718.61067,0.00158
3716.55050,0.00119
3714.49033,0.00105
3712.43015,0.00120
3710.36998,0.00142
3708.30981,0.00141
3706.24964,0.00128
3704.18947,0.00123
3702.12929,0.00138
3700.06912,0.00164
3698.00895,0.00176
3695.94878,0.00169
3693.88861,0.00143
3691.82843,0.00107
3689.76826,0.00100
3687.70809,0.00134
3685.64792,0.00165
3683.58775,0.00176
3681.52757,0.00170
3679.46740,0.00161
3677.40723,0.00159
3675.34706,0.00157
3673.28688,0.00157
3671.22671,0.00191
3669.16654,0.00256
3667.10637,0.00298
3665.04620,0.00293
3662.98602,0.00277
3660.92585,0.00279
3658.86568,0.00301
3656.80551,0.00324
3654.74534,0.00334
3652.68516,0.00340
3650.62499,0.00373
3648.56482,0.00403
3646.50465,0.00384
3644.44447,0.00365
3642.38430,0.00389
3640.32413,0.00420
3638.26396,0.00424
3636.20379,0.00422
3634.14361,0.00438
3632.08344,0.00470
3630.02327,0.00505
3627.96310,0.00533
3625.90293,0.00546
3623.84275,0.00556
3621.78258,0.00572
3619.72241,0.00595
3617.66224,0.00629
3615.60207,0.00657
3613.54189,0.00668
3611.48172,0.00669
3609.42155,0.00675
3607.36138,0.00701
3605.30120,0.00740
3603.24103,0.00767
3601.18086,0.00785
3599.12069,0.00810
3597.06052,0.00834
3595.00034,0.00844
3592.94017,0.00856
3590.88000,0.00890
3588.81983,0.00937
3586.75966,0.00968
3584.69948,0.00990
3582.63931,0.01027
3580.57914,0.01065
3578.51897,0.01085
3576.45879,0.01089
3574.39862,0.01091
3572.33845,0.01116
3570.27828,0.01181
3568.21811,0.01252
3566.15793,0.01280
3564.09776,0.01289
3562.03759,0.01308
3559.97742,0.01323
3557.91725,0.01327
3555.85707,0.01343
3553.79690,0.01370
3551.73673,0.01386
3549.67656,0.01392
3547.61639,0.01408
3545.55621,0.01446
3543.49604,0.01491
3541.43587,0.01522
3539.37570,0.01537
3537.31552,0.01559
3535.25535,0.01612
3533.19518,0.01681
3531.13501,0.01718
3529.07484,0.01708
3527.01466,0.01700
3524.95449,0.01728
3522.89432,0.01761
3520.83415,0.01776
3518.77398,0.01795
3516.71380,0.01819
3514.65363,0.01837
3512.59346,0.01866
3510.53329,0.01919
3508.47312,0.01964
3506.41294,0.01984
3504.35277,0.02005
3502.29260,0.02031
3500.23243,0.02040
3498.17225,0.02049
3496.11208,0.02081
3494.05191,0.02120
3491.99174,0.02137
3489.93157,0.02145
3487.87139,0.02175
3485.81122,0.02212
3483.75105,0.02225
3481.69088,0.02217
3479.63071,0.02215
3477.57053,0.02254
3475.51036,0.02314
3473.45019,0.02339
3471.39002,0.02326
3469.32984,0.02325
3467.26967,0.02354
3465.20950,0.02391
3463.14933,0.02423
3461.08916,0.02462
3459.02898,0.02506
3456.96881,0.02526
3454.90864,0.02511
3452.84847,0.02508
3450.78830,0.02542
3448.72812,0.02567
3446.66795,0.02562
3444.60778,0.02551
3442.54761,0.02560
3440.48744,0.02591
3438.42726,0.02642
3436.36709,0.02704
3434.30692,0.02746
3432.24675,0.02746
3430.18657,0.02727
3428.12640,0.02723
3426.06623,0.02740
3424.00606,0.02764
3421.94589,0.02783
3419.88571,0.02805
3417.82554,0.02841
3415.76537,0.02879
3413.70520,0.02909
3411.64503,0.02929
3409.58485,0.02927
3407.52468,0.02910
3405.46451,0.02922
3403.40434,0.02966
3401.34416,0.02998
3399.28399,0.02990
3397.22382,0.02986
3395.16365,0.03015
3393.10348,0.03058
3391.04330,0.03082
3388.98313,0.03083
3386.92296,0.03068
3384.86279,0.03057
3382.80262,0.03073
3380.74244,0.03104
3378.68227,0.03116
3376.62210,0.03107
3374.56193,0.03112
3372.50176,0.03142
3370.44158,0.03158
3368.38141,0.03146
3366.32124,0.03149
3364.26107,0.03179
3362.20089,0.03206
3360.14072,0.03213
3358.08055,0.03215
3356.02038,0.03218
3353.96021,0.03220
3351.90003,0.03230
3349.83986,0.03246
3347.77969,0.03254
3345.71952,0.03256
3343.65935,0.03265
3341.59917,0.03285
3339.53900,0.03287
3337.47883,0.03277
3335.41866,0.03298
3333.35849,0.03327
3331.29831,0.03329
3329.23814,0.03321
3327.17797,0.03315
3325.11780,0.03321
3323.05762,0.03338
3320.99745,0.03329
3318.93728,0.03303
3316.87711,0.03301
3314.81694,0.03316
3312.75676,0.03327
3310.69659,0.03344
3308.63642,0.03359
3306.57625,0.03367
3304.51608,0.03382
3302.45590,0.03388
3300.39573,0.03362
3298.33556,0.03326
3296.27539,0.03322
3294.21521,0.03343
3292.15504,0.03357
3290.09487,0.03354
3288.03470,0.03356
3285.97453,0.03375
3283.91435,0.03378
3281.85418,0.03351
3279.79401,0.03329
3277.73384,0.03337
3275.67367,0.03344
3273.61349,0.03327
3271.55332,0.03311
3269.49315,0.03302
3267.43298,0.03294
3265.37281,0.03294
3263.31263,0.03308
3261.25246,0.03318
3259.19229,0.03326
3257.13212,0.03334
3255.07194,0.03331
3253.01177,0.03312
3250.95160,0.03296
3248.89143,0.03293
3246.83126,0.03294
3244.77108,0.03285
3242.71091,0.03272
3240.65074,0.03267
3238.59057,0.03261
3236.53040,0.03243
3234.47022,0.03227
3232.41005,0.03219
3230.34988,0.03211
3228.28971,0.03198
3226.22954,0.03178
3224.16936,0.03148
3222.10919,0.03121
3220.04902,0.03111
3217.98885,0.03111
3215.92867,0.03103
3213.86850,0.03100
3211.80833,0.03105
3209.74816,0.03092
3207.68799,0.03061
3205.62781,0.03035
3203.56764,0.03018
3201.50747,0.02996
3199.44730,0.02976
3197.38713,0.02970
3195.32695,0.02973
3193.26678,0.02959
3191.20661,0.02914
3189.14644,0.02867
3187.08626,0.02840
3185.02609,0.02833
3182.96592,0.02841
3180.90575,0.02831
3178.84558,0.02794
3176.78540,0.02773
3174.72523,0.02777
3172.66506,0.02756
3170.60489,0.02700
3168.54472,0.02652
3166.48454,0.02632
3164.42437,0.02624
3162.36420,0.02618
3160.30403,0.02601
3158.24386,0.02571
3156.18368,0.02548
3154.12351,0.02533
3152.06334,0.02507
3150.00317,0.02474
3147.94299,0.02455
3145.88282,0.02435
3143.82265,0.02402
3141.76248,0.02370
3139.70231,0.02347
3137.64213,0.02322
3135.58196,0.02297
3133.52179,0.02282
3131.46162,0.02257
3129.40145,0.02201
3127.34127,0.02142
3125.28110,0.02126
3123.22093,0.02144
3121.16076,0.02151
3119.10058,0.02135
3117.04041,0.02101
3114.98024,0.02062
3112.92007,0.02039
3110.85990,0.02031
3108.79972,0.02019
3106.73955,0.01990
3104.67938,0.01953
3102.61921,0.01925
3100.55904,0.01907
3098.49886,0.01887
3096.43869,0.01854
3094.37852,0.01817
3092.31835,0.01801
3090.25818,0.01800
3088.19800,0.01787
3086.13783,0.01762
3084.07766,0.01733
3082.01749,0.01698
3079.95731,0.01659
3077.89714,0.01631
3075.83697,0.01619
3073.77680,0.01611
3071.71663,0.01599
3069.65645,0.01586
3067.59628,0.01573
3065.53611,0.01555
3063.47594,0.01536
3061.41577,0.01512
3059.35559,0.01478
3057.29542,0.01462
3055.23525,0.01468
3053.17508,0.01471
3051.11491,0.01460
3049.05473,0.01435
3046.99456,0.01401
3044.93439,0.01369
3042.87422,0.01346
3040.81404,0.01335
3038.75387,0.01326
3036.69370,0.01308
3034.63353,0.01293
3032.57336,0.01286
3030.51318,0.01283
3028.45301,0.01274
3026.39284,0.01255
3024.33267,0.01238
3022.27250,0.01235
3020.21232,0.01234
3018.15215,0.01224
3016.09198,0.01216
3014.03181,0.01207
3011.97163,0.01183
3009.91146,0.01158
3007.85129,0.01149
3005.79112,0.01143
3003.73095,0.01135
3001.67077,0.01131
2999.61060,0.01122
2997.55043,0.01106
2995.49026,0.01104
2993.43009,0.01119
2991.36991,0.01133
2989.30974,0.01138
2987.24957,0.01144
2985.18940,0.01148
2983.12923,0.01151
2981.06905,0.01155
2979.00888,0.01165
2976.94871,0.01191
2974.88854,0.01210
2972.82836,0.01213
2970.76819,0.01218
2968.70802,0.01232
2966.64785,0.01249
2964.58768,0.01261
2962.52750,0.01275
2960.46733,0.01310
2958.40716,0.01363
2956.34699,0.01416
2954.28682,0.01458
2952.22664,0.01480
2950.16647,0.01494
2948.10630,0.01518
2946.04613,0.01546
2943.98596,0.01571
2941.92578,0.01599
2939.86561,0.01625
2937.80544,0.01644
2935.74527,0.01646
2933.68509,0.01638
2931.62492,0.01638
2929.56475,0.01646
2927.50458,0.01650
2925.44441,0.01636
2923.38423,0.01610
2921.32406,0.01586
2919.26389,0.01572
2917.20372,0.01562
2915.14355,0.01539
2913.08337,0.01513
2911.02320,0.01499
2908.96303,0.01491
2906.90286,0.01479
2904.84268,0.01457
2902.78251,0.01438
2900.72234,0.01437
2898.66217,0.01448
2896.60200,0.01451
2894.54182,0.01437
2892.48165,0.01422
2890.42148,0.01417
2888.36131,0.01418
2886.30114,0.01414
2884.24096,0.01404
2882.18079,0.01396
2880.12062,0.01392
2878.06045,0.01382
2876.00028,0.01366
2873.94010,0.01339
2871.87993,0.01313
2869.81976,0.01298
2867.75959,0.01288
2865.69941,0.01269
2863.63924,0.01243
2861.57907,0.01226
2859.51890,0.01211
2857.45873,0.01188
2855.39855,0.01164
2853.33838,0.01155
2851.27821,0.01155
2849.21804,0.01142
2847.15787,0.01118
2845.09769,0.01091
2843.03752,0.01067
2840.97735,0.01054
2838.91718,0.01044
2836.85700,0.01022
2834.79683,0.01006
2832.73666,0.01006
2830.67649,0.01002
2828.61632,0.00983
2826.55614,0.00963
2824.49597,0.00963
2822.43580,0.00969
2820.37563,0.00953
2818.31546,0.00928
2816.25528,0.00920
2814.19511,0.00924
2812.13494,0.00922
2810.07477,0.00916
2808.01460,0.00905
2805.95442,0.00887
2803.89425,0.00868
2801.83408,0.00851
2799.77391,0.00853
2797.71373,0.00863
2795.65356,0.00864
2793.59339,0.00858
2791.53322,0.00853
2789.47305,0.00852
2787.41287,0.00851
2785.35270,0.00838
2783.29253,0.00822
2781.23236,0.00813
2779.17219,0.00803
2777.11201,0.00790
2775.05184,0.00779
2772.99167,0.00773
2770.93150,0.00766
2768.87133,0.00761
2766.81115,0.00761
2764.75098,0.00760
2762.69081,0.00757
2760.63064,0.00755
2758.57046,0.00756
2756.51029,0.00767
2754.45012,0.00777
2752.38995,0.00779
2750.32978,0.00780
2748.26960,0.00775
2746.20943,0.00759
2744.14926,0.00744
2742.08909,0.00746
2740.02892,0.00755
2737.96874,0.00754
2735.90857,0.00741
2733.84840,0.00732
2731.78823,0.00735
2729.72805,0.00742
2727.66788,0.00739
2725.60771,0.00725
2723.54754,0.00720
2721.48737,0.00716
2719.42719,0.00696
2717.36702,0.00680
2715.30685,0.00689
2713.24668,0.00711
2711.18651,0.00719
2709.12633,0.00720
2707.06616,0.00724
2705.00599,0.00722
2702.94582,0.00710
2700.88565,0.00691
2698.82547,0.00672
2696.76530,0.00663
2694.70513,0.00662
2692.64496,0.00661
2690.58478,0.00662
2688.52461,0.00665
2686.46444,0.00672
2684.40427,0.00680
2682.34410,0.00679
2680.28392,0.00667
2678.22375,0.00663
2676.16358,0.00663
2674.10341,0.00651
2672.04324,0.00633
2669.98306,0.00628
2667.92289,0.00637
2665.86272,0.00647
2663.80255,0.00652
2661.74238,0.00658
2659.68220,0.00655
2657.62203,0.00636
2655.56186,0.00613
2653.50169,0.00608
2651.44151,0.00608
2649.38134,0.00597
2647.32117,0.00592
2645.26100,0.00598
2643.20083,0.00596
2641.14065,0.00579
2639.08048,0.00571
2637.02031,0.00585
2634.96014,0.00593
2632.89997,0.00584
2630.83979,0.00582
2628.77962,0.00582
2626.71945,0.00567
2624.65928,0.00545
2622.59910,0.00528
2620.53893,0.00524
2618.47876,0.00539
2616.41859,0.00559
2614.35842,0.00553
2612.29824,0.00517
2610.23807,0.00490
2608.17790,0.00479
2606.11773,0.00468
2604.05756,0.00459
2601.99738,0.00462
2599.93721,0.00484
2597.87704,0.00505
2595.81687,0.00513
2593.75670,0.00510
2591.69652,0.00494
2589.63635,0.00468
2587.57618,0.00445
2585.51601,0.00443
2583.45583,0.00457
2581.39566,0.00462
2579.33549,0.00457
2577.27532,0.00452
2575.21515,0.00445
2573.15497,0.00451
2571.09480,0.00462
2569.03463,0.00456
2566.97446,0.00439
2564.91429,0.00429
2562.85411,0.00447
2560.79394,0.00471
2558.73377,0.00461
2556.67360,0.00424
2554.61342,0.00392
2552.55325,0.00378
2550.49308,0.00379
2548.43291,0.00391
2546.37274,0.00402
2544.31256,0.00408
2542.25239,0.00414
2540.19222,0.00426
2538.13205,0.00436
2536.07188,0.00414
2534.01170,0.00371
2531.95153,0.00353
2529.89136,0.00355
2527.83119,0.00359
2525.77102,0.00364
2523.71084,0.00375
2521.65067,0.00401
2519.59050,0.00425
2517.53033,0.00427
2515.47015,0.00424
2513.40998,0.00418
2511.34981,0.00396
2509.28964,0.00386
2507.22947,0.00381
2505.16929,0.00367
2503.10912,0.00380
2501.04895,0.00411
2498.98878,0.00418
2496.92861,0.00393
2494.86843,0.00365
2492.80826,0.00363
2490.74809,0.00383
2488.68792,0.00405
2486.62775,0.00412
2484.56757,0.00392
2482.50740,0.00369
2480.44723,0.00368
2478.38706,0.00367
2476.32688,0.00372
2474.26671,0.00387
2472.20654,0.00381
2470.14637,0.00376
2468.08620,0.00395
2466.02602,0.00404
2463.96585,0.00396
2461.90568,0.00397
2459.84551,0.00403
2457.78534,0.00387
2455.72516,0.00369
2453.66499,0.00381
2451.60482,0.00390
2449.54465,0.00372
2447.48447,0.00340
2445.42430,0.00298
2443.36413,0.00264
2441.30396,0.00280
2439.24379,0.00329
2437.18361,0.00362
2435.12344,0.00369
2433.06327,0.00349
2431.00310,0.00318
2428.94293,0.00310
2426.88275,0.00321
2424.82258,0.00332
2422.76241,0.00346
2420.70224,0.00343
2418.64207,0.00325
2416.58189,0.00303
2414.52172,0.00290
2412.46155,0.00302
2410.40138,0.00311
2408.34120,0.00306
2406.28103,0.00313
2404.22086,0.00325
2402.16069,0.00322
2400.10052,0.00306
2398.04034,0.00291
2395.98017,0.00296
2393.92000,0.00306
2391.85983,0.00303
2389.79966,0.00295
2387.73948,0.00304
2385.67931,0.00324
2383.61914,0.00337
2381.55897,0.00331
2379.49880,0.00317
2377.43862,0.00323
2375.37845,0.00336
2373.31828,0.00322
2371.25811,0.00302
2369.19793,0.00325
2367.13776,0.00378
2365.07759,0.00407
2363.01742,0.00406
2360.95725,0.00389
2358.89707,0.00364
2356.83690,0.00352
2354.77673,0.00350
2352.71656,0.00348
2350.65639,0.00362
2348.59621,0.00384
2346.53604,0.00401
2344.47587,0.00431
2342.41570,0.00462
2340.35552,0.00464
2338.29535,0.00449
2336.23518,0.00413
2334.17501,0.00373
2332.11484,0.00380
2330.05466,0.00432
2327.99449,0.00494
2325.93432,0.00535
2323.87415,0.00524
2321.81398,0.00476
2319.75380,0.00440
2317.69363,0.00416
2315.63346,0.00388
2313.57329,0.00356
2311.51312,0.00322
2309.45294,0.00295
2307.39277,0.00285
2305.33260,0.00289
2303.27243,0.00311
2301.21225,0.00339
2299.15208,0.00352
2297.09191,0.00353
2295.03174,0.00354
2292.97157,0.00359
2290.91139,0.00363
2288.85122,0.00364
2286.79105,0.00363
2284.73088,0.00358
2282.67071,0.00337
2280.61053,0.00306
2278.55036,0.00294
2276.49019,0.00316
2274.43002,0.00351
2272.36984,0.00358
2270.30967,0.00311
2268.24950,0.00259
2266.18933,0.00247
2264.12916,0.00250
2262.06898,0.00249
2260.00881,0.00255
2257.94864,0.00277
2255.88847,0.00316
2253.82830,0.00339
2251.76812,0.00312
2249.70795,0.00280
2247.64778,0.00304
2245.58761,0.00331
2243.52744,0.00354
2241.46726,0.00389
2239.40709,0.00383
2237.34692,0.00315
2235.28675,0.00234
2233.22657,0.00210
2231.16640,0.00240
2229.10623,0.00262
2227.04606,0.00250
2224.98589,0.00225
2222.92571,0.00231
2220.86554,0.00273
2218.80537,0.00271
2216.74520,0.00216
2214.68503,0.00212
2212.62485,0.00258
2210.56468,0.00270
2208.50451,0.00238
2206.44434,0.00189
2204.38417,0.00185
2202.32399,0.00243
2200.26382,0.00292
2198.20365,0.00311
2196.14348,0.00321
2194.08330,0.00321
2192.02313,0.00319
2189.96296,0.00354
2187.90279,0.00371
2185.84262,0.00290
2183.78244,0.00230
2181.72227,0.00252
2179.66210,0.00210
2177.60193,0.00110
2175.54176,0.00117
2173.48158,0.00221
2171.42141,0.00287
2169.36124,0.00282
2167.30107,0.00243
2165.24089,0.00211
2163.18072,0.00220
2161.12055,0.00254
2159.06038,0.00240
2157.00021,0.00145
2154.94003,0.00074
2152.87986,0.00101
2150.81969,0.00163
2148.75952,0.00202
2146.69935,0.00217
2144.63917,0.00214
2142.57900,0.00217
2140.51883,0.00232
2138.45866,0.00231
2136.39849,0.00233
2134.33831,0.00257
2132.27814,0.00272
2130.21797,0.00280
2128.15780,0.00295
2126.09762,0.00304
2124.03745,0.00312
2121.97728,0.00314
2119.91711,0.00306
2117.85694,0.00316
2115.79676,0.00336
2113.73659,0.00327
2111.67642,0.00285
2109.61625,0.00254
2107.55608,0.00293
2105.49590,0.00356
2103.43573,0.00341
2101.37556,0.00263
2099.31539,0.00239
2097.25521,0.00277
2095.19504,0.00333
2093.13487,0.00378
2091.07470,0.00390
2089.01453,0.00375
2086.95435,0.00354
2084.89418,0.00348
2082.83401,0.00373
2080.77384,0.00398
2078.71367,0.00416
2076.65349,0.00444
2074.59332,0.00461
2072.53315,0.00438
2070.47298,0.00387
2068.41281,0.00334
2066.35263,0.00285
2064.29246,0.00258
2062.23229,0.00262
2060.17212,0.00282
2058.11194,0.00316
2056.05177,0.00336
2053.99160,0.00318
2051.93143,0.00305
2049.87126,0.00319
2047.81108,0.00320
2045.75091,0.00282
2043.69074,0.00262
2041.63057,0.00299
2039.57040,0.00326
2037.51022,0.00345
2035.45005,0.00392
2033.38988,0.00388
2031.32971,0.00299
2029.26954,0.00224
2027.20936,0.00178
2025.14919,0.00078
2023.08902,0.00000
2021.02885,0.00058
2018.96867,0.00177
2016.90850,0.00234
2014.84833,0.00223
2012.78816,0.00192
2010.72799,0.00204
2008.66781,0.00256
2006.60764,0.00259
2004.54747,0.00217
2002.48730,0.00166
2000.42713,0.00123
1998.36695,0.00115
1996.30678,0.00129
1994.24661,0.00134
1992.18644,0.00132
1990.12626,0.00138
1988.06609,0.00122
1986.00592,0.00092
1983.94575,0.00109
1981.88558,0.00212
1979.82540,0.00357
1977.76523,0.00432
1975.70506,0.00373
1973.64489,0.00273
1971.58472,0.00248
1969.52454,0.00244
1967.46437,0.00189
1965.40420,0.00156
1963.34403,0.00178
1961.28386,0.00180
1959.22368,0.00146
1957.16351,0.00107
1955.10334,0.00094
1953.04317,0.00112
1950.98299,0.00115
1948.92282,0.00097
1946.86265,0.00100
1944.80248,0.00113
1942.74231,0.00099
1940.68213,0.00092
1938.62196,0.00116
1936.56179,0.00149
1934.50162,0.00185
1932.44145,0.00209
1930.38127,0.00189
1928.32110,0.00138
1926.26093,0.00114
1924.20076,0.00142
1922.14059,0.00177
1920.08041,0.00182
1918.02024,0.00178
1915.96007,0.00177
1913.89990,0.00169
1911.83972,0.00144
1909.77955,0.00117
1907.71938,0.00105
1905.65921,0.00091
1903.59904,0.00068
1901.53886,0.00052
1899.47869,0.00055
1897.41852,0.00085
1895.35835,0.00122
1893.29818,0.00130
1891.23800,0.00115
1889.17783,0.00115
1887.11766,0.00133
1885.05749,0.00138
1882.99731,0.00124
1880.93714,0.00103
1878.87697,0.00090
1876.81680,0.00092
1874.75663,0.00105
1872.69645,0.00108
1870.63628,0.00096
1868.57611,0.00085
1866.51594,0.00076
1864.45577,0.00061
1862.39559,0.00060
1860.33542,0.00090
1858.27525,0.00124
1856.21508,0.00129
1854.15491,0.00111
1852.09473,0.00092
1850.03456,0.00068
1847.97439,0.00035
1845.91422,0.00027
1843.85404,0.00059
1841.79387,0.00086
1839.73370,0.00078
1837.67353,0.00057
1835.61336,0.00043
1833.55318,0.00046
1831.49301,0.00061
1829.43284,0.00073
1827.37267,0.00077
1825.31250,0.00080
1823.25232,0.00074
1821.19215,0.00054
1819.13198,0.00025
1817.07181,0.00000
1815.01163,-0.00000
1812.95146,0.00028
1810.89129,0.00054
1808.83112,0.00051
1806.77095,0.00036
1804.71077,0.00033
1802.65060,0.00041
1800.59043,0.00056
1798.53026,0.00064
1796.47009,0.00062
1794.40991,0.00060
1792.34974,0.00062
1790.28957,0.00050
1788.22940,0.00019
1786.16923,-0.00003
1784.10905,0.00006
1782.04888,0.00038
1779.98871,0.00056
1777.92854,0.00045
1775.86836,0.00032
1773.80819,0.00042
1771.74802,0.00052
1769.68785,0.00044
1767.62768,0.00045
1765.56750,0.00066
1763.50733,0.00097
1761.44716,0.00128
1759.38699,0.00156
1757.32682,0.00188
1755.26664,0.00226
1753.20647,0.00267
1751.14630,0.00321
1749.08613,0.00373
1747.02596,0.00401
1744.96578,0.00424
1742.90561,0.00456
1740.84544,0.00488
1738.78527,0.00514
1736.72509,0.00546
1734.66492,0.00585
1732.60475,0.00605
1730.54458,0.00595
1728.48441,0.00579
1726.42423,0.00572
1724.36406,0.00567
1722.30389,0.00562
1720.24372,0.00564
1718.18355,0.00556
1716.12337,0.00504
1714.06320,0.00438
1712.00303,0.00393
1709.94286,0.00366
1707.88268,0.00336
1705.82251,0.00295
1703.76234,0.00264
1701.70217,0.00268
1699.64200,0.00296
1697.58182,0.00320
1695.52165,0.00322
1693.46148,0.00308
1691.40131,0.00304
1689.34114,0.00311
1687.28096,0.00322
1685.22079,0.00353
1683.16062,0.00408
1681.10045,0.00458
1679.04028,0.00483
1676.98010,0.00501
1674.91993,0.00543
1672.85976,0.00609
1670.79959,0.00685
1668.73941,0.00749
1666.67924,0.00789
1664.61907,0.00827
1662.55890,0.00875
1660.49873,0.00915
1658.43855,0.00951
1656.37838,0.01006
1654.31821,0.01089
1652.25804,0.01152
1650.19787,0.01165
1648.13769,0.01176
1646.07752,0.01207
1644.01735,0.01224
1641.95718,0.01224
1639.89701,0.01235
1637.83683,0.01261
1635.77666,0.01287
1633.71649,0.01310
1631.65632,0.01329
1629.59614,0.01349
1627.53597,0.01373
1625.47580,0.01397
1623.41563,0.01407
1621.35546,0.01394
1619.29528,0.01379
1617.23511,0.01377
1615.17494,0.01367
1613.11477,0.01347
1611.05460,0.01327
1608.99442,0.01299
1606.93425,0.01257
1604.87408,0.01217
1602.81391,0.01179
1600.75373,0.01124
1598.69356,0.01055
1596.63339,0.00986
1594.57322,0.00920
1592.51305,0.00849
1590.45287,0.00779
1588.39270,0.00715
1586.33253,0.00653
1584.27236,0.00586
1582.21219,0.00524
1580.15201,0.00479
1578.09184,0.00449
1576.03167,0.00413
1573.97150,0.00369
1571.91133,0.00334
1569.85115,0.00302
1567.79098,0.00263
1565.73081,0.00230
1563.67064,0.00212
1561.61046,0.00219
1559.55029,0.00231
1557.49012,0.00203
1555.42995,0.00156
1553.36978,0.00116
1551.30960,0.00095
1549.24943,0.00087
1547.18926,0.00083
1545.12909,0.00094
1543.06892,0.00126
1541.00874,0.00153
1538.94857,0.00128
1536.88840,0.00077
1534.82823,0.00041
1532.76805,0.00016
1530.70788,0.00000
1528.64771,0.00008
1526.58754,0.00026
1524.52737,0.00041
1522.46719,0.00056
1520.40702,0.00057
1518.34685,0.00045
1516.28668,0.00034
1514.22651,0.00022
1512.16633,0.00021
1510.10616,0.00049
1508.04599,0.00089
1505.98582,0.00094
1503.92565,0.00065
1501.86547,0.00042
1499.80530,0.00049
1497.74513,0.00075
1495.68496,0.00088
1493.62478,0.00084
1491.56461,0.00093
1489.50444,0.00119
1487.44427,0.00134
1485.38410,0.00133
1483.32392,0.00142
1481.26375,0.00170
1479.20358,0.00206
1477.14341,0.00247
1475.08324,0.00297
1473.02306,0.00352
1470.96289,0.00402
1468.90272,0.00439
1466.84255,0.00477
1464.78238,0.00515
1462.72220,0.00548
1460.66203,0.00592
1458.60186,0.00650
1456.54169,0.00677
1454.48151,0.00665
1452.42134,0.00657
1450.36117,0.00683
1448.30100,0.00729
1446.24083,0.00764
1444.18065,0.00781
1442.12048,0.00793
1440.06031,0.00813
1438.00014,0.00847
1435.93997,0.00888
1433.87979,0.00916
1431.81962,0.00941
1429.75945,0.00977
1427.69928,0.01014
1425.63910,0.01052
1423.57893,0.01092
1421.51876,0.01127
1419.45859,0.01157
1417.39842,0.01175
1415.33824,0.01179
1413.27807,0.01182
1411.21790,0.01179
1409.15773,0.01162
1407.09756,0.01139
1405.03738,0.01117
1402.97721,0.01094
1400.91704,0.01073
1398.85687,0.01059
1396.79670,0.01041
1394.73652,0.01011
1392.67635,0.00975
1390.61618,0.00957
1388.55601,0.00965
1386.49583,0.00982
1384.43566,0.00995
1382.37549,0.01009
1380.31532,0.01037
1378.25515,0.01080
1376.19497,0.01123
1374.13480,0.01142
1372.07463,0.01136
1370.01446,0.01129
1367.95429,0.01128
1365.89411,0.01122
1363.83394,0.01107
1361.77377,0.01081
1359.71360,0.01056
1357.65343,0.01039
1355.59325,0.01027
1353.53308,0.01019
1351.47291,0.01007
1349.41274,0.00983
1347.35256,0.00953
1345.29239,0.00933
1343.23222,0.00927
1341.17205,0.00930
1339.11188,0.00934
1337.05170,0.00930
1334.99153,0.00920
1332.93136,0.00911
1330.87119,0.00910
1328.81102,0.00921
1326.75084,0.00933
1324.69067,0.00939
1322.63050,0.00949
1320.57033,0.00964
1318.51015,0.00973
1316.44998,0.00973
1314.38981,0.00966
1312.32964,0.00955
1310.26947,0.00936
1308.20929,0.00910
1306.14912,0.00889
1304.08895,0.00880
1302.02878,0.00871
1299.96861,0.00851
1297.90843,0.00828
1295.84826,0.00817
1293.78809,0.00811
1291.72792,0.00794
1289.66775,0.00779
1287.60757,0.00783
1285.54740,0.00790
1283.48723,0.00783
1281.42706,0.00774
1279.36688,0.00779
1277.30671,0.00787
1275.24654,0.00788
1273.18637,0.00793
1271.12620,0.00820
1269.06602,0.00861
1267.00585,0.00901
1264.94568,0.00942
1262.88551,0.00988
1260.82534,0.01033
1258.76516,0.01070
1256.70499,0.01104
1254.64482,0.01133
1252.58465,0.01152
1250.52447,0.01163
1248.46430,0.01166
1246.40413,0.01159
1244.34396,0.01144
1242.28379,0.01124
1240.22361,0.01099
1238.16344,0.01077
1236.10327,0.01054
1234.04310,0.01025
1231.98293,0.00991
1229.92275,0.00953
1227.86258,0.00910
1225.80241,0.00868
1223.74224,0.00832
1221.68207,0.00800
1219.62189,0.00767
1217.56172,0.00726
1215.50155,0.00679
1213.44138,0.00631
1211.38120,0.00573
1209.32103,0.00508
1207.26086,0.00446
1205.20069,0.00389
1203.14052,0.00331
1201.08034,0.00272
1199.02017,0.00212
1196.96000,0.00155
1194.89983,0.00097
1192.83966,0.00046
1190.77948,0.00018
1188.71931,0.00009
1186.65914,0.00000
1184.59897,0.00003
1182.53880,0.00044
1180.47862,0.00100
1178.41845,0.00148
1176.35828,0.00201
1174.29811,0.00280
1172.23793,0.00369
1170.17776,0.00445
1168.11759,0.00511
1166.05742,0.00584
1163.99725,0.00665
1161.93707,0.00735
1159.87690,0.00795
1157.81673,0.00867
1155.75656,0.00951
1153.69639,0.01016
1151.63621,0.01057
1149.57604,0.01099
1147.51587,0.01150
1145.45570,0.01191
1143.39552,0.01226
1141.33535,0.01256
1139.27518,0.01272
1137.21501,0.01293
1135.15484,0.01331
1133.09466,0.01375
1131.03449,0.01408
1128.97432,0.01446
1126.91415,0.01504
1124.85398,0.01570
1122.79380,0.01633
1120.73363,0.01698
1118.67346,0.01763
1116.61329,0.01826
1114.55312,0.01876
1112.49294,0.01913
1110.43277,0.01959
1108.37260,0.02009
1106.31243,0.02056
1104.25225,0.02120
1102.19208,0.02209
1100.13191,0.02313
1098.07174,0.02416
1096.01157,0.02508
1093.95139,0.02603
1091.89122,0.02696
1089.83105,0.02774
1087.77088,0.02843
1085.71071,0.02909
1083.65053,0.02977
1081.59036,0.03059
1079.53019,0.03145
1077.47002,0.03220
1075.40985,0.03297
1073.34967,0.03376
1071.28950,0.03442
1069.22933,0.03491
1067.16916,0.03542
1065.10898,0.03598
1063.04881,0.03638
1060.98864,0.03665
1058.92847,0.03688
1056.86830,0.03705
1054.80812,0.03733
1052.74795,0.03785
1050.68778,0.03851
1048.62761,0.03917
1046.56744,0.03977
1044.50726,0.04030
1042.44709,0.04097
1040.38692,0.04179
1038.32675,0.04233
1036.26657,0.04240
1034.20640,0.04232
1032.14623,0.04233
1030.08606,0.04241
1028.02589,0.04245
1025.96571,0.04251
1023.90554,0.04274
1021.84537,0.04303
1019.78520,0.04319
1017.72503,0.04336
1015.66485,0.04361
1013.60468,0.04367
1011.54451,0.04355
1009.48434,0.04342
1007.42417,0.04321
1005.36399,0.04286
1003.30382,0.04244
1001.24365,0.04192
999.18348,0.04135
997.12330,0.04091
995.06313,0.04047
993.00296,0.03998
990.94279,0.03955
988.88262,0.03915
986.82244,0.03875
984.76227,0.03834
982.70210,0.03786
980.64193,0.03728
978.58176,0.03669
976.52158,0.03624
974.46141,0.03590
972.40124,0.03553
970.34107,0.03513
968.28089,0.03477
966.22072,0.03432
964.16055,0.03373
962.10038,0.03316
960.04021,0.03267
957.98003,0.03222
955.91986,0.03183
953.85969,0.03142
951.79952,0.03096
949.73935,0.03047
947.67917,0.02983
945.61900,0.02880
943.55883,0.02748
941.49866,0.02619
939.43849,0.02490
937.37831,0.02342
935.31814,0.02173
933.25797,0.01990
931.19780,0.01817
929.13762,0.01670
927.07745,0.01539
925.01728,0.01419
922.95711,0.01318
920.89694,0.01235
918.83676,0.01160
916.77659,0.01077
914.71642,0.00992
912.65625,0.00923
910.59608,0.00866
908.53590,0.00799
906.47573,0.00739
904.41556,0.00716
902.35539,0.00723
900.29522,0.00741
898.23504,0.00759
896.17487,0.00776
894.11470,0.00783
892.05453,0.00763
889.99435,0.00720
887.93418,0.00687
885.87401,0.00671
883.81384,0.00628
881.75367,0.00543
879.69349,0.00467
877.63332,0.00427
875.57315,0.00389
873.51298,0.00357
871.45281,0.00354
869.39263,0.00357
867.33246,0.00351
865.27229,0.00352
863.21212,0.00356
861.15194,0.00342
859.09177,0.00308
857.03160,0.00279
854.97143,0.00262
852.91126,0.00251
850.85108,0.00261
848.79091,0.00256
846.73074,0.00188
844.67057,0.00114
842.61040,0.00098
840.55022,0.00111
838.49005,0.00110
836.42988,0.00093
834.36971,0.00056
832.30954,0.00013
830.24936,0.00000
828.18919,0.00029
826.12902,0.00072
824.06885,0.00093
822.00867,0.00104
819.94850,0.00125
817.88833,0.00161
815.82816,0.00190
813.76799,0.00200
811.70781,0.00206
809.64764,0.00207
807.58747,0.00189
805.52730,0.00170
803.46713,0.00169
801.40695,0.00157
799.34678,0.00134
797.28661,0.00115
795.22644,0.00083
793.16627,0.00058
791.10609,0.00045
789.04592,0.00024
786.98575,0.00020
784.92558,0.00051
782.86540,0.00072
780.80523,0.00052
778.74506,0.00042
776.68489,0.00070
774.62472,0.00073
772.56454,0.00043
770.50437,0.00041
768.44420,0.00081
766.38403,0.00117
764.32386,0.00116
762.26368,0.00092
760.20351,0.00079
758.14334,0.00100
756.08317,0.00138
754.02299,0.00137
751.96282,0.00083
749.90265,0.00029
747.84248,0.00000
745.78231,-0.00001
743.72213,0.00036
741.66196,0.00047
739.60179,0.00026
737.54162,0.00026
735.48145,0.00038
733.42127,0.00028
731.36110,-0.00009
729.30093,-0.00055
727.24076,-0.00074
725.18059,-0.00062
723.12041,-0.00038
721.06024,-0.00009
719.00007,0.00022
716.93990,0.00036
714.87972,0.00039
712.81955,0.00065
710.75938,0.00128
708.69921,0.00189
706.63904,0.00198
704.57886,0.00160
702.51869,0.00123
700.45852,0.00113
698.39835,0.00114
696.33818,0.00114
694.27800,0.00106
692.21783,0.00074
690.15766,0.00046
688.09749,0.00079
686.03731,0.00121
683.97714,0.00085
681.91697,0.00010
679.85680,-0.00019
677.79663,0.00002
675.73645,0.00030
673.67628,0.00006
671.61611,-0.00073
669.55594,-0.00080
667.49577,0.00057
665.43559,0.00145
663.37542,0.00105
661.31525,0.00040
659.25508,0.00053
657.19491,0.00128
655.13473,0.00196
653.07456,0.00216
651.01439,0.00171
648.95422,0.00093
646.89404,0.00053
644.83387,0.00066
642.77370,0.00084
640.71353,0.00053
638.65336,0.00016
636.59318,0.00044
634.53301,0.00101
632.47284,0.00100
630.41267,0.00023
628.35250,-0.00033
626.29232,0.00017
624.23215,0.00054
622.17198,0.00078
620.11181,0.00112
618.05164,0.00039
615.99146,0.00037
613.93129,0.00281
611.87112,0.00426
609.81095,0.00252
607.75077,0.00033
605.69060,-0.00035
603.63043,-0.00087
601.57026,-0.00110
599.51009,0.00000
