3996.73391,0.00155
3994.67373,0.00168
3992.61356,0.00171
3990.55339,0.00127
3988.49322,0.00066
3986.43305,0.00017
3984.37287,0.00000
3982.31270,0.00027
3980.25253,0.00069
3978.19236,0.00096
3976.13219,0.00116
3974.07201,0.00132
3972.01184,0.00143
3969.95167,0.00151
3967.89150,0.00146
3965.83133,0.00122
3963.77115,0.00098
3961.71098,0.00087
3959.65081,0.00101
3957.59064,0.00158
3955.53046,0.00228
3953.47029,0.00258
3951.41012,0.00238
3949.34995,0.00185
3947.28978,0.00127
3945.22960,0.00092
3943.16943,0.00058
3941.10926,0.00033
3939.04909,0.00068
3936.98892,0.00128
3934.92874,0.00144
3932.86857,0.00143
3930.80840,0.00157
3928.74823,0.00136
3926.68805,0.00101
3924.62788,0.00130
3922.56771,0.00195
3920.50754,0.00212
3918.44737,0.00200
3916.38719,0.00200
3914.32702,0.00207
3912.26685,0.00224
3910.20668,0.00250
3908.14651,0.00254
3906.08633,0.00238
3904.02616,0.00250
3901.96599,0.00292
3899.90582,0.00314
3897.84565,0.00287
3895.78547,0.00234
3893.72530,0.00185
3891.66513,0.00164
3889.60496,0.00174
3887.54478,0.00185
3885.48461,0.00193
3883.42444,0.00225
3881.36427,0.00304
3879.30410,0.00418
3877.24392,0.00474
3875.18375,0.00421
3873.12358,0.00315
3871.06341,0.00219
3869.00324,0.00149
3866.94306,0.00136
3864.88289,0.00177
3862.82272,0.00220
3860.76255,0.00227
3858.70237,0.00204
3856.64220,0.00134
3854.58203,0.00028
3852.52186,0.00000
3850.46169,0.00057
3848.40151,0.00114
3846.34134,0.00159
3844.28117,0.00187
3842.22100,0.00182
3840.16083,0.00137
3838.10065,0.00099
3836.04048,0.00109
3833.98031,0.00132
3831.92014,0.00149
3829.85997,0.00174
3827.79979,0.00190
3825.73962,0.00191
3823.67945,0.00173
3821.61928,0.00116
3819.55910,0.00079
3817.49893,0.00143
3815.43876,0.00282
3813.37859,0.00408
3811.31842,0.00468
3809.25824,0.00458
3807.19807,0.00392
3805.13790,0.00319
3803.07773,0.00287
3801.01756,0.00299
3798.95738,0.00320
3796.89721,0.00310
3794.83704,0.00258
3792.77687,0.00181
3790.71670,0.00120
3788.65652,0.00115
3786.59635,0.00175
3784.53618,0.00261
3782.47601,0.00314
3780.41583,0.00317
3778.35566,0.00305
3776.29549,0.00294
3774.23532,0.00291
3772.17515,0.00314
3770.11497,0.00345
3768.05480,0.00335
3765.99463,0.00273
3763.93446,0.00196
3761.87429,0.00143
3759.81411,0.00126
3757.75394,0.00141
3755.69377,0.00170
3753.63360,0.00179
3751.57342,0.00155
3749.51325,0.00176
3747.45308,0.00285
3745.39291,0.00381
3743.33274,0.00349
3741.27256,0.00230
3739.21239,0.00136
3737.15222,0.00121
3735.09205,0.00190
3733.03188,0.00285
3730.97170,0.00321
3728.91153,0.00301
3726.85136,0.00265
3724.79119,0.00243
3722.73102,0.00244
3720.67084,0.00234
3718.61067,0.00208
3716.55050,0.00184
3714.49033,0.00145
3712.43015,0.00083
3710.36998,0.00065
3708.30981,0.00150
3706.24964,0.00286
3704.18947,0.00379
3702.12929,0.00343
3700.06912,0.00236
3698.00895,0.00189
3695.94878,0.00212
3693.88861,0.00219
3691.82843,0.00144
3689.76826,0.00060
3687.70809,0.00114
3685.64792,0.00243
3683.58775,0.00312
3681.52757,0.00301
3679.46740,0.00199
3677.40723,0.00046
3675.34706,0.00000
3673.28688,0.00109
3671.22671,0.00224
3669.16654,0.00305
3667.10637,0.00330
3665.04620,0.00279
3662.98602,0.00238
3660.92585,0.00253
3658.86568,0.00243
3656.80551,0.00194
3654.74534,0.00160
3652.68516,0.00120
3650.62499,0.00062
3648.56482,0.00046
3646.50465,0.00138
3644.44447,0.00314
3642.38430,0.00450
3640.32413,0.00476
3638.26396,0.00452
3636.20379,0.00435
3634.14361,0.00434
3632.08344,0.00482
3630.02327,0.00562
3627.96310,0.00592
3625.90293,0.00554
3623.84275,0.00481
3621.78258,0.00394
3619.72241,0.00322
3617.66224,0.00319
3615.60207,0.00368
3613.54189,0.00399
3611.48172,0.00436
3609.42155,0.00486
3607.36138,0.00536
3605.30120,0.00599
3603.24103,0.00632
3601.18086,0.00596
3599.12069,0.00555
3597.06052,0.00576
3595.00034,0.00637
3592.94017,0.00705
3590.88000,0.00727
3588.81983,0.00726
3586.75966,0.00755
3584.69948,0.00773
3582.63931,0.00750
3580.57914,0.00741
3578.51897,0.00796
3576.45879,0.00918
3574.39862,0.01035
3572.33845,0.01045
3570.27828,0.00926
3568.21811,0.00768
3566.15793,0.00764
3564.09776,0.00950
3562.03759,0.01119
3559.97742,0.01176
3557.91725,0.01205
3555.85707,0.01254
3553.79690,0.01260
3551.73673,0.01195
3549.67656,0.01117
3547.61639,0.01082
3545.55621,0.01125
3543.49604,0.01236
3541.43587,0.01347
3539.37570,0.01419
3537.31552,0.01461
3535.25535,0.01499
3533.19518,0.01543
3531.13501,0.01561
3529.07484,0.01551
3527.01466,0.01550
3524.95449,0.01583
3522.89432,0.01651
3520.83415,0.01715
3518.77398,0.01759
3516.71380,0.01807
3514.65363,0.01859
3512.59346,0.01898
3510.53329,0.01900
3508.47312,0.01894
3506.41294,0.01923
3504.35277,0.01962
3502.29260,0.01987
3500.23243,0.02006
3498.17225,0.02027
3496.11208,0.02096
3494.05191,0.02204
3491.99174,0.02249
3489.93157,0.02220
3487.87139,0.02201
3485.81122,0.02215
3483.75105,0.02250
3481.69088,0.02313
3479.63071,0.02396
3477.57053,0.02470
3475.51036,0.02528
3473.45019,0.02555
3471.39002,0.02550
3469.32984,0.02556
3467.26967,0.02596
3465.20950,0.02659
3463.14933,0.02697
3461.08916,0.02704
3459.02898,0.02761
3456.96881,0.02872
3454.90864,0.02916
3452.84847,0.02872
3450.78830,0.02832
3448.72812,0.02812
3446.66795,0.02792
3444.60778,0.02789
3442.54761,0.02836
3440.48744,0.02947
3438.42726,0.03050
3436.36709,0.03088
3434.30692,0.03094
3432.24675,0.03111
3430.18657,0.03133
3428.12640,0.03153
3426.06623,0.03186
3424.00606,0.03229
3421.94589,0.03263
3419.88571,0.03273
3417.82554,0.03266
3415.76537,0.03274
3413.70520,0.03304
3411.64503,0.03330
3409.58485,0.03320
3407.52468,0.03292
3405.46451,0.03307
3403.40434,0.03376
3401.34416,0.03467
3399.28399,0.03548
3397.22382,0.03575
3395.16365,0.03584
3393.10348,0.03594
3391.04330,0.03590
3388.98313,0.03614
3386.92296,0.03658
3384.86279,0.03650
3382.80262,0.03613
3380.74244,0.03612
3378.68227,0.03641
3376.62210,0.03691
3374.56193,0.03756
3372.50176,0.03799
3370.44158,0.03796
3368.38141,0.03766
3366.32124,0.03767
3364.26107,0.03814
3362.20089,0.03828
3360.14072,0.03776
3358.08055,0.03733
3356.02038,0.03757
3353.96021,0.03819
3351.90003,0.03852
3349.83986,0.03832
3347.77969,0.03786
3345.71952,0.03774
3343.65935,0.03814
3341.59917,0.03848
3339.53900,0.03860
3337.47883,0.03902
3335.41866,0.03963
3333.35849,0.03971
3331.29831,0.03906
3329.23814,0.03842
3327.17797,0.03820
3325.11780,0.03830
3323.05762,0.03907
3320.99745,0.04010
3318.93728,0.04052
3316.87711,0.04032
3314.81694,0.03968
3312.75676,0.03896
3310.69659,0.03882
3308.63642,0.03924
3306.57625,0.03970
3304.51608,0.04003
3302.45590,0.04022
3300.39573,0.04033
3298.33556,0.04043
3296.27539,0.04057
3294.21521,0.04082
3292.15504,0.04096
3290.09487,0.04078
3288.03470,0.04036
3285.97453,0.04014
3283.91435,0.04026
3281.85418,0.04035
3279.79401,0.04039
3277.73384,0.04028
3275.67367,0.04013
3273.61349,0.04064
3271.55332,0.04140
3269.49315,0.04129
3267.43298,0.04071
3265.37281,0.04038
3263.31263,0.04008
3261.25246,0.03970
3259.19229,0.03952
3257.13212,0.03982
3255.07194,0.04035
3253.01177,0.04042
3250.95160,0.03995
3248.89143,0.03953
3246.83126,0.03957
3244.77108,0.03979
3242.71091,0.03964
3240.65074,0.03926
3238.59057,0.03919
3236.53040,0.03946
3234.47022,0.03967
3232.41005,0.03949
3230.34988,0.03888
3228.28971,0.03818
3226.22954,0.03806
3224.16936,0.03853
3222.10919,0.03876
3220.04902,0.03856
3217.98885,0.03827
3215.92867,0.03811
3213.86850,0.03810
3211.80833,0.03812
3209.74816,0.03838
3207.68799,0.03879
3205.62781,0.03854
3203.56764,0.03762
3201.50747,0.03708
3199.44730,0.03721
3197.38713,0.03739
3195.32695,0.03718
3193.26678,0.03667
3191.20661,0.03630
3189.14644,0.03616
3187.08626,0.03613
3185.02609,0.03616
3182.96592,0.03593
3180.90575,0.03544
3178.84558,0.03518
3176.78540,0.03509
3174.72523,0.03480
3172.66506,0.03471
3170.60489,0.03478
3168.54472,0.03454
3166.48454,0.03424
3164.42437,0.03393
3162.36420,0.03337
3160.30403,0.03288
3158.24386,0.03289
3156.18368,0.03312
3154.12351,0.03324
3152.06334,0.03337
3150.00317,0.03327
3147.94299,0.03282
3145.88282,0.03231
3143.82265,0.03171
3141.76248,0.03120
3139.70231,0.03117
3137.64213,0.03150
3135.58196,0.03153
3133.52179,0.03120
3131.46162,0.03100
3129.40145,0.03084
3127.34127,0.03038
3125.28110,0.02989
3123.22093,0.02981
3121.16076,0.02991
3119.10058,0.02978
3117.04041,0.02942
3114.98024,0.02905
3112.92007,0.02852
3110.85990,0.02778
3108.79972,0.02748
3106.73955,0.02771
3104.67938,0.02773
3102.61921,0.02751
3100.55904,0.02746
3098.49886,0.02756
3096.43869,0.02753
3094.37852,0.02708
3092.31835,0.02658
3090.25818,0.02656
3088.19800,0.02678
3086.13783,0.02673
3084.07766,0.02634
3082.01749,0.02587
3079.95731,0.02561
3077.89714,0.02564
3075.83697,0.02570
3073.77680,0.02562
3071.71663,0.02554
3069.65645,0.02537
3067.59628,0.02504
3065.53611,0.02473
3063.47594,0.02448
3061.41577,0.02417
3059.35559,0.02371
3057.29542,0.02343
3055.23525,0.02326
3053.17508,0.02297
3051.11491,0.02280
3049.05473,0.02279
3046.99456,0.02288
3044.93439,0.02296
3042.87422,0.02270
3040.81404,0.02213
3038.75387,0.02162
3036.69370,0.02136
3034.63353,0.02135
3032.57336,0.02151
3030.51318,0.02158
3028.45301,0.02123
3026.39284,0.02081
3024.33267,0.02075
3022.27250,0.02088
3020.21232,0.02079
3018.15215,0.02048
3016.09198,0.02029
3014.03181,0.02030
3011.97163,0.02043
3009.91146,0.02054
3007.85129,0.02050
3005.79112,0.02049
3003.73095,0.02055
3001.67077,0.02047
2999.61060,0.01983
2997.55043,0.01868
2995.49026,0.01810
2993.43009,0.01831
2991.36991,0.01851
2989.30974,0.01850
2987.24957,0.01863
2985.18940,0.01882
2983.12923,0.01873
2981.06905,0.01851
2979.00888,0.01866
2976.94871,0.01928
2974.88854,0.02022
2972.82836,0.02111
2970.76819,0.02198
2968.70802,0.02297
2966.64785,0.02408
2964.58768,0.02521
2962.52750,0.02589
2960.46733,0.02629
2958.40716,0.02723
2956.34699,0.02877
2954.28682,0.03019
2952.22664,0.03103
2950.16647,0.03177
2948.10630,0.03323
2946.04613,0.03525
2943.98596,0.03743
2941.92578,0.03955
2939.86561,0.04117
2937.80544,0.04232
2935.74527,0.04358
2933.68509,0.04536
2931.62492,0.04738
2929.56475,0.04905
2927.50458,0.05010
2925.44441,0.05081
2923.38423,0.05129
2921.32406,0.05134
2919.26389,0.05119
2917.20372,0.05093
2915.14355,0.05014
2913.08337,0.04865
2911.02320,0.04695
2908.96303,0.04541
2906.90286,0.04383
2904.84268,0.04220
2902.78251,0.04088
2900.72234,0.04000
2898.66217,0.03911
2896.60200,0.03806
2894.54182,0.03736
2892.48165,0.03674
2890.42148,0.03593
2888.36131,0.03535
2886.30114,0.03478
2884.24096,0.03410
2882.18079,0.03390
2880.12062,0.03401
2878.06045,0.03382
2876.00028,0.03348
2873.94010,0.03343
2871.87993,0.03355
2869.81976,0.03355
2867.75959,0.03362
2865.69941,0.03427
2863.63924,0.03558
2861.57907,0.03719
2859.51890,0.03888
2857.45873,0.04030
2855.39855,0.04098
2853.33838,0.04151
2851.27821,0.04231
2849.21804,0.04219
2847.15787,0.04043
2845.09769,0.03778
2843.03752,0.03523
2840.97735,0.03305
2838.91718,0.03111
2836.85700,0.02958
2834.79683,0.02862
2832.73666,0.02771
2830.67649,0.02669
2828.61632,0.02598
2826.55614,0.02560
2824.49597,0.02536
2822.43580,0.02491
2820.37563,0.02414
2818.31546,0.02362
2816.25528,0.02346
2814.19511,0.02329
2812.13494,0.02314
2810.07477,0.02305
2808.01460,0.02271
2805.95442,0.02207
2803.89425,0.02150
2801.83408,0.02133
2799.77391,0.02153
2797.71373,0.02182
2795.65356,0.02181
2793.59339,0.02110
2791.53322,0.02000
2789.47305,0.01936
2787.41287,0.01944
2785.35270,0.01972
2783.29253,0.01979
2781.23236,0.01963
2779.17219,0.01934
2777.11201,0.01924
2775.05184,0.01934
2772.99167,0.01937
2770.93150,0.01924
2768.87133,0.01892
2766.81115,0.01858
2764.75098,0.01850
2762.69081,0.01869
2760.63064,0.01879
2758.57046,0.01866
2756.51029,0.01864
2754.45012,0.01886
2752.38995,0.01897
2750.32978,0.01870
2748.26960,0.01811
2746.20943,0.01772
2744.14926,0.01779
2742.08909,0.01805
2740.02892,0.01826
2737.96874,0.01857
2735.90857,0.01893
2733.84840,0.01876
2731.78823,0.01817
2729.72805,0.01797
2727.66788,0.01813
2725.60771,0.01814
2723.54754,0.01801
2721.48737,0.01790
2719.42719,0.01772
2717.36702,0.01755
2715.30685,0.01770
2713.24668,0.01809
2711.18651,0.01811
2709.12633,0.01784
2707.06616,0.01768
2705.00599,0.01750
2702.94582,0.01729
2700.88565,0.01712
2698.82547,0.01707
2696.76530,0.01724
2694.70513,0.01725
2692.64496,0.01694
2690.58478,0.01674
2688.52461,0.01690
2686.46444,0.01725
2684.40427,0.01744
2682.34410,0.01716
2680.28392,0.01676
2678.22375,0.01677
2676.16358,0.01701
2674.10341,0.01695
2672.04324,0.01671
2669.98306,0.01669
2667.92289,0.01694
2665.86272,0.01712
2663.80255,0.01677
2661.74238,0.01609
2659.68220,0.01572
2657.62203,0.01586
2655.56186,0.01608
2653.50169,0.01592
2651.44151,0.01561
2649.38134,0.01551
2647.32117,0.01569
2645.26100,0.01596
2643.20083,0.01600
2641.14065,0.01576
2639.08048,0.01556
2637.02031,0.01566
2634.96014,0.01576
2632.89997,0.01554
2630.83979,0.01524
2628.77962,0.01508
2626.71945,0.01492
2624.65928,0.01477
2622.59910,0.01463
2620.53893,0.01458
2618.47876,0.01495
2616.41859,0.01537
2614.35842,0.01524
2612.29824,0.01513
2610.23807,0.01545
2608.17790,0.01533
2606.11773,0.01460
2604.05756,0.01416
2601.99738,0.01413
2599.93721,0.01412
2597.87704,0.01402
2595.81687,0.01379
2593.75670,0.01362
2591.69652,0.01341
2589.63635,0.01316
2587.57618,0.01327
2585.51601,0.01361
2583.45583,0.01378
2581.39566,0.01371
2579.33549,0.01376
2577.27532,0.01417
2575.21515,0.01446
2573.15497,0.01414
2571.09480,0.01348
2569.03463,0.01303
2566.97446,0.01294
2564.91429,0.01282
2562.85411,0.01246
2560.79394,0.01235
2558.73377,0.01238
2556.67360,0.01239
2554.61342,0.01282
2552.55325,0.01303
2550.49308,0.01255
2548.43291,0.01249
2546.37274,0.01329
2544.31256,0.01385
2542.25239,0.01340
2540.19222,0.01240
2538.13205,0.01177
2536.07188,0.01198
2534.01170,0.01270
2531.95153,0.01285
2529.89136,0.01255
2527.83119,0.01268
2525.77102,0.01285
2523.71084,0.01257
2521.65067,0.01199
2519.59050,0.01140
2517.53033,0.01126
2515.47015,0.01164
2513.40998,0.01203
2511.34981,0.01226
2509.28964,0.01238
2507.22947,0.01209
2505.16929,0.01130
2503.10912,0.01059
2501.04895,0.01090
2498.98878,0.01191
2496.92861,0.01220
2494.86843,0.01187
2492.80826,0.01175
2490.74809,0.01120
2488.68792,0.01035
2486.62775,0.01061
2484.56757,0.01143
2482.50740,0.01160
2480.44723,0.01149
2478.38706,0.01178
2476.32688,0.01235
2474.26671,0.01242
2472.20654,0.01149
2470.14637,0.01049
2468.08620,0.01043
2466.02602,0.01073
2463.96585,0.01080
2461.90568,0.01065
2459.84551,0.01009
2457.78534,0.00993
2455.72516,0.01050
2453.66499,0.01060
2451.60482,0.01014
2449.54465,0.01015
2447.48447,0.01033
2445.42430,0.00999
2443.36413,0.00994
2441.30396,0.01029
2439.24379,0.00984
2437.18361,0.00903
2435.12344,0.00925
2433.06327,0.01006
2431.00310,0.01017
2428.94293,0.01007
2426.88275,0.01065
2424.82258,0.01116
2422.76241,0.01114
2420.70224,0.01094
2418.64207,0.01085
2416.58189,0.01048
2414.52172,0.00940
2412.46155,0.00867
2410.40138,0.00868
2408.34120,0.00887
2406.28103,0.00928
2404.22086,0.00976
2402.16069,0.01003
2400.10052,0.01010
2398.04034,0.01045
2395.98017,0.01078
2393.92000,0.01052
2391.85983,0.00977
2389.79966,0.00928
2387.73948,0.00946
2385.67931,0.00969
2383.61914,0.00952
2381.55897,0.00928
2379.49880,0.00926
2377.43862,0.00928
2375.37845,0.00936
2373.31828,0.00899
2371.25811,0.00785
2369.19793,0.00688
2367.13776,0.00573
2365.07759,0.00339
2363.01742,0.00280
2360.95725,0.00540
2358.89707,0.01016
2356.83690,0.01205
2354.77673,0.01173
2352.71656,0.01205
2350.65639,0.01013
2348.59621,0.00920
2346.53604,0.01322
2344.47587,0.01505
2342.41570,0.01452
2340.35552,0.01330
2338.29535,0.01211
2336.23518,0.01175
2334.17501,0.01141
2332.11484,0.01114
2330.05466,0.01136
2327.99449,0.01271
2325.93432,0.01291
2323.87415,0.01114
2321.81398,0.00881
2319.75380,0.00874
2317.69363,0.00959
2315.63346,0.00988
2313.57329,0.00902
2311.51312,0.00805
2309.45294,0.00812
2307.39277,0.00866
2305.33260,0.00836
2303.27243,0.00726
2301.21225,0.00672
2299.15208,0.00736
2297.09191,0.00918
2295.03174,0.01066
2292.97157,0.01043
2290.91139,0.00972
2288.85122,0.00978
2286.79105,0.00982
2284.73088,0.00900
2282.67071,0.00807
2280.61053,0.00792
2278.55036,0.00845
2276.49019,0.00914
2274.43002,0.00955
2272.36984,0.00932
2270.30967,0.00802
2268.24950,0.00635
2266.18933,0.00564
2264.12916,0.00573
2262.06898,0.00593
2260.00881,0.00645
2257.94864,0.00687
2255.88847,0.00640
2253.82830,0.00649
2251.76812,0.00781
2249.70795,0.00800
2247.64778,0.00705
2245.58761,0.00774
2243.52744,0.00896
2241.46726,0.00881
2239.40709,0.00816
2237.34692,0.00856
2235.28675,0.00938
2233.22657,0.00870
2231.16640,0.00709
2229.10623,0.00694
2227.04606,0.00709
2224.98589,0.00586
2222.92571,0.00491
2220.86554,0.00484
2218.80537,0.00452
2216.74520,0.00435
2214.68503,0.00491
2212.62485,0.00536
2210.56468,0.00630
2208.50451,0.00827
2206.44434,0.00928
2204.38417,0.00864
2202.32399,0.00724
2200.26382,0.00576
2198.20365,0.00555
2196.14348,0.00628
2194.08330,0.00627
2192.02313,0.00613
2189.96296,0.00612
2187.90279,0.00559
2185.84262,0.00565
2183.78244,0.00586
2181.72227,0.00423
2179.66210,0.00267
2177.60193,0.00260
2175.54176,0.00222
2173.48158,0.00239
2171.42141,0.00419
2169.36124,0.00606
2167.30107,0.00728
2165.24089,0.00730
2163.18072,0.00722
2161.12055,0.00801
2159.06038,0.00715
2157.00021,0.00567
2154.94003,0.00474
2152.87986,0.00366
2150.81969,0.00394
2148.75952,0.00572
2146.69935,0.00711
2144.63917,0.00654
2142.57900,0.00529
2140.51883,0.00581
2138.45866,0.00721
2136.39849,0.00673
2134.33831,0.00507
2132.27814,0.00452
2130.21797,0.00482
2128.15780,0.00543
2126.09762,0.00616
2124.03745,0.00648
2121.97728,0.00711
2119.91711,0.00817
2117.85694,0.00836
2115.79676,0.00821
2113.73659,0.00840
2111.67642,0.00813
2109.61625,0.00799
2107.55608,0.00833
2105.49590,0.00782
2103.43573,0.00648
2101.37556,0.00525
2099.31539,0.00457
2097.25521,0.00505
2095.19504,0.00650
2093.13487,0.00851
2091.07470,0.00926
2089.01453,0.00770
2086.95435,0.00641
2084.89418,0.00648
2082.83401,0.00638
2080.77384,0.00581
2078.71367,0.00576
2076.65349,0.00666
2074.59332,0.00717
2072.53315,0.00664
2070.47298,0.00636
2068.41281,0.00679
2066.35263,0.00780
2064.29246,0.00863
2062.23229,0.00831
2060.17212,0.00754
2058.11194,0.00726
2056.05177,0.00761
2053.99160,0.00785
2051.93143,0.00704
2049.87126,0.00578
2047.81108,0.00473
2045.75091,0.00262
2043.69074,0.00013
2041.63057,0.00000
2039.57040,0.00147
2037.51022,0.00251
2035.45005,0.00372
2033.38988,0.00563
2031.32971,0.00663
2029.26954,0.00582
2027.20936,0.00534
2025.14919,0.00625
2023.08902,0.00534
2021.02885,0.00271
2018.96867,0.00294
2016.90850,0.00523
2014.84833,0.00616
2012.78816,0.00631
2010.72799,0.00739
2008.66781,0.00866
2006.60764,0.00736
2004.54747,0.00419
2002.48730,0.00207
2000.42713,0.00111
1998.36695,0.00096
1996.30678,0.00193
1994.24661,0.00266
1992.18644,0.00251
1990.12626,0.00306
1988.06609,0.00384
1986.00592,0.00407
1983.94575,0.00486
1981.88558,0.00533
1979.82540,0.00372
1977.76523,0.00173
1975.70506,0.00179
1973.64489,0.00181
1971.58472,0.00070
1969.52454,0.00096
1967.46437,0.00191
1965.40420,0.00137
1963.34403,0.00036
1961.28386,0.00000
1959.22368,0.00011
1957.16351,0.00087
1955.10334,0.00194
1953.04317,0.00281
1950.98299,0.00351
1948.92282,0.00375
1946.86265,0.00255
1944.80248,0.00031
1942.74231,-0.00024
1940.68213,0.00174
1938.62196,0.00368
1936.56179,0.00428
1934.50162,0.00409
1932.44145,0.00358
1930.38127,0.00291
1928.32110,0.00237
1926.26093,0.00238
1924.20076,0.00289
1922.14059,0.00337
1920.08041,0.00354
1918.02024,0.00351
1915.96007,0.00347
1913.89990,0.00347
1911.83972,0.00365
1909.77955,0.00421
1907.71938,0.00456
1905.65921,0.00389
1903.59904,0.00275
1901.53886,0.00221
1899.47869,0.00264
1897.41852,0.00343
1895.35835,0.00361
1893.29818,0.00318
1891.23800,0.00279
1889.17783,0.00279
1887.11766,0.00336
1885.05749,0.00381
1882.99731,0.00340
1880.93714,0.00256
1878.87697,0.00229
1876.81680,0.00259
1874.75663,0.00275
1872.69645,0.00243
1870.63628,0.00156
1868.57611,0.00093
1866.51594,0.00144
1864.45577,0.00242
1862.39559,0.00299
1860.33542,0.00301
1858.27525,0.00263
1856.21508,0.00228
1854.15491,0.00232
1852.09473,0.00261
1850.03456,0.00255
1847.97439,0.00191
1845.91422,0.00095
1843.85404,0.00022
1841.79387,0.00029
1839.73370,0.00083
1837.67353,0.00090
1835.61336,0.00041
1833.55318,0.00021
1831.49301,0.00035
1829.43284,0.00046
1827.37267,0.00066
1825.31250,0.00093
1823.25232,0.00116
1821.19215,0.00125
1819.13198,0.00119
1817.07181,0.00121
1815.01163,0.00143
1812.95146,0.00157
1810.89129,0.00145
1808.83112,0.00128
1806.77095,0.00115
1804.71077,0.00096
1802.65060,0.00060
1800.59043,0.00015
1798.53026,-0.00006
1796.47009,0.00010
1794.40991,0.00021
1792.34974,0.00006
1790.28957,-0.00004
1788.22940,0.00010
1786.16923,0.00054
1784.10905,0.00092
1782.04888,0.00077
1779.98871,0.00034
1777.92854,0.00012
1775.86836,0.00005
1773.80819,0.00000
1771.74802,0.00013
1769.68785,0.00062
1767.62768,0.00125
1765.56750,0.00167
1763.50733,0.00184
1761.44716,0.00203
1759.38699,0.00267
1757.32682,0.00389
1755.26664,0.00544
1753.20647,0.00685
1751.14630,0.00785
1749.08613,0.00846
1747.02596,0.00904
1744.96578,0.00979
1742.90561,0.01080
1740.84544,0.01181
1738.78527,0.01229
1736.72509,0.01203
1734.66492,0.01174
1732.60475,0.01221
1730.54458,0.01281
1728.48441,0.01308
1726.42423,0.01331
1724.36406,0.01357
1722.30389,0.01361
1720.24372,0.01299
1718.18355,0.01183
1716.12337,0.01152
1714.06320,0.01261
1712.00303,0.01368
1709.94286,0.01373
1707.88268,0.01291
1705.82251,0.01206
1703.76234,0.01189
1701.70217,0.01198
1699.64200,0.01164
1697.58182,0.01123
1695.52165,0.01176
1693.46148,0.01318
1691.40131,0.01471
1689.34114,0.01602
1687.28096,0.01688
1685.22079,0.01746
1683.16062,0.01871
1681.10045,0.02076
1679.04028,0.02287
1676.98010,0.02455
1674.91993,0.02548
1672.85976,0.02546
1670.79959,0.02476
1668.73941,0.02430
1666.67924,0.02447
1664.61907,0.02434
1662.55890,0.02356
1660.49873,0.02292
1658.43855,0.02266
1656.37838,0.02229
1654.31821,0.02153
1652.25804,0.02094
1650.19787,0.02074
1648.13769,0.02045
1646.07752,0.02051
1644.01735,0.02134
1641.95718,0.02210
1639.89701,0.02204
1637.83683,0.02140
1635.77666,0.02168
1633.71649,0.02334
1631.65632,0.02467
1629.59614,0.02530
1627.53597,0.02581
1625.47580,0.02618
1623.41563,0.02626
1621.35546,0.02628
1619.29528,0.02625
1617.23511,0.02630
1615.17494,0.02686
1613.11477,0.02784
1611.05460,0.02909
1608.99442,0.03051
1606.93425,0.03169
1604.87408,0.03216
1602.81391,0.03175
1600.75373,0.03080
1598.69356,0.02979
1596.63339,0.02859
1594.57322,0.02703
1592.51305,0.02566
1590.45287,0.02505
1588.39270,0.02490
1586.33253,0.02446
1584.27236,0.02359
1582.21219,0.02268
1580.15201,0.02177
1578.09184,0.02063
1576.03167,0.01983
1573.97150,0.01988
1571.91133,0.01970
1569.85115,0.01875
1567.79098,0.01779
1565.73081,0.01715
1563.67064,0.01637
1561.61046,0.01517
1559.55029,0.01357
1557.49012,0.01246
1555.42995,0.01211
1553.36978,0.01178
1551.30960,0.01148
1549.24943,0.01128
1547.18926,0.01075
1545.12909,0.00949
1543.06892,0.00773
1541.00874,0.00633
1538.94857,0.00612
1536.88840,0.00637
1534.82823,0.00607
1532.76805,0.00568
1530.70788,0.00571
1528.64771,0.00551
1526.58754,0.00481
1524.52737,0.00438
1522.46719,0.00495
1520.40702,0.00635
1518.34685,0.00767
1516.28668,0.00886
1514.22651,0.00970
1512.16633,0.00928
1510.10616,0.00714
1508.04599,0.00421
1505.98582,0.00302
1503.92565,0.00369
1501.86547,0.00401
1499.80530,0.00347
1497.74513,0.00271
1495.68496,0.00228
1493.62478,0.00178
1491.56461,0.00077
1489.50444,0.00000
1487.44427,0.00027
1485.38410,0.00089
1483.32392,0.00118
1481.26375,0.00134
1479.20358,0.00168
1477.14341,0.00204
1475.08324,0.00237
1473.02306,0.00357
1470.96289,0.00592
1468.90272,0.00815
1466.84255,0.00978
1464.78238,0.01105
1462.72220,0.01178
1460.66203,0.01176
1458.60186,0.01161
1456.54169,0.01246
1454.48151,0.01412
1452.42134,0.01565
1450.36117,0.01678
1448.30100,0.01754
1446.24083,0.01828
1444.18065,0.01925
1442.12048,0.02017
1440.06031,0.02069
1438.00014,0.02097
1435.93997,0.02150
1433.87979,0.02200
1431.81962,0.02197
1429.75945,0.02197
1427.69928,0.02245
1425.63910,0.02281
1423.57893,0.02282
1421.51876,0.02280
1419.45859,0.02273
1417.39842,0.02277
1415.33824,0.02306
1413.27807,0.02311
1411.21790,0.02265
1409.15773,0.02188
1407.09756,0.02100
1405.03738,0.02019
1402.97721,0.01961
1400.91704,0.01906
1398.85687,0.01825
1396.79670,0.01733
1394.73652,0.01684
1392.67635,0.01701
1390.61618,0.01733
1388.55601,0.01737
1386.49583,0.01738
1384.43566,0.01771
1382.37549,0.01834
1380.31532,0.01909
1378.25515,0.01965
1376.19497,0.01979
1374.13480,0.01991
1372.07463,0.02033
1370.01446,0.02062
1367.95429,0.02067
1365.89411,0.02071
1363.83394,0.02048
1361.77377,0.01982
1359.71360,0.01919
1357.65343,0.01884
1355.59325,0.01868
1353.53308,0.01876
1351.47291,0.01900
1349.41274,0.01904
1347.35256,0.01874
1345.29239,0.01843
1343.23222,0.01828
1341.17205,0.01804
1339.11188,0.01776
1337.05170,0.01774
1334.99153,0.01792
1332.93136,0.01813
1330.87119,0.01836
1328.81102,0.01858
1326.75084,0.01887
1324.69067,0.01915
1322.63050,0.01915
1320.57033,0.01893
1318.51015,0.01878
1316.44998,0.01886
1314.38981,0.01898
1312.32964,0.01880
1310.26947,0.01841
1308.20929,0.01803
1306.14912,0.01748
1304.08895,0.01669
1302.02878,0.01603
1299.96861,0.01552
1297.90843,0.01502
1295.84826,0.01465
1293.78809,0.01445
1291.72792,0.01444
1289.66775,0.01483
1287.60757,0.01552
1285.54740,0.01627
1283.48723,0.01667
1281.42706,0.01642
1279.36688,0.01601
1277.30671,0.01600
1275.24654,0.01612
1273.18637,0.01622
1271.12620,0.01670
1269.06602,0.01761
1267.00585,0.01842
1264.94568,0.01888
1262.88551,0.01933
1260.82534,0.01990
1258.76516,0.02041
1256.70499,0.02085
1254.64482,0.02125
1252.58465,0.02164
1250.52447,0.02203
1248.46430,0.02224
1246.40413,0.02247
1244.34396,0.02297
1242.28379,0.02327
1240.22361,0.02314
1238.16344,0.02286
1236.10327,0.02263
1234.04310,0.02248
1231.98293,0.02216
1229.92275,0.02158
1227.86258,0.02075
1225.80241,0.01943
1223.74224,0.01803
1221.68207,0.01714
1219.62189,0.01646
1217.56172,0.01562
1215.50155,0.01452
1213.44138,0.01318
1211.38120,0.01191
1209.32103,0.01085
1207.26086,0.00996
1205.20069,0.00910
1203.14052,0.00792
1201.08034,0.00631
1199.02017,0.00474
1196.96000,0.00352
1194.89983,0.00247
1192.83966,0.00155
1190.77948,0.00078
1188.71931,0.00021
1186.65914,0.00000
1184.59897,-0.00011
1182.53880,-0.00025
1180.47862,-0.00001
1178.41845,0.00087
1176.35828,0.00210
1174.29811,0.00371
1172.23793,0.00588
1170.17776,0.00806
1168.11759,0.00958
1166.05742,0.01035
1163.99725,0.01080
1161.93707,0.01119
1159.87690,0.01164
1157.81673,0.01206
1155.75656,0.01254
1153.69639,0.01332
1151.63621,0.01421
1149.57604,0.01506
1147.51587,0.01592
1145.45570,0.01686
1143.39552,0.01775
1141.33535,0.01847
1139.27518,0.01906
1137.21501,0.01927
1135.15484,0.01927
1133.09466,0.01982
1131.03449,0.02095
1128.97432,0.02203
1126.91415,0.02260
1124.85398,0.02299
1122.79380,0.02403
1120.73363,0.02570
1118.67346,0.02719
1116.61329,0.02831
1114.55312,0.02944
1112.49294,0.03046
1110.43277,0.03110
1108.37260,0.03153
1106.31243,0.03221
1104.25225,0.03335
1102.19208,0.03468
1100.13191,0.03587
1098.07174,0.03727
1096.01157,0.03922
1093.95139,0.04129
1091.89122,0.04313
1089.83105,0.04461
1087.77088,0.04574
1085.71071,0.04747
1083.65053,0.04964
1081.59036,0.05112
1079.53019,0.05246
1077.47002,0.05434
1075.40985,0.05637
1073.34967,0.05839
1071.28950,0.06053
1069.22933,0.06234
1067.16916,0.06340
1065.10898,0.06404
1063.04881,0.06497
1060.98864,0.06655
1058.92847,0.06819
1056.86830,0.06949
1054.80812,0.07067
1052.74795,0.07195
1050.68778,0.07366
1048.62761,0.07590
1046.56744,0.07824
1044.50726,0.08030
1042.44709,0.08223
1040.38692,0.08410
1038.32675,0.08575
1036.26657,0.08734
1034.20640,0.08825
1032.14623,0.08829
1030.08606,0.08833
1028.02589,0.08818
1025.96571,0.08759
1023.90554,0.08699
1021.84537,0.08682
1019.78520,0.08697
1017.72503,0.08666
1015.66485,0.08621
1013.60468,0.08652
1011.54451,0.08673
1009.48434,0.08620
1007.42417,0.08607
1005.36399,0.08641
1003.30382,0.08613
1001.24365,0.08545
999.18348,0.08512
997.12330,0.08480
995.06313,0.08384
993.00296,0.08238
990.94279,0.08096
988.88262,0.07973
986.82244,0.07850
984.76227,0.07714
982.70210,0.07578
980.64193,0.07470
978.58176,0.07380
976.52158,0.07247
974.46141,0.07052
972.40124,0.06855
970.34107,0.06698
968.28089,0.06559
966.22072,0.06422
964.16055,0.06291
962.10038,0.06124
960.04021,0.05936
957.98003,0.05816
955.91986,0.05726
953.85969,0.05603
951.79952,0.05472
949.73935,0.05346
947.67917,0.05216
945.61900,0.05067
943.55883,0.04904
941.49866,0.04696
939.43849,0.04419
937.37831,0.04120
935.31814,0.03820
933.25797,0.03543
931.19780,0.03328
929.13762,0.03160
927.07745,0.02986
925.01728,0.02813
922.95711,0.02663
920.89694,0.02530
918.83676,0.02410
916.77659,0.02270
914.71642,0.02118
912.65625,0.01999
910.59608,0.01895
908.53590,0.01757
906.47573,0.01607
904.41556,0.01518
902.35539,0.01472
900.29522,0.01423
898.23504,0.01445
896.17487,0.01558
894.11470,0.01640
892.05453,0.01620
889.99435,0.01556
887.93418,0.01530
885.87401,0.01497
883.81384,0.01358
881.75367,0.01163
879.69349,0.01008
877.63332,0.00885
875.57315,0.00821
873.51298,0.00873
871.45281,0.00945
869.39263,0.00884
867.33246,0.00764
865.27229,0.00732
863.21212,0.00720
861.15194,0.00665
859.09177,0.00638
857.03160,0.00653
854.97143,0.00675
852.91126,0.00643
850.85108,0.00530
848.79091,0.00497
846.73074,0.00642
844.67057,0.00767
842.61040,0.00709
840.55022,0.00535
838.49005,0.00415
836.42988,0.00399
834.36971,0.00408
832.30954,0.00450
830.24936,0.00547
828.18919,0.00503
826.12902,0.00262
824.06885,0.00133
822.00867,0.00250
819.94850,0.00374
817.88833,0.00333
815.82816,0.00214
813.76799,0.00183
811.70781,0.00262
809.64764,0.00324
807.58747,0.00294
805.52730,0.00203
803.46713,0.00107
801.40695,0.00092
799.34678,0.00158
797.28661,0.00245
795.22644,0.00304
793.16627,0.00279
791.10609,0.00206
789.04592,0.00182
786.98575,0.00202
784.92558,0.00186
782.86540,0.00144
780.80523,0.00109
778.74506,0.00111
776.68489,0.00177
774.62472,0.00206
772.56454,0.00160
770.50437,0.00171
768.44420,0.00240
766.38403,0.00253
764.32386,0.00208
762.26368,0.00194
760.20351,0.00264
758.14334,0.00298
756.08317,0.00186
754.02299,0.00069
751.96282,0.00025
749.90265,0.00000
747.84248,0.00025
745.78231,0.00100
743.72213,0.00105
741.66196,0.00044
739.60179,0.00020
737.54162,0.00057
735.48145,0.00112
733.42127,0.00080
731.36110,0.00002
729.30093,0.00087
727.24076,0.00317
725.18059,0.00509
723.12041,0.00523
721.06024,0.00500
719.00007,0.00482
716.93990,0.00471
714.87972,0.00439
712.81955,0.00457
710.75938,0.00604
708.69921,0.00808
706.63904,0.00967
704.57886,0.01086
702.51869,0.01169
700.45852,0.01124
698.39835,0.00933
696.33818,0.00726
694.27800,0.00672
692.21783,0.00802
690.15766,0.00914
688.09749,0.00823
686.03731,0.00614
683.97714,0.00457
681.91697,0.00368
679.85680,0.00307
677.79663,0.00264
675.73645,0.00254
673.67628,0.00163
671.61611,0.00000
669.55594,0.00452
667.49577,0.01123
665.43559,0.00970
663.37542,0.01170
661.31525,0.01168
659.25508,0.00824
657.19491,0.00418
655.13473,0.00286
653.07456,0.00437
651.01439,0.00555
648.95422,0.00483
646.89404,0.00260
644.83387,0.00175
642.77370,0.00407
640.71353,0.00738
638.65336,0.00713
636.59318,0.00305
634.53301,0.00110
632.47284,0.00444
630.41267,0.00760
628.35250,0.00639
626.29232,0.00393
624.23215,0.00414
622.17198,0.00623
620.11181,0.00450
618.05164,-0.00080
615.99146,-0.00182
613.93129,-0.00069
611.87112,-0.00110
609.81095,-0.00037
607.75077,0.00328
605.69060,0.00465
603.63043,0.00081
601.57026,-0.00115
599.51009,0.00000
