3996.73391,0.00011
3994.67373,0.00040
3992.61356,0.00039
3990.55339,0.00000
3988.49322,0.00006
3986.43305,0.00058
3984.37287,0.00093
3982.31270,0.00086
3980.25253,0.00056
3978.19236,0.00035
3976.13219,0.00051
3974.07201,0.00096
3972.01184,0.00132
3969.95167,0.00131
3967.89150,0.00099
3965.83133,0.00066
3963.77115,0.00054
3961.71098,0.00063
3959.65081,0.00094
3957.59064,0.00137
3955.53046,0.00162
3953.47029,0.00150
3951.41012,0.00126
3949.34995,0.00116
3947.28978,0.00106
3945.22960,0.00077
3943.16943,0.00048
3941.10926,0.00044
3939.04909,0.00042
3936.98892,0.00017
3934.92874,0.00000
3932.86857,0.00032
3930.80840,0.00093
3928.74823,0.00123
3926.68805,0.00127
3924.62788,0.00145
3922.56771,0.00155
3920.50754,0.00134
3918.44737,0.00121
3916.38719,0.00126
3914.32702,0.00118
3912.26685,0.00124
3910.20668,0.00179
3908.14651,0.00252
3906.08633,0.00285
3904.02616,0.00268
3901.96599,0.00249
3899.90582,0.00268
3897.84565,0.00277
3895.78547,0.00230
3893.72530,0.00156
3891.66513,0.00109
3889.60496,0.00092
3887.54478,0.00064
3885.48461,0.00044
3883.42444,0.00076
3881.36427,0.00139
3879.30410,0.00204
3877.24392,0.00241
3875.18375,0.00244
3873.12358,0.00245
3871.06341,0.00238
3869.00324,0.00202
3866.94306,0.00192
3864.88289,0.00234
3862.82272,0.00253
3860.76255,0.00211
3858.70237,0.00158
3856.64220,0.00122
3854.58203,0.00083
3852.52186,0.00029
3850.46169,0.00000
3848.40151,0.00039
3846.34134,0.00151
3844.28117,0.00283
3842.22100,0.00352
3840.16083,0.00316
3838.10065,0.00196
3836.04048,0.00086
3833.98031,0.00075
3831.92014,0.00131
3829.85997,0.00172
3827.79979,0.00183
3825.73962,0.00190
3823.67945,0.00210
3821.61928,0.00209
3819.55910,0.00162
3817.49893,0.00147
3815.43876,0.00205
3813.37859,0.00252
3811.31842,0.00242
3809.25824,0.00203
3807.19807,0.00152
3805.13790,0.00118
3803.07773,0.00132
3801.01756,0.00169
3798.95738,0.00211
3796.89721,0.00253
3794.83704,0.00242
3792.77687,0.00183
3790.71670,0.00132
3788.65652,0.00108
3786.59635,0.00118
3784.53618,0.00158
3782.47601,0.00181
3780.41583,0.00170
3778.35566,0.00154
3776.29549,0.00146
3774.23532,0.00141
3772.17515,0.00160
3770.11497,0.00209
3768.05480,0.00235
3765.99463,0.00192
3763.93446,0.00117
3761.87429,0.00075
3759.81411,0.00070
3757.75394,0.00075
3755.69377,0.00098
3753.63360,0.00123
3751.57342,0.00130
3749.51325,0.00165
3747.45308,0.00242
3745.39291,0.00240
3743.33274,0.00107
3741.27256,0.00018
3739.21239,0.00059
3737.15222,0.00165
3735.09205,0.00275
3733.03188,0.00314
3730.97170,0.00249
3728.91153,0.00157
3726.85136,0.00098
3724.79119,0.00081
3722.73102,0.00103
3720.67084,0.00153
3718.61067,0.00202
3716.55050,0.00232
3714.49033,0.00231
3712.43015,0.00188
3710.36998,0.00132
3708.30981,0.00126
3706.24964,0.00183
3704.18947,0.00229
3702.12929,0.00201
3700.06912,0.00117
3698.00895,0.00075
3695.94878,0.00112
3693.88861,0.00153
3691.82843,0.00137
3689.76826,0.00107
3687.70809,0.00142
3685.64792,0.00152
3683.58775,0.00076
3681.52757,0.00000
3679.46740,0.00022
3677.40723,0.00125
3675.34706,0.00188
3673.28688,0.00162
3671.22671,0.00148
3669.16654,0.00176
3667.10637,0.00164
3665.04620,0.00103
3662.98602,0.00071
3660.92585,0.00085
3658.86568,0.00104
3656.80551,0.00139
3654.74534,0.00179
3652.68516,0.00188
3650.62499,0.00178
3648.56482,0.00128
3646.50465,0.00091
3644.44447,0.00154
3642.38430,0.00239
3640.32413,0.00268
3638.26396,0.00266
3636.20379,0.00269
3634.14361,0.00285
3632.08344,0.00312
3630.02327,0.00330
3627.96310,0.00340
3625.90293,0.00349
3623.84275,0.00319
3621.78258,0.00253
3619.72241,0.00231
3617.66224,0.00308
3615.60207,0.00412
3613.54189,0.00459
3611.48172,0.00454
3609.42155,0.00461
3607.36138,0.00515
3605.30120,0.00603
3603.24103,0.00685
3601.18086,0.00678
3599.12069,0.00581
3597.06052,0.00529
3595.00034,0.00571
3592.94017,0.00632
3590.88000,0.00663
3588.81983,0.00659
3586.75966,0.00646
3584.69948,0.00623
3582.63931,0.00579
3580.57914,0.00546
3578.51897,0.00566
3576.45879,0.00642
3574.39862,0.00748
3572.33845,0.00852
3570.27828,0.00924
3568.21811,0.00957
3566.15793,0.00978
3564.09776,0.01012
3562.03759,0.01060
3559.97742,0.01097
3557.91725,0.01110
3555.85707,0.01121
3553.79690,0.01150
3551.73673,0.01186
3549.67656,0.01212
3547.61639,0.01231
3545.55621,0.01249
3543.49604,0.01265
3541.43587,0.01286
3539.37570,0.01329
3537.31552,0.01377
3535.25535,0.01407
3533.19518,0.01444
3531.13501,0.01513
3529.07484,0.01593
3527.01466,0.01647
3524.95449,0.01668
3522.89432,0.01672
3520.83415,0.01663
3518.77398,0.01647
3516.71380,0.01634
3514.65363,0.01636
3512.59346,0.01666
3510.53329,0.01719
3508.47312,0.01787
3506.41294,0.01863
3504.35277,0.01933
3502.29260,0.01987
3500.23243,0.02006
3498.17225,0.01990
3496.11208,0.01984
3494.05191,0.02007
3491.99174,0.02032
3489.93157,0.02074
3487.87139,0.02142
3485.81122,0.02188
3483.75105,0.02215
3481.69088,0.02270
3479.63071,0.02353
3477.57053,0.02401
3475.51036,0.02410
3473.45019,0.02434
3471.39002,0.02470
3469.32984,0.02507
3467.26967,0.02552
3465.20950,0.02586
3463.14933,0.02591
3461.08916,0.02584
3459.02898,0.02624
3456.96881,0.02724
3454.90864,0.02798
3452.84847,0.02788
3450.78830,0.02768
3448.72812,0.02777
3446.66795,0.02770
3444.60778,0.02763
3442.54761,0.02794
3440.48744,0.02840
3438.42726,0.02880
3436.36709,0.02928
3434.30692,0.02990
3432.24675,0.03052
3430.18657,0.03079
3428.12640,0.03062
3426.06623,0.03072
3424.00606,0.03146
3421.94589,0.03215
3419.88571,0.03222
3417.82554,0.03208
3415.76537,0.03213
3413.70520,0.03226
3411.64503,0.03261
3409.58485,0.03309
3407.52468,0.03320
3405.46451,0.03317
3403.40434,0.03333
3401.34416,0.03374
3399.28399,0.03444
3397.22382,0.03499
3395.16365,0.03498
3393.10348,0.03480
3391.04330,0.03499
3388.98313,0.03538
3386.92296,0.03540
3384.86279,0.03489
3382.80262,0.03459
3380.74244,0.03504
3378.68227,0.03564
3376.62210,0.03595
3374.56193,0.03638
3372.50176,0.03708
3370.44158,0.03752
3368.38141,0.03729
3366.32124,0.03682
3364.26107,0.03700
3362.20089,0.03784
3360.14072,0.03834
3358.08055,0.03815
3356.02038,0.03800
3353.96021,0.03810
3351.90003,0.03792
3349.83986,0.03763
3347.77969,0.03765
3345.71952,0.03787
3343.65935,0.03812
3341.59917,0.03817
3339.53900,0.03825
3337.47883,0.03888
3335.41866,0.03950
3333.35849,0.03940
3331.29831,0.03895
3329.23814,0.03855
3327.17797,0.03819
3325.11780,0.03791
3323.05762,0.03811
3320.99745,0.03884
3318.93728,0.03942
3316.87711,0.03946
3314.81694,0.03937
3312.75676,0.03964
3310.69659,0.04003
3308.63642,0.04006
3306.57625,0.03986
3304.51608,0.03981
3302.45590,0.03979
3300.39573,0.03949
3298.33556,0.03916
3296.27539,0.03930
3294.21521,0.03967
3292.15504,0.03971
3290.09487,0.03938
3288.03470,0.03908
3285.97453,0.03920
3283.91435,0.03945
3281.85418,0.03950
3279.79401,0.03949
3277.73384,0.03951
3275.67367,0.03962
3273.61349,0.03997
3271.55332,0.04043
3269.49315,0.04042
3267.43298,0.03975
3265.37281,0.03912
3263.31263,0.03909
3261.25246,0.03928
3259.19229,0.03916
3257.13212,0.03930
3255.07194,0.03987
3253.01177,0.03992
3250.95160,0.03935
3248.89143,0.03885
3246.83126,0.03844
3244.77108,0.03819
3242.71091,0.03849
3240.65074,0.03889
3238.59057,0.03905
3236.53040,0.03913
3234.47022,0.03907
3232.41005,0.03880
3230.34988,0.03856
3228.28971,0.03816
3226.22954,0.03763
3224.16936,0.03743
3222.10919,0.03728
3220.04902,0.03692
3217.98885,0.03673
3215.92867,0.03691
3213.86850,0.03730
3211.80833,0.03739
3209.74816,0.03715
3207.68799,0.03722
3205.62781,0.03745
3203.56764,0.03713
3201.50747,0.03647
3199.44730,0.03625
3197.38713,0.03673
3195.32695,0.03700
3193.26678,0.03637
3191.20661,0.03567
3189.14644,0.03552
3187.08626,0.03521
3185.02609,0.03463
3182.96592,0.03437
3180.90575,0.03448
3178.84558,0.03478
3176.78540,0.03508
3174.72523,0.03513
3172.66506,0.03498
3170.60489,0.03448
3168.54472,0.03373
3166.48454,0.03325
3164.42437,0.03293
3162.36420,0.03248
3160.30403,0.03232
3158.24386,0.03246
3156.18368,0.03244
3154.12351,0.03222
3152.06334,0.03193
3150.00317,0.03166
3147.94299,0.03161
3145.88282,0.03154
3143.82265,0.03125
3141.76248,0.03102
3139.70231,0.03101
3137.64213,0.03110
3135.58196,0.03102
3133.52179,0.03059
3131.46162,0.03008
3129.40145,0.02983
3127.34127,0.02978
3125.28110,0.02967
3123.22093,0.02939
3121.16076,0.02923
3119.10058,0.02926
3117.04041,0.02888
3114.98024,0.02816
3112.92007,0.02761
3110.85990,0.02706
3108.79972,0.02664
3106.73955,0.02672
3104.67938,0.02706
3102.61921,0.02736
3100.55904,0.02736
3098.49886,0.02689
3096.43869,0.02627
3094.37852,0.02588
3092.31835,0.02568
3090.25818,0.02566
3088.19800,0.02574
3086.13783,0.02570
3084.07766,0.02542
3082.01749,0.02491
3079.95731,0.02441
3077.89714,0.02428
3075.83697,0.02442
3073.77680,0.02447
3071.71663,0.02430
3069.65645,0.02392
3067.59628,0.02353
3065.53611,0.02344
3063.47594,0.02346
3061.41577,0.02315
3059.35559,0.02248
3057.29542,0.02200
3055.23525,0.02192
3053.17508,0.02195
3051.11491,0.02210
3049.05473,0.02234
3046.99456,0.02231
3044.93439,0.02192
3042.87422,0.02150
3040.81404,0.02121
3038.75387,0.02093
3036.69370,0.02065
3034.63353,0.02041
3032.57336,0.02026
3030.51318,0.02023
3028.45301,0.02015
3026.39284,0.02001
3024.33267,0.02005
3022.27250,0.02012
3020.21232,0.01985
3018.15215,0.01935
3016.09198,0.01929
3014.03181,0.01973
3011.97163,0.02000
3009.91146,0.01980
3007.85129,0.01950
3005.79112,0.01923
3003.73095,0.01890
3001.67077,0.01872
2999.61060,0.01856
2997.55043,0.01813
2995.49026,0.01774
2993.43009,0.01759
2991.36991,0.01753
2989.30974,0.01749
2987.24957,0.01758
2985.18940,0.01769
2983.12923,0.01773
2981.06905,0.01781
2979.00888,0.01814
2976.94871,0.01883
2974.88854,0.01970
2972.82836,0.02045
2970.76819,0.02111
2968.70802,0.02187
2966.64785,0.02274
2964.58768,0.02364
2962.52750,0.02458
2960.46733,0.02564
2958.40716,0.02703
2956.34699,0.02857
2954.28682,0.02981
2952.22664,0.03071
2950.16647,0.03162
2948.10630,0.03309
2946.04613,0.03502
2943.98596,0.03677
2941.92578,0.03847
2939.86561,0.04032
2937.80544,0.04194
2935.74527,0.04326
2933.68509,0.04467
2931.62492,0.04645
2929.56475,0.04844
2927.50458,0.05009
2925.44441,0.05130
2923.38423,0.05203
2921.32406,0.05202
2919.26389,0.05182
2917.20372,0.05146
2915.14355,0.05032
2913.08337,0.04872
2911.02320,0.04699
2908.96303,0.04506
2906.90286,0.04336
2904.84268,0.04205
2902.78251,0.04080
2900.72234,0.03964
2898.66217,0.03888
2896.60200,0.03828
2894.54182,0.03745
2892.48165,0.03651
2890.42148,0.03566
2888.36131,0.03492
2886.30114,0.03427
2884.24096,0.03366
2882.18079,0.03313
2880.12062,0.03293
2878.06045,0.03294
2876.00028,0.03290
2873.94010,0.03294
2871.87993,0.03295
2869.81976,0.03280
2867.75959,0.03287
2865.69941,0.03359
2863.63924,0.03499
2861.57907,0.03667
2859.51890,0.03831
2857.45873,0.03963
2855.39855,0.04057
2853.33838,0.04158
2851.27821,0.04230
2849.21804,0.04155
2847.15787,0.03943
2845.09769,0.03711
2843.03752,0.03507
2840.97735,0.03296
2838.91718,0.03079
2836.85700,0.02921
2834.79683,0.02817
2832.73666,0.02704
2830.67649,0.02579
2828.61632,0.02484
2826.55614,0.02436
2824.49597,0.02409
2822.43580,0.02372
2820.37563,0.02323
2818.31546,0.02282
2816.25528,0.02254
2814.19511,0.02242
2812.13494,0.02237
2810.07477,0.02214
2808.01460,0.02174
2805.95442,0.02139
2803.89425,0.02109
2801.83408,0.02071
2799.77391,0.02035
2797.71373,0.02017
2795.65356,0.02014
2793.59339,0.01989
2791.53322,0.01937
2789.47305,0.01908
2787.41287,0.01895
2785.35270,0.01856
2783.29253,0.01825
2781.23236,0.01825
2779.17219,0.01822
2777.11201,0.01826
2775.05184,0.01854
2772.99167,0.01878
2770.93150,0.01864
2768.87133,0.01817
2766.81115,0.01776
2764.75098,0.01765
2762.69081,0.01772
2760.63064,0.01780
2758.57046,0.01783
2756.51029,0.01772
2754.45012,0.01763
2752.38995,0.01783
2750.32978,0.01790
2748.26960,0.01755
2746.20943,0.01734
2744.14926,0.01752
2742.08909,0.01767
2740.02892,0.01760
2737.96874,0.01745
2735.90857,0.01758
2733.84840,0.01777
2731.78823,0.01755
2729.72805,0.01725
2727.66788,0.01714
2725.60771,0.01695
2723.54754,0.01691
2721.48737,0.01720
2719.42719,0.01717
2717.36702,0.01677
2715.30685,0.01646
2713.24668,0.01638
2711.18651,0.01653
2709.12633,0.01676
2707.06616,0.01672
2705.00599,0.01648
2702.94582,0.01639
2700.88565,0.01638
2698.82547,0.01632
2696.76530,0.01628
2694.70513,0.01610
2692.64496,0.01590
2690.58478,0.01586
2688.52461,0.01585
2686.46444,0.01596
2684.40427,0.01616
2682.34410,0.01596
2680.28392,0.01560
2678.22375,0.01567
2676.16358,0.01587
2674.10341,0.01589
2672.04324,0.01595
2669.98306,0.01606
2667.92289,0.01606
2665.86272,0.01604
2663.80255,0.01602
2661.74238,0.01572
2659.68220,0.01520
2657.62203,0.01510
2655.56186,0.01543
2653.50169,0.01558
2651.44151,0.01552
2649.38134,0.01533
2647.32117,0.01511
2645.26100,0.01503
2643.20083,0.01491
2641.14065,0.01465
2639.08048,0.01452
2637.02031,0.01463
2634.96014,0.01471
2632.89997,0.01459
2630.83979,0.01434
2628.77962,0.01397
2626.71945,0.01375
2624.65928,0.01405
2622.59910,0.01447
2620.53893,0.01446
2618.47876,0.01434
2616.41859,0.01430
2614.35842,0.01413
2612.29824,0.01394
2610.23807,0.01393
2608.17790,0.01393
2606.11773,0.01364
2604.05756,0.01300
2601.99738,0.01239
2599.93721,0.01239
2597.87704,0.01297
2595.81687,0.01346
2593.75670,0.01328
2591.69652,0.01254
2589.63635,0.01214
2587.57618,0.01251
2585.51601,0.01282
2583.45583,0.01251
2581.39566,0.01204
2579.33549,0.01194
2577.27532,0.01226
2575.21515,0.01258
2573.15497,0.01248
2571.09480,0.01226
2569.03463,0.01215
2566.97446,0.01185
2564.91429,0.01153
2562.85411,0.01160
2560.79394,0.01221
2558.73377,0.01248
2556.67360,0.01179
2554.61342,0.01124
2552.55325,0.01115
2550.49308,0.01091
2548.43291,0.01101
2546.37274,0.01172
2544.31256,0.01211
2542.25239,0.01195
2540.19222,0.01172
2538.13205,0.01131
2536.07188,0.01083
2534.01170,0.01085
2531.95153,0.01109
2529.89136,0.01114
2527.83119,0.01097
2525.77102,0.01065
2523.71084,0.01061
2521.65067,0.01066
2519.59050,0.01034
2517.53033,0.01017
2515.47015,0.01028
2513.40998,0.01055
2511.34981,0.01083
2509.28964,0.01051
2507.22947,0.01004
2505.16929,0.01000
2503.10912,0.01004
2501.04895,0.01001
2498.98878,0.00991
2496.92861,0.00968
2494.86843,0.00964
2492.80826,0.00988
2490.74809,0.01000
2488.68792,0.00996
2486.62775,0.01003
2484.56757,0.00991
2482.50740,0.00955
2480.44723,0.00952
2478.38706,0.00984
2476.32688,0.01010
2474.26671,0.01025
2472.20654,0.01046
2470.14637,0.01073
2468.08620,0.01059
2466.02602,0.01009
2463.96585,0.00999
2461.90568,0.00978
2459.84551,0.00882
2457.78534,0.00837
2455.72516,0.00892
2453.66499,0.00925
2451.60482,0.00925
2449.54465,0.00957
2447.48447,0.00972
2445.42430,0.00941
2443.36413,0.00949
2441.30396,0.00981
2439.24379,0.00945
2437.18361,0.00897
2435.12344,0.00894
2433.06327,0.00897
2431.00310,0.00915
2428.94293,0.00948
2426.88275,0.00950
2424.82258,0.00956
2422.76241,0.01004
2420.70224,0.01007
2418.64207,0.00937
2416.58189,0.00889
2414.52172,0.00873
2412.46155,0.00838
2410.40138,0.00785
2408.34120,0.00751
2406.28103,0.00766
2404.22086,0.00824
2402.16069,0.00877
2400.10052,0.00891
2398.04034,0.00923
2395.98017,0.00953
2393.92000,0.00936
2391.85983,0.00890
2389.79966,0.00862
2387.73948,0.00881
2385.67931,0.00906
2383.61914,0.00863
2381.55897,0.00799
2379.49880,0.00829
2377.43862,0.00966
2375.37845,0.01114
2373.31828,0.01194
2371.25811,0.01139
2369.19793,0.00986
2367.13776,0.00952
2365.07759,0.01022
2363.01742,0.00983
2360.95725,0.01061
2358.89707,0.01086
2356.83690,0.00982
2354.77673,0.00913
2352.71656,0.00868
2350.65639,0.00938
2348.59621,0.01011
2346.53604,0.01002
2344.47587,0.01279
2342.41570,0.01534
2340.35552,0.01498
2338.29535,0.01245
2336.23518,0.00866
2334.17501,0.00543
2332.11484,0.00397
2330.05466,0.00478
2327.99449,0.00724
2325.93432,0.00983
2323.87415,0.01023
2321.81398,0.00948
2319.75380,0.00918
2317.69363,0.00983
2315.63346,0.01021
2313.57329,0.01000
2311.51312,0.00957
2309.45294,0.00914
2307.39277,0.00853
2305.33260,0.00754
2303.27243,0.00672
2301.21225,0.00669
2299.15208,0.00778
2297.09191,0.00916
2295.03174,0.00968
2292.97157,0.00947
2290.91139,0.00927
2288.85122,0.00918
2286.79105,0.00894
2284.73088,0.00876
2282.67071,0.00899
2280.61053,0.00944
2278.55036,0.00971
2276.49019,0.00948
2274.43002,0.00879
2272.36984,0.00814
2270.30967,0.00743
2268.24950,0.00643
2266.18933,0.00584
2264.12916,0.00603
2262.06898,0.00657
2260.00881,0.00727
2257.94864,0.00756
2255.88847,0.00675
2253.82830,0.00575
2251.76812,0.00568
2249.70795,0.00602
2247.64778,0.00615
2245.58761,0.00639
2243.52744,0.00646
2241.46726,0.00586
2239.40709,0.00571
2237.34692,0.00710
2235.28675,0.00858
2233.22657,0.00849
2231.16640,0.00715
2229.10623,0.00575
2227.04606,0.00481
2224.98589,0.00438
2222.92571,0.00534
2220.86554,0.00710
2218.80537,0.00684
2216.74520,0.00507
2214.68503,0.00439
2212.62485,0.00447
2210.56468,0.00455
2208.50451,0.00508
2206.44434,0.00538
2204.38417,0.00477
2202.32399,0.00401
2200.26382,0.00310
2198.20365,0.00287
2196.14348,0.00402
2194.08330,0.00467
2192.02313,0.00383
2189.96296,0.00224
2187.90279,0.00186
2185.84262,0.00362
2183.78244,0.00458
2181.72227,0.00295
2179.66210,0.00189
2177.60193,0.00272
2175.54176,0.00298
2173.48158,0.00231
2171.42141,0.00282
2169.36124,0.00454
2167.30107,0.00552
2165.24089,0.00559
2163.18072,0.00633
2161.12055,0.00735
2159.06038,0.00700
2157.00021,0.00659
2154.94003,0.00592
2152.87986,0.00396
2150.81969,0.00408
2148.75952,0.00710
2146.69935,0.00881
2144.63917,0.00717
2142.57900,0.00432
2140.51883,0.00296
2138.45866,0.00369
2136.39849,0.00452
2134.33831,0.00426
2132.27814,0.00444
2130.21797,0.00526
2128.15780,0.00564
2126.09762,0.00552
2124.03745,0.00495
2121.97728,0.00486
2119.91711,0.00574
2117.85694,0.00649
2115.79676,0.00736
2113.73659,0.00825
2111.67642,0.00760
2109.61625,0.00605
2107.55608,0.00509
2105.49590,0.00485
2103.43573,0.00493
2101.37556,0.00481
2099.31539,0.00492
2097.25521,0.00546
2095.19504,0.00586
2093.13487,0.00661
2091.07470,0.00728
2089.01453,0.00653
2086.95435,0.00526
2084.89418,0.00472
2082.83401,0.00494
2080.77384,0.00562
2078.71367,0.00630
2076.65349,0.00674
2074.59332,0.00636
2072.53315,0.00547
2070.47298,0.00575
2068.41281,0.00692
2066.35263,0.00740
2064.29246,0.00741
2062.23229,0.00718
2060.17212,0.00618
2058.11194,0.00526
2056.05177,0.00542
2053.99160,0.00565
2051.93143,0.00465
2049.87126,0.00309
2047.81108,0.00268
2045.75091,0.00316
2043.69074,0.00265
2041.63057,0.00191
2039.57040,0.00200
2037.51022,0.00270
2035.45005,0.00446
2033.38988,0.00612
2031.32971,0.00607
2029.26954,0.00448
2027.20936,0.00300
2025.14919,0.00332
2023.08902,0.00385
2021.02885,0.00292
2018.96867,0.00218
2016.90850,0.00243
2014.84833,0.00321
2012.78816,0.00376
2010.72799,0.00360
2008.66781,0.00359
2006.60764,0.00348
2004.54747,0.00263
2002.48730,0.00170
2000.42713,0.00130
1998.36695,0.00154
1996.30678,0.00284
1994.24661,0.00487
1992.18644,0.00547
1990.12626,0.00444
1988.06609,0.00461
1986.00592,0.00628
1983.94575,0.00731
1981.88558,0.00676
1979.82540,0.00484
1977.76523,0.00309
1975.70506,0.00235
1973.64489,0.00130
1971.58472,0.00035
1969.52454,0.00055
1967.46437,0.00108
1965.40420,0.00111
1963.34403,0.00079
1961.28386,0.00041
1959.22368,0.00000
1957.16351,-0.00002
1955.10334,0.00091
1953.04317,0.00241
1950.98299,0.00366
1948.92282,0.00394
1946.86265,0.00311
1944.80248,0.00211
1942.74231,0.00226
1940.68213,0.00303
1938.62196,0.00295
1936.56179,0.00270
1934.50162,0.00283
1932.44145,0.00258
1930.38127,0.00215
1928.32110,0.00202
1926.26093,0.00211
1924.20076,0.00262
1922.14059,0.00342
1920.08041,0.00405
1918.02024,0.00424
1915.96007,0.00367
1913.89990,0.00282
1911.83972,0.00272
1909.77955,0.00326
1907.71938,0.00343
1905.65921,0.00301
1903.59904,0.00266
1901.53886,0.00274
1899.47869,0.00279
1897.41852,0.00270
1895.35835,0.00295
1893.29818,0.00333
1891.23800,0.00328
1889.17783,0.00308
1887.11766,0.00319
1885.05749,0.00327
1882.99731,0.00275
1880.93714,0.00189
1878.87697,0.00150
1876.81680,0.00157
1874.75663,0.00170
1872.69645,0.00193
1870.63628,0.00210
1868.57611,0.00193
1866.51594,0.00163
1864.45577,0.00155
1862.39559,0.00161
1860.33542,0.00156
1858.27525,0.00143
1856.21508,0.00151
1854.15491,0.00185
1852.09473,0.00213
1850.03456,0.00189
1847.97439,0.00134
1845.91422,0.00124
1843.85404,0.00145
1841.79387,0.00136
1839.73370,0.00116
1837.67353,0.00085
1835.61336,0.00041
1833.55318,0.00025
1831.49301,0.00031
1829.43284,0.00041
1827.37267,0.00089
1825.31250,0.00142
1823.25232,0.00132
1821.19215,0.00074
1819.13198,0.00022
1817.07181,0.00002
1815.01163,0.00025
1812.95146,0.00070
1810.89129,0.00088
1808.83112,0.00055
1806.77095,0.00010
1804.71077,0.00006
1802.65060,0.00034
1800.59043,0.00051
1798.53026,0.00036
1796.47009,0.00016
1794.40991,0.00022
1792.34974,0.00038
1790.28957,0.00030
1788.22940,0.00018
1786.16923,0.00026
1784.10905,0.00037
1782.04888,0.00033
1779.98871,0.00022
1777.92854,0.00016
1775.86836,0.00009
1773.80819,0.00000
1771.74802,-0.00002
1769.68785,0.00007
1767.62768,0.00018
1765.56750,0.00033
1763.50733,0.00055
1761.44716,0.00100
1759.38699,0.00195
1757.32682,0.00339
1755.26664,0.00486
1753.20647,0.00615
1751.14630,0.00756
1749.08613,0.00907
1747.02596,0.01028
1744.96578,0.01107
1742.90561,0.01161
1740.84544,0.01207
1738.78527,0.01238
1736.72509,0.01242
1734.66492,0.01258
1732.60475,0.01315
1730.54458,0.01354
1728.48441,0.01346
1726.42423,0.01328
1724.36406,0.01317
1722.30389,0.01296
1720.24372,0.01264
1718.18355,0.01253
1716.12337,0.01288
1714.06320,0.01340
1712.00303,0.01361
1709.94286,0.01347
1707.88268,0.01327
1705.82251,0.01308
1703.76234,0.01287
1701.70217,0.01303
1699.64200,0.01348
1697.58182,0.01333
1695.52165,0.01284
1693.46148,0.01303
1691.40131,0.01411
1689.34114,0.01564
1687.28096,0.01704
1685.22079,0.01830
1683.16062,0.01978
1681.10045,0.02133
1679.04028,0.02298
1676.98010,0.02469
1674.91993,0.02591
1672.85976,0.02632
1670.79959,0.02616
1668.73941,0.02552
1666.67924,0.02479
1664.61907,0.02444
1662.55890,0.02411
1660.49873,0.02342
1658.43855,0.02282
1656.37838,0.02279
1654.31821,0.02297
1652.25804,0.02254
1650.19787,0.02204
1648.13769,0.02198
1646.07752,0.02181
1644.01735,0.02161
1641.95718,0.02177
1639.89701,0.02214
1637.83683,0.02267
1635.77666,0.02353
1633.71649,0.02428
1631.65632,0.02460
1629.59614,0.02491
1627.53597,0.02547
1625.47580,0.02602
1623.41563,0.02637
1621.35546,0.02658
1619.29528,0.02679
1617.23511,0.02710
1615.17494,0.02751
1613.11477,0.02811
1611.05460,0.02911
1608.99442,0.03046
1606.93425,0.03162
1604.87408,0.03203
1602.81391,0.03162
1600.75373,0.03069
1598.69356,0.02944
1596.63339,0.02797
1594.57322,0.02652
1592.51305,0.02545
1590.45287,0.02486
1588.39270,0.02442
1586.33253,0.02373
1584.27236,0.02284
1582.21219,0.02210
1580.15201,0.02154
1578.09184,0.02101
1576.03167,0.02054
1573.97150,0.02017
1571.91133,0.01963
1569.85115,0.01875
1567.79098,0.01780
1565.73081,0.01697
1563.67064,0.01626
1561.61046,0.01608
1559.55029,0.01627
1557.49012,0.01560
1555.42995,0.01414
1553.36978,0.01287
1551.30960,0.01196
1549.24943,0.01122
1547.18926,0.01063
1545.12909,0.01024
1543.06892,0.00971
1541.00874,0.00871
1538.94857,0.00765
1536.88840,0.00725
1534.82823,0.00691
1532.76805,0.00625
1530.70788,0.00571
1528.64771,0.00550
1526.58754,0.00551
1524.52737,0.00579
1522.46719,0.00660
1520.40702,0.00782
1518.34685,0.00892
1516.28668,0.00981
1514.22651,0.01026
1512.16633,0.01007
1510.10616,0.00933
1508.04599,0.00798
1505.98582,0.00618
1503.92565,0.00494
1501.86547,0.00435
1499.80530,0.00387
1497.74513,0.00316
1495.68496,0.00242
1493.62478,0.00183
1491.56461,0.00128
1489.50444,0.00086
1487.44427,0.00065
1485.38410,0.00043
1483.32392,0.00025
1481.26375,0.00031
1479.20358,0.00066
1477.14341,0.00128
1475.08324,0.00226
1473.02306,0.00405
1470.96289,0.00635
1468.90272,0.00825
1466.84255,0.00983
1464.78238,0.01134
1462.72220,0.01248
1460.66203,0.01321
1458.60186,0.01390
1456.54169,0.01465
1454.48151,0.01528
1452.42134,0.01591
1450.36117,0.01670
1448.30100,0.01747
1446.24083,0.01812
1444.18065,0.01871
1442.12048,0.01936
1440.06031,0.02012
1438.00014,0.02112
1435.93997,0.02228
1433.87979,0.02292
1431.81962,0.02284
1429.75945,0.02256
1427.69928,0.02252
1425.63910,0.02281
1423.57893,0.02322
1421.51876,0.02363
1419.45859,0.02390
1417.39842,0.02375
1415.33824,0.02327
1413.27807,0.02271
1411.21790,0.02205
1409.15773,0.02137
1407.09756,0.02088
1405.03738,0.02050
1402.97721,0.02012
1400.91704,0.01974
1398.85687,0.01919
1396.79670,0.01846
1394.73652,0.01774
1392.67635,0.01733
1390.61618,0.01741
1388.55601,0.01769
1386.49583,0.01788
1384.43566,0.01807
1382.37549,0.01863
1380.31532,0.01952
1378.25515,0.02034
1376.19497,0.02083
1374.13480,0.02103
1372.07463,0.02112
1370.01446,0.02109
1367.95429,0.02092
1365.89411,0.02084
1363.83394,0.02079
1361.77377,0.02025
1359.71360,0.01934
1357.65343,0.01876
1355.59325,0.01865
1353.53308,0.01878
1351.47291,0.01896
1349.41274,0.01894
1347.35256,0.01870
1345.29239,0.01852
1343.23222,0.01846
1341.17205,0.01830
1339.11188,0.01805
1337.05170,0.01797
1334.99153,0.01810
1332.93136,0.01827
1330.87119,0.01833
1328.81102,0.01841
1326.75084,0.01882
1324.69067,0.01947
1322.63050,0.01975
1320.57033,0.01947
1318.51015,0.01911
1316.44998,0.01908
1314.38981,0.01902
1312.32964,0.01848
1310.26947,0.01785
1308.20929,0.01745
1306.14912,0.01700
1304.08895,0.01628
1302.02878,0.01564
1299.96861,0.01528
1297.90843,0.01498
1295.84826,0.01468
1293.78809,0.01455
1291.72792,0.01463
1289.66775,0.01487
1287.60757,0.01526
1285.54740,0.01580
1283.48723,0.01620
1281.42706,0.01621
1279.36688,0.01617
1277.30671,0.01625
1275.24654,0.01628
1273.18637,0.01644
1271.12620,0.01705
1269.06602,0.01786
1267.00585,0.01842
1264.94568,0.01879
1262.88551,0.01935
1260.82534,0.02020
1258.76516,0.02105
1256.70499,0.02161
1254.64482,0.02190
1252.58465,0.02209
1250.52447,0.02229
1248.46430,0.02256
1246.40413,0.02309
1244.34396,0.02369
1242.28379,0.02381
1240.22361,0.02347
1238.16344,0.02318
1236.10327,0.02308
1234.04310,0.02287
1231.98293,0.02237
1229.92275,0.02169
1227.86258,0.02083
1225.80241,0.01960
1223.74224,0.01836
1221.68207,0.01750
1219.62189,0.01662
1217.56172,0.01547
1215.50155,0.01432
1213.44138,0.01327
1211.38120,0.01220
1209.32103,0.01120
1207.26086,0.01021
1205.20069,0.00900
1203.14052,0.00750
1201.08034,0.00588
1199.02017,0.00452
1196.96000,0.00363
1194.89983,0.00280
1192.83966,0.00186
1190.77948,0.00102
1188.71931,0.00042
1186.65914,0.00010
1184.59897,0.00000
1182.53880,-0.00011
1180.47862,0.00004
1178.41845,0.00070
1176.35828,0.00175
1174.29811,0.00326
1172.23793,0.00520
1170.17776,0.00726
1168.11759,0.00915
1166.05742,0.01045
1163.99725,0.01103
1161.93707,0.01130
1159.87690,0.01167
1157.81673,0.01226
1155.75656,0.01295
1153.69639,0.01397
1151.63621,0.01527
1149.57604,0.01617
1147.51587,0.01656
1145.45570,0.01706
1143.39552,0.01793
1141.33535,0.01876
1139.27518,0.01920
1137.21501,0.01927
1135.15484,0.01942
1133.09466,0.02028
1131.03449,0.02159
1128.97432,0.02259
1126.91415,0.02330
1124.85398,0.02428
1122.79380,0.02574
1120.73363,0.02711
1118.67346,0.02809
1116.61329,0.02925
1114.55312,0.03057
1112.49294,0.03149
1110.43277,0.03214
1108.37260,0.03300
1106.31243,0.03396
1104.25225,0.03472
1102.19208,0.03563
1100.13191,0.03695
1098.07174,0.03862
1096.01157,0.04066
1093.95139,0.04276
1091.89122,0.04439
1089.83105,0.04563
1087.77088,0.04691
1085.71071,0.04858
1083.65053,0.05058
1081.59036,0.05241
1079.53019,0.05428
1077.47002,0.05643
1075.40985,0.05828
1073.34967,0.05987
1071.28950,0.06186
1069.22933,0.06368
1067.16916,0.06475
1065.10898,0.06578
1063.04881,0.06713
1060.98864,0.06854
1058.92847,0.06991
1056.86830,0.07124
1054.80812,0.07260
1052.74795,0.07398
1050.68778,0.07564
1048.62761,0.07766
1046.56744,0.07965
1044.50726,0.08151
1042.44709,0.08351
1040.38692,0.08573
1038.32675,0.08774
1036.26657,0.08916
1034.20640,0.08999
1032.14623,0.09053
1030.08606,0.09098
1028.02589,0.09098
1025.96571,0.09042
1023.90554,0.08970
1021.84537,0.08923
1019.78520,0.08892
1017.72503,0.08845
1015.66485,0.08806
1013.60468,0.08812
1011.54451,0.08843
1009.48434,0.08878
1007.42417,0.08929
1005.36399,0.08951
1003.30382,0.08901
1001.24365,0.08823
999.18348,0.08762
997.12330,0.08684
995.06313,0.08545
993.00296,0.08400
990.94279,0.08303
988.88262,0.08188
986.82244,0.08016
984.76227,0.07856
982.70210,0.07727
980.64193,0.07592
978.58176,0.07472
976.52158,0.07336
974.46141,0.07160
972.40124,0.07005
970.34107,0.06881
968.28089,0.06749
966.22072,0.06597
964.16055,0.06435
962.10038,0.06276
960.04021,0.06100
957.98003,0.05928
955.91986,0.05795
953.85969,0.05704
951.79952,0.05635
949.73935,0.05517
947.67917,0.05339
945.61900,0.05165
943.55883,0.05012
941.49866,0.04818
939.43849,0.04565
937.37831,0.04304
935.31814,0.04022
933.25797,0.03723
931.19780,0.03481
929.13762,0.03276
927.07745,0.03074
925.01728,0.02884
922.95711,0.02689
920.89694,0.02522
918.83676,0.02431
916.77659,0.02358
914.71642,0.02243
912.65625,0.02098
910.59608,0.01951
908.53590,0.01769
906.47573,0.01563
904.41556,0.01463
902.35539,0.01470
900.29522,0.01485
898.23504,0.01526
896.17487,0.01579
894.11470,0.01607
892.05453,0.01618
889.99435,0.01598
887.93418,0.01594
885.87401,0.01570
883.81384,0.01437
881.75367,0.01275
879.69349,0.01146
877.63332,0.01030
875.57315,0.00947
873.51298,0.00916
871.45281,0.00913
869.39263,0.00880
867.33246,0.00853
865.27229,0.00863
863.21212,0.00849
861.15194,0.00806
859.09177,0.00767
857.03160,0.00752
854.97143,0.00752
852.91126,0.00748
850.85108,0.00717
848.79091,0.00649
846.73074,0.00630
844.67057,0.00694
842.61040,0.00716
840.55022,0.00648
838.49005,0.00577
836.42988,0.00541
834.36971,0.00537
832.30954,0.00578
830.24936,0.00602
828.18919,0.00499
826.12902,0.00337
824.06885,0.00293
822.00867,0.00352
819.94850,0.00344
817.88833,0.00266
815.82816,0.00277
813.76799,0.00387
811.70781,0.00464
809.64764,0.00404
807.58747,0.00289
805.52730,0.00258
803.46713,0.00245
801.40695,0.00229
799.34678,0.00263
797.28661,0.00314
795.22644,0.00364
793.16627,0.00303
791.10609,0.00090
789.04592,0.00000
786.98575,0.00121
784.92558,0.00244
782.86540,0.00313
780.80523,0.00334
778.74506,0.00286
776.68489,0.00210
774.62472,0.00136
772.56454,0.00133
770.50437,0.00209
768.44420,0.00277
766.38403,0.00311
764.32386,0.00278
762.26368,0.00139
760.20351,0.00048
758.14334,0.00102
756.08317,0.00146
754.02299,0.00179
751.96282,0.00211
749.90265,0.00110
747.84248,0.00000
745.78231,-0.00028
743.72213,0.00003
741.66196,0.00075
739.60179,0.00071
737.54162,0.00026
735.48145,0.00157
733.42127,0.00264
731.36110,0.00157
729.30093,0.00159
727.24076,0.00335
725.18059,0.00389
723.12041,0.00321
721.06024,0.00259
719.00007,0.00304
716.93990,0.00329
714.87972,0.00234
712.81955,0.00147
710.75938,0.00219
708.69921,0.00376
706.63904,0.00456
704.57886,0.00456
702.51869,0.00444
700.45852,0.00439
698.39835,0.00414
696.33818,0.00349
694.27800,0.00290
692.21783,0.00362
690.15766,0.00620
688.09749,0.00804
686.03731,0.00688
683.97714,0.00500
681.91697,0.00447
679.85680,0.00402
677.79663,0.00235
675.73645,0.00078
673.67628,0.00082
671.61611,0.00099
669.55594,-0.00162
667.49577,-0.00247
665.43559,0.00209
663.37542,0.00303
661.31525,0.00348
659.25508,0.00362
657.19491,0.00255
655.13473,0.00212
653.07456,0.00299
651.01439,0.00327
648.95422,0.00248
646.89404,0.00177
644.83387,0.00176
642.77370,0.00286
640.71353,0.00379
638.65336,0.00332
636.59318,0.00313
634.53301,0.00464
632.47284,0.00665
630.41267,0.00822
628.35250,0.00892
626.29232,0.00839
624.23215,0.00800
622.17198,0.00759
620.11181,0.00431
618.05164,0.00073
615.99146,0.00156
613.93129,0.00384
611.87112,0.00427
609.81095,0.00249
607.75077,-0.00005
605.69060,0.00044
603.63043,0.00122
601.57026,-0.00011
599.51009,0.00000
