3996.73391,0.00012
3994.67373,0.00057
3992.61356,0.00090
3990.55339,0.00101
3988.49322,0.00093
3986.43305,0.00080
3984.37287,0.00075
3982.31270,0.00079
3980.25253,0.00083
3978.19236,0.00073
3976.13219,0.00057
3974.07201,0.00050
3972.01184,0.00058
3969.95167,0.00070
3967.89150,0.00070
3965.83133,0.00055
3963.77115,0.00030
3961.71098,0.00009
3959.65081,0.00000
3957.59064,0.00004
3955.53046,0.00013
3953.47029,0.00018
3951.41012,0.00014
3949.34995,0.00007
3947.28978,0.00006
3945.22960,0.00020
3943.16943,0.00054
3941.10926,0.00102
3939.04909,0.00140
3936.98892,0.00156
3934.92874,0.00154
3932.86857,0.00141
3930.80840,0.00122
3928.74823,0.00109
3926.68805,0.00108
3924.62788,0.00107
3922.56771,0.00096
3920.50754,0.00082
3918.44737,0.00081
3916.38719,0.00094
3914.32702,0.00104
3912.26685,0.00098
3910.20668,0.00076
3908.14651,0.00052
3906.08633,0.00046
3904.02616,0.00068
3901.96599,0.00107
3899.90582,0.00132
3897.84565,0.00133
3895.78547,0.00117
3893.72530,0.00096
3891.66513,0.00075
3889.60496,0.00058
3887.54478,0.00050
3885.48461,0.00053
3883.42444,0.00061
3881.36427,0.00065
3879.30410,0.00065
3877.24392,0.00061
3875.18375,0.00054
3873.12358,0.00046
3871.06341,0.00033
3869.00324,0.00017
3866.94306,0.00008
3864.88289,0.00019
3862.82272,0.00041
3860.76255,0.00061
3858.70237,0.00077
3856.64220,0.00095
3854.58203,0.00118
3852.52186,0.00134
3850.46169,0.00124
3848.40151,0.00092
3846.34134,0.00057
3844.28117,0.00031
3842.22100,0.00016
3840.16083,0.00005
3838.10065,0.00000
3836.04048,0.00011
3833.98031,0.00040
3831.92014,0.00066
3829.85997,0.00068
3827.79979,0.00047
3825.73962,0.00024
3823.67945,0.00014
3821.61928,0.00019
3819.55910,0.00037
3817.49893,0.00067
3815.43876,0.00100
3813.37859,0.00110
3811.31842,0.00089
3809.25824,0.00059
3807.19807,0.00042
3805.13790,0.00046
3803.07773,0.00061
3801.01756,0.00080
3798.95738,0.00101
3796.89721,0.00122
3794.83704,0.00141
3792.77687,0.00149
3790.71670,0.00140
3788.65652,0.00112
3786.59635,0.00073
3784.53618,0.00040
3782.47601,0.00026
3780.41583,0.00036
3778.35566,0.00063
3776.29549,0.00095
3774.23532,0.00124
3772.17515,0.00144
3770.11497,0.00145
3768.05480,0.00118
3765.99463,0.00080
3763.93446,0.00057
3761.87429,0.00058
3759.81411,0.00077
3757.75394,0.00099
3755.69377,0.00114
3753.63360,0.00122
3751.57342,0.00127
3749.51325,0.00130
3747.45308,0.00132
3745.39291,0.00127
3743.33274,0.00104
3741.27256,0.00082
3739.21239,0.00087
3737.15222,0.00117
3735.09205,0.00139
3733.03188,0.00132
3730.97170,0.00109
3728.91153,0.00097
3726.85136,0.00109
3724.79119,0.00139
3722.73102,0.00170
3720.67084,0.00187
3718.61067,0.00183
3716.55050,0.00169
3714.49033,0.00154
3712.43015,0.00138
3710.36998,0.00118
3708.30981,0.00094
3706.24964,0.00076
3704.18947,0.00075
3702.12929,0.00092
3700.06912,0.00116
3698.00895,0.00129
3695.94878,0.00128
3693.88861,0.00130
3691.82843,0.00146
3689.76826,0.00168
3687.70809,0.00177
3685.64792,0.00163
3683.58775,0.00130
3681.52757,0.00098
3679.46740,0.00085
3677.40723,0.00095
3675.34706,0.00116
3673.28688,0.00129
3671.22671,0.00137
3669.16654,0.00153
3667.10637,0.00179
3665.04620,0.00199
3662.98602,0.00204
3660.92585,0.00193
3658.86568,0.00178
3656.80551,0.00170
3654.74534,0.00176
3652.68516,0.00196
3650.62499,0.00224
3648.56482,0.00247
3646.50465,0.00255
3644.44447,0.00251
3642.38430,0.00244
3640.32413,0.00249
3638.26396,0.00283
3636.20379,0.00346
3634.14361,0.00408
3632.08344,0.00445
3630.02327,0.00454
3627.96310,0.00452
3625.90293,0.00451
3623.84275,0.00453
3621.78258,0.00459
3619.72241,0.00479
3617.66224,0.00527
3615.60207,0.00597
3613.54189,0.00658
3611.48172,0.00684
3609.42155,0.00679
3607.36138,0.00665
3605.30120,0.00659
3603.24103,0.00668
3601.18086,0.00694
3599.12069,0.00735
3597.06052,0.00784
3595.00034,0.00828
3592.94017,0.00858
3590.88000,0.00866
3588.81983,0.00853
3586.75966,0.00839
3584.69948,0.00850
3582.63931,0.00894
3580.57914,0.00959
3578.51897,0.01024
3576.45879,0.01077
3574.39862,0.01120
3572.33845,0.01151
3570.27828,0.01165
3568.21811,0.01167
3566.15793,0.01167
3564.09776,0.01174
3562.03759,0.01185
3559.97742,0.01191
3557.91725,0.01201
3555.85707,0.01229
3553.79690,0.01271
3551.73673,0.01306
3549.67656,0.01326
3547.61639,0.01339
3545.55621,0.01357
3543.49604,0.01382
3541.43587,0.01406
3539.37570,0.01425
3537.31552,0.01440
3535.25535,0.01462
3533.19518,0.01495
3531.13501,0.01539
3529.07484,0.01578
3527.01466,0.01602
3524.95449,0.01620
3522.89432,0.01646
3520.83415,0.01684
3518.77398,0.01729
3516.71380,0.01777
3514.65363,0.01816
3512.59346,0.01838
3510.53329,0.01844
3508.47312,0.01847
3506.41294,0.01863
3504.35277,0.01903
3502.29260,0.01958
3500.23243,0.02013
3498.17225,0.02048
3496.11208,0.02056
3494.05191,0.02048
3491.99174,0.02034
3489.93157,0.02024
3487.87139,0.02029
3485.81122,0.02061
3483.75105,0.02106
3481.69088,0.02137
3479.63071,0.02144
3477.57053,0.02146
3475.51036,0.02162
3473.45019,0.02194
3471.39002,0.02232
3469.32984,0.02271
3467.26967,0.02310
3465.20950,0.02345
3463.14933,0.02368
3461.08916,0.02376
3459.02898,0.02383
3456.96881,0.02407
3454.90864,0.02450
3452.84847,0.02488
3450.78830,0.02507
3448.72812,0.02518
3446.66795,0.02534
3444.60778,0.02556
3442.54761,0.02572
3440.48744,0.02574
3438.42726,0.02566
3436.36709,0.02558
3434.30692,0.02562
3432.24675,0.02583
3430.18657,0.02614
3428.12640,0.02645
3426.06623,0.02671
3424.00606,0.02697
3421.94589,0.02723
3419.88571,0.02743
3417.82554,0.02756
3415.76537,0.02771
3413.70520,0.02789
3411.64503,0.02805
3409.58485,0.02820
3407.52468,0.02838
3405.46451,0.02854
3403.40434,0.02863
3401.34416,0.02864
3399.28399,0.02862
3397.22382,0.02865
3395.16365,0.02878
3393.10348,0.02905
3391.04330,0.02934
3388.98313,0.02953
3386.92296,0.02963
3384.86279,0.02973
3382.80262,0.02988
3380.74244,0.03011
3378.68227,0.03036
3376.62210,0.03061
3374.56193,0.03086
3372.50176,0.03109
3370.44158,0.03125
3368.38141,0.03131
3366.32124,0.03131
3364.26107,0.03130
3362.20089,0.03127
3360.14072,0.03126
3358.08055,0.03129
3356.02038,0.03137
3353.96021,0.03144
3351.90003,0.03152
3349.83986,0.03165
3347.77969,0.03181
3345.71952,0.03194
3343.65935,0.03201
3341.59917,0.03205
3339.53900,0.03210
3337.47883,0.03217
3335.41866,0.03221
3333.35849,0.03219
3331.29831,0.03209
3329.23814,0.03196
3327.17797,0.03192
3325.11780,0.03203
3323.05762,0.03222
3320.99745,0.03241
3318.93728,0.03251
3316.87711,0.03249
3314.81694,0.03237
3312.75676,0.03228
3310.69659,0.03225
3308.63642,0.03227
3306.57625,0.03231
3304.51608,0.03234
3302.45590,0.03237
3300.39573,0.03240
3298.33556,0.03244
3296.27539,0.03247
3294.21521,0.03247
3292.15504,0.03248
3290.09487,0.03250
3288.03470,0.03253
3285.97453,0.03257
3283.91435,0.03264
3281.85418,0.03272
3279.79401,0.03275
3277.73384,0.03269
3275.67367,0.03253
3273.61349,0.03238
3271.55332,0.03233
3269.49315,0.03239
3267.43298,0.03248
3265.37281,0.03254
3263.31263,0.03255
3261.25246,0.03251
3259.19229,0.03244
3257.13212,0.03236
3255.07194,0.03226
3253.01177,0.03214
3250.95160,0.03203
3248.89143,0.03202
3246.83126,0.03208
3244.77108,0.03209
3242.71091,0.03198
3240.65074,0.03183
3238.59057,0.03169
3236.53040,0.03156
3234.47022,0.03142
3232.41005,0.03126
3230.34988,0.03111
3228.28971,0.03099
3226.22954,0.03091
3224.16936,0.03088
3222.10919,0.03085
3220.04902,0.03079
3217.98885,0.03067
3215.92867,0.03049
3213.86850,0.03033
3211.80833,0.03018
3209.74816,0.03003
3207.68799,0.02987
3205.62781,0.02968
3203.56764,0.02942
3201.50747,0.02909
3199.44730,0.02878
3197.38713,0.02856
3195.32695,0.02839
3193.26678,0.02818
3191.20661,0.02796
3189.14644,0.02780
3187.08626,0.02775
3185.02609,0.02776
3182.96592,0.02780
3180.90575,0.02780
3178.84558,0.02769
3176.78540,0.02747
3174.72523,0.02722
3172.66506,0.02699
3170.60489,0.02677
3168.54472,0.02653
3166.48454,0.02627
3164.42437,0.02606
3162.36420,0.02589
3160.30403,0.02571
3158.24386,0.02546
3156.18368,0.02517
3154.12351,0.02487
3152.06334,0.02457
3150.00317,0.02423
3147.94299,0.02387
3145.88282,0.02354
3143.82265,0.02330
3141.76248,0.02315
3139.70231,0.02309
3137.64213,0.02308
3135.58196,0.02301
3133.52179,0.02280
3131.46162,0.02249
3129.40145,0.02219
3127.34127,0.02198
3125.28110,0.02179
3123.22093,0.02153
3121.16076,0.02122
3119.10058,0.02092
3117.04041,0.02064
3114.98024,0.02037
3112.92007,0.02005
3110.85990,0.01977
3108.79972,0.01959
3106.73955,0.01953
3104.67938,0.01950
3102.61921,0.01943
3100.55904,0.01925
3098.49886,0.01892
3096.43869,0.01851
3094.37852,0.01811
3092.31835,0.01782
3090.25818,0.01765
3088.19800,0.01757
3086.13783,0.01745
3084.07766,0.01724
3082.01749,0.01699
3079.95731,0.01676
3077.89714,0.01656
3075.83697,0.01644
3073.77680,0.01636
3071.71663,0.01628
3069.65645,0.01616
3067.59628,0.01605
3065.53611,0.01597
3063.47594,0.01585
3061.41577,0.01564
3059.35559,0.01538
3057.29542,0.01515
3055.23525,0.01497
3053.17508,0.01475
3051.11491,0.01442
3049.05473,0.01404
3046.99456,0.01372
3044.93439,0.01352
3042.87422,0.01346
3040.81404,0.01350
3038.75387,0.01352
3036.69370,0.01341
3034.63353,0.01316
3032.57336,0.01287
3030.51318,0.01263
3028.45301,0.01246
3026.39284,0.01236
3024.33267,0.01231
3022.27250,0.01227
3020.21232,0.01221
3018.15215,0.01206
3016.09198,0.01181
3014.03181,0.01153
3011.97163,0.01134
3009.91146,0.01130
3007.85129,0.01135
3005.79112,0.01144
3003.73095,0.01151
3001.67077,0.01155
2999.61060,0.01157
2997.55043,0.01160
2995.49026,0.01165
2993.43009,0.01170
2991.36991,0.01173
2989.30974,0.01175
2987.24957,0.01178
2985.18940,0.01188
2983.12923,0.01196
2981.06905,0.01196
2979.00888,0.01204
2976.94871,0.01229
2974.88854,0.01247
2972.82836,0.01242
2970.76819,0.01236
2968.70802,0.01262
2966.64785,0.01309
2964.58768,0.01340
2962.52750,0.01345
2960.46733,0.01353
2958.40716,0.01387
2956.34699,0.01437
2954.28682,0.01476
2952.22664,0.01502
2950.16647,0.01531
2948.10630,0.01559
2946.04613,0.01570
2943.98596,0.01572
2941.92578,0.01586
2939.86561,0.01614
2937.80544,0.01640
2935.74527,0.01667
2933.68509,0.01699
2931.62492,0.01709
2929.56475,0.01689
2927.50458,0.01664
2925.44441,0.01646
2923.38423,0.01625
2921.32406,0.01604
2919.26389,0.01596
2917.20372,0.01597
2915.14355,0.01583
2913.08337,0.01550
2911.02320,0.01529
2908.96303,0.01538
2906.90286,0.01554
2904.84268,0.01546
2902.78251,0.01520
2900.72234,0.01501
2898.66217,0.01497
2896.60200,0.01501
2894.54182,0.01501
2892.48165,0.01488
2890.42148,0.01459
2888.36131,0.01423
2886.30114,0.01396
2884.24096,0.01387
2882.18079,0.01387
2880.12062,0.01381
2878.06045,0.01377
2876.00028,0.01384
2873.94010,0.01391
2871.87993,0.01379
2869.81976,0.01341
2867.75959,0.01298
2865.69941,0.01274
2863.63924,0.01267
2861.57907,0.01261
2859.51890,0.01244
2857.45873,0.01212
2855.39855,0.01170
2853.33838,0.01135
2851.27821,0.01118
2849.21804,0.01114
2847.15787,0.01116
2845.09769,0.01126
2843.03752,0.01138
2840.97735,0.01140
2838.91718,0.01119
2836.85700,0.01089
2834.79683,0.01077
2832.73666,0.01073
2830.67649,0.01055
2828.61632,0.01024
2826.55614,0.00995
2824.49597,0.00970
2822.43580,0.00954
2820.37563,0.00950
2818.31546,0.00953
2816.25528,0.00946
2814.19511,0.00940
2812.13494,0.00954
2810.07477,0.00974
2808.01460,0.00972
2805.95442,0.00947
2803.89425,0.00918
2801.83408,0.00897
2799.77391,0.00890
2797.71373,0.00883
2795.65356,0.00870
2793.59339,0.00867
2791.53322,0.00876
2789.47305,0.00884
2787.41287,0.00882
2785.35270,0.00875
2783.29253,0.00874
2781.23236,0.00879
2779.17219,0.00880
2777.11201,0.00873
2775.05184,0.00858
2772.99167,0.00830
2770.93150,0.00799
2768.87133,0.00783
2766.81115,0.00786
2764.75098,0.00793
2762.69081,0.00794
2760.63064,0.00799
2758.57046,0.00814
2756.51029,0.00831
2754.45012,0.00836
2752.38995,0.00818
2750.32978,0.00788
2748.26960,0.00769
2746.20943,0.00771
2744.14926,0.00788
2742.08909,0.00807
2740.02892,0.00814
2737.96874,0.00807
2735.90857,0.00795
2733.84840,0.00788
2731.78823,0.00790
2729.72805,0.00797
2727.66788,0.00795
2725.60771,0.00775
2723.54754,0.00750
2721.48737,0.00739
2719.42719,0.00740
2717.36702,0.00741
2715.30685,0.00736
2713.24668,0.00723
2711.18651,0.00714
2709.12633,0.00724
2707.06616,0.00744
2705.00599,0.00755
2702.94582,0.00751
2700.88565,0.00740
2698.82547,0.00731
2696.76530,0.00724
2694.70513,0.00719
2692.64496,0.00717
2690.58478,0.00713
2688.52461,0.00706
2686.46444,0.00694
2684.40427,0.00680
2682.34410,0.00681
2680.28392,0.00695
2678.22375,0.00710
2676.16358,0.00707
2674.10341,0.00683
2672.04324,0.00665
2669.98306,0.00667
2667.92289,0.00672
2665.86272,0.00665
2663.80255,0.00664
2661.74238,0.00679
2659.68220,0.00689
2657.62203,0.00677
2655.56186,0.00658
2653.50169,0.00665
2651.44151,0.00695
2649.38134,0.00713
2647.32117,0.00704
2645.26100,0.00677
2643.20083,0.00653
2641.14065,0.00651
2639.08048,0.00669
2637.02031,0.00681
2634.96014,0.00674
2632.89997,0.00661
2630.83979,0.00649
2628.77962,0.00627
2626.71945,0.00598
2624.65928,0.00579
2622.59910,0.00575
2620.53893,0.00581
2618.47876,0.00589
2616.41859,0.00596
2614.35842,0.00596
2612.29824,0.00582
2610.23807,0.00550
2608.17790,0.00521
2606.11773,0.00527
2604.05756,0.00558
2601.99738,0.00570
2599.93721,0.00553
2597.87704,0.00520
2595.81687,0.00474
2593.75670,0.00439
2591.69652,0.00446
2589.63635,0.00484
2587.57618,0.00516
2585.51601,0.00530
2583.45583,0.00522
2581.39566,0.00498
2579.33549,0.00474
2577.27532,0.00456
2575.21515,0.00441
2573.15497,0.00424
2571.09480,0.00417
2569.03463,0.00439
2566.97446,0.00483
2564.91429,0.00510
2562.85411,0.00503
2560.79394,0.00479
2558.73377,0.00463
2556.67360,0.00461
2554.61342,0.00462
2552.55325,0.00457
2550.49308,0.00450
2548.43291,0.00445
2546.37274,0.00438
2544.31256,0.00438
2542.25239,0.00466
2540.19222,0.00495
2538.13205,0.00493
2536.07188,0.00474
2534.01170,0.00462
2531.95153,0.00461
2529.89136,0.00465
2527.83119,0.00456
2525.77102,0.00428
2523.71084,0.00407
2521.65067,0.00405
2519.59050,0.00401
2517.53033,0.00387
2515.47015,0.00386
2513.40998,0.00410
2511.34981,0.00440
2509.28964,0.00450
2507.22947,0.00426
2505.16929,0.00393
2503.10912,0.00386
2501.04895,0.00411
2498.98878,0.00438
2496.92861,0.00447
2494.86843,0.00450
2492.80826,0.00464
2490.74809,0.00475
2488.68792,0.00457
2486.62775,0.00411
2484.56757,0.00352
2482.50740,0.00297
2480.44723,0.00271
2478.38706,0.00287
2476.32688,0.00338
2474.26671,0.00399
2472.20654,0.00442
2470.14637,0.00461
2468.08620,0.00463
2466.02602,0.00441
2463.96585,0.00417
2461.90568,0.00416
2459.84551,0.00413
2457.78534,0.00387
2455.72516,0.00368
2453.66499,0.00383
2451.60482,0.00412
2449.54465,0.00421
2447.48447,0.00415
2445.42430,0.00413
2443.36413,0.00414
2441.30396,0.00408
2439.24379,0.00385
2437.18361,0.00348
2435.12344,0.00330
2433.06327,0.00340
2431.00310,0.00356
2428.94293,0.00364
2426.88275,0.00376
2424.82258,0.00404
2422.76241,0.00423
2420.70224,0.00400
2418.64207,0.00350
2416.58189,0.00319
2414.52172,0.00324
2412.46155,0.00355
2410.40138,0.00383
2408.34120,0.00379
2406.28103,0.00351
2404.22086,0.00335
2402.16069,0.00335
2400.10052,0.00335
2398.04034,0.00342
2395.98017,0.00354
2393.92000,0.00367
2391.85983,0.00378
2389.79966,0.00387
2387.73948,0.00386
2385.67931,0.00373
2383.61914,0.00356
2381.55897,0.00346
2379.49880,0.00342
2377.43862,0.00345
2375.37845,0.00360
2373.31828,0.00390
2371.25811,0.00428
2369.19793,0.00452
2367.13776,0.00444
2365.07759,0.00407
2363.01742,0.00375
2360.95725,0.00380
2358.89707,0.00417
2356.83690,0.00451
2354.77673,0.00452
2352.71656,0.00418
2350.65639,0.00376
2348.59621,0.00350
2346.53604,0.00340
2344.47587,0.00335
2342.41570,0.00333
2340.35552,0.00337
2338.29535,0.00342
2336.23518,0.00362
2334.17501,0.00411
2332.11484,0.00458
2330.05466,0.00462
2327.99449,0.00427
2325.93432,0.00386
2323.87415,0.00357
2321.81398,0.00348
2319.75380,0.00355
2317.69363,0.00371
2315.63346,0.00384
2313.57329,0.00391
2311.51312,0.00393
2309.45294,0.00393
2307.39277,0.00390
2305.33260,0.00387
2303.27243,0.00388
2301.21225,0.00397
2299.15208,0.00414
2297.09191,0.00430
2295.03174,0.00433
2292.97157,0.00423
2290.91139,0.00408
2288.85122,0.00390
2286.79105,0.00363
2284.73088,0.00332
2282.67071,0.00311
2280.61053,0.00310
2278.55036,0.00324
2276.49019,0.00341
2274.43002,0.00351
2272.36984,0.00350
2270.30967,0.00349
2268.24950,0.00363
2266.18933,0.00397
2264.12916,0.00439
2262.06898,0.00477
2260.00881,0.00505
2257.94864,0.00521
2255.88847,0.00519
2253.82830,0.00506
2251.76812,0.00483
2249.70795,0.00430
2247.64778,0.00333
2245.58761,0.00248
2243.52744,0.00243
2241.46726,0.00296
2239.40709,0.00319
2237.34692,0.00280
2235.28675,0.00258
2233.22657,0.00318
2231.16640,0.00382
2229.10623,0.00371
2227.04606,0.00344
2224.98589,0.00362
2222.92571,0.00400
2220.86554,0.00404
2218.80537,0.00337
2216.74520,0.00234
2214.68503,0.00187
2212.62485,0.00223
2210.56468,0.00268
2208.50451,0.00276
2206.44434,0.00266
2204.38417,0.00270
2202.32399,0.00288
2200.26382,0.00306
2198.20365,0.00336
2196.14348,0.00384
2194.08330,0.00411
2192.02313,0.00386
2189.96296,0.00355
2187.90279,0.00350
2185.84262,0.00313
2183.78244,0.00248
2181.72227,0.00233
2179.66210,0.00272
2177.60193,0.00280
2175.54176,0.00226
2173.48158,0.00215
2171.42141,0.00335
2169.36124,0.00507
2167.30107,0.00568
2165.24089,0.00472
2163.18072,0.00339
2161.12055,0.00258
2159.06038,0.00198
2157.00021,0.00158
2154.94003,0.00171
2152.87986,0.00206
2150.81969,0.00221
2148.75952,0.00228
2146.69935,0.00234
2144.63917,0.00217
2142.57900,0.00194
2140.51883,0.00211
2138.45866,0.00255
2136.39849,0.00263
2134.33831,0.00231
2132.27814,0.00225
2130.21797,0.00276
2128.15780,0.00350
2126.09762,0.00404
2124.03745,0.00410
2121.97728,0.00362
2119.91711,0.00302
2117.85694,0.00279
2115.79676,0.00294
2113.73659,0.00331
2111.67642,0.00384
2109.61625,0.00415
2107.55608,0.00391
2105.49590,0.00340
2103.43573,0.00303
2101.37556,0.00284
2099.31539,0.00287
2097.25521,0.00315
2095.19504,0.00355
2093.13487,0.00386
2091.07470,0.00395
2089.01453,0.00385
2086.95435,0.00371
2084.89418,0.00357
2082.83401,0.00339
2080.77384,0.00309
2078.71367,0.00264
2076.65349,0.00223
2074.59332,0.00210
2072.53315,0.00237
2070.47298,0.00301
2068.41281,0.00378
2066.35263,0.00431
2064.29246,0.00436
2062.23229,0.00399
2060.17212,0.00342
2058.11194,0.00291
2056.05177,0.00257
2053.99160,0.00237
2051.93143,0.00222
2049.87126,0.00216
2047.81108,0.00235
2045.75091,0.00271
2043.69074,0.00312
2041.63057,0.00363
2039.57040,0.00409
2037.51022,0.00417
2035.45005,0.00384
2033.38988,0.00338
2031.32971,0.00289
2029.26954,0.00210
2027.20936,0.00103
2025.14919,0.00019
2023.08902,0.00000
2021.02885,0.00044
2018.96867,0.00115
2016.90850,0.00164
2014.84833,0.00169
2012.78816,0.00154
2010.72799,0.00162
2008.66781,0.00214
2006.60764,0.00297
2004.54747,0.00377
2002.48730,0.00416
2000.42713,0.00400
1998.36695,0.00355
1996.30678,0.00321
1994.24661,0.00319
1992.18644,0.00329
1990.12626,0.00313
1988.06609,0.00270
1986.00592,0.00244
1983.94575,0.00263
1981.88558,0.00308
1979.82540,0.00329
1977.76523,0.00295
1975.70506,0.00212
1973.64489,0.00112
1971.58472,0.00043
1969.52454,0.00030
1967.46437,0.00062
1965.40420,0.00110
1963.34403,0.00143
1961.28386,0.00140
1959.22368,0.00104
1957.16351,0.00069
1955.10334,0.00066
1953.04317,0.00090
1950.98299,0.00112
1948.92282,0.00112
1946.86265,0.00079
1944.80248,0.00029
1942.74231,0.00000
1940.68213,0.00008
1938.62196,0.00038
1936.56179,0.00075
1934.50162,0.00113
1932.44145,0.00147
1930.38127,0.00178
1928.32110,0.00211
1926.26093,0.00241
1924.20076,0.00253
1922.14059,0.00239
1920.08041,0.00218
1918.02024,0.00211
1915.96007,0.00219
1913.89990,0.00226
1911.83972,0.00219
1909.77955,0.00198
1907.71938,0.00188
1905.65921,0.00215
1903.59904,0.00267
1901.53886,0.00307
1899.47869,0.00303
1897.41852,0.00257
1895.35835,0.00206
1893.29818,0.00181
1891.23800,0.00181
1889.17783,0.00188
1887.11766,0.00191
1885.05749,0.00198
1882.99731,0.00213
1880.93714,0.00227
1878.87697,0.00235
1876.81680,0.00241
1874.75663,0.00248
1872.69645,0.00246
1870.63628,0.00226
1868.57611,0.00190
1866.51594,0.00158
1864.45577,0.00147
1862.39559,0.00157
1860.33542,0.00180
1858.27525,0.00205
1856.21508,0.00219
1854.15491,0.00210
1852.09473,0.00181
1850.03456,0.00149
1847.97439,0.00133
1845.91422,0.00143
1843.85404,0.00169
1841.79387,0.00190
1839.73370,0.00198
1837.67353,0.00194
1835.61336,0.00190
1833.55318,0.00190
1831.49301,0.00187
1829.43284,0.00178
1827.37267,0.00162
1825.31250,0.00145
1823.25232,0.00127
1821.19215,0.00107
1819.13198,0.00090
1817.07181,0.00081
1815.01163,0.00081
1812.95146,0.00083
1810.89129,0.00082
1808.83112,0.00077
1806.77095,0.00077
1804.71077,0.00085
1802.65060,0.00101
1800.59043,0.00121
1798.53026,0.00145
1796.47009,0.00169
1794.40991,0.00182
1792.34974,0.00178
1790.28957,0.00156
1788.22940,0.00128
1786.16923,0.00104
1784.10905,0.00086
1782.04888,0.00077
1779.98871,0.00076
1777.92854,0.00083
1775.86836,0.00091
1773.80819,0.00097
1771.74802,0.00106
1769.68785,0.00121
1767.62768,0.00145
1765.56750,0.00176
1763.50733,0.00204
1761.44716,0.00224
1759.38699,0.00245
1757.32682,0.00278
1755.26664,0.00329
1753.20647,0.00393
1751.14630,0.00461
1749.08613,0.00521
1747.02596,0.00566
1744.96578,0.00594
1742.90561,0.00614
1740.84544,0.00635
1738.78527,0.00664
1736.72509,0.00696
1734.66492,0.00721
1732.60475,0.00730
1730.54458,0.00721
1728.48441,0.00698
1726.42423,0.00668
1724.36406,0.00647
1722.30389,0.00637
1720.24372,0.00627
1718.18355,0.00603
1716.12337,0.00561
1714.06320,0.00512
1712.00303,0.00469
1709.94286,0.00432
1707.88268,0.00397
1705.82251,0.00359
1703.76234,0.00324
1701.70217,0.00309
1699.64200,0.00315
1697.58182,0.00326
1695.52165,0.00334
1693.46148,0.00345
1691.40131,0.00362
1689.34114,0.00386
1687.28096,0.00414
1685.22079,0.00449
1683.16062,0.00489
1681.10045,0.00526
1679.04028,0.00558
1676.98010,0.00588
1674.91993,0.00626
1672.85976,0.00677
1670.79959,0.00732
1668.73941,0.00778
1666.67924,0.00815
1664.61907,0.00853
1662.55890,0.00900
1660.49873,0.00951
1658.43855,0.00995
1656.37838,0.01030
1654.31821,0.01060
1652.25804,0.01094
1650.19787,0.01136
1648.13769,0.01182
1646.07752,0.01224
1644.01735,0.01253
1641.95718,0.01269
1639.89701,0.01275
1637.83683,0.01277
1635.77666,0.01277
1633.71649,0.01276
1631.65632,0.01280
1629.59614,0.01293
1627.53597,0.01313
1625.47580,0.01330
1623.41563,0.01338
1621.35546,0.01340
1619.29528,0.01337
1617.23511,0.01331
1615.17494,0.01321
1613.11477,0.01307
1611.05460,0.01288
1608.99442,0.01263
1606.93425,0.01236
1604.87408,0.01206
1602.81391,0.01170
1600.75373,0.01120
1598.69356,0.01054
1596.63339,0.00977
1594.57322,0.00897
1592.51305,0.00823
1590.45287,0.00758
1588.39270,0.00699
1586.33253,0.00642
1584.27236,0.00587
1582.21219,0.00537
1580.15201,0.00490
1578.09184,0.00446
1576.03167,0.00405
1573.97150,0.00371
1571.91133,0.00350
1569.85115,0.00336
1567.79098,0.00319
1565.73081,0.00300
1563.67064,0.00284
1561.61046,0.00276
1559.55029,0.00267
1557.49012,0.00251
1555.42995,0.00229
1553.36978,0.00201
1551.30960,0.00171
1549.24943,0.00147
1547.18926,0.00129
1545.12909,0.00120
1543.06892,0.00120
1541.00874,0.00126
1538.94857,0.00130
1536.88840,0.00129
1534.82823,0.00125
1532.76805,0.00116
1530.70788,0.00107
1528.64771,0.00105
1526.58754,0.00109
1524.52737,0.00113
1522.46719,0.00108
1520.40702,0.00095
1518.34685,0.00083
1516.28668,0.00083
1514.22651,0.00091
1512.16633,0.00103
1510.10616,0.00111
1508.04599,0.00112
1505.98582,0.00106
1503.92565,0.00105
1501.86547,0.00113
1499.80530,0.00125
1497.74513,0.00138
1495.68496,0.00148
1493.62478,0.00152
1491.56461,0.00148
1489.50444,0.00140
1487.44427,0.00140
1485.38410,0.00155
1483.32392,0.00183
1481.26375,0.00217
1479.20358,0.00256
1477.14341,0.00301
1475.08324,0.00353
1473.02306,0.00406
1470.96289,0.00453
1468.90272,0.00492
1466.84255,0.00527
1464.78238,0.00558
1462.72220,0.00589
1460.66203,0.00628
1458.60186,0.00672
1456.54169,0.00705
1454.48151,0.00721
1452.42134,0.00727
1450.36117,0.00729
1448.30100,0.00733
1446.24083,0.00745
1444.18065,0.00766
1442.12048,0.00792
1440.06031,0.00821
1438.00014,0.00850
1435.93997,0.00880
1433.87979,0.00912
1431.81962,0.00941
1429.75945,0.00962
1427.69928,0.00977
1425.63910,0.00995
1423.57893,0.01024
1421.51876,0.01059
1419.45859,0.01092
1417.39842,0.01120
1415.33824,0.01139
1413.27807,0.01149
1411.21790,0.01149
1409.15773,0.01140
1407.09756,0.01122
1405.03738,0.01096
1402.97721,0.01066
1400.91704,0.01040
1398.85687,0.01016
1396.79670,0.00986
1394.73652,0.00955
1392.67635,0.00937
1390.61618,0.00941
1388.55601,0.00963
1386.49583,0.00988
1384.43566,0.01010
1382.37549,0.01029
1380.31532,0.01045
1378.25515,0.01060
1376.19497,0.01070
1374.13480,0.01076
1372.07463,0.01077
1370.01446,0.01069
1367.95429,0.01051
1365.89411,0.01027
1363.83394,0.01011
1361.77377,0.01007
1359.71360,0.01010
1357.65343,0.01008
1355.59325,0.00996
1353.53308,0.00977
1351.47291,0.00957
1349.41274,0.00938
1347.35256,0.00924
1345.29239,0.00919
1343.23222,0.00918
1341.17205,0.00915
1339.11188,0.00908
1337.05170,0.00899
1334.99153,0.00889
1332.93136,0.00880
1330.87119,0.00872
1328.81102,0.00866
1326.75084,0.00864
1324.69067,0.00870
1322.63050,0.00887
1320.57033,0.00910
1318.51015,0.00925
1316.44998,0.00926
1314.38981,0.00911
1312.32964,0.00891
1310.26947,0.00874
1308.20929,0.00864
1306.14912,0.00858
1304.08895,0.00850
1302.02878,0.00839
1299.96861,0.00824
1297.90843,0.00804
1295.84826,0.00778
1293.78809,0.00752
1291.72792,0.00732
1289.66775,0.00721
1287.60757,0.00716
1285.54740,0.00714
1283.48723,0.00712
1281.42706,0.00713
1279.36688,0.00722
1277.30671,0.00739
1275.24654,0.00761
1273.18637,0.00782
1271.12620,0.00797
1269.06602,0.00810
1267.00585,0.00829
1264.94568,0.00860
1262.88551,0.00899
1260.82534,0.00938
1258.76516,0.00973
1256.70499,0.01003
1254.64482,0.01028
1252.58465,0.01049
1250.52447,0.01063
1248.46430,0.01072
1246.40413,0.01072
1244.34396,0.01057
1242.28379,0.01033
1240.22361,0.01009
1238.16344,0.00989
1236.10327,0.00969
1234.04310,0.00944
1231.98293,0.00911
1229.92275,0.00871
1227.86258,0.00828
1225.80241,0.00786
1223.74224,0.00750
1221.68207,0.00722
1219.62189,0.00700
1217.56172,0.00675
1215.50155,0.00642
1213.44138,0.00600
1211.38120,0.00545
1209.32103,0.00478
1207.26086,0.00402
1205.20069,0.00327
1203.14052,0.00259
1201.08034,0.00201
1199.02017,0.00155
1196.96000,0.00119
1194.89983,0.00089
1192.83966,0.00055
1190.77948,0.00021
1188.71931,0.00000
1186.65914,0.00001
1184.59897,0.00027
1182.53880,0.00064
1180.47862,0.00104
1178.41845,0.00153
1176.35828,0.00214
1174.29811,0.00275
1172.23793,0.00327
1170.17776,0.00378
1168.11759,0.00442
1166.05742,0.00519
1163.99725,0.00596
1161.93707,0.00664
1159.87690,0.00725
1157.81673,0.00788
1155.75656,0.00855
1153.69639,0.00923
1151.63621,0.00988
1149.57604,0.01043
1147.51587,0.01081
1145.45570,0.01111
1143.39552,0.01132
1141.33535,0.01140
1139.27518,0.01142
1137.21501,0.01154
1135.15484,0.01185
1133.09466,0.01227
1131.03449,0.01268
1128.97432,0.01315
1126.91415,0.01383
1124.85398,0.01465
1122.79380,0.01537
1120.73363,0.01585
1118.67346,0.01620
1116.61329,0.01649
1114.55312,0.01678
1112.49294,0.01714
1110.43277,0.01761
1108.37260,0.01814
1106.31243,0.01874
1104.25225,0.01951
1102.19208,0.02036
1100.13191,0.02127
1098.07174,0.02222
1096.01157,0.02320
1093.95139,0.02417
1091.89122,0.02501
1089.83105,0.02566
1087.77088,0.02613
1085.71071,0.02658
1083.65053,0.02717
1081.59036,0.02789
1079.53019,0.02861
1077.47002,0.02934
1075.40985,0.03005
1073.34967,0.03069
1071.28950,0.03139
1069.22933,0.03209
1067.16916,0.03261
1065.10898,0.03302
1063.04881,0.03346
1060.98864,0.03389
1058.92847,0.03422
1056.86830,0.03444
1054.80812,0.03460
1052.74795,0.03491
1050.68778,0.03552
1048.62761,0.03635
1046.56744,0.03711
1044.50726,0.03751
1042.44709,0.03760
1040.38692,0.03762
1038.32675,0.03767
1036.26657,0.03783
1034.20640,0.03816
1032.14623,0.03853
1030.08606,0.03874
1028.02589,0.03874
1025.96571,0.03867
1023.90554,0.03864
1021.84537,0.03862
1019.78520,0.03862
1017.72503,0.03871
1015.66485,0.03885
1013.60468,0.03888
1011.54451,0.03885
1009.48434,0.03892
1007.42417,0.03888
1005.36399,0.03846
1003.30382,0.03779
1001.24365,0.03718
999.18348,0.03666
997.12330,0.03611
995.06313,0.03546
993.00296,0.03478
990.94279,0.03427
988.88262,0.03403
986.82244,0.03389
984.76227,0.03365
982.70210,0.03334
980.64193,0.03305
978.58176,0.03279
976.52158,0.03246
974.46141,0.03196
972.40124,0.03133
970.34107,0.03072
968.28089,0.03019
966.22072,0.02964
964.16055,0.02911
962.10038,0.02877
960.04021,0.02850
957.98003,0.02800
955.91986,0.02731
953.85969,0.02673
951.79952,0.02645
949.73935,0.02625
947.67917,0.02573
945.61900,0.02487
943.55883,0.02397
941.49866,0.02303
939.43849,0.02175
937.37831,0.02015
935.31814,0.01857
933.25797,0.01711
931.19780,0.01570
929.13762,0.01433
927.07745,0.01308
925.01728,0.01203
922.95711,0.01113
920.89694,0.01025
918.83676,0.00944
916.77659,0.00889
914.71642,0.00858
912.65625,0.00825
910.59608,0.00770
908.53590,0.00702
906.47573,0.00644
904.41556,0.00610
902.35539,0.00609
900.29522,0.00635
898.23504,0.00663
896.17487,0.00681
894.11470,0.00686
892.05453,0.00675
889.99435,0.00641
887.93418,0.00575
885.87401,0.00500
883.81384,0.00452
881.75367,0.00432
879.69349,0.00407
877.63332,0.00356
875.57315,0.00296
873.51298,0.00257
871.45281,0.00252
869.39263,0.00274
867.33246,0.00312
865.27229,0.00341
863.21212,0.00325
861.15194,0.00263
859.09177,0.00197
857.03160,0.00170
854.97143,0.00196
852.91126,0.00242
850.85108,0.00254
848.79091,0.00223
846.73074,0.00172
844.67057,0.00116
842.61040,0.00074
840.55022,0.00067
838.49005,0.00081
836.42988,0.00089
834.36971,0.00079
832.30954,0.00052
830.24936,0.00022
828.18919,0.00021
826.12902,0.00056
824.06885,0.00088
822.00867,0.00089
819.94850,0.00071
817.88833,0.00063
815.82816,0.00091
813.76799,0.00140
811.70781,0.00154
809.64764,0.00124
807.58747,0.00108
805.52730,0.00136
803.46713,0.00155
801.40695,0.00122
799.34678,0.00073
797.28661,0.00046
795.22644,0.00025
793.16627,0.00000
791.10609,-0.00010
789.04592,0.00016
786.98575,0.00064
784.92558,0.00105
782.86540,0.00121
780.80523,0.00106
778.74506,0.00065
776.68489,0.00035
774.62472,0.00043
772.56454,0.00074
770.50437,0.00096
768.44420,0.00088
766.38403,0.00053
764.32386,0.00014
762.26368,0.00006
760.20351,0.00048
758.14334,0.00096
756.08317,0.00091
754.02299,0.00044
751.96282,0.00000
749.90265,-0.00013
747.84248,0.00009
745.78231,0.00040
743.72213,0.00058
741.66196,0.00063
739.60179,0.00055
737.54162,0.00024
735.48145,-0.00010
733.42127,-0.00030
731.36110,-0.00061
729.30093,-0.00093
727.24076,-0.00079
725.18059,-0.00032
723.12041,0.00005
721.06024,0.00024
719.00007,0.00023
716.93990,0.00002
714.87972,-0.00032
712.81955,-0.00058
710.75938,-0.00054
708.69921,-0.00004
706.63904,0.00073
704.57886,0.00128
702.51869,0.00136
700.45852,0.00115
698.39835,0.00092
696.33818,0.00077
694.27800,0.00077
692.21783,0.00110
690.15766,0.00171
688.09749,0.00221
686.03731,0.00221
683.97714,0.00157
681.91697,0.00058
679.85680,-0.00020
677.79663,-0.00051
675.73645,-0.00050
673.67628,-0.00031
671.61611,0.00002
669.55594,0.00034
667.49577,0.00027
665.43559,-0.00023
663.37542,-0.00075
661.31525,-0.00098
659.25508,-0.00097
657.19491,-0.00086
655.13473,-0.00066
653.07456,-0.00038
651.01439,-0.00015
648.95422,0.00000
646.89404,-0.00004
644.83387,-0.00018
642.77370,-0.00021
640.71353,-0.00001
638.65336,0.00030
636.59318,0.00054
634.53301,0.00066
632.47284,0.00092
630.41267,0.00166
628.35250,0.00254
626.29232,0.00232
624.23215,0.00057
622.17198,-0.00066
620.11181,-0.00054
618.05164,0.00002
615.99146,0.00017
613.93129,-0.00062
611.87112,-0.00205
609.81095,-0.00285
607.75077,-0.00164
605.69060,0.00140
603.63043,0.00369
601.57026,0.00298
599.51009,0.00000
