3996.73391,0.00000
3994.67373,0.00027
3992.61356,0.00047
3990.55339,0.00056
3988.49322,0.00058
3986.43305,0.00065
3984.37287,0.00083
3982.31270,0.00105
3980.25253,0.00114
3978.19236,0.00100
3976.13219,0.00073
3974.07201,0.00052
3972.01184,0.00043
3969.95167,0.00039
3967.89150,0.00036
3965.83133,0.00035
3963.77115,0.00037
3961.71098,0.00042
3959.65081,0.00046
3957.59064,0.00046
3955.53046,0.00044
3953.47029,0.00045
3951.41012,0.00052
3949.34995,0.00064
3947.28978,0.00080
3945.22960,0.00096
3943.16943,0.00111
3941.10926,0.00128
3939.04909,0.00145
3936.98892,0.00154
3934.92874,0.00146
3932.86857,0.00123
3930.80840,0.00098
3928.74823,0.00081
3926.68805,0.00071
3924.62788,0.00058
3922.56771,0.00041
3920.50754,0.00038
3918.44737,0.00058
3916.38719,0.00086
3914.32702,0.00104
3912.26685,0.00105
3910.20668,0.00101
3908.14651,0.00103
3906.08633,0.00111
3904.02616,0.00121
3901.96599,0.00128
3899.90582,0.00129
3897.84565,0.00128
3895.78547,0.00132
3893.72530,0.00140
3891.66513,0.00143
3889.60496,0.00138
3887.54478,0.00127
3885.48461,0.00109
3883.42444,0.00082
3881.36427,0.00054
3879.30410,0.00039
3877.24392,0.00048
3875.18375,0.00073
3873.12358,0.00096
3871.06341,0.00102
3869.00324,0.00093
3866.94306,0.00089
3864.88289,0.00103
3862.82272,0.00127
3860.76255,0.00145
3858.70237,0.00150
3856.64220,0.00135
3854.58203,0.00090
3852.52186,0.00029
3850.46169,0.00000
3848.40151,0.00024
3846.34134,0.00080
3844.28117,0.00129
3842.22100,0.00142
3840.16083,0.00119
3838.10065,0.00083
3836.04048,0.00063
3833.98031,0.00070
3831.92014,0.00086
3829.85997,0.00106
3827.79979,0.00131
3825.73962,0.00158
3823.67945,0.00169
3821.61928,0.00153
3819.55910,0.00121
3817.49893,0.00102
3815.43876,0.00100
3813.37859,0.00101
3811.31842,0.00094
3809.25824,0.00083
3807.19807,0.00077
3805.13790,0.00077
3803.07773,0.00071
3801.01756,0.00049
3798.95738,0.00025
3796.89721,0.00025
3794.83704,0.00051
3792.77687,0.00088
3790.71670,0.00120
3788.65652,0.00130
3786.59635,0.00108
3784.53618,0.00065
3782.47601,0.00028
3780.41583,0.00013
3778.35566,0.00024
3776.29549,0.00057
3774.23532,0.00100
3772.17515,0.00132
3770.11497,0.00138
3768.05480,0.00116
3765.99463,0.00076
3763.93446,0.00039
3761.87429,0.00023
3759.81411,0.00033
3757.75394,0.00059
3755.69377,0.00092
3753.63360,0.00127
3751.57342,0.00158
3749.51325,0.00177
3747.45308,0.00176
3745.39291,0.00152
3743.33274,0.00115
3741.27256,0.00092
3739.21239,0.00098
3737.15222,0.00116
3735.09205,0.00123
3733.03188,0.00120
3730.97170,0.00118
3728.91153,0.00118
3726.85136,0.00107
3724.79119,0.00086
3722.73102,0.00066
3720.67084,0.00056
3718.61067,0.00054
3716.55050,0.00061
3714.49033,0.00070
3712.43015,0.00071
3710.36998,0.00065
3708.30981,0.00067
3706.24964,0.00085
3704.18947,0.00116
3702.12929,0.00151
3700.06912,0.00178
3698.00895,0.00197
3695.94878,0.00221
3693.88861,0.00247
3691.82843,0.00259
3689.76826,0.00237
3687.70809,0.00187
3685.64792,0.00142
3683.58775,0.00130
3681.52757,0.00158
3679.46740,0.00213
3677.40723,0.00263
3675.34706,0.00273
3673.28688,0.00235
3671.22671,0.00171
3669.16654,0.00113
3667.10637,0.00087
3665.04620,0.00099
3662.98602,0.00133
3660.92585,0.00169
3658.86568,0.00200
3656.80551,0.00232
3654.74534,0.00273
3652.68516,0.00322
3650.62499,0.00362
3648.56482,0.00364
3646.50465,0.00331
3644.44447,0.00294
3642.38430,0.00281
3640.32413,0.00299
3638.26396,0.00340
3636.20379,0.00392
3634.14361,0.00447
3632.08344,0.00493
3630.02327,0.00518
3627.96310,0.00517
3625.90293,0.00515
3623.84275,0.00539
3621.78258,0.00585
3619.72241,0.00635
3617.66224,0.00679
3615.60207,0.00716
3613.54189,0.00746
3611.48172,0.00767
3609.42155,0.00783
3607.36138,0.00789
3605.30120,0.00791
3603.24103,0.00802
3601.18086,0.00834
3599.12069,0.00879
3597.06052,0.00921
3595.00034,0.00953
3592.94017,0.00980
3590.88000,0.01002
3588.81983,0.01014
3586.75966,0.01010
3584.69948,0.01006
3582.63931,0.01023
3580.57914,0.01067
3578.51897,0.01127
3576.45879,0.01187
3574.39862,0.01238
3572.33845,0.01275
3570.27828,0.01297
3568.21811,0.01309
3566.15793,0.01321
3564.09776,0.01342
3562.03759,0.01368
3559.97742,0.01388
3557.91725,0.01402
3555.85707,0.01422
3553.79690,0.01451
3551.73673,0.01492
3549.67656,0.01543
3547.61639,0.01594
3545.55621,0.01631
3543.49604,0.01645
3541.43587,0.01643
3539.37570,0.01643
3537.31552,0.01656
3535.25535,0.01682
3533.19518,0.01723
3531.13501,0.01779
3529.07484,0.01839
3527.01466,0.01884
3524.95449,0.01911
3522.89432,0.01926
3520.83415,0.01941
3518.77398,0.01963
3516.71380,0.01995
3514.65363,0.02037
3512.59346,0.02081
3510.53329,0.02117
3508.47312,0.02143
3506.41294,0.02164
3504.35277,0.02186
3502.29260,0.02213
3500.23243,0.02256
3498.17225,0.02307
3496.11208,0.02344
3494.05191,0.02357
3491.99174,0.02357
3489.93157,0.02358
3487.87139,0.02374
3485.81122,0.02406
3483.75105,0.02450
3481.69088,0.02491
3479.63071,0.02521
3477.57053,0.02544
3475.51036,0.02567
3473.45019,0.02590
3471.39002,0.02615
3469.32984,0.02643
3467.26967,0.02673
3465.20950,0.02700
3463.14933,0.02720
3461.08916,0.02732
3459.02898,0.02735
3456.96881,0.02744
3454.90864,0.02769
3452.84847,0.02811
3450.78830,0.02862
3448.72812,0.02917
3446.66795,0.02965
3444.60778,0.02995
3442.54761,0.03002
3440.48744,0.02989
3438.42726,0.02975
3436.36709,0.02976
3434.30692,0.02998
3432.24675,0.03030
3430.18657,0.03064
3428.12640,0.03096
3426.06623,0.03127
3424.00606,0.03153
3421.94589,0.03168
3419.88571,0.03177
3417.82554,0.03184
3415.76537,0.03192
3413.70520,0.03203
3411.64503,0.03216
3409.58485,0.03232
3407.52468,0.03254
3405.46451,0.03273
3403.40434,0.03284
3401.34416,0.03291
3399.28399,0.03305
3397.22382,0.03329
3395.16365,0.03359
3393.10348,0.03390
3391.04330,0.03414
3388.98313,0.03427
3386.92296,0.03434
3384.86279,0.03443
3382.80262,0.03463
3380.74244,0.03495
3378.68227,0.03532
3376.62210,0.03567
3374.56193,0.03589
3372.50176,0.03596
3370.44158,0.03597
3368.38141,0.03601
3366.32124,0.03611
3364.26107,0.03619
3362.20089,0.03626
3360.14072,0.03636
3358.08055,0.03656
3356.02038,0.03680
3353.96021,0.03696
3351.90003,0.03698
3349.83986,0.03693
3347.77969,0.03690
3345.71952,0.03692
3343.65935,0.03699
3341.59917,0.03713
3339.53900,0.03733
3337.47883,0.03750
3335.41866,0.03760
3333.35849,0.03758
3331.29831,0.03743
3329.23814,0.03723
3327.17797,0.03713
3325.11780,0.03722
3323.05762,0.03742
3320.99745,0.03760
3318.93728,0.03774
3316.87711,0.03784
3314.81694,0.03792
3312.75676,0.03804
3310.69659,0.03821
3308.63642,0.03834
3306.57625,0.03835
3304.51608,0.03818
3302.45590,0.03791
3300.39573,0.03761
3298.33556,0.03739
3296.27539,0.03731
3294.21521,0.03733
3292.15504,0.03740
3290.09487,0.03746
3288.03470,0.03757
3285.97453,0.03777
3283.91435,0.03803
3281.85418,0.03819
3279.79401,0.03816
3277.73384,0.03799
3275.67367,0.03781
3273.61349,0.03773
3271.55332,0.03775
3269.49315,0.03783
3267.43298,0.03792
3265.37281,0.03799
3263.31263,0.03804
3261.25246,0.03804
3259.19229,0.03792
3257.13212,0.03769
3255.07194,0.03742
3253.01177,0.03722
3250.95160,0.03721
3248.89143,0.03735
3246.83126,0.03750
3244.77108,0.03747
3242.71091,0.03725
3240.65074,0.03693
3238.59057,0.03661
3236.53040,0.03636
3234.47022,0.03624
3232.41005,0.03626
3230.34988,0.03635
3228.28971,0.03641
3226.22954,0.03634
3224.16936,0.03614
3222.10919,0.03588
3220.04902,0.03565
3217.98885,0.03544
3215.92867,0.03526
3213.86850,0.03516
3211.80833,0.03512
3209.74816,0.03505
3207.68799,0.03490
3205.62781,0.03471
3203.56764,0.03451
3201.50747,0.03426
3199.44730,0.03392
3197.38713,0.03354
3195.32695,0.03318
3193.26678,0.03284
3191.20661,0.03252
3189.14644,0.03225
3187.08626,0.03207
3185.02609,0.03201
3182.96592,0.03208
3180.90575,0.03213
3178.84558,0.03202
3176.78540,0.03176
3174.72523,0.03153
3172.66506,0.03142
3170.60489,0.03136
3168.54472,0.03118
3166.48454,0.03077
3164.42437,0.03022
3162.36420,0.02967
3160.30403,0.02921
3158.24386,0.02887
3156.18368,0.02863
3154.12351,0.02844
3152.06334,0.02823
3150.00317,0.02792
3147.94299,0.02751
3145.88282,0.02703
3143.82265,0.02659
3141.76248,0.02627
3139.70231,0.02610
3137.64213,0.02599
3135.58196,0.02581
3133.52179,0.02551
3131.46162,0.02515
3129.40145,0.02484
3127.34127,0.02458
3125.28110,0.02429
3123.22093,0.02394
3121.16076,0.02362
3119.10058,0.02343
3117.04041,0.02333
3114.98024,0.02318
3112.92007,0.02287
3110.85990,0.02244
3108.79972,0.02203
3106.73955,0.02178
3104.67938,0.02169
3102.61921,0.02168
3100.55904,0.02159
3098.49886,0.02133
3096.43869,0.02090
3094.37852,0.02035
3092.31835,0.01981
3090.25818,0.01940
3088.19800,0.01922
3086.13783,0.01919
3084.07766,0.01918
3082.01749,0.01907
3079.95731,0.01883
3077.89714,0.01855
3075.83697,0.01832
3073.77680,0.01815
3071.71663,0.01796
3069.65645,0.01775
3067.59628,0.01754
3065.53611,0.01734
3063.47594,0.01714
3061.41577,0.01696
3059.35559,0.01680
3057.29542,0.01663
3055.23525,0.01645
3053.17508,0.01625
3051.11491,0.01604
3049.05473,0.01580
3046.99456,0.01550
3044.93439,0.01519
3042.87422,0.01491
3040.81404,0.01467
3038.75387,0.01445
3036.69370,0.01423
3034.63353,0.01397
3032.57336,0.01367
3030.51318,0.01337
3028.45301,0.01308
3026.39284,0.01286
3024.33267,0.01275
3022.27250,0.01279
3020.21232,0.01286
3018.15215,0.01286
3016.09198,0.01272
3014.03181,0.01252
3011.97163,0.01236
3009.91146,0.01230
3007.85129,0.01235
3005.79112,0.01245
3003.73095,0.01252
3001.67077,0.01256
2999.61060,0.01261
2997.55043,0.01272
2995.49026,0.01284
2993.43009,0.01279
2991.36991,0.01258
2989.30974,0.01245
2987.24957,0.01259
2985.18940,0.01288
2983.12923,0.01306
2981.06905,0.01298
2979.00888,0.01280
2976.94871,0.01278
2974.88854,0.01295
2972.82836,0.01313
2970.76819,0.01328
2968.70802,0.01364
2966.64785,0.01419
2964.58768,0.01466
2962.52750,0.01491
2960.46733,0.01503
2958.40716,0.01519
2956.34699,0.01547
2954.28682,0.01585
2952.22664,0.01629
2950.16647,0.01678
2948.10630,0.01724
2946.04613,0.01754
2943.98596,0.01766
2941.92578,0.01768
2939.86561,0.01773
2937.80544,0.01795
2935.74527,0.01835
2933.68509,0.01867
2931.62492,0.01863
2929.56475,0.01845
2927.50458,0.01845
2925.44441,0.01845
2923.38423,0.01825
2921.32406,0.01805
2919.26389,0.01797
2917.20372,0.01784
2915.14355,0.01755
2913.08337,0.01714
2911.02320,0.01673
2908.96303,0.01644
2906.90286,0.01633
2904.84268,0.01636
2902.78251,0.01640
2900.72234,0.01630
2898.66217,0.01606
2896.60200,0.01578
2894.54182,0.01558
2892.48165,0.01552
2890.42148,0.01551
2888.36131,0.01541
2886.30114,0.01527
2884.24096,0.01531
2882.18079,0.01553
2880.12062,0.01568
2878.06045,0.01558
2876.00028,0.01537
2873.94010,0.01521
2871.87993,0.01500
2869.81976,0.01462
2867.75959,0.01422
2865.69941,0.01394
2863.63924,0.01372
2861.57907,0.01347
2859.51890,0.01315
2857.45873,0.01276
2855.39855,0.01245
2853.33838,0.01234
2851.27821,0.01230
2849.21804,0.01214
2847.15787,0.01193
2845.09769,0.01187
2843.03752,0.01193
2840.97735,0.01188
2838.91718,0.01160
2836.85700,0.01121
2834.79683,0.01103
2832.73666,0.01098
2830.67649,0.01079
2828.61632,0.01047
2826.55614,0.01022
2824.49597,0.01010
2822.43580,0.01000
2820.37563,0.00992
2818.31546,0.00991
2816.25528,0.00995
2814.19511,0.00997
2812.13494,0.00997
2810.07477,0.00992
2808.01460,0.00978
2805.95442,0.00957
2803.89425,0.00934
2801.83408,0.00922
2799.77391,0.00924
2797.71373,0.00918
2795.65356,0.00899
2793.59339,0.00891
2791.53322,0.00897
2789.47305,0.00901
2787.41287,0.00896
2785.35270,0.00889
2783.29253,0.00882
2781.23236,0.00875
2779.17219,0.00872
2777.11201,0.00868
2775.05184,0.00855
2772.99167,0.00837
2770.93150,0.00828
2768.87133,0.00835
2766.81115,0.00850
2764.75098,0.00855
2762.69081,0.00845
2760.63064,0.00831
2758.57046,0.00825
2756.51029,0.00826
2754.45012,0.00824
2752.38995,0.00808
2750.32978,0.00782
2748.26960,0.00760
2746.20943,0.00756
2744.14926,0.00771
2742.08909,0.00794
2740.02892,0.00805
2737.96874,0.00791
2735.90857,0.00767
2733.84840,0.00751
2731.78823,0.00751
2729.72805,0.00763
2727.66788,0.00776
2725.60771,0.00777
2723.54754,0.00761
2721.48737,0.00740
2719.42719,0.00721
2717.36702,0.00698
2715.30685,0.00684
2713.24668,0.00694
2711.18651,0.00715
2709.12633,0.00722
2707.06616,0.00713
2705.00599,0.00709
2702.94582,0.00718
2700.88565,0.00722
2698.82547,0.00715
2696.76530,0.00704
2694.70513,0.00692
2692.64496,0.00682
2690.58478,0.00686
2688.52461,0.00702
2686.46444,0.00704
2684.40427,0.00687
2682.34410,0.00676
2680.28392,0.00680
2678.22375,0.00682
2676.16358,0.00671
2674.10341,0.00656
2672.04324,0.00653
2669.98306,0.00660
2667.92289,0.00668
2665.86272,0.00680
2663.80255,0.00695
2661.74238,0.00699
2659.68220,0.00679
2657.62203,0.00651
2655.56186,0.00638
2653.50169,0.00646
2651.44151,0.00661
2649.38134,0.00671
2647.32117,0.00676
2645.26100,0.00669
2643.20083,0.00649
2641.14065,0.00637
2639.08048,0.00645
2637.02031,0.00660
2634.96014,0.00661
2632.89997,0.00645
2630.83979,0.00621
2628.77962,0.00593
2626.71945,0.00574
2624.65928,0.00558
2622.59910,0.00529
2620.53893,0.00499
2618.47876,0.00495
2616.41859,0.00508
2614.35842,0.00509
2612.29824,0.00495
2610.23807,0.00481
2608.17790,0.00479
2606.11773,0.00493
2604.05756,0.00520
2601.99738,0.00543
2599.93721,0.00541
2597.87704,0.00516
2595.81687,0.00488
2593.75670,0.00473
2591.69652,0.00476
2589.63635,0.00487
2587.57618,0.00488
2585.51601,0.00486
2583.45583,0.00497
2581.39566,0.00514
2579.33549,0.00511
2577.27532,0.00482
2575.21515,0.00443
2573.15497,0.00410
2571.09480,0.00391
2569.03463,0.00392
2566.97446,0.00411
2564.91429,0.00437
2562.85411,0.00458
2560.79394,0.00471
2558.73377,0.00474
2556.67360,0.00462
2554.61342,0.00447
2552.55325,0.00446
2550.49308,0.00459
2548.43291,0.00478
2546.37274,0.00494
2544.31256,0.00502
2542.25239,0.00501
2540.19222,0.00477
2538.13205,0.00437
2536.07188,0.00414
2534.01170,0.00411
2531.95153,0.00403
2529.89136,0.00384
2527.83119,0.00372
2525.77102,0.00387
2523.71084,0.00420
2521.65067,0.00441
2519.59050,0.00434
2517.53033,0.00408
2515.47015,0.00386
2513.40998,0.00378
2511.34981,0.00387
2509.28964,0.00399
2507.22947,0.00386
2505.16929,0.00351
2503.10912,0.00341
2501.04895,0.00373
2498.98878,0.00403
2496.92861,0.00393
2494.86843,0.00365
2492.80826,0.00369
2490.74809,0.00411
2488.68792,0.00431
2486.62775,0.00404
2484.56757,0.00355
2482.50740,0.00307
2480.44723,0.00269
2478.38706,0.00242
2476.32688,0.00248
2474.26671,0.00293
2472.20654,0.00344
2470.14637,0.00379
2468.08620,0.00401
2466.02602,0.00400
2463.96585,0.00379
2461.90568,0.00361
2459.84551,0.00347
2457.78534,0.00321
2455.72516,0.00298
2453.66499,0.00316
2451.60482,0.00367
2449.54465,0.00401
2447.48447,0.00407
2445.42430,0.00411
2443.36413,0.00426
2441.30396,0.00438
2439.24379,0.00420
2437.18361,0.00371
2435.12344,0.00324
2433.06327,0.00303
2431.00310,0.00300
2428.94293,0.00287
2426.88275,0.00271
2424.82258,0.00275
2422.76241,0.00282
2420.70224,0.00268
2418.64207,0.00248
2416.58189,0.00243
2414.52172,0.00254
2412.46155,0.00277
2410.40138,0.00299
2408.34120,0.00299
2406.28103,0.00282
2404.22086,0.00267
2402.16069,0.00251
2400.10052,0.00235
2398.04034,0.00243
2395.98017,0.00271
2393.92000,0.00301
2391.85983,0.00322
2389.79966,0.00338
2387.73948,0.00355
2385.67931,0.00372
2383.61914,0.00383
2381.55897,0.00389
2379.49880,0.00397
2377.43862,0.00419
2375.37845,0.00451
2373.31828,0.00477
2371.25811,0.00482
2369.19793,0.00482
2367.13776,0.00513
2365.07759,0.00579
2363.01742,0.00623
2360.95725,0.00579
2358.89707,0.00469
2356.83690,0.00392
2354.77673,0.00384
2352.71656,0.00399
2350.65639,0.00402
2348.59621,0.00392
2346.53604,0.00369
2344.47587,0.00330
2342.41570,0.00282
2340.35552,0.00238
2338.29535,0.00201
2336.23518,0.00187
2334.17501,0.00212
2332.11484,0.00263
2330.05466,0.00318
2327.99449,0.00375
2325.93432,0.00432
2323.87415,0.00478
2321.81398,0.00508
2319.75380,0.00516
2317.69363,0.00496
2315.63346,0.00459
2313.57329,0.00430
2311.51312,0.00420
2309.45294,0.00421
2307.39277,0.00417
2305.33260,0.00400
2303.27243,0.00370
2301.21225,0.00347
2299.15208,0.00349
2297.09191,0.00375
2295.03174,0.00409
2292.97157,0.00439
2290.91139,0.00451
2288.85122,0.00435
2286.79105,0.00395
2284.73088,0.00347
2282.67071,0.00307
2280.61053,0.00281
2278.55036,0.00264
2276.49019,0.00261
2274.43002,0.00275
2272.36984,0.00301
2270.30967,0.00332
2268.24950,0.00368
2266.18933,0.00409
2264.12916,0.00451
2262.06898,0.00488
2260.00881,0.00508
2257.94864,0.00496
2255.88847,0.00448
2253.82830,0.00374
2251.76812,0.00301
2249.70795,0.00251
2247.64778,0.00231
2245.58761,0.00221
2243.52744,0.00226
2241.46726,0.00229
2239.40709,0.00211
2237.34692,0.00177
2235.28675,0.00151
2233.22657,0.00193
2231.16640,0.00309
2229.10623,0.00376
2227.04606,0.00351
2224.98589,0.00344
2222.92571,0.00404
2220.86554,0.00427
2218.80537,0.00336
2216.74520,0.00202
2214.68503,0.00163
2212.62485,0.00266
2210.56468,0.00403
2208.50451,0.00466
2206.44434,0.00454
2204.38417,0.00415
2202.32399,0.00382
2200.26382,0.00355
2198.20365,0.00310
2196.14348,0.00238
2194.08330,0.00199
2192.02313,0.00249
2189.96296,0.00350
2187.90279,0.00402
2185.84262,0.00343
2183.78244,0.00218
2181.72227,0.00136
2179.66210,0.00172
2177.60193,0.00297
2175.54176,0.00417
2173.48158,0.00469
2171.42141,0.00481
2169.36124,0.00510
2167.30107,0.00551
2165.24089,0.00558
2163.18072,0.00525
2161.12055,0.00484
2159.06038,0.00397
2157.00021,0.00279
2154.94003,0.00239
2152.87986,0.00292
2150.81969,0.00336
2148.75952,0.00283
2146.69935,0.00165
2144.63917,0.00102
2142.57900,0.00144
2140.51883,0.00234
2138.45866,0.00289
2136.39849,0.00243
2134.33831,0.00125
2132.27814,0.00075
2130.21797,0.00150
2128.15780,0.00257
2126.09762,0.00303
2124.03745,0.00297
2121.97728,0.00294
2119.91711,0.00319
2117.85694,0.00361
2115.79676,0.00387
2113.73659,0.00372
2111.67642,0.00352
2109.61625,0.00376
2107.55608,0.00419
2105.49590,0.00443
2103.43573,0.00454
2101.37556,0.00448
2099.31539,0.00406
2097.25521,0.00360
2095.19504,0.00343
2093.13487,0.00357
2091.07470,0.00384
2089.01453,0.00412
2086.95435,0.00434
2084.89418,0.00445
2082.83401,0.00436
2080.77384,0.00414
2078.71367,0.00387
2076.65349,0.00364
2074.59332,0.00360
2072.53315,0.00378
2070.47298,0.00406
2068.41281,0.00419
2066.35263,0.00411
2064.29246,0.00388
2062.23229,0.00361
2060.17212,0.00330
2058.11194,0.00295
2056.05177,0.00255
2053.99160,0.00227
2051.93143,0.00229
2049.87126,0.00265
2047.81108,0.00318
2045.75091,0.00365
2043.69074,0.00401
2041.63057,0.00418
2039.57040,0.00390
2037.51022,0.00307
2035.45005,0.00210
2033.38988,0.00164
2031.32971,0.00180
2029.26954,0.00206
2027.20936,0.00191
2025.14919,0.00123
2023.08902,0.00039
2021.02885,0.00000
2018.96867,0.00029
2016.90850,0.00099
2014.84833,0.00159
2012.78816,0.00197
2010.72799,0.00228
2008.66781,0.00259
2006.60764,0.00292
2004.54747,0.00329
2002.48730,0.00352
2000.42713,0.00344
1998.36695,0.00323
1996.30678,0.00314
1994.24661,0.00325
1992.18644,0.00335
1990.12626,0.00322
1988.06609,0.00294
1986.00592,0.00280
1983.94575,0.00283
1981.88558,0.00288
1979.82540,0.00280
1977.76523,0.00260
1975.70506,0.00232
1973.64489,0.00182
1971.58472,0.00116
1969.52454,0.00066
1967.46437,0.00055
1965.40420,0.00076
1963.34403,0.00095
1961.28386,0.00085
1959.22368,0.00056
1957.16351,0.00039
1955.10334,0.00046
1953.04317,0.00059
1950.98299,0.00059
1948.92282,0.00051
1946.86265,0.00047
1944.80248,0.00055
1942.74231,0.00076
1940.68213,0.00098
1938.62196,0.00111
1936.56179,0.00121
1934.50162,0.00125
1932.44145,0.00115
1930.38127,0.00097
1928.32110,0.00094
1926.26093,0.00112
1924.20076,0.00129
1922.14059,0.00127
1920.08041,0.00110
1918.02024,0.00103
1915.96007,0.00115
1913.89990,0.00138
1911.83972,0.00154
1909.77955,0.00154
1907.71938,0.00146
1905.65921,0.00150
1903.59904,0.00174
1901.53886,0.00207
1899.47869,0.00215
1897.41852,0.00182
1895.35835,0.00124
1893.29818,0.00070
1891.23800,0.00035
1889.17783,0.00012
1887.11766,0.00000
1885.05749,0.00008
1882.99731,0.00043
1880.93714,0.00093
1878.87697,0.00141
1876.81680,0.00179
1874.75663,0.00198
1872.69645,0.00199
1870.63628,0.00185
1868.57611,0.00158
1866.51594,0.00126
1864.45577,0.00099
1862.39559,0.00086
1860.33542,0.00085
1858.27525,0.00091
1856.21508,0.00096
1854.15491,0.00094
1852.09473,0.00083
1850.03456,0.00069
1847.97439,0.00056
1845.91422,0.00046
1843.85404,0.00040
1841.79387,0.00045
1839.73370,0.00059
1837.67353,0.00072
1835.61336,0.00078
1833.55318,0.00078
1831.49301,0.00076
1829.43284,0.00071
1827.37267,0.00063
1825.31250,0.00059
1823.25232,0.00059
1821.19215,0.00060
1819.13198,0.00057
1817.07181,0.00045
1815.01163,0.00032
1812.95146,0.00020
1810.89129,0.00009
1808.83112,0.00000
1806.77095,0.00000
1804.71077,0.00010
1802.65060,0.00025
1800.59043,0.00042
1798.53026,0.00065
1796.47009,0.00095
1794.40991,0.00118
1792.34974,0.00116
1790.28957,0.00091
1788.22940,0.00057
1786.16923,0.00029
1784.10905,0.00015
1782.04888,0.00016
1779.98871,0.00028
1777.92854,0.00047
1775.86836,0.00073
1773.80819,0.00096
1771.74802,0.00103
1769.68785,0.00094
1767.62768,0.00084
1765.56750,0.00084
1763.50733,0.00102
1761.44716,0.00143
1759.38699,0.00204
1757.32682,0.00274
1755.26664,0.00341
1753.20647,0.00400
1751.14630,0.00452
1749.08613,0.00496
1747.02596,0.00531
1744.96578,0.00561
1742.90561,0.00595
1740.84544,0.00638
1738.78527,0.00688
1736.72509,0.00737
1734.66492,0.00777
1732.60475,0.00796
1730.54458,0.00794
1728.48441,0.00781
1726.42423,0.00765
1724.36406,0.00747
1722.30389,0.00721
1720.24372,0.00679
1718.18355,0.00618
1716.12337,0.00549
1714.06320,0.00489
1712.00303,0.00445
1709.94286,0.00418
1707.88268,0.00402
1705.82251,0.00392
1703.76234,0.00383
1701.70217,0.00374
1699.64200,0.00358
1697.58182,0.00338
1695.52165,0.00324
1693.46148,0.00325
1691.40131,0.00340
1689.34114,0.00369
1687.28096,0.00414
1685.22079,0.00470
1683.16062,0.00521
1681.10045,0.00560
1679.04028,0.00592
1676.98010,0.00626
1674.91993,0.00669
1672.85976,0.00719
1670.79959,0.00774
1668.73941,0.00833
1666.67924,0.00900
1664.61907,0.00976
1662.55890,0.01054
1660.49873,0.01127
1658.43855,0.01197
1656.37838,0.01261
1654.31821,0.01313
1652.25804,0.01349
1650.19787,0.01379
1648.13769,0.01411
1646.07752,0.01442
1644.01735,0.01470
1641.95718,0.01499
1639.89701,0.01526
1637.83683,0.01544
1635.77666,0.01547
1633.71649,0.01542
1631.65632,0.01545
1629.59614,0.01565
1627.53597,0.01593
1625.47580,0.01619
1623.41563,0.01636
1621.35546,0.01645
1619.29528,0.01650
1617.23511,0.01646
1615.17494,0.01630
1613.11477,0.01608
1611.05460,0.01585
1608.99442,0.01557
1606.93425,0.01519
1604.87408,0.01470
1602.81391,0.01413
1600.75373,0.01348
1598.69356,0.01270
1596.63339,0.01180
1594.57322,0.01084
1592.51305,0.00993
1590.45287,0.00906
1588.39270,0.00819
1586.33253,0.00733
1584.27236,0.00651
1582.21219,0.00582
1580.15201,0.00527
1578.09184,0.00482
1576.03167,0.00439
1573.97150,0.00399
1571.91133,0.00371
1569.85115,0.00349
1567.79098,0.00327
1565.73081,0.00305
1563.67064,0.00286
1561.61046,0.00261
1559.55029,0.00219
1557.49012,0.00164
1555.42995,0.00121
1553.36978,0.00098
1551.30960,0.00092
1549.24943,0.00098
1547.18926,0.00110
1545.12909,0.00119
1543.06892,0.00115
1541.00874,0.00098
1538.94857,0.00077
1536.88840,0.00062
1534.82823,0.00048
1532.76805,0.00033
1530.70788,0.00019
1528.64771,0.00017
1526.58754,0.00028
1524.52737,0.00041
1522.46719,0.00041
1520.40702,0.00021
1518.34685,0.00000
1516.28668,-0.00005
1514.22651,0.00014
1512.16633,0.00053
1510.10616,0.00095
1508.04599,0.00118
1505.98582,0.00110
1503.92565,0.00091
1501.86547,0.00084
1499.80530,0.00094
1497.74513,0.00112
1495.68496,0.00130
1493.62478,0.00143
1491.56461,0.00151
1489.50444,0.00153
1487.44427,0.00154
1485.38410,0.00164
1483.32392,0.00186
1481.26375,0.00218
1479.20358,0.00257
1477.14341,0.00307
1475.08324,0.00370
1473.02306,0.00441
1470.96289,0.00505
1468.90272,0.00558
1466.84255,0.00601
1464.78238,0.00636
1462.72220,0.00671
1460.66203,0.00710
1458.60186,0.00752
1456.54169,0.00786
1454.48151,0.00811
1452.42134,0.00835
1450.36117,0.00862
1448.30100,0.00889
1446.24083,0.00917
1444.18065,0.00948
1442.12048,0.00985
1440.06031,0.01026
1438.00014,0.01067
1435.93997,0.01106
1433.87979,0.01141
1431.81962,0.01175
1429.75945,0.01208
1427.69928,0.01239
1425.63910,0.01270
1423.57893,0.01305
1421.51876,0.01343
1419.45859,0.01380
1417.39842,0.01411
1415.33824,0.01432
1413.27807,0.01445
1411.21790,0.01450
1409.15773,0.01444
1407.09756,0.01426
1405.03738,0.01392
1402.97721,0.01349
1400.91704,0.01308
1398.85687,0.01273
1396.79670,0.01240
1394.73652,0.01210
1392.67635,0.01190
1390.61618,0.01188
1388.55601,0.01200
1386.49583,0.01218
1384.43566,0.01241
1382.37549,0.01267
1380.31532,0.01299
1378.25515,0.01329
1376.19497,0.01352
1374.13480,0.01367
1372.07463,0.01377
1370.01446,0.01382
1367.95429,0.01375
1365.89411,0.01358
1363.83394,0.01337
1361.77377,0.01318
1359.71360,0.01301
1357.65343,0.01285
1355.59325,0.01269
1353.53308,0.01249
1351.47291,0.01227
1349.41274,0.01203
1347.35256,0.01182
1345.29239,0.01167
1343.23222,0.01157
1341.17205,0.01152
1339.11188,0.01152
1337.05170,0.01152
1334.99153,0.01146
1332.93136,0.01133
1330.87119,0.01116
1328.81102,0.01103
1326.75084,0.01098
1324.69067,0.01106
1322.63050,0.01126
1320.57033,0.01154
1318.51015,0.01179
1316.44998,0.01193
1314.38981,0.01196
1312.32964,0.01191
1310.26947,0.01181
1308.20929,0.01165
1306.14912,0.01143
1304.08895,0.01116
1302.02878,0.01084
1299.96861,0.01050
1297.90843,0.01019
1295.84826,0.00995
1293.78809,0.00979
1291.72792,0.00970
1289.66775,0.00963
1287.60757,0.00959
1285.54740,0.00957
1283.48723,0.00954
1281.42706,0.00951
1279.36688,0.00952
1277.30671,0.00961
1275.24654,0.00977
1273.18637,0.00998
1271.12620,0.01027
1269.06602,0.01067
1267.00585,0.01116
1264.94568,0.01168
1262.88551,0.01215
1260.82534,0.01258
1258.76516,0.01301
1256.70499,0.01345
1254.64482,0.01385
1252.58465,0.01415
1250.52447,0.01439
1248.46430,0.01456
1246.40413,0.01461
1244.34396,0.01452
1242.28379,0.01432
1240.22361,0.01407
1238.16344,0.01377
1236.10327,0.01341
1234.04310,0.01296
1231.98293,0.01244
1229.92275,0.01189
1227.86258,0.01134
1225.80241,0.01079
1223.74224,0.01026
1221.68207,0.00976
1219.62189,0.00931
1217.56172,0.00890
1215.50155,0.00851
1213.44138,0.00805
1211.38120,0.00746
1209.32103,0.00670
1207.26086,0.00582
1205.20069,0.00487
1203.14052,0.00391
1201.08034,0.00297
1199.02017,0.00214
1196.96000,0.00154
1194.89983,0.00111
1192.83966,0.00068
1190.77948,0.00025
1188.71931,0.00000
1186.65914,0.00003
1184.59897,0.00036
1182.53880,0.00082
1180.47862,0.00134
1178.41845,0.00192
1176.35828,0.00266
1174.29811,0.00354
1172.23793,0.00444
1170.17776,0.00537
1168.11759,0.00641
1166.05742,0.00753
1163.99725,0.00855
1161.93707,0.00943
1159.87690,0.01029
1157.81673,0.01116
1155.75656,0.01200
1153.69639,0.01282
1151.63621,0.01365
1149.57604,0.01443
1147.51587,0.01498
1145.45570,0.01528
1143.39552,0.01542
1141.33535,0.01554
1139.27518,0.01575
1137.21501,0.01612
1135.15484,0.01661
1133.09466,0.01719
1131.03449,0.01782
1128.97432,0.01854
1126.91415,0.01936
1124.85398,0.02024
1122.79380,0.02116
1120.73363,0.02197
1118.67346,0.02261
1116.61329,0.02318
1114.55312,0.02371
1112.49294,0.02426
1110.43277,0.02488
1108.37260,0.02564
1106.31243,0.02666
1104.25225,0.02791
1102.19208,0.02917
1100.13191,0.03036
1098.07174,0.03163
1096.01157,0.03296
1093.95139,0.03417
1091.89122,0.03527
1089.83105,0.03636
1087.77088,0.03741
1085.71071,0.03840
1083.65053,0.03945
1081.59036,0.04053
1079.53019,0.04161
1077.47002,0.04266
1075.40985,0.04365
1073.34967,0.04469
1071.28950,0.04589
1069.22933,0.04699
1067.16916,0.04758
1065.10898,0.04783
1063.04881,0.04817
1060.98864,0.04871
1058.92847,0.04924
1056.86830,0.04965
1054.80812,0.05005
1052.74795,0.05072
1050.68778,0.05174
1048.62761,0.05284
1046.56744,0.05375
1044.50726,0.05446
1042.44709,0.05506
1040.38692,0.05560
1038.32675,0.05603
1036.26657,0.05633
1034.20640,0.05662
1032.14623,0.05695
1030.08606,0.05713
1028.02589,0.05697
1025.96571,0.05664
1023.90554,0.05650
1021.84537,0.05664
1019.78520,0.05690
1017.72503,0.05710
1015.66485,0.05717
1013.60468,0.05701
1011.54451,0.05675
1009.48434,0.05663
1007.42417,0.05653
1005.36399,0.05609
1003.30382,0.05533
1001.24365,0.05455
999.18348,0.05382
997.12330,0.05298
995.06313,0.05195
993.00296,0.05103
990.94279,0.05044
988.88262,0.05002
986.82244,0.04954
984.76227,0.04893
982.70210,0.04831
980.64193,0.04779
978.58176,0.04727
976.52158,0.04673
974.46141,0.04618
972.40124,0.04552
970.34107,0.04475
968.28089,0.04401
966.22072,0.04339
964.16055,0.04288
962.10038,0.04235
960.04021,0.04161
957.98003,0.04076
955.91986,0.03997
953.85969,0.03923
951.79952,0.03855
949.73935,0.03784
947.67917,0.03683
945.61900,0.03549
943.55883,0.03406
941.49866,0.03249
939.43849,0.03056
937.37831,0.02833
935.31814,0.02614
933.25797,0.02413
931.19780,0.02214
929.13762,0.02007
927.07745,0.01820
925.01728,0.01674
922.95711,0.01552
920.89694,0.01431
918.83676,0.01315
916.77659,0.01212
914.71642,0.01120
912.65625,0.01033
910.59608,0.00960
908.53590,0.00910
906.47573,0.00873
904.41556,0.00852
902.35539,0.00857
900.29522,0.00868
898.23504,0.00852
896.17487,0.00834
894.11470,0.00844
892.05453,0.00846
889.99435,0.00805
887.93418,0.00735
885.87401,0.00657
883.81384,0.00602
881.75367,0.00590
879.69349,0.00588
877.63332,0.00546
875.57315,0.00473
873.51298,0.00405
871.45281,0.00351
869.39263,0.00329
867.33246,0.00356
865.27229,0.00393
863.21212,0.00392
861.15194,0.00361
859.09177,0.00333
857.03160,0.00326
854.97143,0.00336
852.91126,0.00338
850.85108,0.00308
848.79091,0.00263
846.73074,0.00229
844.67057,0.00186
842.61040,0.00105
840.55022,0.00023
838.49005,0.00000
836.42988,0.00027
834.36971,0.00046
832.30954,0.00020
830.24936,-0.00027
828.18919,-0.00035
826.12902,0.00013
824.06885,0.00060
822.00867,0.00067
819.94850,0.00041
817.88833,0.00016
815.82816,0.00014
813.76799,0.00027
811.70781,0.00034
809.64764,0.00036
807.58747,0.00052
805.52730,0.00085
803.46713,0.00111
801.40695,0.00100
799.34678,0.00069
797.28661,0.00064
795.22644,0.00069
793.16627,0.00050
791.10609,0.00018
789.04592,0.00000
786.98575,0.00014
784.92558,0.00054
782.86540,0.00083
780.80523,0.00076
778.74506,0.00037
776.68489,-0.00015
774.62472,-0.00050
772.56454,-0.00050
770.50437,-0.00013
768.44420,0.00039
766.38403,0.00053
764.32386,0.00026
762.26368,0.00018
760.20351,0.00046
758.14334,0.00065
756.08317,0.00052
754.02299,0.00024
751.96282,0.00000
749.90265,0.00015
747.84248,0.00102
745.78231,0.00183
743.72213,0.00185
741.66196,0.00139
739.60179,0.00114
737.54162,0.00102
735.48145,0.00079
733.42127,0.00056
731.36110,0.00037
729.30093,0.00026
727.24076,0.00041
725.18059,0.00061
723.12041,0.00056
721.06024,0.00040
719.00007,0.00035
716.93990,0.00052
714.87972,0.00085
712.81955,0.00113
710.75938,0.00131
708.69921,0.00152
706.63904,0.00176
704.57886,0.00188
702.51869,0.00190
700.45852,0.00204
698.39835,0.00233
696.33818,0.00251
694.27800,0.00252
692.21783,0.00257
690.15766,0.00270
688.09749,0.00264
686.03731,0.00218
683.97714,0.00151
681.91697,0.00109
679.85680,0.00123
677.79663,0.00166
675.73645,0.00198
673.67628,0.00212
671.61611,0.00226
669.55594,0.00231
667.49577,0.00189
665.43559,0.00115
663.37542,0.00077
661.31525,0.00113
659.25508,0.00187
657.19491,0.00218
655.13473,0.00164
653.07456,0.00065
651.01439,-0.00006
648.95422,0.00000
646.89404,0.00062
644.83387,0.00146
642.77370,0.00213
640.71353,0.00266
638.65336,0.00336
636.59318,0.00420
634.53301,0.00438
632.47284,0.00332
630.41267,0.00175
628.35250,0.00112
626.29232,0.00208
624.23215,0.00296
622.17198,0.00295
620.11181,0.00279
618.05164,0.00307
615.99146,0.00328
613.93129,0.00227
611.87112,-0.00022
609.81095,-0.00264
607.75077,-0.00271
605.69060,-0.00002
603.63043,0.00246
601.57026,0.00209
599.51009,0.00000
