3996.73391,-0.00027
3994.67373,-0.00021
3992.61356,-0.00004
3990.55339,-0.00008
3988.49322,0.00001
3986.43305,0.00037
3984.37287,0.00063
3982.31270,0.00058
3980.25253,0.00043
3978.19236,0.00029
3976.13219,0.00027
3974.07201,0.00040
3972.01184,0.00033
3969.95167,0.00003
3967.89150,0.00000
3965.83133,0.00025
3963.77115,0.00032
3961.71098,0.00025
3959.65081,0.00031
3957.59064,0.00043
3955.53046,0.00065
3953.47029,0.00087
3951.41012,0.00080
3949.34995,0.00066
3947.28978,0.00090
3945.22960,0.00093
3943.16943,0.00050
3941.10926,0.00061
3939.04909,0.00116
3936.98892,0.00156
3934.92874,0.00144
3932.86857,0.00092
3930.80840,0.00092
3928.74823,0.00134
3926.68805,0.00123
3924.62788,0.00106
3922.56771,0.00141
3920.50754,0.00141
3918.44737,0.00101
3916.38719,0.00099
3914.32702,0.00132
3912.26685,0.00142
3910.20668,0.00158
3908.14651,0.00182
3906.08633,0.00162
3904.02616,0.00148
3901.96599,0.00169
3899.90582,0.00165
3897.84565,0.00216
3895.78547,0.00276
3893.72530,0.00218
3891.66513,0.00150
3889.60496,0.00216
3887.54478,0.00216
3885.48461,0.00170
3883.42444,0.00217
3881.36427,0.00182
3879.30410,0.00181
3877.24392,0.00241
3875.18375,0.00216
3873.12358,0.00196
3871.06341,0.00153
3869.00324,0.00201
3866.94306,0.00291
3864.88289,0.00229
3862.82272,0.00210
3860.76255,0.00289
3858.70237,0.00360
3856.64220,0.00283
3854.58203,0.00034
3852.52186,0.00000
3850.46169,0.00222
3848.40151,0.00334
3846.34134,0.00319
3844.28117,0.00292
3842.22100,0.00311
3840.16083,0.00302
3838.10065,0.00285
3836.04048,0.00331
3833.98031,0.00334
3831.92014,0.00283
3829.85997,0.00279
3827.79979,0.00312
3825.73962,0.00412
3823.67945,0.00440
3821.61928,0.00318
3819.55910,0.00335
3817.49893,0.00315
3815.43876,0.00256
3813.37859,0.00333
3811.31842,0.00373
3809.25824,0.00290
3807.19807,0.00200
3805.13790,0.00251
3803.07773,0.00223
3801.01756,0.00189
3798.95738,0.00273
3796.89721,0.00250
3794.83704,0.00243
3792.77687,0.00267
3790.71670,0.00256
3788.65652,0.00243
3786.59635,0.00213
3784.53618,0.00199
3782.47601,0.00208
3780.41583,0.00163
3778.35566,0.00173
3776.29549,0.00265
3774.23532,0.00311
3772.17515,0.00262
3770.11497,0.00185
3768.05480,0.00180
3765.99463,0.00184
3763.93446,0.00239
3761.87429,0.00266
3759.81411,0.00224
3757.75394,0.00267
3755.69377,0.00355
3753.63360,0.00321
3751.57342,0.00239
3749.51325,0.00354
3747.45308,0.00457
3745.39291,0.00286
3743.33274,0.00257
3741.27256,0.00427
3739.21239,0.00457
3737.15222,0.00337
3735.09205,0.00241
3733.03188,0.00262
3730.97170,0.00348
3728.91153,0.00381
3726.85136,0.00328
3724.79119,0.00310
3722.73102,0.00304
3720.67084,0.00302
3718.61067,0.00315
3716.55050,0.00333
3714.49033,0.00278
3712.43015,0.00148
3710.36998,0.00142
3708.30981,0.00276
3706.24964,0.00372
3704.18947,0.00342
3702.12929,0.00266
3700.06912,0.00279
3698.00895,0.00306
3695.94878,0.00323
3693.88861,0.00348
3691.82843,0.00296
3689.76826,0.00199
3687.70809,0.00223
3685.64792,0.00308
3683.58775,0.00314
3681.52757,0.00296
3679.46740,0.00289
3677.40723,0.00197
3675.34706,0.00147
3673.28688,0.00306
3671.22671,0.00267
3669.16654,0.00186
3667.10637,0.00280
3665.04620,0.00316
3662.98602,0.00290
3660.92585,0.00291
3658.86568,0.00270
3656.80551,0.00230
3654.74534,0.00326
3652.68516,0.00381
3650.62499,0.00257
3648.56482,0.00209
3646.50465,0.00302
3644.44447,0.00354
3642.38430,0.00315
3640.32413,0.00295
3638.26396,0.00313
3636.20379,0.00323
3634.14361,0.00329
3632.08344,0.00305
3630.02327,0.00152
3627.96310,0.00136
3625.90293,0.00322
3623.84275,0.00400
3621.78258,0.00340
3619.72241,0.00277
3617.66224,0.00336
3615.60207,0.00371
3613.54189,0.00317
3611.48172,0.00304
3609.42155,0.00275
3607.36138,0.00236
3605.30120,0.00272
3603.24103,0.00311
3601.18086,0.00324
3599.12069,0.00329
3597.06052,0.00280
3595.00034,0.00233
3592.94017,0.00287
3590.88000,0.00342
3588.81983,0.00273
3586.75966,0.00239
3584.69948,0.00305
3582.63931,0.00312
3580.57914,0.00269
3578.51897,0.00244
3576.45879,0.00247
3574.39862,0.00287
3572.33845,0.00356
3570.27828,0.00358
3568.21811,0.00249
3566.15793,0.00198
3564.09776,0.00269
3562.03759,0.00297
3559.97742,0.00279
3557.91725,0.00288
3555.85707,0.00311
3553.79690,0.00307
3551.73673,0.00308
3549.67656,0.00329
3547.61639,0.00321
3545.55621,0.00305
3543.49604,0.00320
3541.43587,0.00345
3539.37570,0.00351
3537.31552,0.00332
3535.25535,0.00318
3533.19518,0.00310
3531.13501,0.00284
3529.07484,0.00274
3527.01466,0.00303
3524.95449,0.00317
3522.89432,0.00305
3520.83415,0.00304
3518.77398,0.00303
3516.71380,0.00300
3514.65363,0.00297
3512.59346,0.00300
3510.53329,0.00313
3508.47312,0.00342
3506.41294,0.00358
3504.35277,0.00338
3502.29260,0.00344
3500.23243,0.00363
3498.17225,0.00344
3496.11208,0.00326
3494.05191,0.00322
3491.99174,0.00304
3489.93157,0.00277
3487.87139,0.00282
3485.81122,0.00319
3483.75105,0.00321
3481.69088,0.00293
3479.63071,0.00293
3477.57053,0.00295
3475.51036,0.00276
3473.45019,0.00273
3471.39002,0.00296
3469.32984,0.00306
3467.26967,0.00295
3465.20950,0.00292
3463.14933,0.00280
3461.08916,0.00260
3459.02898,0.00264
3456.96881,0.00281
3454.90864,0.00290
3452.84847,0.00308
3450.78830,0.00345
3448.72812,0.00360
3446.66795,0.00358
3444.60778,0.00367
3442.54761,0.00365
3440.48744,0.00381
3438.42726,0.00394
3436.36709,0.00377
3434.30692,0.00358
3432.24675,0.00343
3430.18657,0.00322
3428.12640,0.00314
3426.06623,0.00338
3424.00606,0.00369
3421.94589,0.00365
3419.88571,0.00345
3417.82554,0.00329
3415.76537,0.00305
3413.70520,0.00289
3411.64503,0.00292
3409.58485,0.00316
3407.52468,0.00347
3405.46451,0.00363
3403.40434,0.00350
3401.34416,0.00326
3399.28399,0.00304
3397.22382,0.00301
3395.16365,0.00310
3393.10348,0.00300
3391.04330,0.00302
3388.98313,0.00335
3386.92296,0.00362
3384.86279,0.00362
3382.80262,0.00352
3380.74244,0.00333
3378.68227,0.00309
3376.62210,0.00306
3374.56193,0.00326
3372.50176,0.00347
3370.44158,0.00355
3368.38141,0.00339
3366.32124,0.00311
3364.26107,0.00294
3362.20089,0.00295
3360.14072,0.00304
3358.08055,0.00305
3356.02038,0.00307
3353.96021,0.00325
3351.90003,0.00350
3349.83986,0.00369
3347.77969,0.00376
3345.71952,0.00370
3343.65935,0.00350
3341.59917,0.00324
3339.53900,0.00319
3337.47883,0.00342
3335.41866,0.00365
3333.35849,0.00366
3331.29831,0.00354
3329.23814,0.00341
3327.17797,0.00334
3325.11780,0.00342
3323.05762,0.00348
3320.99745,0.00346
3318.93728,0.00352
3316.87711,0.00360
3314.81694,0.00359
3312.75676,0.00357
3310.69659,0.00355
3308.63642,0.00353
3306.57625,0.00347
3304.51608,0.00330
3302.45590,0.00332
3300.39573,0.00358
3298.33556,0.00370
3296.27539,0.00357
3294.21521,0.00341
3292.15504,0.00327
3290.09487,0.00336
3288.03470,0.00365
3285.97453,0.00362
3283.91435,0.00326
3281.85418,0.00309
3279.79401,0.00322
3277.73384,0.00343
3275.67367,0.00351
3273.61349,0.00345
3271.55332,0.00341
3269.49315,0.00338
3267.43298,0.00336
3265.37281,0.00336
3263.31263,0.00338
3261.25246,0.00347
3259.19229,0.00360
3257.13212,0.00363
3255.07194,0.00352
3253.01177,0.00349
3250.95160,0.00373
3248.89143,0.00391
3246.83126,0.00370
3244.77108,0.00340
3242.71091,0.00339
3240.65074,0.00344
3238.59057,0.00342
3236.53040,0.00350
3234.47022,0.00363
3232.41005,0.00369
3230.34988,0.00375
3228.28971,0.00372
3226.22954,0.00354
3224.16936,0.00339
3222.10919,0.00333
3220.04902,0.00330
3217.98885,0.00339
3215.92867,0.00345
3213.86850,0.00339
3211.80833,0.00339
3209.74816,0.00341
3207.68799,0.00338
3205.62781,0.00344
3203.56764,0.00367
3201.50747,0.00378
3199.44730,0.00363
3197.38713,0.00346
3195.32695,0.00354
3193.26678,0.00379
3191.20661,0.00393
3189.14644,0.00381
3187.08626,0.00367
3185.02609,0.00372
3182.96592,0.00381
3180.90575,0.00370
3178.84558,0.00355
3176.78540,0.00355
3174.72523,0.00348
3172.66506,0.00332
3170.60489,0.00334
3168.54472,0.00346
3166.48454,0.00341
3164.42437,0.00320
3162.36420,0.00308
3160.30403,0.00325
3158.24386,0.00350
3156.18368,0.00347
3154.12351,0.00324
3152.06334,0.00312
3150.00317,0.00312
3147.94299,0.00308
3145.88282,0.00306
3143.82265,0.00310
3141.76248,0.00311
3139.70231,0.00311
3137.64213,0.00326
3135.58196,0.00341
3133.52179,0.00341
3131.46162,0.00335
3129.40145,0.00326
3127.34127,0.00323
3125.28110,0.00332
3123.22093,0.00327
3121.16076,0.00309
3119.10058,0.00303
3117.04041,0.00305
3114.98024,0.00318
3112.92007,0.00333
3110.85990,0.00339
3108.79972,0.00346
3106.73955,0.00343
3104.67938,0.00320
3102.61921,0.00308
3100.55904,0.00328
3098.49886,0.00349
3096.43869,0.00351
3094.37852,0.00350
3092.31835,0.00347
3090.25818,0.00336
3088.19800,0.00330
3086.13783,0.00331
3084.07766,0.00328
3082.01749,0.00323
3079.95731,0.00324
3077.89714,0.00330
3075.83697,0.00336
3073.77680,0.00332
3071.71663,0.00319
3069.65645,0.00322
3067.59628,0.00338
3065.53611,0.00344
3063.47594,0.00344
3061.41577,0.00350
3059.35559,0.00354
3057.29542,0.00343
3055.23525,0.00327
3053.17508,0.00310
3051.11491,0.00296
3049.05473,0.00299
3046.99456,0.00302
3044.93439,0.00291
3042.87422,0.00291
3040.81404,0.00317
3038.75387,0.00345
3036.69370,0.00339
3034.63353,0.00313
3032.57336,0.00307
3030.51318,0.00327
3028.45301,0.00345
3026.39284,0.00340
3024.33267,0.00319
3022.27250,0.00295
3020.21232,0.00284
3018.15215,0.00286
3016.09198,0.00297
3014.03181,0.00308
3011.97163,0.00305
3009.91146,0.00292
3007.85129,0.00291
3005.79112,0.00313
3003.73095,0.00344
3001.67077,0.00356
2999.61060,0.00348
2997.55043,0.00335
2995.49026,0.00324
2993.43009,0.00323
2991.36991,0.00328
2989.30974,0.00326
2987.24957,0.00310
2985.18940,0.00295
2983.12923,0.00294
2981.06905,0.00296
2979.00888,0.00287
2976.94871,0.00274
2974.88854,0.00274
2972.82836,0.00290
2970.76819,0.00298
2968.70802,0.00296
2966.64785,0.00300
2964.58768,0.00308
2962.52750,0.00316
2960.46733,0.00318
2958.40716,0.00310
2956.34699,0.00315
2954.28682,0.00335
2952.22664,0.00349
2950.16647,0.00350
2948.10630,0.00340
2946.04613,0.00331
2943.98596,0.00333
2941.92578,0.00340
2939.86561,0.00345
2937.80544,0.00345
2935.74527,0.00342
2933.68509,0.00346
2931.62492,0.00349
2929.56475,0.00351
2927.50458,0.00350
2925.44441,0.00337
2923.38423,0.00327
2921.32406,0.00329
2919.26389,0.00335
2917.20372,0.00339
2915.14355,0.00336
2913.08337,0.00329
2911.02320,0.00343
2908.96303,0.00366
2906.90286,0.00361
2904.84268,0.00341
2902.78251,0.00331
2900.72234,0.00330
2898.66217,0.00326
2896.60200,0.00314
2894.54182,0.00318
2892.48165,0.00339
2890.42148,0.00349
2888.36131,0.00346
2886.30114,0.00342
2884.24096,0.00335
2882.18079,0.00332
2880.12062,0.00333
2878.06045,0.00339
2876.00028,0.00348
2873.94010,0.00346
2871.87993,0.00328
2869.81976,0.00315
2867.75959,0.00306
2865.69941,0.00296
2863.63924,0.00295
2861.57907,0.00303
2859.51890,0.00309
2857.45873,0.00314
2855.39855,0.00323
2853.33838,0.00319
2851.27821,0.00308
2849.21804,0.00320
2847.15787,0.00339
2845.09769,0.00331
2843.03752,0.00316
2840.97735,0.00315
2838.91718,0.00308
2836.85700,0.00296
2834.79683,0.00289
2832.73666,0.00289
2830.67649,0.00296
2828.61632,0.00309
2826.55614,0.00318
2824.49597,0.00311
2822.43580,0.00302
2820.37563,0.00309
2818.31546,0.00320
2816.25528,0.00313
2814.19511,0.00297
2812.13494,0.00286
2810.07477,0.00287
2808.01460,0.00298
2805.95442,0.00305
2803.89425,0.00293
2801.83408,0.00273
2799.77391,0.00271
2797.71373,0.00282
2795.65356,0.00288
2793.59339,0.00288
2791.53322,0.00297
2789.47305,0.00315
2787.41287,0.00322
2785.35270,0.00317
2783.29253,0.00321
2781.23236,0.00331
2779.17219,0.00329
2777.11201,0.00324
2775.05184,0.00318
2772.99167,0.00300
2770.93150,0.00290
2768.87133,0.00302
2766.81115,0.00306
2764.75098,0.00292
2762.69081,0.00282
2760.63064,0.00267
2758.57046,0.00247
2756.51029,0.00250
2754.45012,0.00276
2752.38995,0.00303
2750.32978,0.00318
2748.26960,0.00318
2746.20943,0.00317
2744.14926,0.00331
2742.08909,0.00337
2740.02892,0.00322
2737.96874,0.00316
2735.90857,0.00315
2733.84840,0.00307
2731.78823,0.00309
2729.72805,0.00328
2727.66788,0.00342
2725.60771,0.00336
2723.54754,0.00324
2721.48737,0.00313
2719.42719,0.00308
2717.36702,0.00308
2715.30685,0.00304
2713.24668,0.00309
2711.18651,0.00324
2709.12633,0.00331
2707.06616,0.00318
2705.00599,0.00294
2702.94582,0.00287
2700.88565,0.00310
2698.82547,0.00331
2696.76530,0.00329
2694.70513,0.00311
2692.64496,0.00286
2690.58478,0.00273
2688.52461,0.00278
2686.46444,0.00283
2684.40427,0.00282
2682.34410,0.00293
2680.28392,0.00305
2678.22375,0.00306
2676.16358,0.00308
2674.10341,0.00311
2672.04324,0.00303
2669.98306,0.00291
2667.92289,0.00287
2665.86272,0.00293
2663.80255,0.00304
2661.74238,0.00322
2659.68220,0.00338
2657.62203,0.00346
2655.56186,0.00346
2653.50169,0.00340
2651.44151,0.00330
2649.38134,0.00323
2647.32117,0.00319
2645.26100,0.00320
2643.20083,0.00322
2641.14065,0.00315
2639.08048,0.00318
2637.02031,0.00324
2634.96014,0.00316
2632.89997,0.00319
2630.83979,0.00334
2628.77962,0.00328
2626.71945,0.00315
2624.65928,0.00325
2622.59910,0.00335
2620.53893,0.00332
2618.47876,0.00324
2616.41859,0.00316
2614.35842,0.00329
2612.29824,0.00340
2610.23807,0.00334
2608.17790,0.00332
2606.11773,0.00323
2604.05756,0.00310
2601.99738,0.00326
2599.93721,0.00352
2597.87704,0.00359
2595.81687,0.00335
2593.75670,0.00292
2591.69652,0.00264
2589.63635,0.00261
2587.57618,0.00262
2585.51601,0.00268
2583.45583,0.00298
2581.39566,0.00341
2579.33549,0.00352
2577.27532,0.00339
2575.21515,0.00338
2573.15497,0.00344
2571.09480,0.00341
2569.03463,0.00328
2566.97446,0.00315
2564.91429,0.00310
2562.85411,0.00305
2560.79394,0.00287
2558.73377,0.00267
2556.67360,0.00263
2554.61342,0.00274
2552.55325,0.00290
2550.49308,0.00303
2548.43291,0.00309
2546.37274,0.00313
2544.31256,0.00311
2542.25239,0.00299
2540.19222,0.00283
2538.13205,0.00265
2536.07188,0.00256
2534.01170,0.00265
2531.95153,0.00283
2529.89136,0.00290
2527.83119,0.00282
2525.77102,0.00280
2523.71084,0.00288
2521.65067,0.00306
2519.59050,0.00320
2517.53033,0.00310
2515.47015,0.00298
2513.40998,0.00308
2511.34981,0.00331
2509.28964,0.00338
2507.22947,0.00319
2505.16929,0.00296
2503.10912,0.00296
2501.04895,0.00313
2498.98878,0.00319
2496.92861,0.00330
2494.86843,0.00354
2492.80826,0.00367
2490.74809,0.00370
2488.68792,0.00371
2486.62775,0.00367
2484.56757,0.00360
2482.50740,0.00343
2480.44723,0.00317
2478.38706,0.00309
2476.32688,0.00318
2474.26671,0.00334
2472.20654,0.00345
2470.14637,0.00333
2468.08620,0.00308
2466.02602,0.00298
2463.96585,0.00309
2461.90568,0.00326
2459.84551,0.00337
2457.78534,0.00341
2455.72516,0.00333
2453.66499,0.00310
2451.60482,0.00291
2449.54465,0.00285
2447.48447,0.00296
2445.42430,0.00326
2443.36413,0.00342
2441.30396,0.00333
2439.24379,0.00311
2437.18361,0.00300
2435.12344,0.00313
2433.06327,0.00336
2431.00310,0.00340
2428.94293,0.00310
2426.88275,0.00287
2424.82258,0.00303
2422.76241,0.00313
2420.70224,0.00303
2418.64207,0.00298
2416.58189,0.00306
2414.52172,0.00317
2412.46155,0.00308
2410.40138,0.00293
2408.34120,0.00290
2406.28103,0.00285
2404.22086,0.00281
2402.16069,0.00288
2400.10052,0.00311
2398.04034,0.00319
2395.98017,0.00300
2393.92000,0.00266
2391.85983,0.00263
2389.79966,0.00297
2387.73948,0.00341
2385.67931,0.00374
2383.61914,0.00376
2381.55897,0.00367
2379.49880,0.00389
2377.43862,0.00434
2375.37845,0.00437
2373.31828,0.00408
2371.25811,0.00387
2369.19793,0.00413
2367.13776,0.00506
2365.07759,0.00573
2363.01742,0.00552
2360.95725,0.00672
2358.89707,0.00721
2356.83690,0.00673
2354.77673,0.00575
2352.71656,0.00506
2350.65639,0.00611
2348.59621,0.00660
2346.53604,0.00394
2344.47587,0.00419
2342.41570,0.00560
2340.35552,0.00591
2338.29535,0.00587
2336.23518,0.00578
2334.17501,0.00529
2332.11484,0.00454
2330.05466,0.00471
2327.99449,0.00495
2325.93432,0.00516
2323.87415,0.00471
2321.81398,0.00461
2319.75380,0.00450
2317.69363,0.00509
2315.63346,0.00537
2313.57329,0.00488
2311.51312,0.00419
2309.45294,0.00395
2307.39277,0.00419
2305.33260,0.00425
2303.27243,0.00402
2301.21225,0.00380
2299.15208,0.00392
2297.09191,0.00415
2295.03174,0.00440
2292.97157,0.00458
2290.91139,0.00447
2288.85122,0.00413
2286.79105,0.00383
2284.73088,0.00363
2282.67071,0.00346
2280.61053,0.00327
2278.55036,0.00305
2276.49019,0.00296
2274.43002,0.00313
2272.36984,0.00326
2270.30967,0.00322
2268.24950,0.00309
2266.18933,0.00286
2264.12916,0.00275
2262.06898,0.00290
2260.00881,0.00281
2257.94864,0.00238
2255.88847,0.00222
2253.82830,0.00267
2251.76812,0.00306
2249.70795,0.00307
2247.64778,0.00337
2245.58761,0.00412
2243.52744,0.00493
2241.46726,0.00499
2239.40709,0.00419
2237.34692,0.00338
2235.28675,0.00292
2233.22657,0.00284
2231.16640,0.00312
2229.10623,0.00365
2227.04606,0.00392
2224.98589,0.00363
2222.92571,0.00345
2220.86554,0.00351
2218.80537,0.00343
2216.74520,0.00330
2214.68503,0.00314
2212.62485,0.00275
2210.56468,0.00241
2208.50451,0.00272
2206.44434,0.00346
2204.38417,0.00381
2202.32399,0.00376
2200.26382,0.00334
2198.20365,0.00285
2196.14348,0.00287
2194.08330,0.00309
2192.02313,0.00324
2189.96296,0.00340
2187.90279,0.00344
2185.84262,0.00344
2183.78244,0.00361
2181.72227,0.00376
2179.66210,0.00342
2177.60193,0.00329
2175.54176,0.00397
2173.48158,0.00484
2171.42141,0.00482
2169.36124,0.00336
2167.30107,0.00186
2165.24089,0.00152
2163.18072,0.00101
2161.12055,0.00000
2159.06038,0.00047
2157.00021,0.00138
2154.94003,0.00090
2152.87986,0.00099
2150.81969,0.00259
2148.75952,0.00378
2146.69935,0.00371
2144.63917,0.00311
2142.57900,0.00255
2140.51883,0.00233
2138.45866,0.00269
2136.39849,0.00331
2134.33831,0.00328
2132.27814,0.00273
2130.21797,0.00242
2128.15780,0.00255
2126.09762,0.00303
2124.03745,0.00351
2121.97728,0.00386
2119.91711,0.00388
2117.85694,0.00359
2115.79676,0.00363
2113.73659,0.00389
2111.67642,0.00397
2109.61625,0.00367
2107.55608,0.00290
2105.49590,0.00260
2103.43573,0.00295
2101.37556,0.00334
2099.31539,0.00380
2097.25521,0.00392
2095.19504,0.00360
2093.13487,0.00328
2091.07470,0.00290
2089.01453,0.00265
2086.95435,0.00274
2084.89418,0.00287
2082.83401,0.00309
2080.77384,0.00370
2078.71367,0.00426
2076.65349,0.00435
2074.59332,0.00420
2072.53315,0.00425
2070.47298,0.00458
2068.41281,0.00468
2066.35263,0.00420
2064.29246,0.00362
2062.23229,0.00296
2060.17212,0.00237
2058.11194,0.00299
2056.05177,0.00407
2053.99160,0.00403
2051.93143,0.00323
2049.87126,0.00255
2047.81108,0.00276
2045.75091,0.00361
2043.69074,0.00382
2041.63057,0.00342
2039.57040,0.00271
2037.51022,0.00203
2035.45005,0.00229
2033.38988,0.00259
2031.32971,0.00167
2029.26954,0.00088
2027.20936,0.00173
2025.14919,0.00306
2023.08902,0.00324
2021.02885,0.00295
2018.96867,0.00324
2016.90850,0.00398
2014.84833,0.00425
2012.78816,0.00337
2010.72799,0.00212
2008.66781,0.00157
2006.60764,0.00159
2004.54747,0.00140
2002.48730,0.00133
2000.42713,0.00220
1998.36695,0.00358
1996.30678,0.00423
1994.24661,0.00357
1992.18644,0.00277
1990.12626,0.00290
1988.06609,0.00305
1986.00592,0.00345
1983.94575,0.00445
1981.88558,0.00475
1979.82540,0.00360
1977.76523,0.00218
1975.70506,0.00193
1973.64489,0.00251
1971.58472,0.00300
1969.52454,0.00300
1967.46437,0.00254
1965.40420,0.00252
1963.34403,0.00266
1961.28386,0.00245
1959.22368,0.00250
1957.16351,0.00255
1955.10334,0.00213
1953.04317,0.00184
1950.98299,0.00208
1948.92282,0.00240
1946.86265,0.00242
1944.80248,0.00225
1942.74231,0.00244
1940.68213,0.00288
1938.62196,0.00217
1936.56179,0.00103
1934.50162,0.00102
1932.44145,0.00182
1930.38127,0.00231
1928.32110,0.00216
1926.26093,0.00218
1924.20076,0.00251
1922.14059,0.00282
1920.08041,0.00265
1918.02024,0.00230
1915.96007,0.00277
1913.89990,0.00316
1911.83972,0.00310
1909.77955,0.00292
1907.71938,0.00272
1905.65921,0.00243
1903.59904,0.00218
1901.53886,0.00217
1899.47869,0.00233
1897.41852,0.00232
1895.35835,0.00220
1893.29818,0.00255
1891.23800,0.00289
1889.17783,0.00310
1887.11766,0.00343
1885.05749,0.00326
1882.99731,0.00277
1880.93714,0.00248
1878.87697,0.00242
1876.81680,0.00240
1874.75663,0.00249
1872.69645,0.00282
1870.63628,0.00281
1868.57611,0.00267
1866.51594,0.00310
1864.45577,0.00328
1862.39559,0.00291
1860.33542,0.00252
1858.27525,0.00230
1856.21508,0.00224
1854.15491,0.00236
1852.09473,0.00265
1850.03456,0.00304
1847.97439,0.00330
1845.91422,0.00279
1843.85404,0.00207
1841.79387,0.00244
1839.73370,0.00268
1837.67353,0.00248
1835.61336,0.00254
1833.55318,0.00256
1831.49301,0.00191
1829.43284,0.00179
1827.37267,0.00255
1825.31250,0.00267
1823.25232,0.00267
1821.19215,0.00268
1819.13198,0.00231
1817.07181,0.00209
1815.01163,0.00223
1812.95146,0.00209
1810.89129,0.00177
1808.83112,0.00198
1806.77095,0.00239
1804.71077,0.00250
1802.65060,0.00227
1800.59043,0.00222
1798.53026,0.00279
1796.47009,0.00328
1794.40991,0.00287
1792.34974,0.00219
1790.28957,0.00268
1788.22940,0.00309
1786.16923,0.00256
1784.10905,0.00227
1782.04888,0.00220
1779.98871,0.00218
1777.92854,0.00266
1775.86836,0.00283
1773.80819,0.00213
1771.74802,0.00189
1769.68785,0.00260
1767.62768,0.00290
1765.56750,0.00307
1763.50733,0.00253
1761.44716,0.00196
1759.38699,0.00217
1757.32682,0.00219
1755.26664,0.00268
1753.20647,0.00281
1751.14630,0.00208
1749.08613,0.00209
1747.02596,0.00277
1744.96578,0.00309
1742.90561,0.00283
1740.84544,0.00247
1738.78527,0.00322
1736.72509,0.00370
1734.66492,0.00223
1732.60475,0.00224
1730.54458,0.00313
1728.48441,0.00314
1726.42423,0.00295
1724.36406,0.00281
1722.30389,0.00325
1720.24372,0.00301
1718.18355,0.00164
1716.12337,0.00176
1714.06320,0.00295
1712.00303,0.00357
1709.94286,0.00346
1707.88268,0.00286
1705.82251,0.00263
1703.76234,0.00340
1701.70217,0.00286
1699.64200,0.00227
1697.58182,0.00260
1695.52165,0.00227
1693.46148,0.00308
1691.40131,0.00333
1689.34114,0.00324
1687.28096,0.00304
1685.22079,0.00118
1683.16062,0.00110
1681.10045,0.00300
1679.04028,0.00354
1676.98010,0.00272
1674.91993,0.00244
1672.85976,0.00322
1670.79959,0.00249
1668.73941,0.00212
1666.67924,0.00327
1664.61907,0.00297
1662.55890,0.00200
1660.49873,0.00268
1658.43855,0.00368
1656.37838,0.00310
1654.31821,0.00086
1652.25804,0.00195
1650.19787,0.00490
1648.13769,0.00371
1646.07752,0.00228
1644.01735,0.00333
1641.95718,0.00394
1639.89701,0.00374
1637.83683,0.00257
1635.77666,0.00137
1633.71649,0.00275
1631.65632,0.00388
1629.59614,0.00332
1627.53597,0.00307
1625.47580,0.00303
1623.41563,0.00264
1621.35546,0.00337
1619.29528,0.00333
1617.23511,0.00189
1615.17494,0.00233
1613.11477,0.00333
1611.05460,0.00292
1608.99442,0.00232
1606.93425,0.00236
1604.87408,0.00255
1602.81391,0.00253
1600.75373,0.00258
1598.69356,0.00267
1596.63339,0.00252
1594.57322,0.00232
1592.51305,0.00232
1590.45287,0.00235
1588.39270,0.00239
1586.33253,0.00242
1584.27236,0.00246
1582.21219,0.00276
1580.15201,0.00312
1578.09184,0.00226
1576.03167,0.00150
1573.97150,0.00296
1571.91133,0.00306
1569.85115,0.00160
1567.79098,0.00203
1565.73081,0.00307
1563.67064,0.00387
1561.61046,0.00291
1559.55029,0.00000
1557.49012,0.00141
1555.42995,0.00352
1553.36978,0.00340
1551.30960,0.00266
1549.24943,0.00249
1547.18926,0.00306
1545.12909,0.00313
1543.06892,0.00250
1541.00874,0.00093
1538.94857,0.00146
1536.88840,0.00363
1534.82823,0.00292
1532.76805,0.00191
1530.70788,0.00282
1528.64771,0.00291
1526.58754,0.00266
1524.52737,0.00286
1522.46719,0.00226
1520.40702,0.00253
1518.34685,0.00315
1516.28668,0.00289
1514.22651,0.00336
1512.16633,0.00395
1510.10616,0.00352
1508.04599,0.00117
1505.98582,0.00058
1503.92565,0.00285
1501.86547,0.00341
1499.80530,0.00215
1497.74513,0.00111
1495.68496,0.00184
1493.62478,0.00306
1491.56461,0.00240
1489.50444,0.00140
1487.44427,0.00190
1485.38410,0.00253
1483.32392,0.00232
1481.26375,0.00197
1479.20358,0.00223
1477.14341,0.00236
1475.08324,0.00182
1473.02306,0.00106
1470.96289,0.00186
1468.90272,0.00291
1466.84255,0.00216
1464.78238,0.00146
1462.72220,0.00266
1460.66203,0.00328
1458.60186,0.00177
1456.54169,0.00113
1454.48151,0.00264
1452.42134,0.00311
1450.36117,0.00242
1448.30100,0.00170
1446.24083,0.00172
1444.18065,0.00198
1442.12048,0.00217
1440.06031,0.00233
1438.00014,0.00161
1435.93997,0.00144
1433.87979,0.00242
1431.81962,0.00230
1429.75945,0.00185
1427.69928,0.00221
1425.63910,0.00235
1423.57893,0.00252
1421.51876,0.00250
1419.45859,0.00161
1417.39842,0.00182
1415.33824,0.00250
1413.27807,0.00231
1411.21790,0.00201
1409.15773,0.00222
1407.09756,0.00227
1405.03738,0.00211
1402.97721,0.00247
1400.91704,0.00258
1398.85687,0.00243
1396.79670,0.00244
1394.73652,0.00220
1392.67635,0.00245
1390.61618,0.00255
1388.55601,0.00186
1386.49583,0.00164
1384.43566,0.00207
1382.37549,0.00211
1380.31532,0.00195
1378.25515,0.00201
1376.19497,0.00198
1374.13480,0.00191
1372.07463,0.00229
1370.01446,0.00238
1367.95429,0.00230
1365.89411,0.00233
1363.83394,0.00192
1361.77377,0.00181
1359.71360,0.00219
1357.65343,0.00214
1355.59325,0.00179
1353.53308,0.00167
1351.47291,0.00174
1349.41274,0.00173
1347.35256,0.00169
1345.29239,0.00176
1343.23222,0.00187
1341.17205,0.00169
1339.11188,0.00159
1337.05170,0.00191
1334.99153,0.00200
1332.93136,0.00174
1330.87119,0.00160
1328.81102,0.00167
1326.75084,0.00168
1324.69067,0.00165
1322.63050,0.00170
1320.57033,0.00161
1318.51015,0.00149
1316.44998,0.00155
1314.38981,0.00155
1312.32964,0.00157
1310.26947,0.00163
1308.20929,0.00155
1306.14912,0.00148
1304.08895,0.00144
1302.02878,0.00135
1299.96861,0.00135
1297.90843,0.00143
1295.84826,0.00142
1293.78809,0.00134
1291.72792,0.00135
1289.66775,0.00138
1287.60757,0.00134
1285.54740,0.00133
1283.48723,0.00133
1281.42706,0.00129
1279.36688,0.00126
1277.30671,0.00126
1275.24654,0.00127
1273.18637,0.00128
1271.12620,0.00135
1269.06602,0.00146
1267.00585,0.00148
1264.94568,0.00150
1262.88551,0.00155
1260.82534,0.00159
1258.76516,0.00167
1256.70499,0.00172
1254.64482,0.00166
1252.58465,0.00163
1250.52447,0.00173
1248.46430,0.00179
1246.40413,0.00163
1244.34396,0.00144
1242.28379,0.00137
1240.22361,0.00140
1238.16344,0.00150
1236.10327,0.00156
1234.04310,0.00149
1231.98293,0.00137
1229.92275,0.00130
1227.86258,0.00130
1225.80241,0.00129
1223.74224,0.00124
1221.68207,0.00115
1219.62189,0.00104
1217.56172,0.00108
1215.50155,0.00114
1213.44138,0.00100
1211.38120,0.00074
1209.32103,0.00067
1207.26086,0.00078
1205.20069,0.00084
1203.14052,0.00075
1201.08034,0.00057
1199.02017,0.00030
1196.96000,0.00007
1194.89983,0.00000
1192.83966,-0.00001
1190.77948,0.00000
1188.71931,0.00005
1186.65914,0.00012
1184.59897,0.00014
1182.53880,0.00006
1180.47862,0.00002
1178.41845,0.00023
1176.35828,0.00050
1174.29811,0.00060
1172.23793,0.00053
1170.17776,0.00046
1168.11759,0.00052
1166.05742,0.00068
1163.99725,0.00079
1161.93707,0.00076
1159.87690,0.00076
1157.81673,0.00084
1155.75656,0.00089
1153.69639,0.00101
1151.63621,0.00121
1149.57604,0.00144
1147.51587,0.00160
1145.45570,0.00154
1143.39552,0.00140
1141.33535,0.00140
1139.27518,0.00152
1137.21501,0.00157
1135.15484,0.00150
1133.09466,0.00150
1131.03449,0.00155
1128.97432,0.00160
1126.91415,0.00163
1124.85398,0.00174
1122.79380,0.00199
1120.73363,0.00215
1118.67346,0.00203
1116.61329,0.00191
1114.55312,0.00195
1112.49294,0.00212
1110.43277,0.00227
1108.37260,0.00237
1106.31243,0.00255
1104.25225,0.00267
1102.19208,0.00271
1100.13191,0.00285
1098.07174,0.00302
1096.01157,0.00314
1093.95139,0.00323
1091.89122,0.00337
1089.83105,0.00351
1087.77088,0.00349
1085.71071,0.00351
1083.65053,0.00377
1081.59036,0.00407
1079.53019,0.00424
1077.47002,0.00437
1075.40985,0.00449
1073.34967,0.00461
1071.28950,0.00479
1069.22933,0.00499
1067.16916,0.00510
1065.10898,0.00509
1063.04881,0.00505
1060.98864,0.00505
1058.92847,0.00503
1056.86830,0.00508
1054.80812,0.00524
1052.74795,0.00544
1050.68778,0.00556
1048.62761,0.00560
1046.56744,0.00572
1044.50726,0.00598
1042.44709,0.00629
1040.38692,0.00656
1038.32675,0.00669
1036.26657,0.00661
1034.20640,0.00640
1032.14623,0.00627
1030.08606,0.00616
1028.02589,0.00595
1025.96571,0.00588
1023.90554,0.00603
1021.84537,0.00610
1019.78520,0.00609
1017.72503,0.00624
1015.66485,0.00638
1013.60468,0.00639
1011.54451,0.00632
1009.48434,0.00623
1007.42417,0.00620
1005.36399,0.00599
1003.30382,0.00562
1001.24365,0.00544
999.18348,0.00562
997.12330,0.00589
995.06313,0.00582
993.00296,0.00554
990.94279,0.00544
988.88262,0.00551
986.82244,0.00554
984.76227,0.00549
982.70210,0.00535
980.64193,0.00507
978.58176,0.00485
976.52158,0.00488
974.46141,0.00511
972.40124,0.00511
970.34107,0.00478
968.28089,0.00453
966.22072,0.00452
964.16055,0.00457
962.10038,0.00447
960.04021,0.00425
957.98003,0.00398
955.91986,0.00378
953.85969,0.00373
951.79952,0.00382
949.73935,0.00385
947.67917,0.00383
945.61900,0.00376
943.55883,0.00345
941.49866,0.00297
939.43849,0.00264
937.37831,0.00250
935.31814,0.00225
933.25797,0.00196
931.19780,0.00185
929.13762,0.00195
927.07745,0.00197
925.01728,0.00166
922.95711,0.00141
920.89694,0.00151
918.83676,0.00157
916.77659,0.00124
914.71642,0.00096
912.65625,0.00116
910.59608,0.00156
908.53590,0.00167
906.47573,0.00126
904.41556,0.00067
902.35539,0.00042
900.29522,0.00060
898.23504,0.00090
896.17487,0.00105
894.11470,0.00111
892.05453,0.00103
889.99435,0.00085
887.93418,0.00081
885.87401,0.00083
883.81384,0.00075
881.75367,0.00059
879.69349,0.00047
877.63332,0.00043
875.57315,0.00047
873.51298,0.00054
871.45281,0.00060
869.39263,0.00074
867.33246,0.00077
865.27229,0.00051
863.21212,0.00024
861.15194,0.00042
859.09177,0.00102
857.03160,0.00132
854.97143,0.00104
852.91126,0.00089
850.85108,0.00095
848.79091,0.00082
846.73074,0.00064
844.67057,0.00049
842.61040,0.00032
840.55022,0.00025
838.49005,0.00043
836.42988,0.00072
834.36971,0.00084
832.30954,0.00072
830.24936,0.00058
828.18919,0.00050
826.12902,0.00026
824.06885,0.00000
822.00867,0.00001
819.94850,0.00017
817.88833,0.00027
815.82816,0.00024
813.76799,0.00019
811.70781,0.00010
809.64764,-0.00001
807.58747,-0.00004
805.52730,0.00005
803.46713,0.00024
801.40695,0.00048
799.34678,0.00065
797.28661,0.00072
795.22644,0.00079
793.16627,0.00076
791.10609,0.00056
789.04592,0.00058
786.98575,0.00083
784.92558,0.00063
782.86540,0.00003
780.80523,-0.00010
778.74506,0.00017
776.68489,0.00040
774.62472,0.00052
772.56454,0.00059
770.50437,0.00052
768.44420,0.00045
766.38403,0.00072
764.32386,0.00098
762.26368,0.00087
760.20351,0.00076
758.14334,0.00058
756.08317,0.00043
754.02299,0.00065
751.96282,0.00066
749.90265,0.00037
747.84248,0.00031
745.78231,0.00030
743.72213,0.00025
741.66196,0.00019
739.60179,0.00000
737.54162,0.00014
735.48145,0.00067
733.42127,0.00095
731.36110,0.00108
729.30093,0.00128
727.24076,0.00113
725.18059,0.00046
723.12041,0.00031
721.06024,0.00045
719.00007,0.00101
716.93990,0.00111
714.87972,0.00117
712.81955,0.00140
710.75938,0.00114
708.69921,0.00064
706.63904,0.00064
704.57886,0.00125
702.51869,0.00198
700.45852,0.00221
698.39835,0.00198
696.33818,0.00199
694.27800,0.00251
692.21783,0.00303
690.15766,0.00311
688.09749,0.00274
686.03731,0.00231
683.97714,0.00253
681.91697,0.00325
679.85680,0.00354
677.79663,0.00301
675.73645,0.00226
673.67628,0.00285
671.61611,0.00526
669.55594,0.00398
667.49577,0.00000
665.43559,0.00386
663.37542,0.00281
661.31525,0.00176
659.25508,0.00188
657.19491,0.00220
655.13473,0.00215
653.07456,0.00195
651.01439,0.00240
648.95422,0.00289
646.89404,0.00237
644.83387,0.00092
642.77370,0.00034
640.71353,0.00075
638.65336,0.00087
636.59318,0.00048
634.53301,0.00047
632.47284,0.00136
630.41267,0.00248
628.35250,0.00265
626.29232,0.00172
624.23215,0.00082
622.17198,0.00004
620.11181,-0.00059
618.05164,-0.00103
615.99146,-0.00156
613.93129,-0.00171
611.87112,-0.00146
609.81095,-0.00100
607.75077,-0.00035
605.69060,-0.00034
603.63043,-0.00100
601.57026,-0.00112
599.51009,0.00000
