3996.73391,0.00044
3994.67373,0.00051
3992.61356,0.00066
3990.55339,0.00064
3988.49322,0.00045
3986.43305,0.00017
3984.37287,0.00000
3982.31270,0.00019
3980.25253,0.00066
3978.19236,0.00089
3976.13219,0.00079
3974.07201,0.00074
3972.01184,0.00073
3969.95167,0.00072
3967.89150,0.00086
3965.83133,0.00115
3963.77115,0.00129
3961.71098,0.00119
3959.65081,0.00095
3957.59064,0.00069
3955.53046,0.00073
3953.47029,0.00099
3951.41012,0.00087
3949.34995,0.00042
3947.28978,0.00050
3945.22960,0.00073
3943.16943,0.00054
3941.10926,0.00056
3939.04909,0.00068
3936.98892,0.00082
3934.92874,0.00092
3932.86857,0.00080
3930.80840,0.00094
3928.74823,0.00114
3926.68805,0.00062
3924.62788,0.00009
3922.56771,0.00048
3920.50754,0.00090
3918.44737,0.00091
3916.38719,0.00099
3914.32702,0.00113
3912.26685,0.00099
3910.20668,0.00087
3908.14651,0.00082
3906.08633,0.00035
3904.02616,0.00008
3901.96599,0.00049
3899.90582,0.00079
3897.84565,0.00144
3895.78547,0.00191
3893.72530,0.00107
3891.66513,0.00022
3889.60496,0.00088
3887.54478,0.00085
3885.48461,0.00042
3883.42444,0.00113
3881.36427,0.00104
3879.30410,0.00118
3877.24392,0.00158
3875.18375,0.00093
3873.12358,0.00073
3871.06341,0.00062
3869.00324,0.00112
3866.94306,0.00171
3864.88289,0.00080
3862.82272,0.00064
3860.76255,0.00173
3858.70237,0.00271
3856.64220,0.00219
3854.58203,0.00011
3852.52186,0.00000
3850.46169,0.00180
3848.40151,0.00233
3846.34134,0.00183
3844.28117,0.00140
3842.22100,0.00147
3840.16083,0.00117
3838.10065,0.00078
3836.04048,0.00125
3833.98031,0.00141
3831.92014,0.00123
3829.85997,0.00170
3827.79979,0.00210
3825.73962,0.00245
3823.67945,0.00186
3821.61928,0.00024
3819.55910,0.00061
3817.49893,0.00065
3815.43876,0.00038
3813.37859,0.00165
3811.31842,0.00230
3809.25824,0.00150
3807.19807,0.00089
3805.13790,0.00187
3803.07773,0.00175
3801.01756,0.00123
3798.95738,0.00171
3796.89721,0.00128
3794.83704,0.00120
3792.77687,0.00149
3790.71670,0.00144
3788.65652,0.00125
3786.59635,0.00079
3784.53618,0.00068
3782.47601,0.00101
3780.41583,0.00084
3778.35566,0.00103
3776.29549,0.00157
3774.23532,0.00157
3772.17515,0.00121
3770.11497,0.00122
3768.05480,0.00189
3765.99463,0.00193
3763.93446,0.00182
3761.87429,0.00144
3759.81411,0.00090
3757.75394,0.00169
3755.69377,0.00276
3753.63360,0.00217
3751.57342,0.00100
3749.51325,0.00197
3747.45308,0.00288
3745.39291,0.00123
3743.33274,0.00115
3741.27256,0.00277
3739.21239,0.00271
3737.15222,0.00116
3735.09205,0.00024
3733.03188,0.00105
3730.97170,0.00223
3728.91153,0.00228
3726.85136,0.00126
3724.79119,0.00081
3722.73102,0.00084
3720.67084,0.00093
3718.61067,0.00130
3716.55050,0.00185
3714.49033,0.00174
3712.43015,0.00109
3710.36998,0.00137
3708.30981,0.00221
3706.24964,0.00215
3704.18947,0.00104
3702.12929,0.00014
3700.06912,0.00074
3698.00895,0.00160
3695.94878,0.00199
3693.88861,0.00210
3691.82843,0.00112
3689.76826,0.00000
3687.70809,0.00074
3685.64792,0.00209
3683.58775,0.00217
3681.52757,0.00180
3679.46740,0.00166
3677.40723,0.00105
3675.34706,0.00091
3673.28688,0.00239
3671.22671,0.00155
3669.16654,0.00031
3667.10637,0.00104
3665.04620,0.00133
3662.98602,0.00114
3660.92585,0.00128
3658.86568,0.00103
3656.80551,0.00068
3654.74534,0.00209
3652.68516,0.00281
3650.62499,0.00098
3648.56482,0.00016
3646.50465,0.00163
3644.44447,0.00263
3642.38430,0.00231
3640.32413,0.00198
3638.26396,0.00198
3636.20379,0.00209
3634.14361,0.00236
3632.08344,0.00217
3630.02327,0.00055
3627.96310,0.00043
3625.90293,0.00252
3623.84275,0.00345
3621.78258,0.00264
3619.72241,0.00150
3617.66224,0.00191
3615.60207,0.00281
3613.54189,0.00284
3611.48172,0.00291
3609.42155,0.00279
3607.36138,0.00294
3605.30120,0.00376
3603.24103,0.00393
3601.18086,0.00353
3599.12069,0.00354
3597.06052,0.00371
3595.00034,0.00380
3592.94017,0.00444
3590.88000,0.00463
3588.81983,0.00356
3586.75966,0.00319
3584.69948,0.00424
3582.63931,0.00471
3580.57914,0.00444
3578.51897,0.00426
3576.45879,0.00429
3574.39862,0.00458
3572.33845,0.00521
3570.27828,0.00546
3568.21811,0.00489
3566.15793,0.00491
3564.09776,0.00582
3562.03759,0.00600
3559.97742,0.00561
3557.91725,0.00562
3555.85707,0.00590
3553.79690,0.00592
3551.73673,0.00612
3549.67656,0.00656
3547.61639,0.00658
3545.55621,0.00663
3543.49604,0.00713
3541.43587,0.00743
3539.37570,0.00742
3537.31552,0.00745
3535.25535,0.00774
3533.19518,0.00800
3531.13501,0.00799
3529.07484,0.00799
3527.01466,0.00814
3524.95449,0.00814
3522.89432,0.00807
3520.83415,0.00836
3518.77398,0.00885
3516.71380,0.00928
3514.65363,0.00947
3512.59346,0.00936
3510.53329,0.00930
3508.47312,0.00968
3506.41294,0.01002
3504.35277,0.00972
3502.29260,0.00957
3500.23243,0.00987
3498.17225,0.01009
3496.11208,0.01023
3494.05191,0.01030
3491.99174,0.01011
3489.93157,0.00999
3487.87139,0.01035
3485.81122,0.01090
3483.75105,0.01105
3481.69088,0.01097
3479.63071,0.01106
3477.57053,0.01118
3475.51036,0.01140
3473.45019,0.01184
3471.39002,0.01217
3469.32984,0.01224
3467.26967,0.01222
3465.20950,0.01221
3463.14933,0.01211
3461.08916,0.01214
3459.02898,0.01235
3456.96881,0.01268
3454.90864,0.01319
3452.84847,0.01356
3450.78830,0.01361
3448.72812,0.01339
3446.66795,0.01336
3444.60778,0.01366
3442.54761,0.01375
3440.48744,0.01380
3438.42726,0.01391
3436.36709,0.01408
3434.30692,0.01428
3432.24675,0.01431
3430.18657,0.01428
3428.12640,0.01426
3426.06623,0.01422
3424.00606,0.01427
3421.94589,0.01434
3419.88571,0.01457
3417.82554,0.01492
3415.76537,0.01509
3413.70520,0.01523
3411.64503,0.01530
3409.58485,0.01525
3407.52468,0.01515
3405.46451,0.01507
3403.40434,0.01518
3401.34416,0.01548
3399.28399,0.01563
3397.22382,0.01559
3395.16365,0.01570
3393.10348,0.01590
3391.04330,0.01623
3388.98313,0.01636
3386.92296,0.01614
3384.86279,0.01605
3382.80262,0.01631
3380.74244,0.01668
3378.68227,0.01693
3376.62210,0.01702
3374.56193,0.01700
3372.50176,0.01704
3370.44158,0.01714
3368.38141,0.01703
3366.32124,0.01679
3364.26107,0.01676
3362.20089,0.01703
3360.14072,0.01746
3358.08055,0.01766
3356.02038,0.01760
3353.96021,0.01753
3351.90003,0.01744
3349.83986,0.01742
3347.77969,0.01748
3345.71952,0.01754
3343.65935,0.01761
3341.59917,0.01766
3339.53900,0.01771
3337.47883,0.01782
3335.41866,0.01787
3333.35849,0.01783
3331.29831,0.01778
3329.23814,0.01776
3327.17797,0.01772
3325.11780,0.01776
3323.05762,0.01784
3320.99745,0.01776
3318.93728,0.01769
3316.87711,0.01784
3314.81694,0.01801
3312.75676,0.01809
3310.69659,0.01806
3308.63642,0.01801
3306.57625,0.01811
3304.51608,0.01820
3302.45590,0.01817
3300.39573,0.01806
3298.33556,0.01794
3296.27539,0.01786
3294.21521,0.01774
3292.15504,0.01765
3290.09487,0.01789
3288.03470,0.01821
3285.97453,0.01825
3283.91435,0.01821
3281.85418,0.01820
3279.79401,0.01827
3277.73384,0.01835
3275.67367,0.01822
3273.61349,0.01795
3271.55332,0.01789
3269.49315,0.01796
3267.43298,0.01804
3265.37281,0.01817
3263.31263,0.01819
3261.25246,0.01803
3259.19229,0.01801
3257.13212,0.01816
3255.07194,0.01810
3253.01177,0.01788
3250.95160,0.01777
3248.89143,0.01787
3246.83126,0.01813
3244.77108,0.01822
3242.71091,0.01809
3240.65074,0.01794
3238.59057,0.01790
3236.53040,0.01796
3234.47022,0.01813
3232.41005,0.01826
3230.34988,0.01829
3228.28971,0.01818
3226.22954,0.01786
3224.16936,0.01751
3222.10919,0.01725
3220.04902,0.01701
3217.98885,0.01690
3215.92867,0.01696
3213.86850,0.01713
3211.80833,0.01732
3209.74816,0.01733
3207.68799,0.01712
3205.62781,0.01673
3203.56764,0.01657
3201.50747,0.01679
3199.44730,0.01679
3197.38713,0.01650
3195.32695,0.01635
3193.26678,0.01634
3191.20661,0.01621
3189.14644,0.01592
3187.08626,0.01564
3185.02609,0.01553
3182.96592,0.01560
3180.90575,0.01567
3178.84558,0.01572
3176.78540,0.01579
3174.72523,0.01573
3172.66506,0.01545
3170.60489,0.01522
3168.54472,0.01527
3166.48454,0.01533
3164.42437,0.01503
3162.36420,0.01461
3160.30403,0.01444
3158.24386,0.01445
3156.18368,0.01444
3154.12351,0.01447
3152.06334,0.01456
3150.00317,0.01457
3147.94299,0.01442
3145.88282,0.01425
3143.82265,0.01410
3141.76248,0.01395
3139.70231,0.01380
3137.64213,0.01368
3135.58196,0.01357
3133.52179,0.01346
3131.46162,0.01344
3129.40145,0.01339
3127.34127,0.01335
3125.28110,0.01337
3123.22093,0.01327
3121.16076,0.01316
3119.10058,0.01309
3117.04041,0.01295
3114.98024,0.01275
3112.92007,0.01250
3110.85990,0.01237
3108.79972,0.01247
3106.73955,0.01252
3104.67938,0.01249
3102.61921,0.01254
3100.55904,0.01258
3098.49886,0.01243
3096.43869,0.01204
3094.37852,0.01181
3092.31835,0.01179
3090.25818,0.01180
3088.19800,0.01175
3086.13783,0.01153
3084.07766,0.01133
3082.01749,0.01140
3079.95731,0.01147
3077.89714,0.01139
3075.83697,0.01138
3073.77680,0.01143
3071.71663,0.01145
3069.65645,0.01143
3067.59628,0.01128
3065.53611,0.01103
3063.47594,0.01096
3061.41577,0.01100
3059.35559,0.01086
3057.29542,0.01067
3055.23525,0.01065
3053.17508,0.01070
3051.11491,0.01065
3049.05473,0.01044
3046.99456,0.01025
3044.93439,0.01015
3042.87422,0.01004
3040.81404,0.01000
3038.75387,0.01004
3036.69370,0.01002
3034.63353,0.00993
3032.57336,0.00984
3030.51318,0.00993
3028.45301,0.01002
3026.39284,0.00980
3024.33267,0.00944
3022.27250,0.00922
3020.21232,0.00926
3018.15215,0.00937
3016.09198,0.00941
3014.03181,0.00936
3011.97163,0.00917
3009.91146,0.00896
3007.85129,0.00889
3005.79112,0.00888
3003.73095,0.00890
3001.67077,0.00896
2999.61060,0.00900
2997.55043,0.00895
2995.49026,0.00886
2993.43009,0.00884
2991.36991,0.00896
2989.30974,0.00903
2987.24957,0.00886
2985.18940,0.00863
2983.12923,0.00870
2981.06905,0.00895
2979.00888,0.00910
2976.94871,0.00916
2974.88854,0.00922
2972.82836,0.00926
2970.76819,0.00924
2968.70802,0.00926
2966.64785,0.00932
2964.58768,0.00932
2962.52750,0.00943
2960.46733,0.00968
2958.40716,0.00987
2956.34699,0.00984
2954.28682,0.00967
2952.22664,0.00963
2950.16647,0.00998
2948.10630,0.01053
2946.04613,0.01085
2943.98596,0.01092
2941.92578,0.01096
2939.86561,0.01093
2937.80544,0.01092
2935.74527,0.01104
2933.68509,0.01117
2931.62492,0.01132
2929.56475,0.01138
2927.50458,0.01129
2925.44441,0.01123
2923.38423,0.01112
2921.32406,0.01092
2919.26389,0.01089
2917.20372,0.01101
2915.14355,0.01113
2913.08337,0.01123
2911.02320,0.01119
2908.96303,0.01101
2906.90286,0.01089
2904.84268,0.01081
2902.78251,0.01070
2900.72234,0.01068
2898.66217,0.01072
2896.60200,0.01070
2894.54182,0.01071
2892.48165,0.01076
2890.42148,0.01074
2888.36131,0.01063
2886.30114,0.01049
2884.24096,0.01047
2882.18079,0.01066
2880.12062,0.01075
2878.06045,0.01059
2876.00028,0.01037
2873.94010,0.01020
2871.87993,0.01008
2869.81976,0.00996
2867.75959,0.00985
2865.69941,0.00980
2863.63924,0.00979
2861.57907,0.00984
2859.51890,0.00996
2857.45873,0.01007
2855.39855,0.00998
2853.33838,0.00970
2851.27821,0.00949
2849.21804,0.00947
2847.15787,0.00954
2845.09769,0.00951
2843.03752,0.00937
2840.97735,0.00926
2838.91718,0.00901
2836.85700,0.00872
2834.79683,0.00866
2832.73666,0.00877
2830.67649,0.00889
2828.61632,0.00886
2826.55614,0.00876
2824.49597,0.00885
2822.43580,0.00897
2820.37563,0.00875
2818.31546,0.00842
2816.25528,0.00833
2814.19511,0.00834
2812.13494,0.00828
2810.07477,0.00825
2808.01460,0.00826
2805.95442,0.00822
2803.89425,0.00810
2801.83408,0.00800
2799.77391,0.00797
2797.71373,0.00799
2795.65356,0.00803
2793.59339,0.00808
2791.53322,0.00802
2789.47305,0.00791
2787.41287,0.00796
2785.35270,0.00800
2783.29253,0.00783
2781.23236,0.00768
2779.17219,0.00775
2777.11201,0.00783
2775.05184,0.00782
2772.99167,0.00779
2770.93150,0.00774
2768.87133,0.00765
2766.81115,0.00766
2764.75098,0.00783
2762.69081,0.00798
2760.63064,0.00796
2758.57046,0.00787
2756.51029,0.00778
2754.45012,0.00769
2752.38995,0.00766
2750.32978,0.00769
2748.26960,0.00769
2746.20943,0.00767
2744.14926,0.00770
2742.08909,0.00763
2740.02892,0.00752
2737.96874,0.00762
2735.90857,0.00770
2733.84840,0.00756
2731.78823,0.00750
2729.72805,0.00753
2727.66788,0.00736
2725.60771,0.00724
2723.54754,0.00737
2721.48737,0.00750
2719.42719,0.00743
2717.36702,0.00723
2715.30685,0.00715
2713.24668,0.00722
2711.18651,0.00725
2709.12633,0.00719
2707.06616,0.00719
2705.00599,0.00717
2702.94582,0.00713
2700.88565,0.00717
2698.82547,0.00722
2696.76530,0.00727
2694.70513,0.00727
2692.64496,0.00726
2690.58478,0.00726
2688.52461,0.00719
2686.46444,0.00712
2684.40427,0.00706
2682.34410,0.00698
2680.28392,0.00697
2678.22375,0.00710
2676.16358,0.00725
2674.10341,0.00728
2672.04324,0.00719
2669.98306,0.00707
2667.92289,0.00704
2665.86272,0.00704
2663.80255,0.00708
2661.74238,0.00711
2659.68220,0.00708
2657.62203,0.00705
2655.56186,0.00694
2653.50169,0.00681
2651.44151,0.00679
2649.38134,0.00686
2647.32117,0.00701
2645.26100,0.00718
2643.20083,0.00717
2641.14065,0.00690
2639.08048,0.00663
2637.02031,0.00665
2634.96014,0.00678
2632.89997,0.00677
2630.83979,0.00665
2628.77962,0.00652
2626.71945,0.00644
2624.65928,0.00631
2622.59910,0.00616
2620.53893,0.00604
2618.47876,0.00592
2616.41859,0.00596
2614.35842,0.00621
2612.29824,0.00642
2610.23807,0.00643
2608.17790,0.00635
2606.11773,0.00626
2604.05756,0.00622
2601.99738,0.00629
2599.93721,0.00629
2597.87704,0.00604
2595.81687,0.00563
2593.75670,0.00541
2591.69652,0.00570
2589.63635,0.00612
2587.57618,0.00605
2585.51601,0.00577
2583.45583,0.00576
2581.39566,0.00591
2579.33549,0.00615
2577.27532,0.00622
2575.21515,0.00581
2573.15497,0.00540
2571.09480,0.00535
2569.03463,0.00545
2566.97446,0.00555
2564.91429,0.00560
2562.85411,0.00544
2560.79394,0.00518
2558.73377,0.00503
2556.67360,0.00503
2554.61342,0.00512
2552.55325,0.00519
2550.49308,0.00524
2548.43291,0.00540
2546.37274,0.00556
2544.31256,0.00556
2542.25239,0.00551
2540.19222,0.00540
2538.13205,0.00507
2536.07188,0.00475
2534.01170,0.00471
2531.95153,0.00489
2529.89136,0.00507
2527.83119,0.00496
2525.77102,0.00473
2523.71084,0.00465
2521.65067,0.00470
2519.59050,0.00493
2517.53033,0.00517
2515.47015,0.00506
2513.40998,0.00476
2511.34981,0.00468
2509.28964,0.00472
2507.22947,0.00474
2505.16929,0.00483
2503.10912,0.00485
2501.04895,0.00477
2498.98878,0.00467
2496.92861,0.00460
2494.86843,0.00464
2492.80826,0.00489
2490.74809,0.00510
2488.68792,0.00510
2486.62775,0.00499
2484.56757,0.00479
2482.50740,0.00466
2480.44723,0.00473
2478.38706,0.00474
2476.32688,0.00451
2474.26671,0.00434
2472.20654,0.00434
2470.14637,0.00442
2468.08620,0.00465
2466.02602,0.00501
2463.96585,0.00532
2461.90568,0.00531
2459.84551,0.00497
2457.78534,0.00467
2455.72516,0.00463
2453.66499,0.00476
2451.60482,0.00495
2449.54465,0.00491
2447.48447,0.00463
2445.42430,0.00472
2443.36413,0.00521
2441.30396,0.00550
2439.24379,0.00539
2437.18361,0.00524
2435.12344,0.00512
2433.06327,0.00481
2431.00310,0.00460
2428.94293,0.00473
2426.88275,0.00478
2424.82258,0.00463
2422.76241,0.00455
2420.70224,0.00456
2418.64207,0.00466
2416.58189,0.00478
2414.52172,0.00484
2412.46155,0.00477
2410.40138,0.00459
2408.34120,0.00467
2406.28103,0.00498
2404.22086,0.00500
2402.16069,0.00473
2400.10052,0.00450
2398.04034,0.00429
2395.98017,0.00431
2393.92000,0.00441
2391.85983,0.00442
2389.79966,0.00441
2387.73948,0.00439
2385.67931,0.00417
2383.61914,0.00395
2381.55897,0.00396
2379.49880,0.00408
2377.43862,0.00423
2375.37845,0.00497
2373.31828,0.00553
2371.25811,0.00526
2369.19793,0.00528
2367.13776,0.00524
2365.07759,0.00494
2363.01742,0.00639
2360.95725,0.00633
2358.89707,0.00668
2356.83690,0.00727
2354.77673,0.00754
2352.71656,0.00671
2350.65639,0.00290
2348.59621,0.00131
2346.53604,0.00626
2344.47587,0.00657
2342.41570,0.00483
2340.35552,0.00422
2338.29535,0.00381
2336.23518,0.00420
2334.17501,0.00490
2332.11484,0.00582
2330.05466,0.00626
2327.99449,0.00669
2325.93432,0.00610
2323.87415,0.00600
2321.81398,0.00576
2319.75380,0.00605
2317.69363,0.00545
2315.63346,0.00523
2313.57329,0.00533
2311.51312,0.00511
2309.45294,0.00471
2307.39277,0.00434
2305.33260,0.00424
2303.27243,0.00437
2301.21225,0.00472
2299.15208,0.00469
2297.09191,0.00461
2295.03174,0.00498
2292.97157,0.00532
2290.91139,0.00526
2288.85122,0.00513
2286.79105,0.00525
2284.73088,0.00530
2282.67071,0.00508
2280.61053,0.00483
2278.55036,0.00455
2276.49019,0.00422
2274.43002,0.00413
2272.36984,0.00425
2270.30967,0.00415
2268.24950,0.00365
2266.18933,0.00304
2264.12916,0.00292
2262.06898,0.00323
2260.00881,0.00333
2257.94864,0.00336
2255.88847,0.00391
2253.82830,0.00434
2251.76812,0.00420
2249.70795,0.00397
2247.64778,0.00368
2245.58761,0.00320
2243.52744,0.00325
2241.46726,0.00363
2239.40709,0.00349
2237.34692,0.00271
2235.28675,0.00258
2233.22657,0.00329
2231.16640,0.00342
2229.10623,0.00328
2227.04606,0.00348
2224.98589,0.00344
2222.92571,0.00354
2220.86554,0.00371
2218.80537,0.00312
2216.74520,0.00274
2214.68503,0.00305
2212.62485,0.00309
2210.56468,0.00267
2208.50451,0.00247
2206.44434,0.00309
2204.38417,0.00387
2202.32399,0.00406
2200.26382,0.00422
2198.20365,0.00430
2196.14348,0.00413
2194.08330,0.00436
2192.02313,0.00440
2189.96296,0.00370
2187.90279,0.00284
2185.84262,0.00232
2183.78244,0.00244
2181.72227,0.00265
2179.66210,0.00282
2177.60193,0.00278
2175.54176,0.00223
2173.48158,0.00203
2171.42141,0.00274
2169.36124,0.00354
2167.30107,0.00369
2165.24089,0.00365
2163.18072,0.00387
2161.12055,0.00333
2159.06038,0.00190
2157.00021,0.00107
2154.94003,0.00075
2152.87986,0.00063
2150.81969,0.00051
2148.75952,0.00006
2146.69935,0.00000
2144.63917,0.00092
2142.57900,0.00200
2140.51883,0.00247
2138.45866,0.00264
2136.39849,0.00239
2134.33831,0.00175
2132.27814,0.00156
2130.21797,0.00193
2128.15780,0.00249
2126.09762,0.00310
2124.03745,0.00352
2121.97728,0.00370
2119.91711,0.00353
2117.85694,0.00298
2115.79676,0.00260
2113.73659,0.00274
2111.67642,0.00312
2109.61625,0.00333
2107.55608,0.00317
2105.49590,0.00298
2103.43573,0.00304
2101.37556,0.00305
2099.31539,0.00303
2097.25521,0.00316
2095.19504,0.00315
2093.13487,0.00280
2091.07470,0.00230
2089.01453,0.00212
2086.95435,0.00232
2084.89418,0.00260
2082.83401,0.00297
2080.77384,0.00335
2078.71367,0.00340
2076.65349,0.00311
2074.59332,0.00271
2072.53315,0.00221
2070.47298,0.00219
2068.41281,0.00280
2066.35263,0.00284
2064.29246,0.00228
2062.23229,0.00226
2060.17212,0.00262
2058.11194,0.00253
2056.05177,0.00223
2053.99160,0.00229
2051.93143,0.00214
2049.87126,0.00148
2047.81108,0.00143
2045.75091,0.00225
2043.69074,0.00312
2041.63057,0.00369
2039.57040,0.00399
2037.51022,0.00370
2035.45005,0.00285
2033.38988,0.00256
2031.32971,0.00246
2029.26954,0.00126
2027.20936,0.00032
2025.14919,0.00083
2023.08902,0.00132
2021.02885,0.00121
2018.96867,0.00164
2016.90850,0.00266
2014.84833,0.00320
2012.78816,0.00298
2010.72799,0.00244
2008.66781,0.00165
2006.60764,0.00107
2004.54747,0.00098
2002.48730,0.00091
2000.42713,0.00098
1998.36695,0.00141
1996.30678,0.00150
1994.24661,0.00091
1992.18644,0.00094
1990.12626,0.00203
1988.06609,0.00278
1986.00592,0.00289
1983.94575,0.00277
1981.88558,0.00319
1979.82540,0.00379
1977.76523,0.00294
1975.70506,0.00096
1973.64489,0.00000
1971.58472,0.00060
1969.52454,0.00146
1967.46437,0.00186
1965.40420,0.00205
1963.34403,0.00196
1961.28386,0.00170
1959.22368,0.00171
1957.16351,0.00184
1955.10334,0.00143
1953.04317,0.00070
1950.98299,0.00077
1948.92282,0.00135
1946.86265,0.00137
1944.80248,0.00105
1942.74231,0.00110
1940.68213,0.00183
1938.62196,0.00221
1936.56179,0.00209
1934.50162,0.00196
1932.44145,0.00172
1930.38127,0.00151
1928.32110,0.00158
1926.26093,0.00178
1924.20076,0.00176
1922.14059,0.00199
1920.08041,0.00218
1918.02024,0.00204
1915.96007,0.00221
1913.89990,0.00194
1911.83972,0.00143
1909.77955,0.00143
1907.71938,0.00177
1905.65921,0.00194
1903.59904,0.00221
1901.53886,0.00269
1899.47869,0.00293
1897.41852,0.00272
1895.35835,0.00236
1893.29818,0.00223
1891.23800,0.00183
1889.17783,0.00152
1887.11766,0.00176
1885.05749,0.00183
1882.99731,0.00186
1880.93714,0.00201
1878.87697,0.00210
1876.81680,0.00220
1874.75663,0.00253
1872.69645,0.00282
1870.63628,0.00229
1868.57611,0.00160
1866.51594,0.00184
1864.45577,0.00191
1862.39559,0.00135
1860.33542,0.00104
1858.27525,0.00126
1856.21508,0.00162
1854.15491,0.00188
1852.09473,0.00208
1850.03456,0.00228
1847.97439,0.00246
1845.91422,0.00214
1843.85404,0.00181
1841.79387,0.00247
1839.73370,0.00273
1837.67353,0.00234
1835.61336,0.00220
1833.55318,0.00213
1831.49301,0.00152
1829.43284,0.00144
1827.37267,0.00207
1825.31250,0.00209
1823.25232,0.00218
1821.19215,0.00222
1819.13198,0.00184
1817.07181,0.00171
1815.01163,0.00183
1812.95146,0.00151
1810.89129,0.00108
1808.83112,0.00129
1806.77095,0.00174
1804.71077,0.00199
1802.65060,0.00181
1800.59043,0.00156
1798.53026,0.00191
1796.47009,0.00231
1794.40991,0.00184
1792.34974,0.00112
1790.28957,0.00164
1788.22940,0.00212
1786.16923,0.00165
1784.10905,0.00134
1782.04888,0.00129
1779.98871,0.00143
1777.92854,0.00204
1775.86836,0.00219
1773.80819,0.00132
1771.74802,0.00093
1769.68785,0.00175
1767.62768,0.00228
1765.56750,0.00265
1763.50733,0.00244
1761.44716,0.00239
1759.38699,0.00294
1757.32682,0.00294
1755.26664,0.00333
1753.20647,0.00348
1751.14630,0.00303
1749.08613,0.00365
1747.02596,0.00492
1744.96578,0.00547
1742.90561,0.00533
1740.84544,0.00530
1738.78527,0.00631
1736.72509,0.00664
1734.66492,0.00496
1732.60475,0.00522
1730.54458,0.00646
1728.48441,0.00656
1726.42423,0.00629
1724.36406,0.00613
1722.30389,0.00662
1720.24372,0.00640
1718.18355,0.00494
1716.12337,0.00477
1714.06320,0.00552
1712.00303,0.00569
1709.94286,0.00522
1707.88268,0.00446
1705.82251,0.00423
1703.76234,0.00492
1701.70217,0.00400
1699.64200,0.00294
1697.58182,0.00321
1695.52165,0.00316
1693.46148,0.00410
1691.40131,0.00424
1689.34114,0.00409
1687.28096,0.00400
1685.22079,0.00239
1683.16062,0.00271
1681.10045,0.00497
1679.04028,0.00560
1676.98010,0.00469
1674.91993,0.00438
1672.85976,0.00521
1670.79959,0.00451
1668.73941,0.00431
1666.67924,0.00572
1664.61907,0.00562
1662.55890,0.00482
1660.49873,0.00580
1658.43855,0.00723
1656.37838,0.00684
1654.31821,0.00444
1652.25804,0.00559
1650.19787,0.00894
1648.13769,0.00805
1646.07752,0.00689
1644.01735,0.00831
1641.95718,0.00922
1639.89701,0.00914
1637.83683,0.00798
1635.77666,0.00692
1633.71649,0.00861
1631.65632,0.00992
1629.59614,0.00930
1627.53597,0.00904
1625.47580,0.00934
1623.41563,0.00959
1621.35546,0.01095
1619.29528,0.01114
1617.23511,0.00977
1615.17494,0.01037
1613.11477,0.01146
1611.05460,0.01107
1608.99442,0.01051
1606.93425,0.01048
1604.87408,0.01045
1602.81391,0.01012
1600.75373,0.00982
1598.69356,0.00956
1596.63339,0.00910
1594.57322,0.00859
1592.51305,0.00824
1590.45287,0.00785
1588.39270,0.00738
1586.33253,0.00690
1584.27236,0.00652
1582.21219,0.00649
1580.15201,0.00643
1578.09184,0.00498
1576.03167,0.00381
1573.97150,0.00530
1571.91133,0.00545
1569.85115,0.00384
1567.79098,0.00412
1565.73081,0.00506
1563.67064,0.00572
1561.61046,0.00441
1559.55029,0.00090
1557.49012,0.00199
1555.42995,0.00414
1553.36978,0.00404
1551.30960,0.00334
1549.24943,0.00329
1547.18926,0.00385
1545.12909,0.00366
1543.06892,0.00282
1541.00874,0.00152
1538.94857,0.00250
1536.88840,0.00459
1534.82823,0.00343
1532.76805,0.00203
1530.70788,0.00277
1528.64771,0.00283
1526.58754,0.00264
1524.52737,0.00291
1522.46719,0.00226
1520.40702,0.00249
1518.34685,0.00298
1516.28668,0.00253
1514.22651,0.00286
1512.16633,0.00332
1510.10616,0.00271
1508.04599,0.00028
1505.98582,0.00000
1503.92565,0.00266
1501.86547,0.00339
1499.80530,0.00214
1497.74513,0.00106
1495.68496,0.00170
1493.62478,0.00285
1491.56461,0.00208
1489.50444,0.00106
1487.44427,0.00172
1485.38410,0.00251
1483.32392,0.00239
1481.26375,0.00217
1479.20358,0.00265
1477.14341,0.00292
1475.08324,0.00246
1473.02306,0.00196
1470.96289,0.00324
1468.90272,0.00462
1466.84255,0.00399
1464.78238,0.00348
1462.72220,0.00496
1460.66203,0.00554
1458.60186,0.00380
1456.54169,0.00345
1454.48151,0.00557
1452.42134,0.00637
1450.36117,0.00574
1448.30100,0.00508
1446.24083,0.00535
1444.18065,0.00596
1442.12048,0.00635
1440.06031,0.00644
1438.00014,0.00566
1435.93997,0.00573
1433.87979,0.00708
1431.81962,0.00717
1429.75945,0.00699
1427.69928,0.00778
1425.63910,0.00830
1423.57893,0.00868
1421.51876,0.00872
1419.45859,0.00794
1417.39842,0.00851
1415.33824,0.00953
1413.27807,0.00950
1411.21790,0.00915
1409.15773,0.00910
1407.09756,0.00882
1405.03738,0.00857
1402.97721,0.00914
1400.91704,0.00925
1398.85687,0.00867
1396.79670,0.00827
1394.73652,0.00805
1392.67635,0.00851
1390.61618,0.00855
1388.55601,0.00771
1386.49583,0.00760
1384.43566,0.00830
1382.37549,0.00857
1380.31532,0.00862
1378.25515,0.00882
1376.19497,0.00876
1374.13480,0.00871
1372.07463,0.00933
1370.01446,0.00967
1367.95429,0.00968
1365.89411,0.00966
1363.83394,0.00902
1361.77377,0.00861
1359.71360,0.00881
1357.65343,0.00872
1355.59325,0.00836
1353.53308,0.00813
1351.47291,0.00797
1349.41274,0.00781
1347.35256,0.00777
1345.29239,0.00784
1343.23222,0.00784
1341.17205,0.00742
1339.11188,0.00712
1337.05170,0.00749
1334.99153,0.00778
1332.93136,0.00767
1330.87119,0.00749
1328.81102,0.00744
1326.75084,0.00748
1324.69067,0.00754
1322.63050,0.00756
1320.57033,0.00746
1318.51015,0.00740
1316.44998,0.00743
1314.38981,0.00728
1312.32964,0.00719
1310.26947,0.00729
1308.20929,0.00726
1306.14912,0.00711
1304.08895,0.00694
1302.02878,0.00677
1299.96861,0.00658
1297.90843,0.00642
1295.84826,0.00634
1293.78809,0.00634
1291.72792,0.00635
1289.66775,0.00620
1287.60757,0.00596
1285.54740,0.00584
1283.48723,0.00584
1281.42706,0.00589
1279.36688,0.00593
1277.30671,0.00593
1275.24654,0.00598
1273.18637,0.00612
1271.12620,0.00643
1269.06602,0.00692
1267.00585,0.00742
1264.94568,0.00784
1262.88551,0.00815
1260.82534,0.00842
1258.76516,0.00881
1256.70499,0.00920
1254.64482,0.00948
1252.58465,0.00979
1250.52447,0.01009
1248.46430,0.01026
1246.40413,0.01039
1244.34396,0.01045
1242.28379,0.01041
1240.22361,0.01031
1238.16344,0.01017
1236.10327,0.01000
1234.04310,0.00974
1231.98293,0.00939
1229.92275,0.00908
1227.86258,0.00879
1225.80241,0.00842
1223.74224,0.00800
1221.68207,0.00761
1219.62189,0.00722
1217.56172,0.00679
1215.50155,0.00630
1213.44138,0.00578
1211.38120,0.00519
1209.32103,0.00452
1207.26086,0.00382
1205.20069,0.00322
1203.14052,0.00269
1201.08034,0.00219
1199.02017,0.00178
1196.96000,0.00143
1194.89983,0.00110
1192.83966,0.00074
1190.77948,0.00038
1188.71931,0.00011
1186.65914,0.00000
1184.59897,0.00004
1182.53880,0.00020
1180.47862,0.00033
1178.41845,0.00055
1176.35828,0.00095
1174.29811,0.00145
1172.23793,0.00203
1170.17776,0.00272
1168.11759,0.00352
1166.05742,0.00433
1163.99725,0.00509
1161.93707,0.00581
1159.87690,0.00648
1157.81673,0.00702
1155.75656,0.00755
1153.69639,0.00821
1151.63621,0.00888
1149.57604,0.00938
1147.51587,0.00970
1145.45570,0.00995
1143.39552,0.01027
1141.33535,0.01071
1139.27518,0.01099
1137.21501,0.01097
1135.15484,0.01100
1133.09466,0.01132
1131.03449,0.01186
1128.97432,0.01247
1126.91415,0.01312
1124.85398,0.01372
1122.79380,0.01431
1120.73363,0.01498
1118.67346,0.01557
1116.61329,0.01602
1114.55312,0.01643
1112.49294,0.01695
1110.43277,0.01765
1108.37260,0.01846
1106.31243,0.01927
1104.25225,0.02014
1102.19208,0.02122
1100.13191,0.02246
1098.07174,0.02375
1096.01157,0.02509
1093.95139,0.02644
1091.89122,0.02780
1089.83105,0.02915
1087.77088,0.03025
1085.71071,0.03095
1083.65053,0.03168
1081.59036,0.03287
1079.53019,0.03430
1077.47002,0.03554
1075.40985,0.03658
1073.34967,0.03758
1071.28950,0.03853
1069.22933,0.03936
1067.16916,0.03998
1065.10898,0.04048
1063.04881,0.04109
1060.98864,0.04171
1058.92847,0.04228
1056.86830,0.04297
1054.80812,0.04387
1052.74795,0.04496
1050.68778,0.04599
1048.62761,0.04687
1046.56744,0.04791
1044.50726,0.04909
1042.44709,0.04999
1040.38692,0.05052
1038.32675,0.05085
1036.26657,0.05099
1034.20640,0.05101
1032.14623,0.05094
1030.08606,0.05071
1028.02589,0.05026
1025.96571,0.04978
1023.90554,0.04946
1021.84537,0.04913
1019.78520,0.04867
1017.72503,0.04827
1015.66485,0.04807
1013.60468,0.04801
1011.54451,0.04790
1009.48434,0.04754
1007.42417,0.04697
1005.36399,0.04629
1003.30382,0.04530
1001.24365,0.04401
999.18348,0.04270
997.12330,0.04154
995.06313,0.04059
993.00296,0.03973
990.94279,0.03896
988.88262,0.03843
986.82244,0.03795
984.76227,0.03738
982.70210,0.03697
980.64193,0.03659
978.58176,0.03602
976.52158,0.03546
974.46141,0.03490
972.40124,0.03401
970.34107,0.03294
968.28089,0.03196
966.22072,0.03093
964.16055,0.02987
962.10038,0.02903
960.04021,0.02838
957.98003,0.02759
955.91986,0.02661
953.85969,0.02567
951.79952,0.02490
949.73935,0.02430
947.67917,0.02371
945.61900,0.02289
943.55883,0.02180
941.49866,0.02041
939.43849,0.01876
937.37831,0.01714
935.31814,0.01562
933.25797,0.01416
931.19780,0.01304
929.13762,0.01229
927.07745,0.01159
925.01728,0.01087
922.95711,0.01018
920.89694,0.00947
918.83676,0.00892
916.77659,0.00856
914.71642,0.00819
912.65625,0.00787
910.59608,0.00771
908.53590,0.00755
906.47573,0.00725
904.41556,0.00689
902.35539,0.00663
900.29522,0.00664
898.23504,0.00678
896.17487,0.00676
894.11470,0.00666
892.05453,0.00669
889.99435,0.00672
887.93418,0.00658
885.87401,0.00632
883.81384,0.00599
881.75367,0.00570
879.69349,0.00539
877.63332,0.00501
875.57315,0.00486
873.51298,0.00482
871.45281,0.00451
869.39263,0.00403
867.33246,0.00376
865.27229,0.00367
863.21212,0.00349
861.15194,0.00334
859.09177,0.00320
857.03160,0.00295
854.97143,0.00269
852.91126,0.00250
850.85108,0.00245
848.79091,0.00244
846.73074,0.00232
844.67057,0.00217
842.61040,0.00201
840.55022,0.00168
838.49005,0.00126
836.42988,0.00111
834.36971,0.00127
832.30954,0.00148
830.24936,0.00153
828.18919,0.00133
826.12902,0.00097
824.06885,0.00061
822.00867,0.00031
819.94850,0.00032
817.88833,0.00065
815.82816,0.00097
813.76799,0.00118
811.70781,0.00124
809.64764,0.00122
807.58747,0.00132
805.52730,0.00147
803.46713,0.00138
801.40695,0.00094
799.34678,0.00075
797.28661,0.00109
795.22644,0.00125
793.16627,0.00096
791.10609,0.00069
789.04592,0.00081
786.98575,0.00097
784.92558,0.00090
782.86540,0.00093
780.80523,0.00111
778.74506,0.00145
776.68489,0.00176
774.62472,0.00159
772.56454,0.00138
770.50437,0.00151
768.44420,0.00177
766.38403,0.00215
764.32386,0.00257
762.26368,0.00273
760.20351,0.00226
758.14334,0.00147
756.08317,0.00118
754.02299,0.00129
751.96282,0.00136
749.90265,0.00147
747.84248,0.00128
745.78231,0.00075
743.72213,0.00065
741.66196,0.00111
739.60179,0.00141
737.54162,0.00131
735.48145,0.00145
733.42127,0.00191
731.36110,0.00186
729.30093,0.00136
727.24076,0.00147
725.18059,0.00201
723.12041,0.00197
721.06024,0.00261
719.00007,0.00298
716.93990,0.00361
714.87972,0.00452
712.81955,0.00502
710.75938,0.00497
708.69921,0.00486
706.63904,0.00511
704.57886,0.00570
702.51869,0.00626
700.45852,0.00638
698.39835,0.00623
696.33818,0.00603
694.27800,0.00561
692.21783,0.00533
690.15766,0.00550
688.09749,0.00595
686.03731,0.00663
683.97714,0.00725
681.91697,0.00693
679.85680,0.00577
677.79663,0.00500
675.73645,0.00487
673.67628,0.00323
671.61611,0.00000
669.55594,0.00502
667.49577,0.01209
665.43559,0.00314
663.37542,0.00481
661.31525,0.00772
659.25508,0.00754
657.19491,0.00572
655.13473,0.00386
653.07456,0.00284
651.01439,0.00251
648.95422,0.00207
646.89404,0.00121
644.83387,0.00159
642.77370,0.00300
640.71353,0.00385
638.65336,0.00335
636.59318,0.00267
634.53301,0.00255
632.47284,0.00229
630.41267,0.00161
628.35250,0.00092
626.29232,0.00097
624.23215,0.00269
622.17198,0.00423
620.11181,0.00282
618.05164,-0.00023
615.99146,-0.00007
613.93129,0.00273
611.87112,0.00346
609.81095,0.00166
607.75077,0.00008
605.69060,-0.00022
603.63043,0.00016
601.57026,0.00055
599.51009,0.00000
