3996.73391,0.00019
3994.67373,0.00038
3992.61356,0.00037
3990.55339,0.00016
3988.49322,0.00000
3986.43305,0.00016
3984.37287,0.00051
3982.31270,0.00076
3980.25253,0.00068
3978.19236,0.00039
3976.13219,0.00023
3974.07201,0.00019
3972.01184,0.00024
3969.95167,0.00049
3967.89150,0.00078
3965.83133,0.00101
3963.77115,0.00129
3961.71098,0.00128
3959.65081,0.00089
3957.59064,0.00070
3955.53046,0.00074
3953.47029,0.00074
3951.41012,0.00077
3949.34995,0.00073
3947.28978,0.00041
3945.22960,0.00047
3943.16943,0.00099
3941.10926,0.00084
3939.04909,0.00031
3936.98892,0.00012
3934.92874,0.00041
3932.86857,0.00092
3930.80840,0.00100
3928.74823,0.00069
3926.68805,0.00074
3924.62788,0.00081
3922.56771,0.00046
3920.50754,0.00055
3918.44737,0.00104
3916.38719,0.00096
3914.32702,0.00045
3912.26685,0.00040
3910.20668,0.00036
3908.14651,0.00013
3906.08633,0.00041
3904.02616,0.00073
3901.96599,0.00071
3899.90582,0.00094
3897.84565,0.00053
3895.78547,0.00000
3893.72530,0.00068
3891.66513,0.00146
3889.60496,0.00077
3887.54478,0.00049
3885.48461,0.00062
3883.42444,0.00021
3881.36427,0.00100
3879.30410,0.00125
3877.24392,0.00054
3875.18375,0.00064
3873.12358,0.00076
3871.06341,0.00123
3869.00324,0.00097
3866.94306,0.00036
3864.88289,0.00116
3862.82272,0.00132
3860.76255,0.00055
3858.70237,0.00006
3856.64220,0.00107
3854.58203,0.00362
3852.52186,0.00372
3850.46169,0.00128
3848.40151,0.00025
3846.34134,0.00063
3844.28117,0.00101
3842.22100,0.00077
3840.16083,0.00125
3838.10065,0.00217
3836.04048,0.00176
3833.98031,0.00108
3831.92014,0.00102
3829.85997,0.00105
3827.79979,0.00134
3825.73962,0.00112
3823.67945,0.00117
3821.61928,0.00189
3819.55910,0.00100
3817.49893,0.00109
3815.43876,0.00181
3813.37859,0.00099
3811.31842,0.00048
3809.25824,0.00114
3807.19807,0.00180
3805.13790,0.00129
3803.07773,0.00208
3801.01756,0.00269
3798.95738,0.00154
3796.89721,0.00152
3794.83704,0.00160
3792.77687,0.00136
3790.71670,0.00128
3788.65652,0.00110
3786.59635,0.00113
3784.53618,0.00117
3782.47601,0.00127
3780.41583,0.00207
3778.35566,0.00217
3776.29549,0.00129
3774.23532,0.00090
3772.17515,0.00156
3770.11497,0.00248
3768.05480,0.00243
3765.99463,0.00204
3763.93446,0.00124
3761.87429,0.00096
3759.81411,0.00153
3757.75394,0.00135
3755.69377,0.00084
3753.63360,0.00171
3751.57342,0.00291
3749.51325,0.00167
3747.45308,0.00029
3745.39291,0.00158
3743.33274,0.00160
3741.27256,0.00008
3739.21239,0.00000
3737.15222,0.00108
3735.09205,0.00178
3733.03188,0.00143
3730.97170,0.00062
3728.91153,0.00036
3726.85136,0.00102
3724.79119,0.00138
3722.73102,0.00146
3720.67084,0.00154
3718.61067,0.00143
3716.55050,0.00114
3714.49033,0.00159
3712.43015,0.00274
3710.36998,0.00260
3708.30981,0.00130
3706.24964,0.00043
3704.18947,0.00066
3702.12929,0.00134
3700.06912,0.00130
3698.00895,0.00111
3695.94878,0.00102
3693.88861,0.00080
3691.82843,0.00130
3689.76826,0.00232
3687.70809,0.00205
3685.64792,0.00091
3683.58775,0.00047
3681.52757,0.00034
3679.46740,0.00029
3677.40723,0.00139
3675.34706,0.00217
3673.28688,0.00051
3671.22671,0.00058
3669.16654,0.00123
3667.10637,0.00054
3665.04620,0.00066
3662.98602,0.00126
3660.92585,0.00125
3658.86568,0.00118
3656.80551,0.00133
3654.74534,0.00054
3652.68516,0.00040
3650.62499,0.00177
3648.56482,0.00231
3646.50465,0.00175
3644.44447,0.00141
3642.38430,0.00174
3640.32413,0.00191
3638.26396,0.00171
3636.20379,0.00150
3634.14361,0.00117
3632.08344,0.00108
3630.02327,0.00261
3627.96310,0.00324
3625.90293,0.00189
3623.84275,0.00137
3621.78258,0.00210
3619.72241,0.00271
3617.66224,0.00193
3615.60207,0.00144
3613.54189,0.00204
3611.48172,0.00235
3609.42155,0.00271
3607.36138,0.00291
3605.30120,0.00269
3603.24103,0.00309
3601.18086,0.00385
3599.12069,0.00407
3597.06052,0.00415
3595.00034,0.00419
3592.94017,0.00363
3590.88000,0.00329
3588.81983,0.00396
3586.75966,0.00419
3584.69948,0.00365
3582.63931,0.00373
3580.57914,0.00406
3578.51897,0.00407
3576.45879,0.00404
3574.39862,0.00395
3572.33845,0.00375
3570.27828,0.00414
3568.21811,0.00509
3566.15793,0.00507
3564.09776,0.00429
3562.03759,0.00438
3559.97742,0.00495
3557.91725,0.00515
3555.85707,0.00517
3553.79690,0.00545
3551.73673,0.00568
3549.67656,0.00582
3547.61639,0.00625
3545.55621,0.00632
3543.49604,0.00575
3541.43587,0.00542
3539.37570,0.00584
3537.31552,0.00659
3535.25535,0.00685
3533.19518,0.00667
3531.13501,0.00667
3529.07484,0.00696
3527.01466,0.00726
3524.95449,0.00736
3522.89432,0.00728
3520.83415,0.00719
3518.77398,0.00739
3516.71380,0.00760
3514.65363,0.00754
3512.59346,0.00763
3510.53329,0.00796
3508.47312,0.00791
3506.41294,0.00786
3504.35277,0.00844
3502.29260,0.00867
3500.23243,0.00835
3498.17225,0.00841
3496.11208,0.00874
3494.05191,0.00882
3491.99174,0.00874
3489.93157,0.00885
3487.87139,0.00909
3485.81122,0.00917
3483.75105,0.00932
3481.69088,0.00940
3479.63071,0.00926
3477.57053,0.00949
3475.51036,0.01003
3473.45019,0.01027
3471.39002,0.01018
3469.32984,0.01014
3467.26967,0.01033
3465.20950,0.01058
3463.14933,0.01070
3461.08916,0.01055
3459.02898,0.01040
3456.96881,0.01058
3454.90864,0.01099
3452.84847,0.01120
3450.78830,0.01107
3448.72812,0.01112
3446.66795,0.01134
3444.60778,0.01151
3442.54761,0.01188
3440.48744,0.01202
3438.42726,0.01185
3436.36709,0.01180
3434.30692,0.01199
3432.24675,0.01225
3430.18657,0.01245
3428.12640,0.01253
3426.06623,0.01237
3424.00606,0.01227
3421.94589,0.01256
3419.88571,0.01278
3417.82554,0.01271
3415.76537,0.01275
3413.70520,0.01284
3411.64503,0.01286
3409.58485,0.01279
3407.52468,0.01274
3405.46451,0.01289
3403.40434,0.01321
3401.34416,0.01344
3399.28399,0.01344
3397.22382,0.01340
3395.16365,0.01355
3393.10348,0.01362
3391.04330,0.01349
3388.98313,0.01353
3386.92296,0.01372
3384.86279,0.01390
3382.80262,0.01409
3380.74244,0.01428
3378.68227,0.01440
3376.62210,0.01437
3374.56193,0.01424
3372.50176,0.01414
3370.44158,0.01416
3368.38141,0.01429
3366.32124,0.01447
3364.26107,0.01462
3362.20089,0.01487
3360.14072,0.01506
3358.08055,0.01499
3356.02038,0.01476
3353.96021,0.01456
3351.90003,0.01458
3349.83986,0.01473
3347.77969,0.01486
3345.71952,0.01490
3343.65935,0.01496
3341.59917,0.01514
3339.53900,0.01529
3337.47883,0.01532
3335.41866,0.01525
3333.35849,0.01519
3331.29831,0.01523
3329.23814,0.01524
3327.17797,0.01509
3325.11780,0.01495
3323.05762,0.01500
3320.99745,0.01513
3318.93728,0.01518
3316.87711,0.01518
3314.81694,0.01526
3312.75676,0.01530
3310.69659,0.01518
3308.63642,0.01516
3306.57625,0.01531
3304.51608,0.01531
3302.45590,0.01513
3300.39573,0.01507
3298.33556,0.01522
3296.27539,0.01549
3294.21521,0.01560
3292.15504,0.01549
3290.09487,0.01543
3288.03470,0.01551
3285.97453,0.01567
3283.91435,0.01582
3281.85418,0.01569
3279.79401,0.01537
3277.73384,0.01520
3275.67367,0.01510
3273.61349,0.01493
3271.55332,0.01483
3269.49315,0.01503
3267.43298,0.01546
3265.37281,0.01566
3263.31263,0.01547
3261.25246,0.01519
3259.19229,0.01504
3257.13212,0.01504
3255.07194,0.01510
3253.01177,0.01515
3250.95160,0.01510
3248.89143,0.01504
3246.83126,0.01514
3244.77108,0.01516
3242.71091,0.01486
3240.65074,0.01464
3238.59057,0.01469
3236.53040,0.01481
3234.47022,0.01488
3232.41005,0.01496
3230.34988,0.01513
3228.28971,0.01531
3226.22954,0.01531
3224.16936,0.01510
3222.10919,0.01482
3220.04902,0.01458
3217.98885,0.01442
3215.92867,0.01457
3213.86850,0.01483
3211.80833,0.01478
3209.74816,0.01461
3207.68799,0.01445
3205.62781,0.01428
3203.56764,0.01413
3201.50747,0.01397
3199.44730,0.01377
3197.38713,0.01364
3195.32695,0.01367
3193.26678,0.01379
3191.20661,0.01376
3189.14644,0.01366
3187.08626,0.01359
3185.02609,0.01355
3182.96592,0.01360
3180.90575,0.01372
3178.84558,0.01389
3176.78540,0.01388
3174.72523,0.01370
3172.66506,0.01349
3170.60489,0.01326
3168.54472,0.01322
3166.48454,0.01328
3164.42437,0.01306
3162.36420,0.01271
3160.30403,0.01264
3158.24386,0.01271
3156.18368,0.01262
3154.12351,0.01245
3152.06334,0.01232
3150.00317,0.01221
3147.94299,0.01226
3145.88282,0.01241
3143.82265,0.01234
3141.76248,0.01201
3139.70231,0.01166
3137.64213,0.01137
3135.58196,0.01114
3133.52179,0.01113
3131.46162,0.01122
3129.40145,0.01128
3127.34127,0.01130
3125.28110,0.01130
3123.22093,0.01120
3121.16076,0.01103
3119.10058,0.01105
3117.04041,0.01123
3114.98024,0.01120
3112.92007,0.01088
3110.85990,0.01069
3108.79972,0.01069
3106.73955,0.01060
3104.67938,0.01049
3102.61921,0.01064
3100.55904,0.01085
3098.49886,0.01092
3096.43869,0.01078
3094.37852,0.01039
3092.31835,0.01010
3090.25818,0.01016
3088.19800,0.01023
3086.13783,0.01005
3084.07766,0.00988
3082.01749,0.00990
3079.95731,0.00987
3077.89714,0.00974
3075.83697,0.00970
3073.77680,0.00975
3071.71663,0.00979
3069.65645,0.00979
3067.59628,0.00972
3065.53611,0.00955
3063.47594,0.00942
3061.41577,0.00939
3059.35559,0.00929
3057.29542,0.00910
3055.23525,0.00908
3053.17508,0.00926
3051.11491,0.00925
3049.05473,0.00898
3046.99456,0.00883
3044.93439,0.00878
3042.87422,0.00862
3040.81404,0.00854
3038.75387,0.00860
3036.69370,0.00858
3034.63353,0.00853
3032.57336,0.00858
3030.51318,0.00858
3028.45301,0.00838
3026.39284,0.00813
3024.33267,0.00797
3022.27250,0.00796
3020.21232,0.00812
3018.15215,0.00829
3016.09198,0.00830
3014.03181,0.00814
3011.97163,0.00793
3009.91146,0.00771
3007.85129,0.00765
3005.79112,0.00784
3003.73095,0.00800
3001.67077,0.00786
2999.61060,0.00759
2997.55043,0.00752
2995.49026,0.00764
2993.43009,0.00776
2991.36991,0.00777
2989.30974,0.00768
2987.24957,0.00757
2985.18940,0.00750
2983.12923,0.00766
2981.06905,0.00793
2979.00888,0.00804
2976.94871,0.00804
2974.88854,0.00813
2972.82836,0.00832
2970.76819,0.00839
2968.70802,0.00821
2966.64785,0.00800
2964.58768,0.00796
2962.52750,0.00812
2960.46733,0.00837
2958.40716,0.00855
2956.34699,0.00866
2954.28682,0.00862
2952.22664,0.00866
2950.16647,0.00899
2948.10630,0.00932
2946.04613,0.00941
2943.98596,0.00942
2941.92578,0.00946
2939.86561,0.00945
2937.80544,0.00939
2935.74527,0.00943
2933.68509,0.00957
2931.62492,0.00977
2929.56475,0.00997
2927.50458,0.01007
2925.44441,0.01000
2923.38423,0.00978
2921.32406,0.00959
2919.26389,0.00958
2917.20372,0.00965
2915.14355,0.00970
2913.08337,0.00968
2911.02320,0.00960
2908.96303,0.00955
2906.90286,0.00950
2904.84268,0.00943
2902.78251,0.00934
2900.72234,0.00926
2898.66217,0.00926
2896.60200,0.00920
2894.54182,0.00902
2892.48165,0.00902
2890.42148,0.00921
2888.36131,0.00921
2886.30114,0.00900
2884.24096,0.00896
2882.18079,0.00906
2880.12062,0.00909
2878.06045,0.00902
2876.00028,0.00898
2873.94010,0.00907
2871.87993,0.00910
2869.81976,0.00899
2867.75959,0.00886
2865.69941,0.00862
2863.63924,0.00837
2861.57907,0.00833
2859.51890,0.00841
2857.45873,0.00851
2855.39855,0.00857
2853.33838,0.00850
2851.27821,0.00846
2849.21804,0.00853
2847.15787,0.00856
2845.09769,0.00843
2843.03752,0.00819
2840.97735,0.00803
2838.91718,0.00790
2836.85700,0.00777
2834.79683,0.00775
2832.73666,0.00777
2830.67649,0.00770
2828.61632,0.00762
2826.55614,0.00766
2824.49597,0.00773
2822.43580,0.00765
2820.37563,0.00744
2818.31546,0.00737
2816.25528,0.00743
2814.19511,0.00738
2812.13494,0.00737
2810.07477,0.00745
2808.01460,0.00749
2805.95442,0.00747
2803.89425,0.00739
2801.83408,0.00726
2799.77391,0.00720
2797.71373,0.00719
2795.65356,0.00712
2793.59339,0.00704
2791.53322,0.00700
2789.47305,0.00698
2787.41287,0.00702
2785.35270,0.00706
2783.29253,0.00693
2781.23236,0.00674
2779.17219,0.00671
2777.11201,0.00676
2775.05184,0.00680
2772.99167,0.00697
2770.93150,0.00713
2768.87133,0.00709
2766.81115,0.00696
2764.75098,0.00697
2762.69081,0.00699
2760.63064,0.00690
2758.57046,0.00680
2756.51029,0.00679
2754.45012,0.00684
2752.38995,0.00686
2750.32978,0.00680
2748.26960,0.00671
2746.20943,0.00671
2744.14926,0.00679
2742.08909,0.00681
2740.02892,0.00681
2737.96874,0.00694
2735.90857,0.00700
2733.84840,0.00675
2731.78823,0.00647
2729.72805,0.00647
2727.66788,0.00657
2725.60771,0.00663
2723.54754,0.00663
2721.48737,0.00658
2719.42719,0.00653
2717.36702,0.00641
2715.30685,0.00630
2713.24668,0.00636
2711.18651,0.00648
2709.12633,0.00642
2707.06616,0.00631
2705.00599,0.00633
2702.94582,0.00647
2700.88565,0.00658
2698.82547,0.00657
2696.76530,0.00646
2694.70513,0.00630
2692.64496,0.00625
2690.58478,0.00638
2688.52461,0.00642
2686.46444,0.00633
2684.40427,0.00626
2682.34410,0.00618
2680.28392,0.00617
2678.22375,0.00631
2676.16358,0.00643
2674.10341,0.00639
2672.04324,0.00630
2669.98306,0.00623
2667.92289,0.00614
2665.86272,0.00607
2663.80255,0.00601
2661.74238,0.00608
2659.68220,0.00631
2657.62203,0.00643
2655.56186,0.00631
2653.50169,0.00615
2651.44151,0.00612
2649.38134,0.00624
2647.32117,0.00643
2645.26100,0.00647
2643.20083,0.00624
2641.14065,0.00596
2639.08048,0.00588
2637.02031,0.00600
2634.96014,0.00618
2632.89997,0.00631
2630.83979,0.00624
2628.77962,0.00595
2626.71945,0.00573
2624.65928,0.00561
2622.59910,0.00546
2620.53893,0.00538
2618.47876,0.00546
2616.41859,0.00558
2614.35842,0.00569
2612.29824,0.00581
2610.23807,0.00587
2608.17790,0.00577
2606.11773,0.00541
2604.05756,0.00506
2601.99738,0.00505
2599.93721,0.00518
2597.87704,0.00511
2595.81687,0.00480
2593.75670,0.00452
2591.69652,0.00467
2589.63635,0.00512
2587.57618,0.00544
2585.51601,0.00543
2583.45583,0.00520
2581.39566,0.00502
2579.33549,0.00512
2577.27532,0.00539
2575.21515,0.00548
2573.15497,0.00537
2571.09480,0.00519
2569.03463,0.00502
2566.97446,0.00501
2564.91429,0.00520
2562.85411,0.00543
2560.79394,0.00548
2558.73377,0.00526
2556.67360,0.00513
2554.61342,0.00516
2552.55325,0.00500
2550.49308,0.00480
2548.43291,0.00480
2546.37274,0.00477
2544.31256,0.00472
2542.25239,0.00482
2540.19222,0.00473
2538.13205,0.00436
2536.07188,0.00428
2534.01170,0.00450
2531.95153,0.00466
2529.89136,0.00467
2527.83119,0.00457
2525.77102,0.00445
2523.71084,0.00439
2521.65067,0.00440
2519.59050,0.00442
2517.53033,0.00445
2515.47015,0.00457
2513.40998,0.00468
2511.34981,0.00462
2509.28964,0.00443
2507.22947,0.00426
2505.16929,0.00429
2503.10912,0.00455
2501.04895,0.00479
2498.98878,0.00478
2496.92861,0.00474
2494.86843,0.00483
2492.80826,0.00487
2490.74809,0.00475
2488.68792,0.00462
2486.62775,0.00448
2484.56757,0.00414
2482.50740,0.00395
2480.44723,0.00418
2478.38706,0.00452
2476.32688,0.00461
2474.26671,0.00459
2472.20654,0.00461
2470.14637,0.00452
2468.08620,0.00436
2466.02602,0.00438
2463.96585,0.00469
2461.90568,0.00492
2459.84551,0.00469
2457.78534,0.00429
2455.72516,0.00421
2453.66499,0.00449
2451.60482,0.00482
2449.54465,0.00472
2447.48447,0.00431
2445.42430,0.00412
2443.36413,0.00425
2441.30396,0.00447
2439.24379,0.00453
2437.18361,0.00447
2435.12344,0.00446
2433.06327,0.00434
2431.00310,0.00404
2428.94293,0.00387
2426.88275,0.00381
2424.82258,0.00364
2422.76241,0.00360
2420.70224,0.00387
2418.64207,0.00422
2416.58189,0.00444
2414.52172,0.00442
2412.46155,0.00415
2410.40138,0.00398
2408.34120,0.00414
2406.28103,0.00439
2404.22086,0.00446
2402.16069,0.00449
2400.10052,0.00448
2398.04034,0.00415
2395.98017,0.00414
2393.92000,0.00438
2391.85983,0.00444
2389.79966,0.00428
2387.73948,0.00418
2385.67931,0.00417
2383.61914,0.00411
2381.55897,0.00391
2379.49880,0.00373
2377.43862,0.00372
2375.37845,0.00397
2373.31828,0.00415
2371.25811,0.00387
2369.19793,0.00311
2367.13776,0.00219
2365.07759,0.00246
2363.01742,0.00449
2360.95725,0.00507
2358.89707,0.00410
2356.83690,0.00343
2354.77673,0.00370
2352.71656,0.00396
2350.65639,0.00330
2348.59621,0.00310
2346.53604,0.00444
2344.47587,0.00425
2342.41570,0.00331
2340.35552,0.00277
2338.29535,0.00267
2336.23518,0.00324
2334.17501,0.00405
2332.11484,0.00484
2330.05466,0.00538
2327.99449,0.00573
2325.93432,0.00566
2323.87415,0.00558
2321.81398,0.00532
2319.75380,0.00509
2317.69363,0.00472
2315.63346,0.00470
2313.57329,0.00486
2311.51312,0.00483
2309.45294,0.00469
2307.39277,0.00461
2305.33260,0.00460
2303.27243,0.00452
2301.21225,0.00441
2299.15208,0.00429
2297.09191,0.00437
2295.03174,0.00468
2292.97157,0.00488
2290.91139,0.00469
2288.85122,0.00448
2286.79105,0.00473
2284.73088,0.00513
2282.67071,0.00509
2280.61053,0.00462
2278.55036,0.00399
2276.49019,0.00356
2274.43002,0.00355
2272.36984,0.00376
2270.30967,0.00376
2268.24950,0.00351
2266.18933,0.00327
2264.12916,0.00312
2262.06898,0.00286
2260.00881,0.00256
2257.94864,0.00274
2255.88847,0.00350
2253.82830,0.00396
2251.76812,0.00391
2249.70795,0.00393
2247.64778,0.00390
2245.58761,0.00336
2243.52744,0.00312
2241.46726,0.00343
2239.40709,0.00362
2237.34692,0.00317
2235.28675,0.00269
2233.22657,0.00292
2231.16640,0.00329
2229.10623,0.00340
2227.04606,0.00324
2224.98589,0.00289
2222.92571,0.00309
2220.86554,0.00351
2218.80537,0.00328
2216.74520,0.00314
2214.68503,0.00324
2212.62485,0.00324
2210.56468,0.00384
2208.50451,0.00460
2206.44434,0.00461
2204.38417,0.00408
2202.32399,0.00350
2200.26382,0.00338
2198.20365,0.00368
2196.14348,0.00403
2194.08330,0.00449
2192.02313,0.00452
2189.96296,0.00406
2187.90279,0.00395
2185.84262,0.00413
2183.78244,0.00411
2181.72227,0.00356
2179.66210,0.00285
2177.60193,0.00298
2175.54176,0.00331
2173.48158,0.00265
2171.42141,0.00212
2169.36124,0.00273
2167.30107,0.00309
2165.24089,0.00282
2163.18072,0.00308
2161.12055,0.00314
2159.06038,0.00238
2157.00021,0.00203
2154.94003,0.00212
2152.87986,0.00276
2150.81969,0.00350
2148.75952,0.00275
2146.69935,0.00167
2144.63917,0.00203
2142.57900,0.00285
2140.51883,0.00300
2138.45866,0.00311
2136.39849,0.00323
2134.33831,0.00264
2132.27814,0.00227
2130.21797,0.00269
2128.15780,0.00284
2126.09762,0.00265
2124.03745,0.00279
2121.97728,0.00290
2119.91711,0.00275
2117.85694,0.00297
2115.79676,0.00361
2113.73659,0.00392
2111.67642,0.00373
2109.61625,0.00360
2107.55608,0.00346
2105.49590,0.00315
2103.43573,0.00295
2101.37556,0.00275
2099.31539,0.00269
2097.25521,0.00293
2095.19504,0.00305
2093.13487,0.00293
2091.07470,0.00279
2089.01453,0.00278
2086.95435,0.00290
2084.89418,0.00290
2082.83401,0.00284
2080.77384,0.00300
2078.71367,0.00337
2076.65349,0.00357
2074.59332,0.00315
2072.53315,0.00250
2070.47298,0.00253
2068.41281,0.00310
2066.35263,0.00303
2064.29246,0.00229
2062.23229,0.00225
2060.17212,0.00292
2058.11194,0.00306
2056.05177,0.00255
2053.99160,0.00232
2051.93143,0.00245
2049.87126,0.00185
2047.81108,0.00094
2045.75091,0.00113
2043.69074,0.00225
2041.63057,0.00316
2039.57040,0.00292
2037.51022,0.00225
2035.45005,0.00228
2033.38988,0.00245
2031.32971,0.00261
2029.26954,0.00293
2027.20936,0.00290
2025.14919,0.00256
2023.08902,0.00193
2021.02885,0.00184
2018.96867,0.00295
2016.90850,0.00362
2014.84833,0.00333
2012.78816,0.00310
2010.72799,0.00214
2008.66781,0.00070
2006.60764,0.00025
2004.54747,0.00023
2002.48730,0.00000
2000.42713,0.00039
1998.36695,0.00167
1996.30678,0.00285
1994.24661,0.00320
1992.18644,0.00296
1990.12626,0.00271
1988.06609,0.00261
1986.00592,0.00213
1983.94575,0.00176
1981.88558,0.00232
1979.82540,0.00303
1977.76523,0.00257
1975.70506,0.00127
1973.64489,0.00058
1971.58472,0.00076
1969.52454,0.00132
1967.46437,0.00209
1965.40420,0.00243
1963.34403,0.00207
1961.28386,0.00130
1959.22368,0.00065
1957.16351,0.00082
1955.10334,0.00126
1953.04317,0.00109
1950.98299,0.00075
1948.92282,0.00068
1946.86265,0.00085
1944.80248,0.00146
1942.74231,0.00209
1940.68213,0.00174
1938.62196,0.00114
1936.56179,0.00100
1934.50162,0.00120
1932.44145,0.00140
1930.38127,0.00156
1928.32110,0.00189
1926.26093,0.00213
1924.20076,0.00220
1922.14059,0.00189
1920.08041,0.00178
1918.02024,0.00234
1915.96007,0.00235
1913.89990,0.00195
1911.83972,0.00165
1909.77955,0.00153
1907.71938,0.00137
1905.65921,0.00149
1903.59904,0.00209
1901.53886,0.00243
1899.47869,0.00215
1897.41852,0.00194
1895.35835,0.00201
1893.29818,0.00186
1891.23800,0.00202
1889.17783,0.00214
1887.11766,0.00163
1885.05749,0.00136
1882.99731,0.00149
1880.93714,0.00165
1878.87697,0.00164
1876.81680,0.00155
1874.75663,0.00158
1872.69645,0.00172
1870.63628,0.00222
1868.57611,0.00251
1866.51594,0.00188
1864.45577,0.00140
1862.39559,0.00148
1860.33542,0.00151
1858.27525,0.00145
1856.21508,0.00149
1854.15491,0.00156
1852.09473,0.00161
1850.03456,0.00169
1847.97439,0.00174
1845.91422,0.00217
1843.85404,0.00256
1841.79387,0.00185
1839.73370,0.00146
1837.67353,0.00171
1835.61336,0.00161
1833.55318,0.00123
1831.49301,0.00147
1829.43284,0.00173
1827.37267,0.00162
1825.31250,0.00204
1823.25232,0.00210
1821.19215,0.00188
1819.13198,0.00197
1817.07181,0.00184
1815.01163,0.00137
1812.95146,0.00128
1810.89129,0.00153
1808.83112,0.00149
1806.77095,0.00134
1804.71077,0.00137
1802.65060,0.00166
1800.59043,0.00183
1798.53026,0.00141
1796.47009,0.00099
1794.40991,0.00156
1792.34974,0.00241
1790.28957,0.00170
1788.22940,0.00084
1786.16923,0.00105
1784.10905,0.00126
1782.04888,0.00138
1779.98871,0.00148
1777.92854,0.00108
1775.86836,0.00092
1773.80819,0.00164
1771.74802,0.00208
1769.68785,0.00162
1767.62768,0.00139
1765.56750,0.00125
1763.50733,0.00184
1761.44716,0.00234
1759.38699,0.00213
1757.32682,0.00239
1755.26664,0.00216
1753.20647,0.00214
1751.14630,0.00309
1749.08613,0.00351
1747.02596,0.00337
1744.96578,0.00356
1742.90561,0.00415
1740.84544,0.00476
1738.78527,0.00438
1736.72509,0.00425
1734.66492,0.00586
1732.60475,0.00584
1730.54458,0.00495
1728.48441,0.00480
1726.42423,0.00482
1724.36406,0.00491
1722.30389,0.00453
1720.24372,0.00483
1718.18355,0.00621
1716.12337,0.00597
1714.06320,0.00442
1712.00303,0.00331
1709.94286,0.00302
1707.88268,0.00340
1705.82251,0.00342
1703.76234,0.00229
1701.70217,0.00243
1699.64200,0.00266
1697.58182,0.00227
1695.52165,0.00276
1693.46148,0.00207
1691.40131,0.00194
1689.34114,0.00215
1687.28096,0.00238
1685.22079,0.00424
1683.16062,0.00436
1681.10045,0.00258
1679.04028,0.00227
1676.98010,0.00339
1674.91993,0.00391
1672.85976,0.00322
1670.79959,0.00399
1668.73941,0.00444
1666.67924,0.00343
1664.61907,0.00392
1662.55890,0.00511
1660.49873,0.00457
1658.43855,0.00365
1656.37838,0.00445
1654.31821,0.00718
1652.25804,0.00660
1650.19787,0.00405
1648.13769,0.00576
1646.07752,0.00761
1644.01735,0.00656
1641.95718,0.00576
1639.89701,0.00582
1637.83683,0.00702
1635.77666,0.00840
1633.71649,0.00726
1631.65632,0.00638
1629.59614,0.00722
1627.53597,0.00772
1625.47580,0.00798
1623.41563,0.00860
1621.35546,0.00802
1619.29528,0.00819
1617.23511,0.00977
1615.17494,0.00949
1613.11477,0.00854
1611.05460,0.00888
1608.99442,0.00933
1606.93425,0.00914
1604.87408,0.00887
1602.81391,0.00878
1600.75373,0.00851
1598.69356,0.00818
1596.63339,0.00804
1594.57322,0.00777
1592.51305,0.00727
1590.45287,0.00685
1588.39270,0.00654
1586.33253,0.00625
1584.27236,0.00589
1582.21219,0.00522
1580.15201,0.00450
1578.09184,0.00499
1576.03167,0.00532
1573.97150,0.00350
1571.91133,0.00307
1569.85115,0.00423
1567.79098,0.00372
1565.73081,0.00276
1563.67064,0.00194
1561.61046,0.00275
1559.55029,0.00533
1557.49012,0.00360
1555.42995,0.00151
1553.36978,0.00173
1551.30960,0.00241
1549.24943,0.00243
1547.18926,0.00184
1545.12909,0.00192
1543.06892,0.00251
1541.00874,0.00369
1538.94857,0.00279
1536.88840,0.00057
1534.82823,0.00134
1532.76805,0.00226
1530.70788,0.00127
1528.64771,0.00125
1526.58754,0.00157
1524.52737,0.00130
1522.46719,0.00191
1520.40702,0.00186
1518.34685,0.00149
1516.28668,0.00168
1514.22651,0.00085
1512.16633,0.00000
1510.10616,0.00048
1508.04599,0.00291
1505.98582,0.00327
1503.92565,0.00071
1501.86547,-0.00003
1499.80530,0.00113
1497.74513,0.00213
1495.68496,0.00149
1493.62478,0.00042
1491.56461,0.00123
1489.50444,0.00233
1487.44427,0.00179
1485.38410,0.00107
1483.32392,0.00126
1481.26375,0.00168
1479.20358,0.00154
1477.14341,0.00162
1475.08324,0.00247
1473.02306,0.00347
1470.96289,0.00277
1468.90272,0.00189
1466.84255,0.00290
1464.78238,0.00374
1462.72220,0.00269
1460.66203,0.00254
1458.60186,0.00472
1456.54169,0.00562
1454.48151,0.00394
1452.42134,0.00335
1450.36117,0.00404
1448.30100,0.00475
1446.24083,0.00475
1444.18065,0.00463
1442.12048,0.00470
1440.06031,0.00482
1438.00014,0.00574
1435.93997,0.00595
1433.87979,0.00493
1431.81962,0.00523
1429.75945,0.00612
1427.69928,0.00624
1425.63910,0.00641
1423.57893,0.00650
1421.51876,0.00681
1419.45859,0.00796
1417.39842,0.00787
1415.33824,0.00724
1413.27807,0.00746
1411.21790,0.00778
1409.15773,0.00766
1407.09756,0.00770
1405.03738,0.00777
1402.97721,0.00720
1400.91704,0.00706
1398.85687,0.00728
1396.79670,0.00721
1394.73652,0.00721
1392.67635,0.00663
1390.61618,0.00631
1388.55601,0.00691
1386.49583,0.00715
1384.43566,0.00684
1382.37549,0.00697
1380.31532,0.00729
1378.25515,0.00743
1376.19497,0.00775
1374.13480,0.00809
1372.07463,0.00785
1370.01446,0.00782
1367.95429,0.00783
1365.89411,0.00761
1363.83394,0.00778
1361.77377,0.00767
1359.71360,0.00712
1357.65343,0.00698
1355.59325,0.00710
1353.53308,0.00707
1351.47291,0.00701
1349.41274,0.00703
1347.35256,0.00688
1345.29239,0.00658
1343.23222,0.00639
1341.17205,0.00666
1339.11188,0.00688
1337.05170,0.00653
1334.99153,0.00619
1332.93136,0.00622
1330.87119,0.00647
1328.81102,0.00664
1326.75084,0.00656
1324.69067,0.00635
1322.63050,0.00629
1320.57033,0.00650
1318.51015,0.00663
1316.44998,0.00650
1314.38981,0.00647
1312.32964,0.00648
1310.26947,0.00642
1308.20929,0.00646
1306.14912,0.00643
1304.08895,0.00625
1302.02878,0.00605
1299.96861,0.00589
1297.90843,0.00573
1295.84826,0.00551
1293.78809,0.00544
1291.72792,0.00557
1289.66775,0.00566
1287.60757,0.00551
1285.54740,0.00524
1283.48723,0.00514
1281.42706,0.00515
1279.36688,0.00509
1277.30671,0.00506
1275.24654,0.00523
1273.18637,0.00554
1271.12620,0.00579
1269.06602,0.00601
1267.00585,0.00637
1264.94568,0.00672
1262.88551,0.00698
1260.82534,0.00731
1258.76516,0.00768
1256.70499,0.00799
1254.64482,0.00819
1252.58465,0.00828
1250.52447,0.00848
1248.46430,0.00884
1246.40413,0.00916
1244.34396,0.00923
1242.28379,0.00911
1240.22361,0.00895
1238.16344,0.00877
1236.10327,0.00861
1234.04310,0.00842
1231.98293,0.00821
1229.92275,0.00803
1227.86258,0.00775
1225.80241,0.00732
1223.74224,0.00692
1221.68207,0.00659
1219.62189,0.00628
1217.56172,0.00597
1215.50155,0.00565
1213.44138,0.00525
1211.38120,0.00475
1209.32103,0.00414
1207.26086,0.00353
1205.20069,0.00302
1203.14052,0.00259
1201.08034,0.00221
1199.02017,0.00186
1196.96000,0.00150
1194.89983,0.00114
1192.83966,0.00080
1190.77948,0.00041
1188.71931,0.00008
1186.65914,0.00000
1184.59897,0.00011
1182.53880,0.00030
1180.47862,0.00043
1178.41845,0.00048
1176.35828,0.00063
1174.29811,0.00102
1172.23793,0.00157
1170.17776,0.00232
1168.11759,0.00315
1166.05742,0.00380
1163.99725,0.00435
1161.93707,0.00488
1159.87690,0.00536
1157.81673,0.00577
1155.75656,0.00614
1153.69639,0.00659
1151.63621,0.00719
1149.57604,0.00778
1147.51587,0.00822
1145.45570,0.00856
1143.39552,0.00889
1141.33535,0.00907
1139.27518,0.00901
1137.21501,0.00892
1135.15484,0.00910
1133.09466,0.00956
1131.03449,0.01008
1128.97432,0.01049
1126.91415,0.01084
1124.85398,0.01124
1122.79380,0.01172
1120.73363,0.01229
1118.67346,0.01288
1116.61329,0.01342
1114.55312,0.01388
1112.49294,0.01427
1110.43277,0.01470
1108.37260,0.01527
1106.31243,0.01599
1104.25225,0.01675
1102.19208,0.01764
1100.13191,0.01883
1098.07174,0.02005
1096.01157,0.02106
1093.95139,0.02196
1091.89122,0.02298
1089.83105,0.02420
1087.77088,0.02531
1085.71071,0.02600
1083.65053,0.02660
1081.59036,0.02751
1079.53019,0.02860
1077.47002,0.02948
1075.40985,0.03026
1073.34967,0.03120
1071.28950,0.03218
1069.22933,0.03295
1067.16916,0.03342
1065.10898,0.03376
1063.04881,0.03422
1060.98864,0.03480
1058.92847,0.03537
1056.86830,0.03597
1054.80812,0.03673
1052.74795,0.03771
1050.68778,0.03860
1048.62761,0.03931
1046.56744,0.04015
1044.50726,0.04115
1042.44709,0.04193
1040.38692,0.04240
1038.32675,0.04271
1036.26657,0.04302
1034.20640,0.04320
1032.14623,0.04305
1030.08606,0.04267
1028.02589,0.04224
1025.96571,0.04185
1023.90554,0.04155
1021.84537,0.04131
1019.78520,0.04101
1017.72503,0.04066
1015.66485,0.04041
1013.60468,0.04039
1011.54451,0.04038
1009.48434,0.04002
1007.42417,0.03936
1005.36399,0.03851
1003.30382,0.03754
1001.24365,0.03660
999.18348,0.03584
997.12330,0.03503
995.06313,0.03415
993.00296,0.03336
990.94279,0.03261
988.88262,0.03201
986.82244,0.03163
984.76227,0.03133
982.70210,0.03109
980.64193,0.03085
978.58176,0.03057
976.52158,0.03023
974.46141,0.02961
972.40124,0.02871
970.34107,0.02796
968.28089,0.02726
966.22072,0.02622
964.16055,0.02524
962.10038,0.02461
960.04021,0.02410
957.98003,0.02365
955.91986,0.02315
953.85969,0.02238
951.79952,0.02148
949.73935,0.02077
947.67917,0.02022
945.61900,0.01948
943.55883,0.01838
941.49866,0.01716
939.43849,0.01599
937.37831,0.01475
935.31814,0.01345
933.25797,0.01216
931.19780,0.01109
929.13762,0.01032
927.07745,0.00964
925.01728,0.00901
922.95711,0.00843
920.89694,0.00784
918.83676,0.00736
916.77659,0.00713
914.71642,0.00685
912.65625,0.00635
910.59608,0.00594
908.53590,0.00574
906.47573,0.00552
904.41556,0.00534
902.35539,0.00545
900.29522,0.00569
898.23504,0.00573
896.17487,0.00567
894.11470,0.00561
892.05453,0.00547
889.99435,0.00532
887.93418,0.00524
885.87401,0.00517
883.81384,0.00495
881.75367,0.00473
879.69349,0.00455
877.63332,0.00428
875.57315,0.00398
873.51298,0.00370
871.45281,0.00343
869.39263,0.00325
867.33246,0.00314
865.27229,0.00288
863.21212,0.00239
861.15194,0.00216
859.09177,0.00231
857.03160,0.00232
854.97143,0.00225
852.91126,0.00223
850.85108,0.00197
848.79091,0.00160
846.73074,0.00157
844.67057,0.00155
842.61040,0.00122
840.55022,0.00083
838.49005,0.00056
836.42988,0.00066
834.36971,0.00111
832.30954,0.00128
830.24936,0.00084
828.18919,0.00031
826.12902,0.00016
824.06885,0.00017
822.00867,0.00014
819.94850,0.00016
817.88833,0.00015
815.82816,0.00022
813.76799,0.00047
811.70781,0.00066
809.64764,0.00089
807.58747,0.00133
805.52730,0.00153
803.46713,0.00125
801.40695,0.00081
799.34678,0.00053
797.28661,0.00039
795.22644,0.00020
793.16627,0.00000
791.10609,0.00002
789.04592,0.00047
786.98575,0.00081
784.92558,0.00073
782.86540,0.00069
780.80523,0.00075
778.74506,0.00070
776.68489,0.00058
774.62472,0.00056
772.56454,0.00075
770.50437,0.00089
768.44420,0.00066
766.38403,0.00027
764.32386,0.00024
762.26368,0.00063
760.20351,0.00084
758.14334,0.00061
756.08317,0.00047
754.02299,0.00058
751.96282,0.00058
749.90265,0.00028
747.84248,0.00000
745.78231,-0.00006
743.72213,-0.00005
741.66196,-0.00015
739.60179,-0.00028
737.54162,-0.00013
735.48145,0.00030
733.42127,0.00034
731.36110,-0.00024
729.30093,-0.00088
727.24076,-0.00100
725.18059,-0.00066
723.12041,-0.00020
721.06024,0.00011
719.00007,-0.00007
716.93990,-0.00022
714.87972,0.00016
712.81955,0.00066
710.75938,0.00083
708.69921,0.00099
706.63904,0.00136
704.57886,0.00179
702.51869,0.00223
700.45852,0.00268
698.39835,0.00283
696.33818,0.00214
694.27800,0.00079
692.21783,0.00000
690.15766,0.00031
688.09749,0.00093
686.03731,0.00124
683.97714,0.00126
681.91697,0.00083
679.85680,0.00027
677.79663,0.00037
675.73645,0.00076
673.67628,0.00024
671.61611,-0.00121
669.55594,-0.00028
667.49577,0.00227
665.43559,0.00113
663.37542,0.00235
661.31525,0.00283
659.25508,0.00195
657.19491,0.00118
655.13473,0.00093
653.07456,0.00087
651.01439,0.00054
648.95422,0.00000
646.89404,-0.00007
644.83387,0.00091
642.77370,0.00152
640.71353,0.00115
638.65336,0.00057
636.59318,0.00057
634.53301,0.00079
632.47284,0.00049
630.41267,-0.00021
628.35250,-0.00098
626.29232,-0.00132
624.23215,-0.00035
622.17198,0.00087
620.11181,0.00039
618.05164,-0.00068
615.99146,-0.00038
613.93129,0.00035
611.87112,0.00051
609.81095,-0.00032
607.75077,-0.00230
605.69060,-0.00347
603.63043,-0.00224
601.57026,-0.00035
599.51009,0.00000
