3996.73391,0.00000
3994.67373,0.00026
3992.61356,0.00056
3990.55339,0.00085
3988.49322,0.00100
3986.43305,0.00094
3984.37287,0.00068
3982.31270,0.00039
3980.25253,0.00021
3978.19236,0.00020
3976.13219,0.00036
3974.07201,0.00069
3972.01184,0.00108
3969.95167,0.00134
3967.89150,0.00136
3965.83133,0.00115
3963.77115,0.00083
3961.71098,0.00056
3959.65081,0.00050
3957.59064,0.00065
3955.53046,0.00088
3953.47029,0.00102
3951.41012,0.00097
3949.34995,0.00080
3947.28978,0.00067
3945.22960,0.00071
3943.16943,0.00092
3941.10926,0.00122
3939.04909,0.00147
3936.98892,0.00159
3934.92874,0.00159
3932.86857,0.00145
3930.80840,0.00123
3928.74823,0.00105
3926.68805,0.00100
3924.62788,0.00102
3922.56771,0.00100
3920.50754,0.00086
3918.44737,0.00069
3916.38719,0.00061
3914.32702,0.00062
3912.26685,0.00068
3910.20668,0.00079
3908.14651,0.00093
3906.08633,0.00102
3904.02616,0.00098
3901.96599,0.00081
3899.90582,0.00058
3897.84565,0.00035
3895.78547,0.00013
3893.72530,0.00000
3891.66513,0.00013
3889.60496,0.00054
3887.54478,0.00099
3885.48461,0.00123
3883.42444,0.00120
3881.36427,0.00101
3879.30410,0.00084
3877.24392,0.00077
3875.18375,0.00070
3873.12358,0.00058
3871.06341,0.00049
3869.00324,0.00052
3866.94306,0.00062
3864.88289,0.00072
3862.82272,0.00086
3860.76255,0.00106
3858.70237,0.00123
3856.64220,0.00131
3854.58203,0.00127
3852.52186,0.00113
3850.46169,0.00095
3848.40151,0.00086
3846.34134,0.00090
3844.28117,0.00104
3842.22100,0.00122
3840.16083,0.00137
3838.10065,0.00147
3836.04048,0.00152
3833.98031,0.00155
3831.92014,0.00147
3829.85997,0.00121
3827.79979,0.00079
3825.73962,0.00034
3823.67945,0.00005
3821.61928,0.00000
3819.55910,0.00016
3817.49893,0.00039
3815.43876,0.00067
3813.37859,0.00101
3811.31842,0.00125
3809.25824,0.00131
3807.19807,0.00119
3805.13790,0.00101
3803.07773,0.00086
3801.01756,0.00089
3798.95738,0.00110
3796.89721,0.00135
3794.83704,0.00156
3792.77687,0.00170
3790.71670,0.00175
3788.65652,0.00170
3786.59635,0.00160
3784.53618,0.00145
3782.47601,0.00128
3780.41583,0.00112
3778.35566,0.00103
3776.29549,0.00103
3774.23532,0.00104
3772.17515,0.00099
3770.11497,0.00089
3768.05480,0.00087
3765.99463,0.00099
3763.93446,0.00117
3761.87429,0.00133
3759.81411,0.00141
3757.75394,0.00140
3755.69377,0.00131
3753.63360,0.00117
3751.57342,0.00110
3749.51325,0.00120
3747.45308,0.00134
3745.39291,0.00134
3743.33274,0.00129
3741.27256,0.00137
3739.21239,0.00152
3737.15222,0.00146
3735.09205,0.00106
3733.03188,0.00057
3730.97170,0.00026
3728.91153,0.00015
3726.85136,0.00017
3724.79119,0.00029
3722.73102,0.00053
3720.67084,0.00081
3718.61067,0.00097
3716.55050,0.00089
3714.49033,0.00063
3712.43015,0.00036
3710.36998,0.00031
3708.30981,0.00053
3706.24964,0.00082
3704.18947,0.00094
3702.12929,0.00092
3700.06912,0.00092
3698.00895,0.00097
3695.94878,0.00092
3693.88861,0.00075
3691.82843,0.00067
3689.76826,0.00084
3687.70809,0.00121
3685.64792,0.00151
3683.58775,0.00160
3681.52757,0.00147
3679.46740,0.00127
3677.40723,0.00122
3675.34706,0.00141
3673.28688,0.00170
3671.22671,0.00182
3669.16654,0.00170
3667.10637,0.00153
3665.04620,0.00139
3662.98602,0.00127
3660.92585,0.00110
3658.86568,0.00084
3656.80551,0.00062
3654.74534,0.00056
3652.68516,0.00058
3650.62499,0.00059
3648.56482,0.00071
3646.50465,0.00107
3644.44447,0.00147
3642.38430,0.00160
3640.32413,0.00143
3638.26396,0.00120
3636.20379,0.00112
3634.14361,0.00121
3632.08344,0.00136
3630.02327,0.00148
3627.96310,0.00155
3625.90293,0.00160
3623.84275,0.00164
3621.78258,0.00165
3619.72241,0.00168
3617.66224,0.00177
3615.60207,0.00187
3613.54189,0.00189
3611.48172,0.00184
3609.42155,0.00183
3607.36138,0.00191
3605.30120,0.00202
3603.24103,0.00210
3601.18086,0.00222
3599.12069,0.00246
3597.06052,0.00275
3595.00034,0.00289
3592.94017,0.00276
3590.88000,0.00238
3588.81983,0.00192
3586.75966,0.00175
3584.69948,0.00209
3582.63931,0.00274
3580.57914,0.00329
3578.51897,0.00344
3576.45879,0.00313
3574.39862,0.00257
3572.33845,0.00205
3570.27828,0.00172
3568.21811,0.00166
3566.15793,0.00192
3564.09776,0.00239
3562.03759,0.00284
3559.97742,0.00314
3557.91725,0.00330
3555.85707,0.00337
3553.79690,0.00343
3551.73673,0.00355
3549.67656,0.00372
3547.61639,0.00381
3545.55621,0.00380
3543.49604,0.00373
3541.43587,0.00367
3539.37570,0.00366
3537.31552,0.00376
3535.25535,0.00396
3533.19518,0.00417
3531.13501,0.00428
3529.07484,0.00427
3527.01466,0.00422
3524.95449,0.00418
3522.89432,0.00423
3520.83415,0.00445
3518.77398,0.00479
3516.71380,0.00507
3514.65363,0.00512
3512.59346,0.00494
3510.53329,0.00464
3508.47312,0.00437
3506.41294,0.00420
3504.35277,0.00417
3502.29260,0.00433
3500.23243,0.00468
3498.17225,0.00504
3496.11208,0.00529
3494.05191,0.00539
3491.99174,0.00541
3489.93157,0.00545
3487.87139,0.00557
3485.81122,0.00575
3483.75105,0.00593
3481.69088,0.00605
3479.63071,0.00607
3477.57053,0.00593
3475.51036,0.00565
3473.45019,0.00543
3471.39002,0.00540
3469.32984,0.00559
3467.26967,0.00584
3465.20950,0.00596
3463.14933,0.00595
3461.08916,0.00592
3459.02898,0.00600
3456.96881,0.00621
3454.90864,0.00651
3452.84847,0.00680
3450.78830,0.00697
3448.72812,0.00696
3446.66795,0.00684
3444.60778,0.00673
3442.54761,0.00667
3440.48744,0.00665
3438.42726,0.00668
3436.36709,0.00674
3434.30692,0.00681
3432.24675,0.00688
3430.18657,0.00695
3428.12640,0.00702
3426.06623,0.00711
3424.00606,0.00722
3421.94589,0.00732
3419.88571,0.00736
3417.82554,0.00735
3415.76537,0.00736
3413.70520,0.00740
3411.64503,0.00744
3409.58485,0.00742
3407.52468,0.00736
3405.46451,0.00733
3403.40434,0.00740
3401.34416,0.00748
3399.28399,0.00743
3397.22382,0.00722
3395.16365,0.00697
3393.10348,0.00683
3391.04330,0.00687
3388.98313,0.00704
3386.92296,0.00725
3384.86279,0.00745
3382.80262,0.00763
3380.74244,0.00777
3378.68227,0.00787
3376.62210,0.00793
3374.56193,0.00793
3372.50176,0.00790
3370.44158,0.00787
3368.38141,0.00788
3366.32124,0.00789
3364.26107,0.00786
3362.20089,0.00777
3360.14072,0.00771
3358.08055,0.00774
3356.02038,0.00780
3353.96021,0.00780
3351.90003,0.00776
3349.83986,0.00775
3347.77969,0.00781
3345.71952,0.00789
3343.65935,0.00797
3341.59917,0.00805
3339.53900,0.00812
3337.47883,0.00812
3335.41866,0.00803
3333.35849,0.00793
3331.29831,0.00795
3329.23814,0.00807
3327.17797,0.00819
3325.11780,0.00825
3323.05762,0.00823
3320.99745,0.00818
3318.93728,0.00813
3316.87711,0.00809
3314.81694,0.00810
3312.75676,0.00817
3310.69659,0.00830
3308.63642,0.00838
3306.57625,0.00839
3304.51608,0.00832
3302.45590,0.00819
3300.39573,0.00801
3298.33556,0.00789
3296.27539,0.00793
3294.21521,0.00813
3292.15504,0.00836
3290.09487,0.00850
3288.03470,0.00850
3285.97453,0.00839
3283.91435,0.00818
3281.85418,0.00794
3279.79401,0.00775
3277.73384,0.00764
3275.67367,0.00757
3273.61349,0.00752
3271.55332,0.00747
3269.49315,0.00746
3267.43298,0.00749
3265.37281,0.00757
3263.31263,0.00770
3261.25246,0.00787
3259.19229,0.00808
3257.13212,0.00821
3255.07194,0.00819
3253.01177,0.00806
3250.95160,0.00794
3248.89143,0.00788
3246.83126,0.00779
3244.77108,0.00763
3242.71091,0.00742
3240.65074,0.00726
3238.59057,0.00723
3236.53040,0.00731
3234.47022,0.00743
3232.41005,0.00751
3230.34988,0.00749
3228.28971,0.00739
3226.22954,0.00733
3224.16936,0.00742
3222.10919,0.00761
3220.04902,0.00778
3217.98885,0.00786
3215.92867,0.00786
3213.86850,0.00779
3211.80833,0.00769
3209.74816,0.00757
3207.68799,0.00747
3205.62781,0.00742
3203.56764,0.00745
3201.50747,0.00753
3199.44730,0.00758
3197.38713,0.00754
3195.32695,0.00739
3193.26678,0.00719
3191.20661,0.00704
3189.14644,0.00693
3187.08626,0.00683
3185.02609,0.00673
3182.96592,0.00663
3180.90575,0.00653
3178.84558,0.00645
3176.78540,0.00640
3174.72523,0.00640
3172.66506,0.00637
3170.60489,0.00632
3168.54472,0.00626
3166.48454,0.00624
3164.42437,0.00633
3162.36420,0.00655
3160.30403,0.00675
3158.24386,0.00680
3156.18368,0.00663
3154.12351,0.00630
3152.06334,0.00597
3150.00317,0.00580
3147.94299,0.00587
3145.88282,0.00604
3143.82265,0.00616
3141.76248,0.00616
3139.70231,0.00612
3137.64213,0.00609
3135.58196,0.00602
3133.52179,0.00588
3131.46162,0.00573
3129.40145,0.00560
3127.34127,0.00548
3125.28110,0.00536
3123.22093,0.00529
3121.16076,0.00529
3119.10058,0.00536
3117.04041,0.00548
3114.98024,0.00561
3112.92007,0.00568
3110.85990,0.00565
3108.79972,0.00552
3106.73955,0.00533
3104.67938,0.00516
3102.61921,0.00508
3100.55904,0.00508
3098.49886,0.00511
3096.43869,0.00511
3094.37852,0.00502
3092.31835,0.00484
3090.25818,0.00465
3088.19800,0.00456
3086.13783,0.00460
3084.07766,0.00469
3082.01749,0.00472
3079.95731,0.00468
3077.89714,0.00468
3075.83697,0.00481
3073.77680,0.00500
3071.71663,0.00517
3069.65645,0.00526
3067.59628,0.00523
3065.53611,0.00508
3063.47594,0.00485
3061.41577,0.00459
3059.35559,0.00437
3057.29542,0.00425
3055.23525,0.00423
3053.17508,0.00427
3051.11491,0.00430
3049.05473,0.00430
3046.99456,0.00427
3044.93439,0.00419
3042.87422,0.00412
3040.81404,0.00411
3038.75387,0.00414
3036.69370,0.00421
3034.63353,0.00432
3032.57336,0.00448
3030.51318,0.00460
3028.45301,0.00458
3026.39284,0.00446
3024.33267,0.00431
3022.27250,0.00417
3020.21232,0.00404
3018.15215,0.00396
3016.09198,0.00395
3014.03181,0.00403
3011.97163,0.00415
3009.91146,0.00419
3007.85129,0.00408
3005.79112,0.00388
3003.73095,0.00373
3001.67077,0.00372
2999.61060,0.00387
2997.55043,0.00412
2995.49026,0.00423
2993.43009,0.00413
2991.36991,0.00397
2989.30974,0.00394
2987.24957,0.00392
2985.18940,0.00380
2983.12923,0.00368
2981.06905,0.00364
2979.00888,0.00354
2976.94871,0.00344
2974.88854,0.00360
2972.82836,0.00397
2970.76819,0.00414
2968.70802,0.00411
2966.64785,0.00419
2964.58768,0.00431
2962.52750,0.00430
2960.46733,0.00419
2958.40716,0.00415
2956.34699,0.00422
2954.28682,0.00439
2952.22664,0.00461
2950.16647,0.00481
2948.10630,0.00493
2946.04613,0.00502
2943.98596,0.00517
2941.92578,0.00531
2939.86561,0.00538
2937.80544,0.00545
2935.74527,0.00553
2933.68509,0.00557
2931.62492,0.00557
2929.56475,0.00553
2927.50458,0.00546
2925.44441,0.00534
2923.38423,0.00517
2921.32406,0.00500
2919.26389,0.00486
2917.20372,0.00472
2915.14355,0.00469
2913.08337,0.00485
2911.02320,0.00499
2908.96303,0.00501
2906.90286,0.00493
2904.84268,0.00472
2902.78251,0.00444
2900.72234,0.00429
2898.66217,0.00435
2896.60200,0.00451
2894.54182,0.00457
2892.48165,0.00449
2890.42148,0.00443
2888.36131,0.00440
2886.30114,0.00431
2884.24096,0.00422
2882.18079,0.00430
2880.12062,0.00450
2878.06045,0.00466
2876.00028,0.00472
2873.94010,0.00466
2871.87993,0.00454
2869.81976,0.00451
2867.75959,0.00460
2865.69941,0.00465
2863.63924,0.00454
2861.57907,0.00431
2859.51890,0.00417
2857.45873,0.00414
2855.39855,0.00409
2853.33838,0.00399
2851.27821,0.00395
2849.21804,0.00399
2847.15787,0.00399
2845.09769,0.00389
2843.03752,0.00373
2840.97735,0.00362
2838.91718,0.00360
2836.85700,0.00357
2834.79683,0.00354
2832.73666,0.00356
2830.67649,0.00361
2828.61632,0.00365
2826.55614,0.00366
2824.49597,0.00358
2822.43580,0.00344
2820.37563,0.00337
2818.31546,0.00339
2816.25528,0.00339
2814.19511,0.00332
2812.13494,0.00323
2810.07477,0.00322
2808.01460,0.00338
2805.95442,0.00360
2803.89425,0.00367
2801.83408,0.00362
2799.77391,0.00368
2797.71373,0.00386
2795.65356,0.00389
2793.59339,0.00372
2791.53322,0.00354
2789.47305,0.00341
2787.41287,0.00332
2785.35270,0.00333
2783.29253,0.00340
2781.23236,0.00339
2779.17219,0.00326
2777.11201,0.00319
2775.05184,0.00330
2772.99167,0.00347
2770.93150,0.00360
2768.87133,0.00365
2766.81115,0.00360
2764.75098,0.00349
2762.69081,0.00343
2760.63064,0.00347
2758.57046,0.00349
2756.51029,0.00347
2754.45012,0.00352
2752.38995,0.00359
2750.32978,0.00358
2748.26960,0.00351
2746.20943,0.00352
2744.14926,0.00360
2742.08909,0.00363
2740.02892,0.00355
2737.96874,0.00340
2735.90857,0.00328
2733.84840,0.00320
2731.78823,0.00320
2729.72805,0.00331
2727.66788,0.00345
2725.60771,0.00351
2723.54754,0.00348
2721.48737,0.00343
2719.42719,0.00343
2717.36702,0.00355
2715.30685,0.00366
2713.24668,0.00354
2711.18651,0.00320
2709.12633,0.00291
2707.06616,0.00288
2705.00599,0.00307
2702.94582,0.00326
2700.88565,0.00324
2698.82547,0.00306
2696.76530,0.00299
2694.70513,0.00311
2692.64496,0.00325
2690.58478,0.00324
2688.52461,0.00315
2686.46444,0.00313
2684.40427,0.00321
2682.34410,0.00328
2680.28392,0.00325
2678.22375,0.00321
2676.16358,0.00324
2674.10341,0.00334
2672.04324,0.00343
2669.98306,0.00346
2667.92289,0.00343
2665.86272,0.00343
2663.80255,0.00354
2661.74238,0.00370
2659.68220,0.00371
2657.62203,0.00350
2655.56186,0.00323
2653.50169,0.00302
2651.44151,0.00296
2649.38134,0.00313
2647.32117,0.00332
2645.26100,0.00339
2643.20083,0.00346
2641.14065,0.00363
2639.08048,0.00371
2637.02031,0.00357
2634.96014,0.00341
2632.89997,0.00340
2630.83979,0.00343
2628.77962,0.00340
2626.71945,0.00328
2624.65928,0.00318
2622.59910,0.00318
2620.53893,0.00323
2618.47876,0.00319
2616.41859,0.00308
2614.35842,0.00298
2612.29824,0.00298
2610.23807,0.00317
2608.17790,0.00341
2606.11773,0.00347
2604.05756,0.00346
2601.99738,0.00357
2599.93721,0.00361
2597.87704,0.00343
2595.81687,0.00325
2593.75670,0.00321
2591.69652,0.00320
2589.63635,0.00322
2587.57618,0.00331
2585.51601,0.00344
2583.45583,0.00359
2581.39566,0.00377
2579.33549,0.00370
2577.27532,0.00325
2575.21515,0.00277
2573.15497,0.00259
2571.09480,0.00264
2569.03463,0.00272
2566.97446,0.00278
2564.91429,0.00292
2562.85411,0.00318
2560.79394,0.00341
2558.73377,0.00339
2556.67360,0.00318
2554.61342,0.00304
2552.55325,0.00304
2550.49308,0.00315
2548.43291,0.00329
2546.37274,0.00324
2544.31256,0.00285
2542.25239,0.00244
2540.19222,0.00241
2538.13205,0.00272
2536.07188,0.00308
2534.01170,0.00337
2531.95153,0.00350
2529.89136,0.00344
2527.83119,0.00338
2525.77102,0.00339
2523.71084,0.00337
2521.65067,0.00343
2519.59050,0.00362
2517.53033,0.00365
2515.47015,0.00333
2513.40998,0.00282
2511.34981,0.00251
2509.28964,0.00264
2507.22947,0.00293
2505.16929,0.00300
2503.10912,0.00293
2501.04895,0.00299
2498.98878,0.00312
2496.92861,0.00307
2494.86843,0.00279
2492.80826,0.00262
2490.74809,0.00276
2488.68792,0.00307
2486.62775,0.00338
2484.56757,0.00348
2482.50740,0.00321
2480.44723,0.00287
2478.38706,0.00291
2476.32688,0.00325
2474.26671,0.00329
2472.20654,0.00289
2470.14637,0.00248
2468.08620,0.00241
2466.02602,0.00263
2463.96585,0.00283
2461.90568,0.00279
2459.84551,0.00251
2457.78534,0.00226
2455.72516,0.00234
2453.66499,0.00259
2451.60482,0.00282
2449.54465,0.00316
2447.48447,0.00340
2445.42430,0.00330
2443.36413,0.00303
2441.30396,0.00278
2439.24379,0.00265
2437.18361,0.00264
2435.12344,0.00255
2433.06327,0.00234
2431.00310,0.00236
2428.94293,0.00289
2426.88275,0.00347
2424.82258,0.00356
2422.76241,0.00322
2420.70224,0.00280
2418.64207,0.00255
2416.58189,0.00253
2414.52172,0.00261
2412.46155,0.00274
2410.40138,0.00298
2408.34120,0.00314
2406.28103,0.00306
2404.22086,0.00286
2402.16069,0.00276
2400.10052,0.00282
2398.04034,0.00289
2395.98017,0.00288
2393.92000,0.00281
2391.85983,0.00272
2389.79966,0.00267
2387.73948,0.00265
2385.67931,0.00266
2383.61914,0.00267
2381.55897,0.00261
2379.49880,0.00248
2377.43862,0.00226
2375.37845,0.00186
2373.31828,0.00117
2371.25811,0.00038
2369.19793,0.00000
2367.13776,0.00047
2365.07759,0.00175
2363.01742,0.00319
2360.95725,0.00413
2358.89707,0.00435
2356.83690,0.00389
2354.77673,0.00311
2352.71656,0.00254
2350.65639,0.00238
2348.59621,0.00243
2346.53604,0.00244
2344.47587,0.00238
2342.41570,0.00237
2340.35552,0.00242
2338.29535,0.00251
2336.23518,0.00274
2334.17501,0.00309
2332.11484,0.00338
2330.05466,0.00345
2327.99449,0.00335
2325.93432,0.00316
2323.87415,0.00288
2321.81398,0.00265
2319.75380,0.00265
2317.69363,0.00286
2315.63346,0.00318
2313.57329,0.00344
2311.51312,0.00345
2309.45294,0.00319
2307.39277,0.00287
2305.33260,0.00273
2303.27243,0.00284
2301.21225,0.00311
2299.15208,0.00344
2297.09191,0.00375
2295.03174,0.00394
2292.97157,0.00405
2290.91139,0.00416
2288.85122,0.00432
2286.79105,0.00436
2284.73088,0.00410
2282.67071,0.00361
2280.61053,0.00309
2278.55036,0.00273
2276.49019,0.00260
2274.43002,0.00263
2272.36984,0.00269
2270.30967,0.00268
2268.24950,0.00267
2266.18933,0.00278
2264.12916,0.00295
2262.06898,0.00294
2260.00881,0.00272
2257.94864,0.00253
2255.88847,0.00256
2253.82830,0.00268
2251.76812,0.00261
2249.70795,0.00237
2247.64778,0.00217
2245.58761,0.00213
2243.52744,0.00233
2241.46726,0.00280
2239.40709,0.00317
2237.34692,0.00326
2235.28675,0.00316
2233.22657,0.00289
2231.16640,0.00243
2229.10623,0.00202
2227.04606,0.00220
2224.98589,0.00299
2222.92571,0.00373
2220.86554,0.00374
2218.80537,0.00278
2216.74520,0.00146
2214.68503,0.00112
2212.62485,0.00218
2210.56468,0.00340
2208.50451,0.00355
2206.44434,0.00304
2204.38417,0.00266
2202.32399,0.00199
2200.26382,0.00083
2198.20365,0.00036
2196.14348,0.00140
2194.08330,0.00283
2192.02313,0.00293
2189.96296,0.00176
2187.90279,0.00084
2185.84262,0.00096
2183.78244,0.00202
2181.72227,0.00348
2179.66210,0.00428
2177.60193,0.00379
2175.54176,0.00270
2173.48158,0.00242
2171.42141,0.00349
2169.36124,0.00507
2167.30107,0.00583
2165.24089,0.00474
2163.18072,0.00217
2161.12055,0.00009
2159.06038,0.00000
2157.00021,0.00114
2154.94003,0.00185
2152.87986,0.00184
2150.81969,0.00164
2148.75952,0.00125
2146.69935,0.00097
2144.63917,0.00133
2142.57900,0.00201
2140.51883,0.00237
2138.45866,0.00225
2136.39849,0.00179
2134.33831,0.00113
2132.27814,0.00074
2130.21797,0.00079
2128.15780,0.00094
2126.09762,0.00115
2124.03745,0.00168
2121.97728,0.00247
2119.91711,0.00290
2117.85694,0.00256
2115.79676,0.00197
2113.73659,0.00192
2111.67642,0.00238
2109.61625,0.00279
2107.55608,0.00309
2105.49590,0.00332
2103.43573,0.00329
2101.37556,0.00299
2099.31539,0.00277
2097.25521,0.00275
2095.19504,0.00282
2093.13487,0.00277
2091.07470,0.00258
2089.01453,0.00239
2086.95435,0.00237
2084.89418,0.00260
2082.83401,0.00302
2080.77384,0.00339
2078.71367,0.00345
2076.65349,0.00319
2074.59332,0.00293
2072.53315,0.00299
2070.47298,0.00325
2068.41281,0.00328
2066.35263,0.00288
2064.29246,0.00226
2062.23229,0.00174
2060.17212,0.00159
2058.11194,0.00186
2056.05177,0.00237
2053.99160,0.00291
2051.93143,0.00340
2049.87126,0.00380
2047.81108,0.00405
2045.75091,0.00417
2043.69074,0.00428
2041.63057,0.00429
2039.57040,0.00400
2037.51022,0.00333
2035.45005,0.00245
2033.38988,0.00175
2031.32971,0.00163
2029.26954,0.00204
2027.20936,0.00253
2025.14919,0.00274
2023.08902,0.00266
2021.02885,0.00257
2018.96867,0.00257
2016.90850,0.00239
2014.84833,0.00167
2012.78816,0.00066
2010.72799,0.00000
2008.66781,0.00010
2006.60764,0.00068
2004.54747,0.00123
2002.48730,0.00161
2000.42713,0.00205
1998.36695,0.00262
1996.30678,0.00296
1994.24661,0.00270
1992.18644,0.00210
1990.12626,0.00177
1988.06609,0.00188
1986.00592,0.00199
1983.94575,0.00188
1981.88558,0.00171
1979.82540,0.00163
1977.76523,0.00163
1975.70506,0.00164
1973.64489,0.00167
1971.58472,0.00181
1969.52454,0.00209
1967.46437,0.00239
1965.40420,0.00251
1963.34403,0.00241
1961.28386,0.00221
1959.22368,0.00200
1957.16351,0.00178
1955.10334,0.00151
1953.04317,0.00120
1950.98299,0.00089
1948.92282,0.00079
1946.86265,0.00105
1944.80248,0.00151
1942.74231,0.00182
1940.68213,0.00177
1938.62196,0.00148
1936.56179,0.00122
1934.50162,0.00116
1932.44145,0.00129
1930.38127,0.00145
1928.32110,0.00150
1926.26093,0.00145
1924.20076,0.00142
1922.14059,0.00151
1920.08041,0.00167
1918.02024,0.00189
1915.96007,0.00214
1913.89990,0.00226
1911.83972,0.00213
1909.77955,0.00174
1907.71938,0.00130
1905.65921,0.00111
1903.59904,0.00134
1901.53886,0.00181
1899.47869,0.00216
1897.41852,0.00214
1895.35835,0.00180
1893.29818,0.00138
1891.23800,0.00105
1889.17783,0.00087
1887.11766,0.00091
1885.05749,0.00111
1882.99731,0.00128
1880.93714,0.00131
1878.87697,0.00127
1876.81680,0.00131
1874.75663,0.00146
1872.69645,0.00162
1870.63628,0.00170
1868.57611,0.00160
1866.51594,0.00134
1864.45577,0.00105
1862.39559,0.00092
1860.33542,0.00099
1858.27525,0.00122
1856.21508,0.00148
1854.15491,0.00162
1852.09473,0.00155
1850.03456,0.00132
1847.97439,0.00111
1845.91422,0.00104
1843.85404,0.00113
1841.79387,0.00129
1839.73370,0.00141
1837.67353,0.00136
1835.61336,0.00115
1833.55318,0.00091
1831.49301,0.00083
1829.43284,0.00101
1827.37267,0.00129
1825.31250,0.00148
1823.25232,0.00153
1821.19215,0.00147
1819.13198,0.00134
1817.07181,0.00112
1815.01163,0.00088
1812.95146,0.00076
1810.89129,0.00085
1808.83112,0.00104
1806.77095,0.00118
1804.71077,0.00120
1802.65060,0.00116
1800.59043,0.00115
1798.53026,0.00116
1796.47009,0.00114
1794.40991,0.00103
1792.34974,0.00090
1790.28957,0.00089
1788.22940,0.00097
1786.16923,0.00105
1784.10905,0.00104
1782.04888,0.00097
1779.98871,0.00091
1777.92854,0.00083
1775.86836,0.00070
1773.80819,0.00056
1771.74802,0.00055
1769.68785,0.00071
1767.62768,0.00096
1765.56750,0.00113
1763.50733,0.00115
1761.44716,0.00111
1759.38699,0.00111
1757.32682,0.00117
1755.26664,0.00120
1753.20647,0.00108
1751.14630,0.00083
1749.08613,0.00068
1747.02596,0.00077
1744.96578,0.00104
1742.90561,0.00135
1740.84544,0.00168
1738.78527,0.00200
1736.72509,0.00225
1734.66492,0.00234
1732.60475,0.00234
1730.54458,0.00232
1728.48441,0.00233
1726.42423,0.00232
1724.36406,0.00221
1722.30389,0.00196
1720.24372,0.00157
1718.18355,0.00118
1716.12337,0.00105
1714.06320,0.00122
1712.00303,0.00148
1709.94286,0.00160
1707.88268,0.00156
1705.82251,0.00147
1703.76234,0.00143
1701.70217,0.00140
1699.64200,0.00137
1697.58182,0.00145
1695.52165,0.00167
1693.46148,0.00195
1691.40131,0.00212
1689.34114,0.00213
1687.28096,0.00199
1685.22079,0.00181
1683.16062,0.00177
1681.10045,0.00191
1679.04028,0.00206
1676.98010,0.00209
1674.91993,0.00205
1672.85976,0.00208
1670.79959,0.00221
1668.73941,0.00245
1666.67924,0.00272
1664.61907,0.00289
1662.55890,0.00295
1660.49873,0.00294
1658.43855,0.00286
1656.37838,0.00264
1654.31821,0.00236
1652.25804,0.00224
1650.19787,0.00242
1648.13769,0.00277
1646.07752,0.00322
1644.01735,0.00365
1641.95718,0.00392
1639.89701,0.00396
1637.83683,0.00383
1635.77666,0.00369
1633.71649,0.00372
1631.65632,0.00390
1629.59614,0.00407
1627.53597,0.00414
1625.47580,0.00417
1623.41563,0.00419
1621.35546,0.00419
1619.29528,0.00416
1617.23511,0.00414
1615.17494,0.00420
1613.11477,0.00431
1611.05460,0.00438
1608.99442,0.00439
1606.93425,0.00439
1604.87408,0.00438
1602.81391,0.00431
1600.75373,0.00417
1598.69356,0.00398
1596.63339,0.00378
1594.57322,0.00362
1592.51305,0.00352
1590.45287,0.00343
1588.39270,0.00329
1586.33253,0.00307
1584.27236,0.00281
1582.21219,0.00256
1580.15201,0.00237
1578.09184,0.00222
1576.03167,0.00211
1573.97150,0.00198
1571.91133,0.00183
1569.85115,0.00172
1567.79098,0.00170
1565.73081,0.00168
1563.67064,0.00148
1561.61046,0.00106
1559.55029,0.00060
1557.49012,0.00042
1555.42995,0.00057
1553.36978,0.00088
1551.30960,0.00113
1549.24943,0.00121
1547.18926,0.00107
1545.12909,0.00075
1543.06892,0.00043
1541.00874,0.00031
1538.94857,0.00047
1536.88840,0.00074
1534.82823,0.00093
1532.76805,0.00097
1530.70788,0.00089
1528.64771,0.00069
1526.58754,0.00043
1524.52737,0.00019
1522.46719,0.00003
1520.40702,0.00000
1518.34685,0.00008
1516.28668,0.00027
1514.22651,0.00050
1512.16633,0.00065
1510.10616,0.00065
1508.04599,0.00065
1505.98582,0.00081
1503.92565,0.00108
1501.86547,0.00124
1499.80530,0.00121
1497.74513,0.00106
1495.68496,0.00093
1493.62478,0.00087
1491.56461,0.00088
1489.50444,0.00100
1487.44427,0.00121
1485.38410,0.00141
1483.32392,0.00149
1481.26375,0.00150
1479.20358,0.00151
1477.14341,0.00150
1475.08324,0.00145
1473.02306,0.00144
1470.96289,0.00159
1468.90272,0.00183
1466.84255,0.00207
1464.78238,0.00224
1462.72220,0.00232
1460.66203,0.00229
1458.60186,0.00223
1456.54169,0.00227
1454.48151,0.00244
1452.42134,0.00262
1450.36117,0.00274
1448.30100,0.00279
1446.24083,0.00284
1444.18065,0.00288
1442.12048,0.00287
1440.06031,0.00282
1438.00014,0.00276
1435.93997,0.00277
1433.87979,0.00289
1431.81962,0.00307
1429.75945,0.00327
1427.69928,0.00342
1425.63910,0.00352
1423.57893,0.00355
1421.51876,0.00353
1419.45859,0.00352
1417.39842,0.00359
1415.33824,0.00372
1413.27807,0.00384
1411.21790,0.00387
1409.15773,0.00381
1407.09756,0.00369
1405.03738,0.00358
1402.97721,0.00351
1400.91704,0.00345
1398.85687,0.00340
1396.79670,0.00340
1394.73652,0.00343
1392.67635,0.00342
1390.61618,0.00336
1388.55601,0.00328
1386.49583,0.00324
1384.43566,0.00324
1382.37549,0.00327
1380.31532,0.00334
1378.25515,0.00344
1376.19497,0.00355
1374.13480,0.00369
1372.07463,0.00383
1370.01446,0.00392
1367.95429,0.00390
1365.89411,0.00378
1363.83394,0.00357
1361.77377,0.00340
1359.71360,0.00335
1357.65343,0.00340
1355.59325,0.00347
1353.53308,0.00348
1351.47291,0.00344
1349.41274,0.00333
1347.35256,0.00318
1345.29239,0.00302
1343.23222,0.00288
1341.17205,0.00280
1339.11188,0.00280
1337.05170,0.00287
1334.99153,0.00299
1332.93136,0.00310
1330.87119,0.00318
1328.81102,0.00322
1326.75084,0.00323
1324.69067,0.00323
1322.63050,0.00322
1320.57033,0.00321
1318.51015,0.00316
1316.44998,0.00307
1314.38981,0.00297
1312.32964,0.00295
1310.26947,0.00299
1308.20929,0.00304
1306.14912,0.00301
1304.08895,0.00292
1302.02878,0.00279
1299.96861,0.00267
1297.90843,0.00262
1295.84826,0.00262
1293.78809,0.00264
1291.72792,0.00266
1289.66775,0.00268
1287.60757,0.00272
1285.54740,0.00272
1283.48723,0.00267
1281.42706,0.00256
1279.36688,0.00244
1277.30671,0.00235
1275.24654,0.00234
1273.18637,0.00242
1271.12620,0.00253
1269.06602,0.00260
1267.00585,0.00267
1264.94568,0.00278
1262.88551,0.00293
1260.82534,0.00311
1258.76516,0.00328
1256.70499,0.00340
1254.64482,0.00344
1252.58465,0.00339
1250.52447,0.00332
1248.46430,0.00329
1246.40413,0.00335
1244.34396,0.00348
1242.28379,0.00358
1240.22361,0.00362
1238.16344,0.00359
1236.10327,0.00350
1234.04310,0.00335
1231.98293,0.00320
1229.92275,0.00307
1227.86258,0.00293
1225.80241,0.00275
1223.74224,0.00253
1221.68207,0.00231
1219.62189,0.00216
1217.56172,0.00208
1215.50155,0.00204
1213.44138,0.00197
1211.38120,0.00183
1209.32103,0.00163
1207.26086,0.00143
1205.20069,0.00128
1203.14052,0.00116
1201.08034,0.00104
1199.02017,0.00083
1196.96000,0.00054
1194.89983,0.00038
1192.83966,0.00041
1190.77948,0.00047
1188.71931,0.00041
1186.65914,0.00025
1184.59897,0.00010
1182.53880,0.00000
1180.47862,0.00005
1178.41845,0.00033
1176.35828,0.00072
1174.29811,0.00110
1172.23793,0.00145
1170.17776,0.00174
1168.11759,0.00189
1166.05742,0.00198
1163.99725,0.00219
1161.93707,0.00252
1159.87690,0.00282
1157.81673,0.00302
1155.75656,0.00320
1153.69639,0.00349
1151.63621,0.00387
1149.57604,0.00424
1147.51587,0.00441
1145.45570,0.00431
1143.39552,0.00417
1141.33535,0.00423
1139.27518,0.00448
1137.21501,0.00475
1135.15484,0.00494
1133.09466,0.00502
1131.03449,0.00503
1128.97432,0.00512
1126.91415,0.00542
1124.85398,0.00580
1122.79380,0.00607
1120.73363,0.00624
1118.67346,0.00643
1116.61329,0.00668
1114.55312,0.00703
1112.49294,0.00748
1110.43277,0.00798
1108.37260,0.00835
1106.31243,0.00851
1104.25225,0.00859
1102.19208,0.00876
1100.13191,0.00911
1098.07174,0.00966
1096.01157,0.01039
1093.95139,0.01105
1091.89122,0.01146
1089.83105,0.01172
1087.77088,0.01203
1085.71071,0.01239
1083.65053,0.01275
1081.59036,0.01309
1079.53019,0.01351
1077.47002,0.01411
1075.40985,0.01469
1073.34967,0.01496
1071.28950,0.01500
1069.22933,0.01511
1067.16916,0.01534
1065.10898,0.01550
1063.04881,0.01552
1060.98864,0.01552
1058.92847,0.01574
1056.86830,0.01601
1054.80812,0.01602
1052.74795,0.01588
1050.68778,0.01588
1048.62761,0.01608
1046.56744,0.01631
1044.50726,0.01652
1042.44709,0.01687
1040.38692,0.01727
1038.32675,0.01749
1036.26657,0.01752
1034.20640,0.01741
1032.14623,0.01719
1030.08606,0.01684
1028.02589,0.01637
1025.96571,0.01597
1023.90554,0.01587
1021.84537,0.01596
1019.78520,0.01595
1017.72503,0.01568
1015.66485,0.01533
1013.60468,0.01515
1011.54451,0.01507
1009.48434,0.01492
1007.42417,0.01473
1005.36399,0.01444
1003.30382,0.01400
1001.24365,0.01357
999.18348,0.01324
997.12330,0.01285
995.06313,0.01243
993.00296,0.01219
990.94279,0.01208
988.88262,0.01198
986.82244,0.01182
984.76227,0.01164
982.70210,0.01151
980.64193,0.01138
978.58176,0.01119
976.52158,0.01093
974.46141,0.01053
972.40124,0.01001
970.34107,0.00957
968.28089,0.00928
966.22072,0.00898
964.16055,0.00870
962.10038,0.00868
960.04021,0.00869
957.98003,0.00835
955.91986,0.00786
953.85969,0.00752
951.79952,0.00736
949.73935,0.00721
947.67917,0.00697
945.61900,0.00670
943.55883,0.00634
941.49866,0.00577
939.43849,0.00512
937.37831,0.00465
935.31814,0.00429
933.25797,0.00394
931.19780,0.00349
929.13762,0.00294
927.07745,0.00239
925.01728,0.00200
922.95711,0.00191
920.89694,0.00202
918.83676,0.00211
916.77659,0.00207
914.71642,0.00194
912.65625,0.00187
910.59608,0.00189
908.53590,0.00194
906.47573,0.00190
904.41556,0.00177
902.35539,0.00162
900.29522,0.00140
898.23504,0.00114
896.17487,0.00111
894.11470,0.00145
892.05453,0.00183
889.99435,0.00180
887.93418,0.00149
885.87401,0.00136
883.81384,0.00150
881.75367,0.00169
879.69349,0.00181
877.63332,0.00176
875.57315,0.00162
873.51298,0.00159
871.45281,0.00166
869.39263,0.00172
867.33246,0.00181
865.27229,0.00198
863.21212,0.00207
861.15194,0.00186
859.09177,0.00139
857.03160,0.00110
854.97143,0.00118
852.91126,0.00129
850.85108,0.00123
848.79091,0.00130
846.73074,0.00153
844.67057,0.00157
842.61040,0.00135
840.55022,0.00105
838.49005,0.00097
836.42988,0.00114
834.36971,0.00126
832.30954,0.00113
830.24936,0.00081
828.18919,0.00050
826.12902,0.00040
824.06885,0.00040
822.00867,0.00047
819.94850,0.00066
817.88833,0.00078
815.82816,0.00062
813.76799,0.00035
811.70781,0.00039
809.64764,0.00071
807.58747,0.00095
805.52730,0.00096
803.46713,0.00084
801.40695,0.00058
799.34678,0.00018
797.28661,0.00000
795.22644,0.00028
793.16627,0.00069
791.10609,0.00073
789.04592,0.00047
786.98575,0.00020
784.92558,0.00006
782.86540,-0.00004
780.80523,-0.00020
778.74506,-0.00026
776.68489,-0.00008
774.62472,0.00026
772.56454,0.00052
770.50437,0.00045
768.44420,0.00007
766.38403,-0.00031
764.32386,-0.00046
762.26368,-0.00041
760.20351,-0.00011
758.14334,0.00047
756.08317,0.00095
754.02299,0.00102
751.96282,0.00086
749.90265,0.00093
747.84248,0.00119
745.78231,0.00107
743.72213,0.00058
741.66196,0.00044
739.60179,0.00077
737.54162,0.00091
735.48145,0.00052
733.42127,0.00002
731.36110,-0.00006
729.30093,0.00013
727.24076,0.00015
725.18059,-0.00009
723.12041,-0.00033
721.06024,-0.00038
719.00007,-0.00017
716.93990,0.00026
714.87972,0.00082
712.81955,0.00146
710.75938,0.00211
708.69921,0.00258
706.63904,0.00265
704.57886,0.00235
702.51869,0.00192
700.45852,0.00163
698.39835,0.00148
696.33818,0.00128
694.27800,0.00090
692.21783,0.00054
690.15766,0.00053
688.09749,0.00107
686.03731,0.00193
683.97714,0.00259
681.91697,0.00276
679.85680,0.00256
677.79663,0.00213
675.73645,0.00167
673.67628,0.00167
671.61611,0.00251
669.55594,0.00385
667.49577,0.00486
665.43559,0.00503
663.37542,0.00445
661.31525,0.00346
659.25508,0.00225
657.19491,0.00094
655.13473,-0.00019
653.07456,-0.00071
651.01439,-0.00055
648.95422,0.00000
646.89404,0.00059
644.83387,0.00109
642.77370,0.00119
640.71353,0.00081
638.65336,0.00022
636.59318,-0.00013
634.53301,0.00023
632.47284,0.00154
630.41267,0.00357
628.35250,0.00564
626.29232,0.00664
624.23215,0.00549
622.17198,0.00395
620.11181,0.00404
618.05164,0.00497
615.99146,0.00538
613.93129,0.00505
611.87112,0.00433
609.81095,0.00333
607.75077,0.00231
605.69060,0.00208
603.63043,0.00194
601.57026,0.00101
599.51009,0.00000
