3996.73391,0.00000
3994.67373,0.00024
3992.61356,0.00035
3990.55339,0.00030
3988.49322,0.00020
3986.43305,0.00019
3984.37287,0.00025
3982.31270,0.00027
3980.25253,0.00019
3978.19236,0.00011
3976.13219,0.00014
3974.07201,0.00028
3972.01184,0.00042
3969.95167,0.00046
3967.89150,0.00048
3965.83133,0.00058
3963.77115,0.00075
3961.71098,0.00078
3959.65081,0.00059
3957.59064,0.00035
3955.53046,0.00028
3953.47029,0.00036
3951.41012,0.00041
3949.34995,0.00042
3947.28978,0.00051
3945.22960,0.00071
3943.16943,0.00101
3941.10926,0.00132
3939.04909,0.00159
3936.98892,0.00173
3934.92874,0.00170
3932.86857,0.00154
3930.80840,0.00136
3928.74823,0.00126
3926.68805,0.00124
3924.62788,0.00120
3922.56771,0.00104
3920.50754,0.00076
3918.44737,0.00042
3916.38719,0.00016
3914.32702,0.00011
3912.26685,0.00032
3910.20668,0.00072
3908.14651,0.00114
3906.08633,0.00137
3904.02616,0.00129
3901.96599,0.00102
3899.90582,0.00077
3897.84565,0.00059
3895.78547,0.00050
3893.72530,0.00063
3891.66513,0.00103
3889.60496,0.00149
3887.54478,0.00177
3885.48461,0.00177
3883.42444,0.00152
3881.36427,0.00115
3879.30410,0.00077
3877.24392,0.00047
3875.18375,0.00042
3873.12358,0.00071
3871.06341,0.00123
3869.00324,0.00163
3866.94306,0.00169
3864.88289,0.00141
3862.82272,0.00094
3860.76255,0.00053
3858.70237,0.00047
3856.64220,0.00083
3854.58203,0.00138
3852.52186,0.00163
3850.46169,0.00136
3848.40151,0.00099
3846.34134,0.00097
3844.28117,0.00136
3842.22100,0.00189
3840.16083,0.00227
3838.10065,0.00235
3836.04048,0.00208
3833.98031,0.00157
3831.92014,0.00106
3829.85997,0.00080
3827.79979,0.00084
3825.73962,0.00105
3823.67945,0.00123
3821.61928,0.00126
3819.55910,0.00112
3817.49893,0.00093
3815.43876,0.00079
3813.37859,0.00071
3811.31842,0.00075
3809.25824,0.00096
3807.19807,0.00132
3805.13790,0.00178
3803.07773,0.00222
3801.01756,0.00238
3798.95738,0.00215
3796.89721,0.00174
3794.83704,0.00146
3792.77687,0.00142
3790.71670,0.00155
3788.65652,0.00171
3786.59635,0.00180
3784.53618,0.00178
3782.47601,0.00164
3780.41583,0.00139
3778.35566,0.00111
3776.29549,0.00099
3774.23532,0.00120
3772.17515,0.00170
3770.11497,0.00219
3768.05480,0.00230
3765.99463,0.00196
3763.93446,0.00145
3761.87429,0.00116
3759.81411,0.00121
3757.75394,0.00148
3755.69377,0.00174
3753.63360,0.00179
3751.57342,0.00159
3749.51325,0.00127
3747.45308,0.00097
3745.39291,0.00083
3743.33274,0.00100
3741.27256,0.00143
3739.21239,0.00184
3737.15222,0.00203
3735.09205,0.00207
3733.03188,0.00215
3730.97170,0.00227
3728.91153,0.00228
3726.85136,0.00208
3724.79119,0.00176
3722.73102,0.00141
3720.67084,0.00110
3718.61067,0.00096
3716.55050,0.00107
3714.49033,0.00143
3712.43015,0.00186
3710.36998,0.00208
3708.30981,0.00185
3706.24964,0.00133
3704.18947,0.00096
3702.12929,0.00106
3700.06912,0.00157
3698.00895,0.00217
3695.94878,0.00258
3693.88861,0.00274
3691.82843,0.00274
3689.76826,0.00262
3687.70809,0.00237
3685.64792,0.00209
3683.58775,0.00201
3681.52757,0.00225
3679.46740,0.00268
3677.40723,0.00303
3675.34706,0.00314
3673.28688,0.00301
3671.22671,0.00280
3669.16654,0.00264
3667.10637,0.00247
3665.04620,0.00222
3662.98602,0.00198
3660.92585,0.00197
3658.86568,0.00235
3656.80551,0.00298
3654.74534,0.00355
3652.68516,0.00387
3650.62499,0.00397
3648.56482,0.00398
3646.50465,0.00405
3644.44447,0.00421
3642.38430,0.00436
3640.32413,0.00434
3638.26396,0.00419
3636.20379,0.00406
3634.14361,0.00409
3632.08344,0.00441
3630.02327,0.00502
3627.96310,0.00549
3625.90293,0.00538
3623.84275,0.00482
3621.78258,0.00422
3619.72241,0.00393
3617.66224,0.00401
3615.60207,0.00433
3613.54189,0.00471
3611.48172,0.00503
3609.42155,0.00521
3607.36138,0.00535
3605.30120,0.00568
3603.24103,0.00634
3601.18086,0.00721
3599.12069,0.00798
3597.06052,0.00844
3595.00034,0.00858
3592.94017,0.00847
3590.88000,0.00839
3588.81983,0.00849
3586.75966,0.00870
3584.69948,0.00886
3582.63931,0.00893
3580.57914,0.00895
3578.51897,0.00902
3576.45879,0.00927
3574.39862,0.00971
3572.33845,0.01025
3570.27828,0.01076
3568.21811,0.01109
3566.15793,0.01120
3564.09776,0.01120
3562.03759,0.01121
3559.97742,0.01129
3557.91725,0.01151
3555.85707,0.01190
3553.79690,0.01240
3551.73673,0.01283
3549.67656,0.01309
3547.61639,0.01325
3545.55621,0.01341
3543.49604,0.01356
3541.43587,0.01373
3539.37570,0.01400
3537.31552,0.01447
3535.25535,0.01507
3533.19518,0.01556
3531.13501,0.01570
3529.07484,0.01549
3527.01466,0.01519
3524.95449,0.01503
3522.89432,0.01500
3520.83415,0.01505
3518.77398,0.01526
3516.71380,0.01572
3514.65363,0.01632
3512.59346,0.01691
3510.53329,0.01740
3508.47312,0.01778
3506.41294,0.01801
3504.35277,0.01808
3502.29260,0.01806
3500.23243,0.01808
3498.17225,0.01816
3496.11208,0.01828
3494.05191,0.01843
3491.99174,0.01872
3489.93157,0.01916
3487.87139,0.01960
3485.81122,0.01992
3483.75105,0.02015
3481.69088,0.02039
3479.63071,0.02058
3477.57053,0.02070
3475.51036,0.02080
3473.45019,0.02095
3471.39002,0.02116
3469.32984,0.02138
3467.26967,0.02156
3465.20950,0.02167
3463.14933,0.02179
3461.08916,0.02199
3459.02898,0.02222
3456.96881,0.02238
3454.90864,0.02243
3452.84847,0.02244
3450.78830,0.02257
3448.72812,0.02287
3446.66795,0.02325
3444.60778,0.02359
3442.54761,0.02382
3440.48744,0.02390
3438.42726,0.02382
3436.36709,0.02371
3434.30692,0.02374
3432.24675,0.02394
3430.18657,0.02422
3428.12640,0.02445
3426.06623,0.02457
3424.00606,0.02464
3421.94589,0.02475
3419.88571,0.02487
3417.82554,0.02498
3415.76537,0.02511
3413.70520,0.02540
3411.64503,0.02590
3409.58485,0.02645
3407.52468,0.02683
3405.46451,0.02696
3403.40434,0.02690
3401.34416,0.02680
3399.28399,0.02683
3397.22382,0.02705
3395.16365,0.02743
3393.10348,0.02793
3391.04330,0.02842
3388.98313,0.02878
3386.92296,0.02898
3384.86279,0.02905
3382.80262,0.02898
3380.74244,0.02879
3378.68227,0.02857
3376.62210,0.02846
3374.56193,0.02849
3372.50176,0.02865
3370.44158,0.02885
3368.38141,0.02902
3366.32124,0.02915
3364.26107,0.02929
3362.20089,0.02941
3360.14072,0.02946
3358.08055,0.02938
3356.02038,0.02916
3353.96021,0.02898
3351.90003,0.02908
3349.83986,0.02949
3347.77969,0.02999
3345.71952,0.03036
3343.65935,0.03054
3341.59917,0.03059
3339.53900,0.03056
3337.47883,0.03046
3335.41866,0.03038
3333.35849,0.03042
3331.29831,0.03054
3329.23814,0.03061
3327.17797,0.03056
3325.11780,0.03044
3323.05762,0.03039
3320.99745,0.03046
3318.93728,0.03060
3316.87711,0.03071
3314.81694,0.03076
3312.75676,0.03075
3310.69659,0.03071
3308.63642,0.03067
3306.57625,0.03068
3304.51608,0.03080
3302.45590,0.03108
3300.39573,0.03139
3298.33556,0.03151
3296.27539,0.03130
3294.21521,0.03088
3292.15504,0.03053
3290.09487,0.03046
3288.03470,0.03061
3285.97453,0.03079
3283.91435,0.03089
3281.85418,0.03093
3279.79401,0.03099
3277.73384,0.03104
3275.67367,0.03109
3273.61349,0.03116
3271.55332,0.03125
3269.49315,0.03134
3267.43298,0.03140
3265.37281,0.03137
3263.31263,0.03125
3261.25246,0.03117
3259.19229,0.03121
3257.13212,0.03134
3255.07194,0.03145
3253.01177,0.03143
3250.95160,0.03128
3248.89143,0.03106
3246.83126,0.03087
3244.77108,0.03075
3242.71091,0.03075
3240.65074,0.03084
3238.59057,0.03089
3236.53040,0.03079
3234.47022,0.03054
3232.41005,0.03032
3230.34988,0.03019
3228.28971,0.03009
3226.22954,0.02999
3224.16936,0.02996
3222.10919,0.03003
3220.04902,0.03010
3217.98885,0.03006
3215.92867,0.02997
3213.86850,0.02989
3211.80833,0.02982
3209.74816,0.02973
3207.68799,0.02964
3205.62781,0.02956
3203.56764,0.02947
3201.50747,0.02934
3199.44730,0.02913
3197.38713,0.02882
3195.32695,0.02842
3193.26678,0.02799
3191.20661,0.02761
3189.14644,0.02730
3187.08626,0.02706
3185.02609,0.02691
3182.96592,0.02688
3180.90575,0.02695
3178.84558,0.02699
3176.78540,0.02689
3174.72523,0.02666
3172.66506,0.02640
3170.60489,0.02614
3168.54472,0.02583
3166.48454,0.02547
3164.42437,0.02513
3162.36420,0.02489
3160.30403,0.02472
3158.24386,0.02458
3156.18368,0.02439
3154.12351,0.02414
3152.06334,0.02386
3150.00317,0.02368
3147.94299,0.02366
3145.88282,0.02372
3143.82265,0.02371
3141.76248,0.02361
3139.70231,0.02347
3137.64213,0.02332
3135.58196,0.02313
3133.52179,0.02284
3131.46162,0.02241
3129.40145,0.02190
3127.34127,0.02143
3125.28110,0.02112
3123.22093,0.02098
3121.16076,0.02091
3119.10058,0.02079
3117.04041,0.02055
3114.98024,0.02022
3112.92007,0.01990
3110.85990,0.01968
3108.79972,0.01954
3106.73955,0.01941
3104.67938,0.01921
3102.61921,0.01895
3100.55904,0.01870
3098.49886,0.01853
3096.43869,0.01843
3094.37852,0.01830
3092.31835,0.01804
3090.25818,0.01764
3088.19800,0.01720
3086.13783,0.01682
3084.07766,0.01656
3082.01749,0.01636
3079.95731,0.01619
3077.89714,0.01600
3075.83697,0.01578
3073.77680,0.01558
3071.71663,0.01546
3069.65645,0.01541
3067.59628,0.01539
3065.53611,0.01533
3063.47594,0.01519
3061.41577,0.01501
3059.35559,0.01487
3057.29542,0.01487
3055.23525,0.01498
3053.17508,0.01509
3051.11491,0.01508
3049.05473,0.01489
3046.99456,0.01458
3044.93439,0.01418
3042.87422,0.01372
3040.81404,0.01330
3038.75387,0.01306
3036.69370,0.01306
3034.63353,0.01314
3032.57336,0.01318
3030.51318,0.01312
3028.45301,0.01301
3026.39284,0.01292
3024.33267,0.01290
3022.27250,0.01288
3020.21232,0.01272
3018.15215,0.01242
3016.09198,0.01213
3014.03181,0.01200
3011.97163,0.01202
3009.91146,0.01205
3007.85129,0.01193
3005.79112,0.01163
3003.73095,0.01134
3001.67077,0.01133
2999.61060,0.01161
2997.55043,0.01185
2995.49026,0.01176
2993.43009,0.01163
2991.36991,0.01164
2989.30974,0.01158
2987.24957,0.01146
2985.18940,0.01166
2983.12923,0.01219
2981.06905,0.01261
2979.00888,0.01270
2976.94871,0.01272
2974.88854,0.01288
2972.82836,0.01308
2970.76819,0.01307
2968.70802,0.01294
2966.64785,0.01305
2964.58768,0.01343
2962.52750,0.01370
2960.46733,0.01381
2958.40716,0.01398
2956.34699,0.01426
2954.28682,0.01462
2952.22664,0.01505
2950.16647,0.01542
2948.10630,0.01572
2946.04613,0.01608
2943.98596,0.01644
2941.92578,0.01668
2939.86561,0.01674
2937.80544,0.01667
2935.74527,0.01666
2933.68509,0.01678
2931.62492,0.01677
2929.56475,0.01646
2927.50458,0.01615
2925.44441,0.01611
2923.38423,0.01617
2921.32406,0.01609
2919.26389,0.01597
2917.20372,0.01603
2915.14355,0.01611
2913.08337,0.01591
2911.02320,0.01550
2908.96303,0.01529
2906.90286,0.01543
2904.84268,0.01559
2902.78251,0.01543
2900.72234,0.01506
2898.66217,0.01487
2896.60200,0.01509
2894.54182,0.01553
2892.48165,0.01579
2890.42148,0.01562
2888.36131,0.01516
2886.30114,0.01471
2884.24096,0.01448
2882.18079,0.01465
2880.12062,0.01490
2878.06045,0.01485
2876.00028,0.01462
2873.94010,0.01430
2871.87993,0.01376
2869.81976,0.01327
2867.75959,0.01319
2865.69941,0.01338
2863.63924,0.01352
2861.57907,0.01349
2859.51890,0.01323
2857.45873,0.01286
2855.39855,0.01268
2853.33838,0.01274
2851.27821,0.01276
2849.21804,0.01249
2847.15787,0.01203
2845.09769,0.01167
2843.03752,0.01154
2840.97735,0.01158
2838.91718,0.01159
2836.85700,0.01144
2834.79683,0.01123
2832.73666,0.01128
2830.67649,0.01163
2828.61632,0.01180
2826.55614,0.01147
2824.49597,0.01095
2822.43580,0.01060
2820.37563,0.01041
2818.31546,0.01033
2816.25528,0.01039
2814.19511,0.01046
2812.13494,0.01037
2810.07477,0.01009
2808.01460,0.00973
2805.95442,0.00959
2803.89425,0.00981
2801.83408,0.01013
2799.77391,0.01023
2797.71373,0.01006
2795.65356,0.00989
2793.59339,0.00998
2791.53322,0.01018
2789.47305,0.01024
2787.41287,0.01016
2785.35270,0.00999
2783.29253,0.00976
2781.23236,0.00958
2779.17219,0.00945
2777.11201,0.00936
2775.05184,0.00937
2772.99167,0.00949
2770.93150,0.00957
2768.87133,0.00944
2766.81115,0.00914
2764.75098,0.00884
2762.69081,0.00869
2760.63064,0.00867
2758.57046,0.00862
2756.51029,0.00846
2754.45012,0.00838
2752.38995,0.00851
2750.32978,0.00873
2748.26960,0.00892
2746.20943,0.00903
2744.14926,0.00899
2742.08909,0.00878
2740.02892,0.00857
2737.96874,0.00858
2735.90857,0.00881
2733.84840,0.00898
2731.78823,0.00889
2729.72805,0.00868
2727.66788,0.00863
2725.60771,0.00891
2723.54754,0.00928
2721.48737,0.00934
2719.42719,0.00901
2717.36702,0.00860
2715.30685,0.00843
2713.24668,0.00840
2711.18651,0.00829
2709.12633,0.00815
2707.06616,0.00815
2705.00599,0.00832
2702.94582,0.00857
2700.88565,0.00879
2698.82547,0.00875
2696.76530,0.00842
2694.70513,0.00817
2692.64496,0.00823
2690.58478,0.00844
2688.52461,0.00851
2686.46444,0.00851
2684.40427,0.00861
2682.34410,0.00875
2680.28392,0.00875
2678.22375,0.00853
2676.16358,0.00821
2674.10341,0.00801
2672.04324,0.00805
2669.98306,0.00821
2667.92289,0.00835
2665.86272,0.00851
2663.80255,0.00864
2661.74238,0.00870
2659.68220,0.00873
2657.62203,0.00880
2655.56186,0.00881
2653.50169,0.00874
2651.44151,0.00866
2649.38134,0.00857
2647.32117,0.00839
2645.26100,0.00810
2643.20083,0.00786
2641.14065,0.00777
2639.08048,0.00768
2637.02031,0.00750
2634.96014,0.00732
2632.89997,0.00716
2630.83979,0.00712
2628.77962,0.00733
2626.71945,0.00759
2624.65928,0.00766
2622.59910,0.00760
2620.53893,0.00752
2618.47876,0.00733
2616.41859,0.00705
2614.35842,0.00698
2612.29824,0.00718
2610.23807,0.00740
2608.17790,0.00747
2606.11773,0.00747
2604.05756,0.00741
2601.99738,0.00730
2599.93721,0.00718
2597.87704,0.00720
2595.81687,0.00732
2593.75670,0.00725
2591.69652,0.00707
2589.63635,0.00701
2587.57618,0.00689
2585.51601,0.00661
2583.45583,0.00643
2581.39566,0.00635
2579.33549,0.00614
2577.27532,0.00590
2575.21515,0.00592
2573.15497,0.00619
2571.09480,0.00652
2569.03463,0.00663
2566.97446,0.00632
2564.91429,0.00574
2562.85411,0.00534
2560.79394,0.00551
2558.73377,0.00601
2556.67360,0.00631
2554.61342,0.00638
2552.55325,0.00653
2550.49308,0.00671
2548.43291,0.00660
2546.37274,0.00628
2544.31256,0.00610
2542.25239,0.00601
2540.19222,0.00583
2538.13205,0.00565
2536.07188,0.00547
2534.01170,0.00530
2531.95153,0.00547
2529.89136,0.00601
2527.83119,0.00646
2525.77102,0.00667
2523.71084,0.00683
2521.65067,0.00690
2519.59050,0.00674
2517.53033,0.00659
2515.47015,0.00648
2513.40998,0.00621
2511.34981,0.00599
2509.28964,0.00605
2507.22947,0.00613
2505.16929,0.00608
2503.10912,0.00598
2501.04895,0.00598
2498.98878,0.00626
2496.92861,0.00668
2494.86843,0.00669
2492.80826,0.00629
2490.74809,0.00614
2488.68792,0.00644
2486.62775,0.00660
2484.56757,0.00630
2482.50740,0.00594
2480.44723,0.00595
2478.38706,0.00618
2476.32688,0.00623
2474.26671,0.00598
2472.20654,0.00562
2470.14637,0.00543
2468.08620,0.00560
2466.02602,0.00608
2463.96585,0.00646
2461.90568,0.00648
2459.84551,0.00627
2457.78534,0.00602
2455.72516,0.00591
2453.66499,0.00600
2451.60482,0.00608
2449.54465,0.00599
2447.48447,0.00578
2445.42430,0.00559
2443.36413,0.00540
2441.30396,0.00539
2439.24379,0.00571
2437.18361,0.00605
2435.12344,0.00617
2433.06327,0.00620
2431.00310,0.00622
2428.94293,0.00593
2426.88275,0.00534
2424.82258,0.00498
2422.76241,0.00505
2420.70224,0.00536
2418.64207,0.00567
2416.58189,0.00579
2414.52172,0.00572
2412.46155,0.00556
2410.40138,0.00534
2408.34120,0.00503
2406.28103,0.00476
2404.22086,0.00459
2402.16069,0.00459
2400.10052,0.00484
2398.04034,0.00522
2395.98017,0.00553
2393.92000,0.00568
2391.85983,0.00572
2389.79966,0.00573
2387.73948,0.00579
2385.67931,0.00588
2383.61914,0.00585
2381.55897,0.00564
2379.49880,0.00536
2377.43862,0.00519
2375.37845,0.00506
2373.31828,0.00481
2371.25811,0.00460
2369.19793,0.00480
2367.13776,0.00530
2365.07759,0.00568
2363.01742,0.00569
2360.95725,0.00535
2358.89707,0.00478
2356.83690,0.00429
2354.77673,0.00417
2352.71656,0.00432
2350.65639,0.00453
2348.59621,0.00479
2346.53604,0.00540
2344.47587,0.00655
2342.41570,0.00797
2340.35552,0.00907
2338.29535,0.00947
2336.23518,0.00915
2334.17501,0.00842
2332.11484,0.00771
2330.05466,0.00749
2327.99449,0.00774
2325.93432,0.00794
2323.87415,0.00766
2321.81398,0.00712
2319.75380,0.00680
2317.69363,0.00675
2315.63346,0.00663
2313.57329,0.00631
2311.51312,0.00596
2309.45294,0.00581
2307.39277,0.00593
2305.33260,0.00610
2303.27243,0.00612
2301.21225,0.00598
2299.15208,0.00580
2297.09191,0.00569
2295.03174,0.00580
2292.97157,0.00620
2290.91139,0.00674
2288.85122,0.00721
2286.79105,0.00744
2284.73088,0.00739
2282.67071,0.00723
2280.61053,0.00711
2278.55036,0.00703
2276.49019,0.00685
2274.43002,0.00647
2272.36984,0.00598
2270.30967,0.00558
2268.24950,0.00550
2266.18933,0.00582
2264.12916,0.00637
2262.06898,0.00678
2260.00881,0.00665
2257.94864,0.00596
2255.88847,0.00511
2253.82830,0.00459
2251.76812,0.00468
2249.70795,0.00536
2247.64778,0.00614
2245.58761,0.00627
2243.52744,0.00571
2241.46726,0.00484
2239.40709,0.00409
2237.34692,0.00367
2235.28675,0.00353
2233.22657,0.00371
2231.16640,0.00409
2229.10623,0.00436
2227.04606,0.00452
2224.98589,0.00522
2222.92571,0.00643
2220.86554,0.00674
2218.80537,0.00551
2216.74520,0.00387
2214.68503,0.00313
2212.62485,0.00364
2210.56468,0.00484
2208.50451,0.00590
2206.44434,0.00656
2204.38417,0.00697
2202.32399,0.00661
2200.26382,0.00499
2198.20365,0.00357
2196.14348,0.00389
2194.08330,0.00498
2192.02313,0.00515
2189.96296,0.00448
2187.90279,0.00409
2185.84262,0.00449
2183.78244,0.00523
2181.72227,0.00560
2179.66210,0.00522
2177.60193,0.00426
2175.54176,0.00272
2173.48158,0.00083
2171.42141,0.00000
2169.36124,0.00111
2167.30107,0.00305
2165.24089,0.00444
2163.18072,0.00499
2161.12055,0.00473
2159.06038,0.00400
2157.00021,0.00359
2154.94003,0.00392
2152.87986,0.00429
2150.81969,0.00382
2148.75952,0.00283
2146.69935,0.00236
2144.63917,0.00256
2142.57900,0.00251
2140.51883,0.00187
2138.45866,0.00150
2136.39849,0.00189
2134.33831,0.00278
2132.27814,0.00405
2130.21797,0.00533
2128.15780,0.00587
2126.09762,0.00563
2124.03745,0.00536
2121.97728,0.00559
2119.91711,0.00636
2117.85694,0.00734
2115.79676,0.00781
2113.73659,0.00732
2111.67642,0.00635
2109.61625,0.00581
2107.55608,0.00585
2105.49590,0.00579
2103.43573,0.00532
2101.37556,0.00474
2099.31539,0.00444
2097.25521,0.00460
2095.19504,0.00514
2093.13487,0.00581
2091.07470,0.00635
2089.01453,0.00668
2086.95435,0.00673
2084.89418,0.00651
2082.83401,0.00617
2080.77384,0.00589
2078.71367,0.00569
2076.65349,0.00543
2074.59332,0.00506
2072.53315,0.00466
2070.47298,0.00437
2068.41281,0.00428
2066.35263,0.00438
2064.29246,0.00445
2062.23229,0.00441
2060.17212,0.00439
2058.11194,0.00458
2056.05177,0.00505
2053.99160,0.00585
2051.93143,0.00686
2049.87126,0.00764
2047.81108,0.00778
2045.75091,0.00721
2043.69074,0.00604
2041.63057,0.00448
2039.57040,0.00288
2037.51022,0.00185
2035.45005,0.00176
2033.38988,0.00233
2031.32971,0.00299
2029.26954,0.00330
2027.20936,0.00327
2025.14919,0.00320
2023.08902,0.00330
2021.02885,0.00341
2018.96867,0.00319
2016.90850,0.00252
2014.84833,0.00155
2012.78816,0.00062
2010.72799,0.00000
2008.66781,0.00000
2006.60764,0.00069
2004.54747,0.00183
2002.48730,0.00281
2000.42713,0.00319
1998.36695,0.00321
1996.30678,0.00350
1994.24661,0.00428
1992.18644,0.00513
1990.12626,0.00552
1988.06609,0.00541
1986.00592,0.00493
1983.94575,0.00418
1981.88558,0.00329
1979.82540,0.00256
1977.76523,0.00225
1975.70506,0.00239
1973.64489,0.00281
1971.58472,0.00325
1969.52454,0.00349
1967.46437,0.00364
1965.40420,0.00382
1963.34403,0.00385
1961.28386,0.00372
1959.22368,0.00367
1957.16351,0.00371
1955.10334,0.00355
1953.04317,0.00314
1950.98299,0.00274
1948.92282,0.00251
1946.86265,0.00226
1944.80248,0.00174
1942.74231,0.00104
1940.68213,0.00061
1938.62196,0.00074
1936.56179,0.00136
1934.50162,0.00217
1932.44145,0.00283
1930.38127,0.00313
1928.32110,0.00307
1926.26093,0.00273
1924.20076,0.00223
1922.14059,0.00173
1920.08041,0.00131
1918.02024,0.00107
1915.96007,0.00112
1913.89990,0.00152
1911.83972,0.00223
1909.77955,0.00309
1907.71938,0.00380
1905.65921,0.00398
1903.59904,0.00348
1901.53886,0.00261
1899.47869,0.00194
1897.41852,0.00177
1895.35835,0.00198
1893.29818,0.00222
1891.23800,0.00224
1889.17783,0.00204
1887.11766,0.00186
1885.05749,0.00191
1882.99731,0.00213
1880.93714,0.00234
1878.87697,0.00238
1876.81680,0.00231
1874.75663,0.00229
1872.69645,0.00241
1870.63628,0.00256
1868.57611,0.00261
1866.51594,0.00263
1864.45577,0.00271
1862.39559,0.00284
1860.33542,0.00294
1858.27525,0.00292
1856.21508,0.00281
1854.15491,0.00271
1852.09473,0.00266
1850.03456,0.00263
1847.97439,0.00267
1845.91422,0.00281
1843.85404,0.00298
1841.79387,0.00301
1839.73370,0.00282
1837.67353,0.00253
1835.61336,0.00229
1833.55318,0.00220
1831.49301,0.00221
1829.43284,0.00222
1827.37267,0.00223
1825.31250,0.00226
1823.25232,0.00233
1821.19215,0.00238
1819.13198,0.00239
1817.07181,0.00240
1815.01163,0.00242
1812.95146,0.00246
1810.89129,0.00248
1808.83112,0.00243
1806.77095,0.00237
1804.71077,0.00239
1802.65060,0.00251
1800.59043,0.00262
1798.53026,0.00261
1796.47009,0.00246
1794.40991,0.00220
1792.34974,0.00190
1790.28957,0.00168
1788.22940,0.00160
1786.16923,0.00167
1784.10905,0.00191
1782.04888,0.00229
1779.98871,0.00268
1777.92854,0.00292
1775.86836,0.00300
1773.80819,0.00300
1771.74802,0.00290
1769.68785,0.00271
1767.62768,0.00251
1765.56750,0.00240
1763.50733,0.00250
1761.44716,0.00288
1759.38699,0.00345
1757.32682,0.00404
1755.26664,0.00454
1753.20647,0.00499
1751.14630,0.00552
1749.08613,0.00607
1747.02596,0.00647
1744.96578,0.00670
1742.90561,0.00685
1740.84544,0.00700
1738.78527,0.00715
1736.72509,0.00730
1734.66492,0.00746
1732.60475,0.00750
1730.54458,0.00740
1728.48441,0.00725
1726.42423,0.00714
1724.36406,0.00713
1722.30389,0.00721
1720.24372,0.00728
1718.18355,0.00720
1716.12337,0.00683
1714.06320,0.00624
1712.00303,0.00558
1709.94286,0.00501
1707.88268,0.00463
1705.82251,0.00443
1703.76234,0.00438
1701.70217,0.00446
1699.64200,0.00459
1697.58182,0.00466
1695.52165,0.00463
1693.46148,0.00456
1691.40131,0.00464
1689.34114,0.00491
1687.28096,0.00525
1685.22079,0.00552
1683.16062,0.00560
1681.10045,0.00552
1679.04028,0.00550
1676.98010,0.00570
1674.91993,0.00611
1672.85976,0.00663
1670.79959,0.00722
1668.73941,0.00780
1666.67924,0.00824
1664.61907,0.00856
1662.55890,0.00883
1660.49873,0.00915
1658.43855,0.00960
1656.37838,0.01026
1654.31821,0.01099
1652.25804,0.01152
1650.19787,0.01178
1648.13769,0.01197
1646.07752,0.01215
1644.01735,0.01223
1641.95718,0.01227
1639.89701,0.01242
1637.83683,0.01268
1635.77666,0.01290
1633.71649,0.01298
1631.65632,0.01304
1629.59614,0.01319
1627.53597,0.01343
1625.47580,0.01366
1623.41563,0.01375
1621.35546,0.01365
1619.29528,0.01348
1617.23511,0.01336
1615.17494,0.01324
1613.11477,0.01304
1611.05460,0.01271
1608.99442,0.01229
1606.93425,0.01180
1604.87408,0.01124
1602.81391,0.01063
1600.75373,0.00998
1598.69356,0.00933
1596.63339,0.00868
1594.57322,0.00804
1592.51305,0.00738
1590.45287,0.00665
1588.39270,0.00587
1586.33253,0.00512
1584.27236,0.00453
1582.21219,0.00415
1580.15201,0.00392
1578.09184,0.00372
1576.03167,0.00344
1573.97150,0.00308
1571.91133,0.00274
1569.85115,0.00247
1567.79098,0.00224
1565.73081,0.00209
1563.67064,0.00211
1561.61046,0.00232
1559.55029,0.00258
1557.49012,0.00259
1555.42995,0.00230
1553.36978,0.00194
1551.30960,0.00171
1549.24943,0.00167
1547.18926,0.00180
1545.12909,0.00202
1543.06892,0.00218
1541.00874,0.00211
1538.94857,0.00181
1536.88840,0.00149
1534.82823,0.00134
1532.76805,0.00128
1530.70788,0.00129
1528.64771,0.00140
1526.58754,0.00156
1524.52737,0.00171
1522.46719,0.00188
1520.40702,0.00203
1518.34685,0.00200
1516.28668,0.00171
1514.22651,0.00134
1512.16633,0.00127
1510.10616,0.00162
1508.04599,0.00216
1505.98582,0.00247
1503.92565,0.00242
1501.86547,0.00219
1499.80530,0.00199
1497.74513,0.00184
1495.68496,0.00172
1493.62478,0.00165
1491.56461,0.00169
1489.50444,0.00182
1487.44427,0.00196
1485.38410,0.00209
1483.32392,0.00223
1481.26375,0.00244
1479.20358,0.00277
1477.14341,0.00323
1475.08324,0.00376
1473.02306,0.00423
1470.96289,0.00449
1468.90272,0.00465
1466.84255,0.00486
1464.78238,0.00516
1462.72220,0.00547
1460.66203,0.00583
1458.60186,0.00627
1456.54169,0.00669
1454.48151,0.00692
1452.42134,0.00698
1450.36117,0.00698
1448.30100,0.00699
1446.24083,0.00704
1444.18065,0.00713
1442.12048,0.00734
1440.06031,0.00771
1438.00014,0.00818
1435.93997,0.00864
1433.87979,0.00900
1431.81962,0.00926
1429.75945,0.00948
1427.69928,0.00973
1425.63910,0.01006
1423.57893,0.01047
1421.51876,0.01086
1419.45859,0.01115
1417.39842,0.01125
1415.33824,0.01119
1413.27807,0.01105
1411.21790,0.01084
1409.15773,0.01061
1407.09756,0.01041
1405.03738,0.01029
1402.97721,0.01019
1400.91704,0.01007
1398.85687,0.00986
1396.79670,0.00953
1394.73652,0.00914
1392.67635,0.00883
1390.61618,0.00875
1388.55601,0.00890
1386.49583,0.00914
1384.43566,0.00936
1382.37549,0.00954
1380.31532,0.00973
1378.25515,0.00996
1376.19497,0.01022
1374.13480,0.01046
1372.07463,0.01055
1370.01446,0.01046
1367.95429,0.01022
1365.89411,0.00990
1363.83394,0.00958
1361.77377,0.00935
1359.71360,0.00925
1357.65343,0.00923
1355.59325,0.00920
1353.53308,0.00909
1351.47291,0.00891
1349.41274,0.00872
1347.35256,0.00858
1345.29239,0.00850
1343.23222,0.00846
1341.17205,0.00844
1339.11188,0.00844
1337.05170,0.00847
1334.99153,0.00854
1332.93136,0.00859
1330.87119,0.00855
1328.81102,0.00843
1326.75084,0.00831
1324.69067,0.00825
1322.63050,0.00827
1320.57033,0.00832
1318.51015,0.00836
1316.44998,0.00837
1314.38981,0.00838
1312.32964,0.00838
1310.26947,0.00830
1308.20929,0.00812
1306.14912,0.00792
1304.08895,0.00784
1302.02878,0.00788
1299.96861,0.00794
1297.90843,0.00788
1295.84826,0.00766
1293.78809,0.00734
1291.72792,0.00705
1289.66775,0.00688
1287.60757,0.00684
1285.54740,0.00684
1283.48723,0.00682
1281.42706,0.00680
1279.36688,0.00678
1277.30671,0.00676
1275.24654,0.00679
1273.18637,0.00693
1271.12620,0.00718
1269.06602,0.00751
1267.00585,0.00790
1264.94568,0.00833
1262.88551,0.00876
1260.82534,0.00914
1258.76516,0.00942
1256.70499,0.00959
1254.64482,0.00967
1252.58465,0.00974
1250.52447,0.00984
1248.46430,0.00997
1246.40413,0.01006
1244.34396,0.01003
1242.28379,0.00987
1240.22361,0.00961
1238.16344,0.00935
1236.10327,0.00913
1234.04310,0.00897
1231.98293,0.00882
1229.92275,0.00861
1227.86258,0.00829
1225.80241,0.00790
1223.74224,0.00749
1221.68207,0.00710
1219.62189,0.00669
1217.56172,0.00624
1215.50155,0.00578
1213.44138,0.00536
1211.38120,0.00497
1209.32103,0.00453
1207.26086,0.00400
1205.20069,0.00341
1203.14052,0.00280
1201.08034,0.00221
1199.02017,0.00160
1196.96000,0.00097
1194.89983,0.00038
1192.83966,0.00004
1190.77948,0.00000
1188.71931,0.00001
1186.65914,-0.00005
1184.59897,-0.00007
1182.53880,0.00011
1180.47862,0.00051
1178.41845,0.00110
1176.35828,0.00178
1174.29811,0.00242
1172.23793,0.00301
1170.17776,0.00372
1168.11759,0.00462
1166.05742,0.00549
1163.99725,0.00611
1161.93707,0.00659
1159.87690,0.00713
1157.81673,0.00770
1155.75656,0.00820
1153.69639,0.00882
1151.63621,0.00956
1149.57604,0.01007
1147.51587,0.01027
1145.45570,0.01033
1143.39552,0.01036
1141.33535,0.01042
1139.27518,0.01064
1137.21501,0.01105
1135.15484,0.01146
1133.09466,0.01166
1131.03449,0.01185
1128.97432,0.01232
1126.91415,0.01300
1124.85398,0.01361
1122.79380,0.01406
1120.73363,0.01447
1118.67346,0.01504
1116.61329,0.01573
1114.55312,0.01628
1112.49294,0.01656
1110.43277,0.01675
1108.37260,0.01721
1106.31243,0.01796
1104.25225,0.01879
1102.19208,0.01951
1100.13191,0.02009
1098.07174,0.02062
1096.01157,0.02128
1093.95139,0.02214
1091.89122,0.02310
1089.83105,0.02406
1087.77088,0.02492
1085.71071,0.02563
1083.65053,0.02621
1081.59036,0.02680
1079.53019,0.02751
1077.47002,0.02842
1075.40985,0.02942
1073.34967,0.03030
1071.28950,0.03091
1069.22933,0.03128
1067.16916,0.03151
1065.10898,0.03179
1063.04881,0.03221
1060.98864,0.03262
1058.92847,0.03295
1056.86830,0.03322
1054.80812,0.03337
1052.74795,0.03336
1050.68778,0.03347
1048.62761,0.03405
1046.56744,0.03499
1044.50726,0.03585
1042.44709,0.03644
1040.38692,0.03681
1038.32675,0.03703
1036.26657,0.03719
1034.20640,0.03733
1032.14623,0.03740
1030.08606,0.03748
1028.02589,0.03762
1025.96571,0.03776
1023.90554,0.03785
1021.84537,0.03793
1019.78520,0.03795
1017.72503,0.03785
1015.66485,0.03775
1013.60468,0.03787
1011.54451,0.03810
1009.48434,0.03810
1007.42417,0.03781
1005.36399,0.03742
1003.30382,0.03708
1001.24365,0.03674
999.18348,0.03645
997.12330,0.03622
995.06313,0.03591
993.00296,0.03547
990.94279,0.03508
988.88262,0.03470
986.82244,0.03414
984.76227,0.03349
982.70210,0.03300
980.64193,0.03263
978.58176,0.03227
976.52158,0.03209
974.46141,0.03208
972.40124,0.03198
970.34107,0.03161
968.28089,0.03106
966.22072,0.03052
964.16055,0.03009
962.10038,0.02966
960.04021,0.02918
957.98003,0.02876
955.91986,0.02839
953.85969,0.02800
951.79952,0.02767
949.73935,0.02736
947.67917,0.02689
945.61900,0.02621
943.55883,0.02534
941.49866,0.02410
939.43849,0.02250
937.37831,0.02095
935.31814,0.01957
933.25797,0.01805
931.19780,0.01649
929.13762,0.01531
927.07745,0.01441
925.01728,0.01340
922.95711,0.01225
920.89694,0.01123
918.83676,0.01055
916.77659,0.01024
914.71642,0.00999
912.65625,0.00961
910.59608,0.00920
908.53590,0.00889
906.47573,0.00858
904.41556,0.00822
902.35539,0.00796
900.29522,0.00789
898.23504,0.00786
896.17487,0.00771
894.11470,0.00765
892.05453,0.00792
889.99435,0.00822
887.93418,0.00809
885.87401,0.00757
883.81384,0.00695
881.75367,0.00618
879.69349,0.00529
877.63332,0.00451
875.57315,0.00410
873.51298,0.00415
871.45281,0.00445
869.39263,0.00462
867.33246,0.00463
865.27229,0.00464
863.21212,0.00459
861.15194,0.00447
859.09177,0.00437
857.03160,0.00415
854.97143,0.00351
852.91126,0.00251
850.85108,0.00180
848.79091,0.00185
846.73074,0.00246
844.67057,0.00304
842.61040,0.00327
840.55022,0.00312
838.49005,0.00257
836.42988,0.00188
834.36971,0.00166
832.30954,0.00190
830.24936,0.00205
828.18919,0.00187
826.12902,0.00145
824.06885,0.00101
822.00867,0.00086
819.94850,0.00123
817.88833,0.00192
815.82816,0.00244
813.76799,0.00269
811.70781,0.00288
809.64764,0.00305
807.58747,0.00302
805.52730,0.00280
803.46713,0.00268
801.40695,0.00259
799.34678,0.00225
797.28661,0.00178
795.22644,0.00136
793.16627,0.00103
791.10609,0.00100
789.04592,0.00141
786.98575,0.00197
784.92558,0.00232
782.86540,0.00225
780.80523,0.00177
778.74506,0.00106
776.68489,0.00065
774.62472,0.00099
772.56454,0.00150
770.50437,0.00152
768.44420,0.00145
766.38403,0.00173
764.32386,0.00216
762.26368,0.00234
760.20351,0.00214
758.14334,0.00183
756.08317,0.00172
754.02299,0.00175
751.96282,0.00175
749.90265,0.00198
747.84248,0.00246
745.78231,0.00259
743.72213,0.00198
741.66196,0.00088
739.60179,0.00000
737.54162,0.00014
735.48145,0.00145
733.42127,0.00286
731.36110,0.00339
729.30093,0.00320
727.24076,0.00278
725.18059,0.00228
723.12041,0.00205
721.06024,0.00209
719.00007,0.00216
716.93990,0.00216
714.87972,0.00229
712.81955,0.00281
710.75938,0.00374
708.69921,0.00477
706.63904,0.00556
704.57886,0.00586
702.51869,0.00565
700.45852,0.00523
698.39835,0.00482
696.33818,0.00441
694.27800,0.00402
692.21783,0.00381
690.15766,0.00386
688.09749,0.00405
686.03731,0.00428
683.97714,0.00451
681.91697,0.00474
679.85680,0.00494
677.79663,0.00516
675.73645,0.00548
673.67628,0.00574
671.61611,0.00558
669.55594,0.00496
667.49577,0.00434
665.43559,0.00396
663.37542,0.00373
661.31525,0.00379
659.25508,0.00443
657.19491,0.00560
655.13473,0.00693
653.07456,0.00818
651.01439,0.00935
648.95422,0.01036
646.89404,0.01090
644.83387,0.01076
642.77370,0.00996
640.71353,0.00845
638.65336,0.00651
636.59318,0.00495
634.53301,0.00426
632.47284,0.00408
630.41267,0.00386
628.35250,0.00341
626.29232,0.00324
624.23215,0.00460
622.17198,0.00700
620.11181,0.00841
618.05164,0.00797
615.99146,0.00619
613.93129,0.00431
611.87112,0.00324
609.81095,0.00198
607.75077,0.00000
605.69060,-0.00180
603.63043,0.00005
601.57026,0.00151
599.51009,0.00000
