3996.73391,-0.00001
3994.67373,0.00036
3992.61356,0.00058
3990.55339,0.00059
3988.49322,0.00052
3986.43305,0.00054
3984.37287,0.00059
3982.31270,0.00050
3980.25253,0.00026
3978.19236,0.00009
3976.13219,0.00017
3974.07201,0.00044
3972.01184,0.00065
3969.95167,0.00065
3967.89150,0.00056
3965.83133,0.00054
3963.77115,0.00065
3961.71098,0.00084
3959.65081,0.00100
3957.59064,0.00098
3955.53046,0.00078
3953.47029,0.00050
3951.41012,0.00025
3949.34995,0.00007
3947.28978,0.00000
3945.22960,0.00007
3943.16943,0.00029
3941.10926,0.00059
3939.04909,0.00089
3936.98892,0.00110
3934.92874,0.00119
3932.86857,0.00117
3930.80840,0.00107
3928.74823,0.00096
3926.68805,0.00094
3924.62788,0.00107
3922.56771,0.00123
3920.50754,0.00130
3918.44737,0.00122
3916.38719,0.00102
3914.32702,0.00084
3912.26685,0.00081
3910.20668,0.00097
3908.14651,0.00119
3906.08633,0.00127
3904.02616,0.00108
3901.96599,0.00072
3899.90582,0.00042
3897.84565,0.00022
3895.78547,0.00011
3893.72530,0.00023
3891.66513,0.00063
3889.60496,0.00105
3887.54478,0.00121
3885.48461,0.00105
3883.42444,0.00069
3881.36427,0.00040
3879.30410,0.00044
3877.24392,0.00084
3875.18375,0.00145
3873.12358,0.00199
3871.06341,0.00224
3869.00324,0.00211
3866.94306,0.00176
3864.88289,0.00143
3862.82272,0.00119
3860.76255,0.00101
3858.70237,0.00093
3856.64220,0.00099
3854.58203,0.00116
3852.52186,0.00120
3850.46169,0.00101
3848.40151,0.00079
3846.34134,0.00082
3844.28117,0.00114
3842.22100,0.00158
3840.16083,0.00196
3838.10065,0.00211
3836.04048,0.00195
3833.98031,0.00152
3831.92014,0.00104
3829.85997,0.00083
3827.79979,0.00109
3825.73962,0.00159
3823.67945,0.00191
3821.61928,0.00177
3819.55910,0.00127
3817.49893,0.00081
3815.43876,0.00057
3813.37859,0.00042
3811.31842,0.00035
3809.25824,0.00046
3807.19807,0.00081
3805.13790,0.00134
3803.07773,0.00194
3801.01756,0.00236
3798.95738,0.00238
3796.89721,0.00211
3794.83704,0.00181
3792.77687,0.00171
3790.71670,0.00184
3788.65652,0.00200
3786.59635,0.00207
3784.53618,0.00197
3782.47601,0.00172
3780.41583,0.00138
3778.35566,0.00112
3776.29549,0.00106
3774.23532,0.00122
3772.17515,0.00148
3770.11497,0.00162
3768.05480,0.00150
3765.99463,0.00120
3763.93446,0.00093
3761.87429,0.00085
3759.81411,0.00089
3757.75394,0.00095
3755.69377,0.00110
3753.63360,0.00140
3751.57342,0.00181
3749.51325,0.00216
3747.45308,0.00226
3745.39291,0.00203
3743.33274,0.00163
3741.27256,0.00133
3739.21239,0.00118
3737.15222,0.00113
3735.09205,0.00118
3733.03188,0.00140
3730.97170,0.00177
3728.91153,0.00214
3726.85136,0.00231
3724.79119,0.00217
3722.73102,0.00170
3720.67084,0.00098
3718.61067,0.00029
3716.55050,0.00000
3714.49033,0.00031
3712.43015,0.00099
3710.36998,0.00157
3708.30981,0.00174
3706.24964,0.00159
3704.18947,0.00135
3702.12929,0.00116
3700.06912,0.00113
3698.00895,0.00125
3695.94878,0.00140
3693.88861,0.00160
3691.82843,0.00187
3689.76826,0.00207
3687.70809,0.00200
3685.64792,0.00176
3683.58775,0.00173
3681.52757,0.00210
3679.46740,0.00279
3677.40723,0.00342
3675.34706,0.00366
3673.28688,0.00353
3671.22671,0.00338
3669.16654,0.00322
3667.10637,0.00289
3665.04620,0.00248
3662.98602,0.00220
3660.92585,0.00210
3658.86568,0.00218
3656.80551,0.00238
3654.74534,0.00265
3652.68516,0.00292
3650.62499,0.00311
3648.56482,0.00318
3646.50465,0.00318
3644.44447,0.00328
3642.38430,0.00356
3640.32413,0.00390
3638.26396,0.00414
3636.20379,0.00429
3634.14361,0.00441
3632.08344,0.00459
3630.02327,0.00487
3627.96310,0.00512
3625.90293,0.00518
3623.84275,0.00507
3621.78258,0.00489
3619.72241,0.00474
3617.66224,0.00473
3615.60207,0.00486
3613.54189,0.00503
3611.48172,0.00516
3609.42155,0.00524
3607.36138,0.00533
3605.30120,0.00554
3603.24103,0.00595
3601.18086,0.00655
3599.12069,0.00721
3597.06052,0.00776
3595.00034,0.00803
3592.94017,0.00800
3590.88000,0.00785
3588.81983,0.00778
3586.75966,0.00789
3584.69948,0.00813
3582.63931,0.00832
3580.57914,0.00830
3578.51897,0.00820
3576.45879,0.00830
3574.39862,0.00868
3572.33845,0.00917
3570.27828,0.00952
3568.21811,0.00960
3566.15793,0.00957
3564.09776,0.00970
3562.03759,0.01002
3559.97742,0.01035
3557.91725,0.01064
3555.85707,0.01099
3553.79690,0.01144
3551.73673,0.01183
3549.67656,0.01207
3547.61639,0.01227
3545.55621,0.01253
3543.49604,0.01285
3541.43587,0.01322
3539.37570,0.01368
3537.31552,0.01419
3535.25535,0.01467
3533.19518,0.01505
3531.13501,0.01529
3529.07484,0.01531
3527.01466,0.01517
3524.95449,0.01500
3522.89432,0.01486
3520.83415,0.01474
3518.77398,0.01473
3516.71380,0.01498
3514.65363,0.01550
3512.59346,0.01613
3510.53329,0.01678
3508.47312,0.01735
3506.41294,0.01772
3504.35277,0.01785
3502.29260,0.01782
3500.23243,0.01781
3498.17225,0.01792
3496.11208,0.01813
3494.05191,0.01839
3491.99174,0.01868
3489.93157,0.01898
3487.87139,0.01926
3485.81122,0.01951
3483.75105,0.01973
3481.69088,0.01996
3479.63071,0.02023
3477.57053,0.02056
3475.51036,0.02090
3473.45019,0.02109
3471.39002,0.02106
3469.32984,0.02095
3467.26967,0.02094
3465.20950,0.02111
3463.14933,0.02137
3461.08916,0.02156
3459.02898,0.02165
3456.96881,0.02176
3454.90864,0.02197
3452.84847,0.02229
3450.78830,0.02264
3448.72812,0.02297
3446.66795,0.02323
3444.60778,0.02342
3442.54761,0.02356
3440.48744,0.02363
3438.42726,0.02363
3436.36709,0.02362
3434.30692,0.02369
3432.24675,0.02382
3430.18657,0.02397
3428.12640,0.02405
3426.06623,0.02406
3424.00606,0.02410
3421.94589,0.02427
3419.88571,0.02455
3417.82554,0.02485
3415.76537,0.02513
3413.70520,0.02544
3411.64503,0.02578
3409.58485,0.02614
3407.52468,0.02641
3405.46451,0.02654
3403.40434,0.02653
3401.34416,0.02652
3399.28399,0.02657
3397.22382,0.02668
3395.16365,0.02688
3393.10348,0.02719
3391.04330,0.02757
3388.98313,0.02795
3386.92296,0.02821
3384.86279,0.02830
3382.80262,0.02828
3380.74244,0.02828
3378.68227,0.02836
3376.62210,0.02844
3374.56193,0.02842
3372.50176,0.02829
3370.44158,0.02816
3368.38141,0.02814
3366.32124,0.02830
3364.26107,0.02854
3362.20089,0.02871
3360.14072,0.02870
3358.08055,0.02850
3356.02038,0.02822
3353.96021,0.02805
3351.90003,0.02820
3349.83986,0.02864
3347.77969,0.02912
3345.71952,0.02946
3343.65935,0.02965
3341.59917,0.02978
3339.53900,0.02997
3337.47883,0.03020
3335.41866,0.03039
3333.35849,0.03044
3331.29831,0.03041
3329.23814,0.03037
3327.17797,0.03039
3325.11780,0.03043
3323.05762,0.03051
3320.99745,0.03063
3318.93728,0.03069
3316.87711,0.03061
3314.81694,0.03047
3312.75676,0.03037
3310.69659,0.03034
3308.63642,0.03039
3306.57625,0.03048
3304.51608,0.03056
3302.45590,0.03060
3300.39573,0.03064
3298.33556,0.03072
3296.27539,0.03084
3294.21521,0.03092
3292.15504,0.03088
3290.09487,0.03077
3288.03470,0.03067
3285.97453,0.03060
3283.91435,0.03053
3281.85418,0.03051
3279.79401,0.03055
3277.73384,0.03058
3275.67367,0.03054
3273.61349,0.03047
3271.55332,0.03042
3269.49315,0.03038
3267.43298,0.03032
3265.37281,0.03022
3263.31263,0.03011
3261.25246,0.03008
3259.19229,0.03016
3257.13212,0.03029
3255.07194,0.03040
3253.01177,0.03046
3250.95160,0.03044
3248.89143,0.03027
3246.83126,0.02999
3244.77108,0.02979
3242.71091,0.02981
3240.65074,0.03002
3238.59057,0.03020
3236.53040,0.03018
3234.47022,0.02995
3232.41005,0.02965
3230.34988,0.02944
3228.28971,0.02935
3226.22954,0.02932
3224.16936,0.02934
3222.10919,0.02934
3220.04902,0.02927
3217.98885,0.02908
3215.92867,0.02882
3213.86850,0.02862
3211.80833,0.02856
3209.74816,0.02859
3207.68799,0.02857
3205.62781,0.02843
3203.56764,0.02824
3201.50747,0.02803
3199.44730,0.02781
3197.38713,0.02758
3195.32695,0.02736
3193.26678,0.02712
3191.20661,0.02686
3189.14644,0.02661
3187.08626,0.02645
3185.02609,0.02642
3182.96592,0.02647
3180.90575,0.02654
3178.84558,0.02651
3176.78540,0.02628
3174.72523,0.02588
3172.66506,0.02548
3170.60489,0.02517
3168.54472,0.02494
3166.48454,0.02479
3164.42437,0.02472
3162.36420,0.02462
3160.30403,0.02437
3158.24386,0.02399
3156.18368,0.02358
3154.12351,0.02320
3152.06334,0.02287
3150.00317,0.02266
3147.94299,0.02256
3145.88282,0.02253
3143.82265,0.02253
3141.76248,0.02250
3139.70231,0.02241
3137.64213,0.02228
3135.58196,0.02210
3133.52179,0.02180
3131.46162,0.02135
3129.40145,0.02080
3127.34127,0.02030
3125.28110,0.01997
3123.22093,0.01980
3121.16076,0.01973
3119.10058,0.01968
3117.04041,0.01958
3114.98024,0.01941
3112.92007,0.01919
3110.85990,0.01898
3108.79972,0.01882
3106.73955,0.01869
3104.67938,0.01852
3102.61921,0.01825
3100.55904,0.01788
3098.49886,0.01753
3096.43869,0.01728
3094.37852,0.01712
3092.31835,0.01693
3090.25818,0.01663
3088.19800,0.01628
3086.13783,0.01599
3084.07766,0.01583
3082.01749,0.01576
3079.95731,0.01569
3077.89714,0.01555
3075.83697,0.01538
3073.77680,0.01524
3071.71663,0.01516
3069.65645,0.01510
3067.59628,0.01502
3065.53611,0.01487
3063.47594,0.01466
3061.41577,0.01441
3059.35559,0.01417
3057.29542,0.01395
3055.23525,0.01379
3053.17508,0.01370
3051.11491,0.01368
3049.05473,0.01372
3046.99456,0.01380
3044.93439,0.01379
3042.87422,0.01352
3040.81404,0.01301
3038.75387,0.01251
3036.69370,0.01224
3034.63353,0.01224
3032.57336,0.01236
3030.51318,0.01241
3028.45301,0.01235
3026.39284,0.01223
3024.33267,0.01211
3022.27250,0.01201
3020.21232,0.01184
3018.15215,0.01158
3016.09198,0.01132
3014.03181,0.01117
3011.97163,0.01115
3009.91146,0.01116
3007.85129,0.01105
3005.79112,0.01077
3003.73095,0.01048
3001.67077,0.01043
2999.61060,0.01073
2997.55043,0.01126
2995.49026,0.01170
2993.43009,0.01179
2991.36991,0.01151
2989.30974,0.01107
2987.24957,0.01069
2985.18940,0.01057
2983.12923,0.01089
2981.06905,0.01147
2979.00888,0.01197
2976.94871,0.01231
2974.88854,0.01246
2972.82836,0.01231
2970.76819,0.01202
2968.70802,0.01189
2966.64785,0.01204
2964.58768,0.01239
2962.52750,0.01277
2960.46733,0.01303
2958.40716,0.01321
2956.34699,0.01346
2954.28682,0.01382
2952.22664,0.01422
2950.16647,0.01467
2948.10630,0.01521
2946.04613,0.01560
2943.98596,0.01560
2941.92578,0.01544
2939.86561,0.01546
2937.80544,0.01565
2935.74527,0.01583
2933.68509,0.01587
2931.62492,0.01573
2929.56475,0.01555
2927.50458,0.01550
2925.44441,0.01550
2923.38423,0.01535
2921.32406,0.01514
2919.26389,0.01508
2917.20372,0.01519
2915.14355,0.01530
2913.08337,0.01529
2911.02320,0.01511
2908.96303,0.01490
2906.90286,0.01475
2904.84268,0.01456
2902.78251,0.01436
2900.72234,0.01424
2898.66217,0.01417
2896.60200,0.01415
2894.54182,0.01420
2892.48165,0.01430
2890.42148,0.01435
2888.36131,0.01422
2886.30114,0.01389
2884.24096,0.01360
2882.18079,0.01364
2880.12062,0.01388
2878.06045,0.01390
2876.00028,0.01362
2873.94010,0.01325
2871.87993,0.01290
2869.81976,0.01253
2867.75959,0.01221
2865.69941,0.01204
2863.63924,0.01206
2861.57907,0.01219
2859.51890,0.01222
2857.45873,0.01205
2855.39855,0.01182
2853.33838,0.01167
2851.27821,0.01154
2849.21804,0.01129
2847.15787,0.01101
2845.09769,0.01081
2843.03752,0.01066
2840.97735,0.01053
2838.91718,0.01047
2836.85700,0.01042
2834.79683,0.01034
2832.73666,0.01029
2830.67649,0.01023
2828.61632,0.01011
2826.55614,0.00997
2824.49597,0.00977
2822.43580,0.00958
2820.37563,0.00954
2818.31546,0.00966
2816.25528,0.00979
2814.19511,0.00980
2812.13494,0.00966
2810.07477,0.00939
2808.01460,0.00910
2805.95442,0.00900
2803.89425,0.00903
2801.83408,0.00902
2799.77391,0.00885
2797.71373,0.00854
2795.65356,0.00831
2793.59339,0.00839
2791.53322,0.00864
2789.47305,0.00884
2787.41287,0.00893
2785.35270,0.00897
2783.29253,0.00894
2781.23236,0.00881
2779.17219,0.00859
2777.11201,0.00851
2775.05184,0.00867
2772.99167,0.00882
2770.93150,0.00872
2768.87133,0.00840
2766.81115,0.00813
2764.75098,0.00809
2762.69081,0.00815
2760.63064,0.00806
2758.57046,0.00778
2756.51029,0.00752
2754.45012,0.00745
2752.38995,0.00757
2750.32978,0.00778
2748.26960,0.00810
2746.20943,0.00838
2744.14926,0.00840
2742.08909,0.00819
2740.02892,0.00789
2737.96874,0.00770
2735.90857,0.00776
2733.84840,0.00790
2731.78823,0.00779
2729.72805,0.00745
2727.66788,0.00729
2725.60771,0.00752
2723.54754,0.00789
2721.48737,0.00799
2719.42719,0.00782
2717.36702,0.00764
2715.30685,0.00761
2713.24668,0.00757
2711.18651,0.00744
2709.12633,0.00734
2707.06616,0.00730
2705.00599,0.00736
2702.94582,0.00754
2700.88565,0.00776
2698.82547,0.00784
2696.76530,0.00774
2694.70513,0.00755
2692.64496,0.00728
2690.58478,0.00707
2688.52461,0.00710
2686.46444,0.00729
2684.40427,0.00741
2682.34410,0.00735
2680.28392,0.00722
2678.22375,0.00715
2676.16358,0.00720
2674.10341,0.00730
2672.04324,0.00741
2669.98306,0.00748
2667.92289,0.00754
2665.86272,0.00760
2663.80255,0.00748
2661.74238,0.00720
2659.68220,0.00710
2657.62203,0.00729
2655.56186,0.00741
2653.50169,0.00730
2651.44151,0.00723
2649.38134,0.00735
2647.32117,0.00743
2645.26100,0.00728
2643.20083,0.00709
2641.14065,0.00710
2639.08048,0.00705
2637.02031,0.00670
2634.96014,0.00626
2632.89997,0.00587
2630.83979,0.00559
2628.77962,0.00555
2626.71945,0.00570
2624.65928,0.00594
2622.59910,0.00624
2620.53893,0.00648
2618.47876,0.00654
2616.41859,0.00643
2614.35842,0.00636
2612.29824,0.00640
2610.23807,0.00633
2608.17790,0.00611
2606.11773,0.00590
2604.05756,0.00578
2601.99738,0.00585
2599.93721,0.00609
2597.87704,0.00632
2595.81687,0.00638
2593.75670,0.00617
2591.69652,0.00581
2589.63635,0.00537
2587.57618,0.00485
2585.51601,0.00458
2583.45583,0.00481
2581.39566,0.00523
2579.33549,0.00546
2577.27532,0.00546
2575.21515,0.00532
2573.15497,0.00510
2571.09480,0.00495
2569.03463,0.00497
2566.97446,0.00504
2564.91429,0.00495
2562.85411,0.00474
2560.79394,0.00474
2558.73377,0.00500
2556.67360,0.00523
2554.61342,0.00535
2552.55325,0.00556
2550.49308,0.00583
2548.43291,0.00590
2546.37274,0.00573
2544.31256,0.00547
2542.25239,0.00515
2540.19222,0.00467
2538.13205,0.00405
2536.07188,0.00363
2534.01170,0.00381
2531.95153,0.00458
2529.89136,0.00541
2527.83119,0.00560
2525.77102,0.00518
2523.71084,0.00482
2521.65067,0.00476
2519.59050,0.00488
2517.53033,0.00520
2515.47015,0.00559
2513.40998,0.00582
2511.34981,0.00582
2509.28964,0.00562
2507.22947,0.00514
2505.16929,0.00452
2503.10912,0.00412
2501.04895,0.00416
2498.98878,0.00454
2496.92861,0.00499
2494.86843,0.00521
2492.80826,0.00520
2490.74809,0.00521
2488.68792,0.00540
2486.62775,0.00550
2484.56757,0.00515
2482.50740,0.00457
2480.44723,0.00425
2478.38706,0.00421
2476.32688,0.00420
2474.26671,0.00429
2472.20654,0.00456
2470.14637,0.00478
2468.08620,0.00488
2466.02602,0.00508
2463.96585,0.00533
2461.90568,0.00537
2459.84551,0.00521
2457.78534,0.00494
2455.72516,0.00466
2453.66499,0.00453
2451.60482,0.00459
2449.54465,0.00473
2447.48447,0.00489
2445.42430,0.00501
2443.36413,0.00506
2441.30396,0.00511
2439.24379,0.00513
2437.18361,0.00505
2435.12344,0.00501
2433.06327,0.00498
2431.00310,0.00479
2428.94293,0.00444
2426.88275,0.00410
2424.82258,0.00391
2422.76241,0.00390
2420.70224,0.00398
2418.64207,0.00421
2416.58189,0.00458
2414.52172,0.00483
2412.46155,0.00474
2410.40138,0.00439
2408.34120,0.00411
2406.28103,0.00399
2404.22086,0.00380
2402.16069,0.00350
2400.10052,0.00345
2398.04034,0.00375
2395.98017,0.00411
2393.92000,0.00435
2391.85983,0.00444
2389.79966,0.00447
2387.73948,0.00446
2385.67931,0.00442
2383.61914,0.00434
2381.55897,0.00427
2379.49880,0.00424
2377.43862,0.00419
2375.37845,0.00391
2373.31828,0.00334
2371.25811,0.00281
2369.19793,0.00297
2367.13776,0.00405
2365.07759,0.00557
2363.01742,0.00680
2360.95725,0.00697
2358.89707,0.00556
2356.83690,0.00316
2354.77673,0.00123
2352.71656,0.00049
2350.65639,0.00068
2348.59621,0.00136
2346.53604,0.00248
2344.47587,0.00403
2342.41570,0.00552
2340.35552,0.00629
2338.29535,0.00630
2336.23518,0.00589
2334.17501,0.00537
2332.11484,0.00502
2330.05466,0.00499
2327.99449,0.00526
2325.93432,0.00554
2323.87415,0.00554
2321.81398,0.00530
2319.75380,0.00514
2317.69363,0.00511
2315.63346,0.00505
2313.57329,0.00489
2311.51312,0.00473
2309.45294,0.00462
2307.39277,0.00454
2305.33260,0.00445
2303.27243,0.00440
2301.21225,0.00440
2299.15208,0.00446
2297.09191,0.00463
2295.03174,0.00498
2292.97157,0.00542
2290.91139,0.00572
2288.85122,0.00567
2286.79105,0.00531
2284.73088,0.00481
2282.67071,0.00440
2280.61053,0.00418
2278.55036,0.00409
2276.49019,0.00401
2274.43002,0.00387
2272.36984,0.00368
2270.30967,0.00352
2268.24950,0.00345
2266.18933,0.00347
2264.12916,0.00354
2262.06898,0.00364
2260.00881,0.00372
2257.94864,0.00368
2255.88847,0.00356
2253.82830,0.00366
2251.76812,0.00411
2249.70795,0.00470
2247.64778,0.00499
2245.58761,0.00453
2243.52744,0.00339
2241.46726,0.00226
2239.40709,0.00191
2237.34692,0.00242
2235.28675,0.00322
2233.22657,0.00395
2231.16640,0.00445
2229.10623,0.00454
2227.04606,0.00426
2224.98589,0.00405
2222.92571,0.00407
2220.86554,0.00391
2218.80537,0.00337
2216.74520,0.00270
2214.68503,0.00238
2212.62485,0.00281
2210.56468,0.00375
2208.50451,0.00461
2206.44434,0.00505
2204.38417,0.00517
2202.32399,0.00515
2200.26382,0.00497
2198.20365,0.00484
2196.14348,0.00494
2194.08330,0.00479
2192.02313,0.00425
2189.96296,0.00391
2187.90279,0.00406
2185.84262,0.00414
2183.78244,0.00375
2181.72227,0.00357
2179.66210,0.00416
2177.60193,0.00519
2175.54176,0.00567
2173.48158,0.00457
2171.42141,0.00259
2169.36124,0.00186
2167.30107,0.00309
2165.24089,0.00508
2163.18072,0.00602
2161.12055,0.00468
2159.06038,0.00208
2157.00021,0.00099
2154.94003,0.00228
2152.87986,0.00406
2150.81969,0.00430
2148.75952,0.00290
2146.69935,0.00154
2144.63917,0.00149
2142.57900,0.00235
2140.51883,0.00327
2138.45866,0.00355
2136.39849,0.00285
2134.33831,0.00208
2132.27814,0.00225
2130.21797,0.00311
2128.15780,0.00401
2126.09762,0.00460
2124.03745,0.00486
2121.97728,0.00497
2119.91711,0.00521
2117.85694,0.00563
2115.79676,0.00583
2113.73659,0.00539
2111.67642,0.00454
2109.61625,0.00412
2107.55608,0.00448
2105.49590,0.00520
2103.43573,0.00568
2101.37556,0.00543
2099.31539,0.00460
2097.25521,0.00389
2095.19504,0.00379
2093.13487,0.00424
2091.07470,0.00492
2089.01453,0.00550
2086.95435,0.00573
2084.89418,0.00553
2082.83401,0.00511
2080.77384,0.00479
2078.71367,0.00480
2076.65349,0.00516
2074.59332,0.00564
2072.53315,0.00592
2070.47298,0.00579
2068.41281,0.00529
2066.35263,0.00458
2064.29246,0.00377
2062.23229,0.00312
2060.17212,0.00299
2058.11194,0.00346
2056.05177,0.00431
2053.99160,0.00544
2051.93143,0.00667
2049.87126,0.00744
2047.81108,0.00728
2045.75091,0.00645
2043.69074,0.00545
2041.63057,0.00459
2039.57040,0.00394
2037.51022,0.00340
2035.45005,0.00274
2033.38988,0.00205
2031.32971,0.00186
2029.26954,0.00254
2027.20936,0.00395
2025.14919,0.00555
2023.08902,0.00671
2021.02885,0.00686
2018.96867,0.00574
2016.90850,0.00369
2014.84833,0.00167
2012.78816,0.00042
2010.72799,0.00000
2008.66781,0.00020
2006.60764,0.00090
2004.54747,0.00190
2002.48730,0.00276
2000.42713,0.00316
1998.36695,0.00328
1996.30678,0.00371
1994.24661,0.00477
1992.18644,0.00608
1990.12626,0.00700
1988.06609,0.00725
1986.00592,0.00686
1983.94575,0.00610
1981.88558,0.00530
1979.82540,0.00457
1977.76523,0.00383
1975.70506,0.00307
1973.64489,0.00243
1971.58472,0.00199
1969.52454,0.00177
1967.46437,0.00188
1965.40420,0.00227
1963.34403,0.00272
1961.28386,0.00312
1959.22368,0.00342
1957.16351,0.00351
1955.10334,0.00333
1953.04317,0.00289
1950.98299,0.00228
1948.92282,0.00177
1946.86265,0.00151
1944.80248,0.00147
1942.74231,0.00158
1940.68213,0.00172
1938.62196,0.00180
1936.56179,0.00187
1934.50162,0.00202
1932.44145,0.00213
1930.38127,0.00210
1928.32110,0.00197
1926.26093,0.00165
1924.20076,0.00109
1922.14059,0.00048
1920.08041,0.00019
1918.02024,0.00045
1915.96007,0.00109
1913.89990,0.00180
1911.83972,0.00236
1909.77955,0.00276
1907.71938,0.00302
1905.65921,0.00303
1903.59904,0.00262
1901.53886,0.00194
1899.47869,0.00132
1897.41852,0.00108
1895.35835,0.00128
1893.29818,0.00164
1891.23800,0.00173
1889.17783,0.00143
1887.11766,0.00106
1885.05749,0.00094
1882.99731,0.00105
1880.93714,0.00117
1878.87697,0.00123
1876.81680,0.00135
1874.75663,0.00166
1872.69645,0.00211
1870.63628,0.00247
1868.57611,0.00256
1866.51594,0.00239
1864.45577,0.00210
1862.39559,0.00188
1860.33542,0.00188
1858.27525,0.00209
1856.21508,0.00236
1854.15491,0.00251
1852.09473,0.00245
1850.03456,0.00220
1847.97439,0.00194
1845.91422,0.00185
1843.85404,0.00197
1841.79387,0.00213
1839.73370,0.00219
1837.67353,0.00210
1835.61336,0.00189
1833.55318,0.00160
1831.49301,0.00133
1829.43284,0.00122
1827.37267,0.00131
1825.31250,0.00143
1823.25232,0.00137
1821.19215,0.00112
1819.13198,0.00087
1817.07181,0.00082
1815.01163,0.00100
1812.95146,0.00124
1810.89129,0.00139
1808.83112,0.00142
1806.77095,0.00140
1804.71077,0.00146
1802.65060,0.00165
1800.59043,0.00191
1798.53026,0.00212
1796.47009,0.00210
1794.40991,0.00176
1792.34974,0.00119
1790.28957,0.00071
1788.22940,0.00056
1786.16923,0.00068
1784.10905,0.00085
1782.04888,0.00095
1779.98871,0.00092
1777.92854,0.00076
1775.86836,0.00064
1773.80819,0.00074
1771.74802,0.00105
1769.68785,0.00139
1767.62768,0.00165
1765.56750,0.00183
1763.50733,0.00198
1761.44716,0.00217
1759.38699,0.00242
1757.32682,0.00277
1755.26664,0.00320
1753.20647,0.00376
1751.14630,0.00445
1749.08613,0.00514
1747.02596,0.00562
1744.96578,0.00580
1742.90561,0.00584
1740.84544,0.00595
1738.78527,0.00623
1736.72509,0.00660
1734.66492,0.00690
1732.60475,0.00695
1730.54458,0.00673
1728.48441,0.00647
1726.42423,0.00638
1724.36406,0.00651
1722.30389,0.00674
1720.24372,0.00684
1718.18355,0.00660
1716.12337,0.00596
1714.06320,0.00516
1712.00303,0.00447
1709.94286,0.00400
1707.88268,0.00372
1705.82251,0.00352
1703.76234,0.00342
1701.70217,0.00347
1699.64200,0.00361
1697.58182,0.00371
1695.52165,0.00374
1693.46148,0.00375
1691.40131,0.00388
1689.34114,0.00416
1687.28096,0.00449
1685.22079,0.00476
1683.16062,0.00481
1681.10045,0.00471
1679.04028,0.00472
1676.98010,0.00503
1674.91993,0.00556
1672.85976,0.00615
1670.79959,0.00671
1668.73941,0.00719
1666.67924,0.00756
1664.61907,0.00788
1662.55890,0.00818
1660.49873,0.00847
1658.43855,0.00883
1656.37838,0.00930
1654.31821,0.00982
1652.25804,0.01028
1650.19787,0.01070
1648.13769,0.01112
1646.07752,0.01143
1644.01735,0.01154
1641.95718,0.01165
1639.89701,0.01194
1637.83683,0.01240
1635.77666,0.01281
1633.71649,0.01293
1631.65632,0.01284
1629.59614,0.01270
1627.53597,0.01264
1625.47580,0.01273
1623.41563,0.01291
1621.35546,0.01306
1619.29528,0.01314
1617.23511,0.01312
1615.17494,0.01296
1613.11477,0.01268
1611.05460,0.01235
1608.99442,0.01198
1606.93425,0.01158
1604.87408,0.01107
1602.81391,0.01044
1600.75373,0.00972
1598.69356,0.00899
1596.63339,0.00830
1594.57322,0.00763
1592.51305,0.00695
1590.45287,0.00626
1588.39270,0.00551
1586.33253,0.00473
1584.27236,0.00402
1582.21219,0.00348
1580.15201,0.00314
1578.09184,0.00293
1576.03167,0.00273
1573.97150,0.00246
1571.91133,0.00218
1569.85115,0.00192
1567.79098,0.00166
1565.73081,0.00149
1563.67064,0.00152
1561.61046,0.00176
1559.55029,0.00202
1557.49012,0.00197
1555.42995,0.00169
1553.36978,0.00143
1551.30960,0.00128
1549.24943,0.00128
1547.18926,0.00147
1545.12909,0.00177
1543.06892,0.00187
1541.00874,0.00156
1538.94857,0.00101
1536.88840,0.00061
1534.82823,0.00045
1532.76805,0.00037
1530.70788,0.00032
1528.64771,0.00041
1526.58754,0.00065
1524.52737,0.00098
1522.46719,0.00129
1520.40702,0.00139
1518.34685,0.00117
1516.28668,0.00076
1514.22651,0.00046
1512.16633,0.00054
1510.10616,0.00095
1508.04599,0.00138
1505.98582,0.00153
1503.92565,0.00137
1501.86547,0.00111
1499.80530,0.00092
1497.74513,0.00081
1495.68496,0.00079
1493.62478,0.00088
1491.56461,0.00109
1489.50444,0.00130
1487.44427,0.00141
1485.38410,0.00146
1483.32392,0.00155
1481.26375,0.00175
1479.20358,0.00204
1477.14341,0.00238
1475.08324,0.00273
1473.02306,0.00312
1470.96289,0.00356
1468.90272,0.00407
1466.84255,0.00464
1464.78238,0.00515
1462.72220,0.00549
1460.66203,0.00573
1458.60186,0.00594
1456.54169,0.00617
1454.48151,0.00639
1452.42134,0.00658
1450.36117,0.00675
1448.30100,0.00691
1446.24083,0.00705
1444.18065,0.00719
1442.12048,0.00744
1440.06031,0.00783
1438.00014,0.00831
1435.93997,0.00877
1433.87979,0.00918
1431.81962,0.00952
1429.75945,0.00975
1427.69928,0.00990
1425.63910,0.01004
1423.57893,0.01026
1421.51876,0.01062
1419.45859,0.01106
1417.39842,0.01146
1415.33824,0.01174
1413.27807,0.01189
1411.21790,0.01187
1409.15773,0.01167
1407.09756,0.01136
1405.03738,0.01104
1402.97721,0.01072
1400.91704,0.01042
1398.85687,0.01013
1396.79670,0.00982
1394.73652,0.00953
1392.67635,0.00934
1390.61618,0.00931
1388.55601,0.00937
1386.49583,0.00942
1384.43566,0.00949
1382.37549,0.00965
1380.31532,0.00996
1378.25515,0.01040
1376.19497,0.01086
1374.13480,0.01121
1372.07463,0.01129
1370.01446,0.01113
1367.95429,0.01083
1365.89411,0.01050
1363.83394,0.01021
1361.77377,0.01002
1359.71360,0.00993
1357.65343,0.00989
1355.59325,0.00982
1353.53308,0.00971
1351.47291,0.00960
1349.41274,0.00946
1347.35256,0.00931
1345.29239,0.00919
1343.23222,0.00907
1341.17205,0.00892
1339.11188,0.00874
1337.05170,0.00863
1334.99153,0.00863
1332.93136,0.00871
1330.87119,0.00874
1328.81102,0.00869
1326.75084,0.00862
1324.69067,0.00863
1322.63050,0.00871
1320.57033,0.00882
1318.51015,0.00890
1316.44998,0.00897
1314.38981,0.00903
1312.32964,0.00904
1310.26947,0.00893
1308.20929,0.00872
1306.14912,0.00849
1304.08895,0.00833
1302.02878,0.00823
1299.96861,0.00814
1297.90843,0.00799
1295.84826,0.00781
1293.78809,0.00763
1291.72792,0.00749
1289.66775,0.00740
1287.60757,0.00736
1285.54740,0.00737
1283.48723,0.00739
1281.42706,0.00740
1279.36688,0.00742
1277.30671,0.00745
1275.24654,0.00752
1273.18637,0.00769
1271.12620,0.00798
1269.06602,0.00835
1267.00585,0.00874
1264.94568,0.00911
1262.88551,0.00947
1260.82534,0.00979
1258.76516,0.01007
1256.70499,0.01034
1254.64482,0.01060
1252.58465,0.01085
1250.52447,0.01107
1248.46430,0.01123
1246.40413,0.01128
1244.34396,0.01120
1242.28379,0.01101
1240.22361,0.01074
1238.16344,0.01040
1236.10327,0.01008
1234.04310,0.00981
1231.98293,0.00958
1229.92275,0.00935
1227.86258,0.00907
1225.80241,0.00871
1223.74224,0.00831
1221.68207,0.00791
1219.62189,0.00753
1217.56172,0.00710
1215.50155,0.00663
1213.44138,0.00617
1211.38120,0.00576
1209.32103,0.00534
1207.26086,0.00484
1205.20069,0.00422
1203.14052,0.00350
1201.08034,0.00272
1199.02017,0.00196
1196.96000,0.00126
1194.89983,0.00067
1192.83966,0.00029
1190.77948,0.00015
1188.71931,0.00006
1186.65914,0.00000
1184.59897,0.00012
1182.53880,0.00050
1180.47862,0.00096
1178.41845,0.00156
1176.35828,0.00241
1174.29811,0.00320
1172.23793,0.00372
1170.17776,0.00424
1168.11759,0.00508
1166.05742,0.00608
1163.99725,0.00687
1161.93707,0.00745
1159.87690,0.00808
1157.81673,0.00875
1155.75656,0.00935
1153.69639,0.00998
1151.63621,0.01067
1149.57604,0.01125
1147.51587,0.01159
1145.45570,0.01172
1143.39552,0.01168
1141.33535,0.01156
1139.27518,0.01155
1137.21501,0.01176
1135.15484,0.01204
1133.09466,0.01226
1131.03449,0.01258
1128.97432,0.01323
1126.91415,0.01405
1124.85398,0.01478
1122.79380,0.01542
1120.73363,0.01605
1118.67346,0.01656
1116.61329,0.01694
1114.55312,0.01739
1112.49294,0.01799
1110.43277,0.01869
1108.37260,0.01953
1106.31243,0.02043
1104.25225,0.02120
1102.19208,0.02176
1100.13191,0.02222
1098.07174,0.02279
1096.01157,0.02357
1093.95139,0.02449
1091.89122,0.02546
1089.83105,0.02640
1087.77088,0.02728
1085.71071,0.02812
1083.65053,0.02894
1081.59036,0.02984
1079.53019,0.03082
1077.47002,0.03182
1075.40985,0.03273
1073.34967,0.03343
1071.28950,0.03389
1069.22933,0.03425
1067.16916,0.03455
1065.10898,0.03493
1063.04881,0.03540
1060.98864,0.03574
1058.92847,0.03582
1056.86830,0.03589
1054.80812,0.03621
1052.74795,0.03683
1050.68778,0.03751
1048.62761,0.03815
1046.56744,0.03881
1044.50726,0.03942
1042.44709,0.03991
1040.38692,0.04037
1038.32675,0.04078
1036.26657,0.04105
1034.20640,0.04126
1032.14623,0.04154
1030.08606,0.04182
1028.02589,0.04207
1025.96571,0.04225
1023.90554,0.04235
1021.84537,0.04250
1019.78520,0.04269
1017.72503,0.04267
1015.66485,0.04250
1013.60468,0.04247
1011.54451,0.04252
1009.48434,0.04254
1007.42417,0.04247
1005.36399,0.04220
1003.30382,0.04168
1001.24365,0.04115
999.18348,0.04090
997.12330,0.04067
995.06313,0.04003
993.00296,0.03918
990.94279,0.03863
988.88262,0.03843
986.82244,0.03819
984.76227,0.03771
982.70210,0.03715
980.64193,0.03673
978.58176,0.03653
976.52158,0.03641
974.46141,0.03626
972.40124,0.03609
970.34107,0.03580
968.28089,0.03516
966.22072,0.03437
964.16055,0.03389
962.10038,0.03364
960.04021,0.03327
957.98003,0.03278
955.91986,0.03224
953.85969,0.03164
951.79952,0.03112
949.73935,0.03061
947.67917,0.02970
945.61900,0.02847
943.55883,0.02731
941.49866,0.02625
939.43849,0.02512
937.37831,0.02398
935.31814,0.02274
933.25797,0.02106
931.19780,0.01913
929.13762,0.01755
927.07745,0.01633
925.01728,0.01509
922.95711,0.01389
920.89694,0.01294
918.83676,0.01227
916.77659,0.01184
914.71642,0.01138
912.65625,0.01069
910.59608,0.00997
908.53590,0.00945
906.47573,0.00914
904.41556,0.00895
902.35539,0.00890
900.29522,0.00885
898.23504,0.00851
896.17487,0.00800
894.11470,0.00791
892.05453,0.00835
889.99435,0.00866
887.93418,0.00837
885.87401,0.00773
883.81384,0.00700
881.75367,0.00628
879.69349,0.00584
877.63332,0.00563
875.57315,0.00549
873.51298,0.00540
871.45281,0.00513
869.39263,0.00445
867.33246,0.00374
865.27229,0.00351
863.21212,0.00380
861.15194,0.00416
859.09177,0.00411
857.03160,0.00377
854.97143,0.00345
852.91126,0.00322
850.85108,0.00310
848.79091,0.00303
846.73074,0.00300
844.67057,0.00293
842.61040,0.00269
840.55022,0.00234
838.49005,0.00193
836.42988,0.00150
834.36971,0.00120
832.30954,0.00102
830.24936,0.00090
828.18919,0.00078
826.12902,0.00068
824.06885,0.00076
822.00867,0.00117
819.94850,0.00186
817.88833,0.00252
815.82816,0.00296
813.76799,0.00335
811.70781,0.00357
809.64764,0.00326
807.58747,0.00263
805.52730,0.00232
803.46713,0.00251
801.40695,0.00256
799.34678,0.00204
797.28661,0.00140
795.22644,0.00113
793.16627,0.00112
791.10609,0.00107
789.04592,0.00118
786.98575,0.00154
784.92558,0.00184
782.86540,0.00184
780.80523,0.00163
778.74506,0.00138
776.68489,0.00119
774.62472,0.00100
772.56454,0.00057
770.50437,0.00000
768.44420,-0.00012
766.38403,0.00070
764.32386,0.00223
762.26368,0.00341
760.20351,0.00323
758.14334,0.00204
756.08317,0.00103
754.02299,0.00083
751.96282,0.00133
749.90265,0.00215
747.84248,0.00271
745.78231,0.00250
743.72213,0.00186
741.66196,0.00157
739.60179,0.00164
737.54162,0.00161
735.48145,0.00140
733.42127,0.00120
731.36110,0.00103
729.30093,0.00109
727.24076,0.00144
725.18059,0.00168
723.12041,0.00165
721.06024,0.00154
719.00007,0.00160
716.93990,0.00201
714.87972,0.00276
712.81955,0.00364
710.75938,0.00438
708.69921,0.00485
706.63904,0.00509
704.57886,0.00501
702.51869,0.00448
700.45852,0.00371
698.39835,0.00301
696.33818,0.00263
694.27800,0.00274
692.21783,0.00339
690.15766,0.00441
688.09749,0.00526
686.03731,0.00550
683.97714,0.00520
681.91697,0.00487
679.85680,0.00495
677.79663,0.00560
675.73645,0.00657
673.67628,0.00724
671.61611,0.00713
669.55594,0.00646
667.49577,0.00587
665.43559,0.00552
663.37542,0.00508
661.31525,0.00462
659.25508,0.00461
657.19491,0.00520
655.13473,0.00600
653.07456,0.00679
651.01439,0.00777
648.95422,0.00891
646.89404,0.00964
644.83387,0.00941
642.77370,0.00838
640.71353,0.00733
638.65336,0.00709
636.59318,0.00783
634.53301,0.00891
632.47284,0.00954
630.41267,0.00925
628.35250,0.00800
626.29232,0.00658
624.23215,0.00688
622.17198,0.00889
620.11181,0.01083
618.05164,0.01218
615.99146,0.01295
613.93129,0.01183
611.87112,0.00873
609.81095,0.00487
607.75077,0.00137
605.69060,0.00000
603.63043,-0.00037
601.57026,0.00010
599.51009,0.00000
