3996.73391,0.00055
3994.67373,0.00113
3992.61356,0.00152
3990.55339,0.00155
3988.49322,0.00131
3986.43305,0.00097
3984.37287,0.00066
3982.31270,0.00038
3980.25253,0.00015
3978.19236,0.00009
3976.13219,0.00021
3974.07201,0.00037
3972.01184,0.00038
3969.95167,0.00022
3967.89150,0.00003
3965.83133,0.00000
3963.77115,0.00023
3961.71098,0.00065
3959.65081,0.00103
3957.59064,0.00117
3955.53046,0.00106
3953.47029,0.00088
3951.41012,0.00080
3949.34995,0.00085
3947.28978,0.00097
3945.22960,0.00113
3943.16943,0.00127
3941.10926,0.00137
3939.04909,0.00139
3936.98892,0.00129
3934.92874,0.00106
3932.86857,0.00078
3930.80840,0.00060
3928.74823,0.00068
3926.68805,0.00102
3924.62788,0.00139
3922.56771,0.00154
3920.50754,0.00146
3918.44737,0.00123
3916.38719,0.00094
3914.32702,0.00071
3912.26685,0.00073
3910.20668,0.00100
3908.14651,0.00136
3906.08633,0.00157
3904.02616,0.00153
3901.96599,0.00143
3899.90582,0.00139
3897.84565,0.00133
3895.78547,0.00120
3893.72530,0.00112
3891.66513,0.00114
3889.60496,0.00108
3887.54478,0.00088
3885.48461,0.00065
3883.42444,0.00051
3881.36427,0.00060
3879.30410,0.00097
3877.24392,0.00151
3875.18375,0.00200
3873.12358,0.00228
3871.06341,0.00236
3869.00324,0.00231
3866.94306,0.00224
3864.88289,0.00216
3862.82272,0.00201
3860.76255,0.00188
3858.70237,0.00199
3856.64220,0.00232
3854.58203,0.00255
3852.52186,0.00227
3850.46169,0.00155
3848.40151,0.00092
3846.34134,0.00079
3844.28117,0.00117
3842.22100,0.00182
3840.16083,0.00241
3838.10065,0.00264
3836.04048,0.00232
3833.98031,0.00163
3831.92014,0.00100
3829.85997,0.00080
3827.79979,0.00111
3825.73962,0.00164
3823.67945,0.00208
3821.61928,0.00223
3819.55910,0.00202
3817.49893,0.00157
3815.43876,0.00113
3813.37859,0.00091
3811.31842,0.00103
3809.25824,0.00143
3807.19807,0.00188
3805.13790,0.00224
3803.07773,0.00255
3801.01756,0.00276
3798.95738,0.00270
3796.89721,0.00238
3794.83704,0.00197
3792.77687,0.00163
3790.71670,0.00147
3788.65652,0.00156
3786.59635,0.00188
3784.53618,0.00219
3782.47601,0.00224
3780.41583,0.00199
3778.35566,0.00160
3776.29549,0.00138
3774.23532,0.00153
3772.17515,0.00191
3770.11497,0.00213
3768.05480,0.00198
3765.99463,0.00160
3763.93446,0.00129
3761.87429,0.00121
3759.81411,0.00130
3757.75394,0.00148
3755.69377,0.00171
3753.63360,0.00191
3751.57342,0.00200
3749.51325,0.00200
3747.45308,0.00193
3745.39291,0.00180
3743.33274,0.00164
3741.27256,0.00158
3739.21239,0.00171
3737.15222,0.00197
3735.09205,0.00219
3733.03188,0.00232
3730.97170,0.00245
3728.91153,0.00260
3726.85136,0.00275
3724.79119,0.00277
3722.73102,0.00256
3720.67084,0.00212
3718.61067,0.00162
3716.55050,0.00133
3714.49033,0.00139
3712.43015,0.00170
3710.36998,0.00198
3708.30981,0.00201
3706.24964,0.00184
3704.18947,0.00160
3702.12929,0.00145
3700.06912,0.00154
3698.00895,0.00193
3695.94878,0.00252
3693.88861,0.00315
3691.82843,0.00357
3689.76826,0.00358
3687.70809,0.00316
3685.64792,0.00263
3683.58775,0.00235
3681.52757,0.00252
3679.46740,0.00303
3677.40723,0.00363
3675.34706,0.00396
3673.28688,0.00383
3671.22671,0.00340
3669.16654,0.00291
3667.10637,0.00246
3665.04620,0.00217
3662.98602,0.00211
3660.92585,0.00224
3658.86568,0.00244
3656.80551,0.00267
3654.74534,0.00286
3652.68516,0.00291
3650.62499,0.00279
3648.56482,0.00269
3646.50465,0.00279
3644.44447,0.00303
3642.38430,0.00324
3640.32413,0.00338
3638.26396,0.00354
3636.20379,0.00378
3634.14361,0.00399
3632.08344,0.00408
3630.02327,0.00408
3627.96310,0.00400
3625.90293,0.00388
3623.84275,0.00375
3621.78258,0.00355
3619.72241,0.00325
3617.66224,0.00302
3615.60207,0.00305
3613.54189,0.00341
3611.48172,0.00400
3609.42155,0.00456
3607.36138,0.00494
3605.30120,0.00527
3603.24103,0.00569
3601.18086,0.00612
3599.12069,0.00640
3597.06052,0.00655
3595.00034,0.00664
3592.94017,0.00667
3590.88000,0.00667
3588.81983,0.00670
3586.75966,0.00680
3584.69948,0.00695
3582.63931,0.00713
3580.57914,0.00728
3578.51897,0.00741
3576.45879,0.00752
3574.39862,0.00757
3572.33845,0.00754
3570.27828,0.00740
3568.21811,0.00728
3566.15793,0.00732
3564.09776,0.00760
3562.03759,0.00797
3559.97742,0.00821
3557.91725,0.00836
3555.85707,0.00862
3553.79690,0.00902
3551.73673,0.00940
3549.67656,0.00966
3547.61639,0.00983
3545.55621,0.00998
3543.49604,0.01014
3541.43587,0.01029
3539.37570,0.01047
3537.31552,0.01073
3535.25535,0.01110
3533.19518,0.01151
3531.13501,0.01175
3529.07484,0.01169
3527.01466,0.01147
3524.95449,0.01136
3522.89432,0.01140
3520.83415,0.01152
3518.77398,0.01167
3516.71380,0.01189
3514.65363,0.01222
3512.59346,0.01266
3510.53329,0.01314
3508.47312,0.01358
3506.41294,0.01389
3504.35277,0.01403
3502.29260,0.01403
3500.23243,0.01401
3498.17225,0.01405
3496.11208,0.01416
3494.05191,0.01428
3491.99174,0.01439
3489.93157,0.01450
3487.87139,0.01456
3485.81122,0.01452
3483.75105,0.01445
3481.69088,0.01444
3479.63071,0.01457
3477.57053,0.01485
3475.51036,0.01521
3473.45019,0.01549
3471.39002,0.01563
3469.32984,0.01576
3467.26967,0.01601
3465.20950,0.01626
3463.14933,0.01640
3461.08916,0.01643
3459.02898,0.01647
3456.96881,0.01662
3454.90864,0.01685
3452.84847,0.01709
3450.78830,0.01730
3448.72812,0.01746
3446.66795,0.01752
3444.60778,0.01745
3442.54761,0.01729
3440.48744,0.01712
3438.42726,0.01711
3436.36709,0.01736
3434.30692,0.01779
3432.24675,0.01822
3430.18657,0.01850
3428.12640,0.01861
3426.06623,0.01860
3424.00606,0.01857
3421.94589,0.01863
3419.88571,0.01878
3417.82554,0.01892
3415.76537,0.01902
3413.70520,0.01916
3411.64503,0.01939
3409.58485,0.01964
3407.52468,0.01980
3405.46451,0.01982
3403.40434,0.01979
3401.34416,0.01984
3399.28399,0.01997
3397.22382,0.02014
3395.16365,0.02029
3393.10348,0.02046
3391.04330,0.02068
3388.98313,0.02090
3386.92296,0.02106
3384.86279,0.02117
3382.80262,0.02121
3380.74244,0.02125
3378.68227,0.02133
3376.62210,0.02144
3374.56193,0.02152
3372.50176,0.02151
3370.44158,0.02143
3368.38141,0.02136
3366.32124,0.02139
3364.26107,0.02152
3362.20089,0.02169
3360.14072,0.02179
3358.08055,0.02176
3356.02038,0.02165
3353.96021,0.02161
3351.90003,0.02174
3349.83986,0.02201
3347.77969,0.02220
3345.71952,0.02219
3343.65935,0.02209
3341.59917,0.02212
3339.53900,0.02234
3337.47883,0.02267
3335.41866,0.02297
3333.35849,0.02315
3331.29831,0.02320
3329.23814,0.02315
3327.17797,0.02304
3325.11780,0.02294
3323.05762,0.02296
3320.99745,0.02315
3318.93728,0.02337
3316.87711,0.02346
3314.81694,0.02343
3312.75676,0.02340
3310.69659,0.02345
3308.63642,0.02354
3306.57625,0.02358
3304.51608,0.02352
3302.45590,0.02338
3300.39573,0.02327
3298.33556,0.02323
3296.27539,0.02318
3294.21521,0.02308
3292.15504,0.02300
3290.09487,0.02304
3288.03470,0.02319
3285.97453,0.02336
3283.91435,0.02352
3281.85418,0.02369
3279.79401,0.02383
3277.73384,0.02383
3275.67367,0.02370
3273.61349,0.02349
3271.55332,0.02331
3269.49315,0.02326
3267.43298,0.02340
3265.37281,0.02365
3263.31263,0.02389
3261.25246,0.02406
3259.19229,0.02414
3257.13212,0.02409
3255.07194,0.02388
3253.01177,0.02356
3250.95160,0.02326
3248.89143,0.02311
3246.83126,0.02315
3244.77108,0.02333
3242.71091,0.02355
3240.65074,0.02370
3238.59057,0.02373
3236.53040,0.02366
3234.47022,0.02356
3232.41005,0.02347
3230.34988,0.02335
3228.28971,0.02314
3226.22954,0.02289
3224.16936,0.02275
3222.10919,0.02277
3220.04902,0.02279
3217.98885,0.02266
3215.92867,0.02251
3213.86850,0.02257
3211.80833,0.02285
3209.74816,0.02312
3207.68799,0.02314
3205.62781,0.02290
3203.56764,0.02253
3201.50747,0.02221
3199.44730,0.02196
3197.38713,0.02172
3195.32695,0.02149
3193.26678,0.02130
3191.20661,0.02115
3189.14644,0.02097
3187.08626,0.02077
3185.02609,0.02063
3182.96592,0.02062
3180.90575,0.02072
3178.84558,0.02080
3176.78540,0.02072
3174.72523,0.02052
3172.66506,0.02029
3170.60489,0.02006
3168.54472,0.01984
3166.48454,0.01967
3164.42437,0.01960
3162.36420,0.01952
3160.30403,0.01937
3158.24386,0.01911
3156.18368,0.01880
3154.12351,0.01854
3152.06334,0.01846
3150.00317,0.01854
3147.94299,0.01866
3145.88282,0.01865
3143.82265,0.01851
3141.76248,0.01835
3139.70231,0.01826
3137.64213,0.01831
3135.58196,0.01843
3133.52179,0.01838
3131.46162,0.01798
3129.40145,0.01732
3127.34127,0.01667
3125.28110,0.01623
3123.22093,0.01607
3121.16076,0.01612
3119.10058,0.01626
3117.04041,0.01637
3114.98024,0.01640
3112.92007,0.01634
3110.85990,0.01619
3108.79972,0.01600
3106.73955,0.01576
3104.67938,0.01547
3102.61921,0.01515
3100.55904,0.01486
3098.49886,0.01466
3096.43869,0.01456
3094.37852,0.01454
3092.31835,0.01456
3090.25818,0.01451
3088.19800,0.01440
3086.13783,0.01423
3084.07766,0.01401
3082.01749,0.01372
3079.95731,0.01339
3077.89714,0.01307
3075.83697,0.01283
3073.77680,0.01266
3071.71663,0.01259
3069.65645,0.01262
3067.59628,0.01270
3065.53611,0.01271
3063.47594,0.01261
3061.41577,0.01248
3059.35559,0.01240
3057.29542,0.01239
3055.23525,0.01240
3053.17508,0.01235
3051.11491,0.01219
3049.05473,0.01195
3046.99456,0.01176
3044.93439,0.01166
3042.87422,0.01156
3040.81404,0.01138
3038.75387,0.01114
3036.69370,0.01095
3034.63353,0.01089
3032.57336,0.01096
3030.51318,0.01106
3028.45301,0.01107
3026.39284,0.01102
3024.33267,0.01095
3022.27250,0.01089
3020.21232,0.01078
3018.15215,0.01058
3016.09198,0.01033
3014.03181,0.01016
3011.97163,0.01011
3009.91146,0.01012
3007.85129,0.01006
3005.79112,0.00990
3003.73095,0.00979
3001.67077,0.00992
2999.61060,0.01028
2997.55043,0.01059
2995.49026,0.01068
2993.43009,0.01068
2991.36991,0.01066
2989.30974,0.01053
2987.24957,0.01030
2985.18940,0.01016
2983.12923,0.01019
2981.06905,0.01024
2979.00888,0.01022
2976.94871,0.01025
2974.88854,0.01050
2972.82836,0.01087
2970.76819,0.01106
2968.70802,0.01104
2966.64785,0.01116
2964.58768,0.01158
2962.52750,0.01193
2960.46733,0.01198
2958.40716,0.01189
2956.34699,0.01187
2954.28682,0.01198
2952.22664,0.01214
2950.16647,0.01241
2948.10630,0.01292
2946.04613,0.01342
2943.98596,0.01365
2941.92578,0.01372
2939.86561,0.01380
2937.80544,0.01387
2935.74527,0.01391
2933.68509,0.01385
2931.62492,0.01365
2929.56475,0.01344
2927.50458,0.01342
2925.44441,0.01352
2923.38423,0.01351
2921.32406,0.01339
2919.26389,0.01334
2917.20372,0.01352
2915.14355,0.01373
2913.08337,0.01370
2911.02320,0.01338
2908.96303,0.01299
2906.90286,0.01279
2904.84268,0.01283
2902.78251,0.01296
2900.72234,0.01299
2898.66217,0.01289
2896.60200,0.01286
2894.54182,0.01298
2892.48165,0.01308
2890.42148,0.01306
2888.36131,0.01291
2886.30114,0.01252
2884.24096,0.01203
2882.18079,0.01192
2880.12062,0.01220
2878.06045,0.01241
2876.00028,0.01238
2873.94010,0.01219
2871.87993,0.01181
2869.81976,0.01143
2867.75959,0.01132
2865.69941,0.01143
2863.63924,0.01157
2861.57907,0.01159
2859.51890,0.01141
2857.45873,0.01111
2855.39855,0.01097
2853.33838,0.01107
2851.27821,0.01107
2849.21804,0.01072
2847.15787,0.01024
2845.09769,0.00998
2843.03752,0.00996
2840.97735,0.01006
2838.91718,0.01025
2836.85700,0.01032
2834.79683,0.01007
2832.73666,0.00971
2830.67649,0.00965
2828.61632,0.00982
2826.55614,0.00980
2824.49597,0.00948
2822.43580,0.00925
2820.37563,0.00921
2818.31546,0.00928
2816.25528,0.00947
2814.19511,0.00968
2812.13494,0.00970
2810.07477,0.00950
2808.01460,0.00927
2805.95442,0.00919
2803.89425,0.00913
2801.83408,0.00897
2799.77391,0.00878
2797.71373,0.00864
2795.65356,0.00854
2793.59339,0.00850
2791.53322,0.00852
2789.47305,0.00858
2787.41287,0.00870
2785.35270,0.00878
2783.29253,0.00874
2781.23236,0.00868
2779.17219,0.00859
2777.11201,0.00843
2775.05184,0.00826
2772.99167,0.00823
2770.93150,0.00834
2768.87133,0.00847
2766.81115,0.00851
2764.75098,0.00848
2762.69081,0.00840
2760.63064,0.00831
2758.57046,0.00823
2756.51029,0.00820
2754.45012,0.00822
2752.38995,0.00815
2750.32978,0.00800
2748.26960,0.00797
2746.20943,0.00812
2744.14926,0.00825
2742.08909,0.00828
2740.02892,0.00828
2737.96874,0.00827
2735.90857,0.00822
2733.84840,0.00813
2731.78823,0.00805
2729.72805,0.00801
2727.66788,0.00803
2725.60771,0.00813
2723.54754,0.00818
2721.48737,0.00813
2719.42719,0.00804
2717.36702,0.00795
2715.30685,0.00784
2713.24668,0.00780
2711.18651,0.00789
2709.12633,0.00799
2707.06616,0.00799
2705.00599,0.00794
2702.94582,0.00796
2700.88565,0.00804
2698.82547,0.00809
2696.76530,0.00808
2694.70513,0.00801
2692.64496,0.00784
2690.58478,0.00766
2688.52461,0.00754
2686.46444,0.00749
2684.40427,0.00751
2682.34410,0.00761
2680.28392,0.00764
2678.22375,0.00760
2676.16358,0.00759
2674.10341,0.00764
2672.04324,0.00781
2669.98306,0.00808
2667.92289,0.00825
2665.86272,0.00818
2663.80255,0.00805
2661.74238,0.00804
2659.68220,0.00818
2657.62203,0.00835
2655.56186,0.00838
2653.50169,0.00824
2651.44151,0.00819
2649.38134,0.00823
2647.32117,0.00805
2645.26100,0.00759
2643.20083,0.00728
2641.14065,0.00734
2639.08048,0.00742
2637.02031,0.00732
2634.96014,0.00719
2632.89997,0.00703
2630.83979,0.00691
2628.77962,0.00702
2626.71945,0.00725
2624.65928,0.00736
2622.59910,0.00729
2620.53893,0.00715
2618.47876,0.00698
2616.41859,0.00681
2614.35842,0.00684
2612.29824,0.00718
2610.23807,0.00754
2608.17790,0.00750
2606.11773,0.00712
2604.05756,0.00668
2601.99738,0.00641
2599.93721,0.00642
2597.87704,0.00671
2595.81687,0.00694
2593.75670,0.00677
2591.69652,0.00646
2589.63635,0.00631
2587.57618,0.00626
2585.51601,0.00634
2583.45583,0.00654
2581.39566,0.00648
2579.33549,0.00609
2577.27532,0.00582
2575.21515,0.00595
2573.15497,0.00625
2571.09480,0.00636
2569.03463,0.00620
2566.97446,0.00596
2564.91429,0.00566
2562.85411,0.00526
2560.79394,0.00512
2558.73377,0.00538
2556.67360,0.00568
2554.61342,0.00593
2552.55325,0.00639
2550.49308,0.00686
2548.43291,0.00686
2546.37274,0.00642
2544.31256,0.00611
2542.25239,0.00628
2540.19222,0.00645
2538.13205,0.00611
2536.07188,0.00551
2534.01170,0.00531
2531.95153,0.00580
2529.89136,0.00661
2527.83119,0.00700
2525.77102,0.00674
2523.71084,0.00634
2521.65067,0.00624
2519.59050,0.00630
2517.53033,0.00641
2515.47015,0.00656
2513.40998,0.00669
2511.34981,0.00669
2509.28964,0.00653
2507.22947,0.00623
2505.16929,0.00600
2503.10912,0.00592
2501.04895,0.00591
2498.98878,0.00600
2496.92861,0.00616
2494.86843,0.00613
2492.80826,0.00601
2490.74809,0.00618
2488.68792,0.00657
2486.62775,0.00677
2484.56757,0.00666
2482.50740,0.00651
2480.44723,0.00659
2478.38706,0.00677
2476.32688,0.00664
2474.26671,0.00624
2472.20654,0.00599
2470.14637,0.00611
2468.08620,0.00633
2466.02602,0.00631
2463.96585,0.00609
2461.90568,0.00604
2459.84551,0.00632
2457.78534,0.00660
2455.72516,0.00672
2453.66499,0.00674
2451.60482,0.00654
2449.54465,0.00621
2447.48447,0.00619
2445.42430,0.00646
2443.36413,0.00651
2441.30396,0.00625
2439.24379,0.00608
2437.18361,0.00624
2435.12344,0.00642
2433.06327,0.00640
2431.00310,0.00629
2428.94293,0.00598
2426.88275,0.00541
2424.82258,0.00521
2422.76241,0.00579
2420.70224,0.00655
2418.64207,0.00677
2416.58189,0.00654
2414.52172,0.00631
2412.46155,0.00602
2410.40138,0.00549
2408.34120,0.00491
2406.28103,0.00465
2404.22086,0.00473
2402.16069,0.00501
2400.10052,0.00537
2398.04034,0.00567
2395.98017,0.00585
2393.92000,0.00590
2391.85983,0.00587
2389.79966,0.00581
2387.73948,0.00574
2385.67931,0.00562
2383.61914,0.00543
2381.55897,0.00517
2379.49880,0.00489
2377.43862,0.00458
2375.37845,0.00414
2373.31828,0.00348
2371.25811,0.00286
2369.19793,0.00282
2367.13776,0.00357
2365.07759,0.00481
2363.01742,0.00612
2360.95725,0.00703
2358.89707,0.00694
2356.83690,0.00606
2354.77673,0.00524
2352.71656,0.00479
2350.65639,0.00456
2348.59621,0.00454
2346.53604,0.00496
2344.47587,0.00596
2342.41570,0.00724
2340.35552,0.00826
2338.29535,0.00882
2336.23518,0.00900
2334.17501,0.00907
2332.11484,0.00920
2330.05466,0.00922
2327.99449,0.00890
2325.93432,0.00823
2323.87415,0.00741
2321.81398,0.00673
2319.75380,0.00646
2317.69363,0.00655
2315.63346,0.00672
2313.57329,0.00680
2311.51312,0.00679
2309.45294,0.00674
2307.39277,0.00662
2305.33260,0.00638
2303.27243,0.00612
2301.21225,0.00599
2299.15208,0.00603
2297.09191,0.00626
2295.03174,0.00659
2292.97157,0.00692
2290.91139,0.00716
2288.85122,0.00727
2286.79105,0.00722
2284.73088,0.00699
2282.67071,0.00668
2280.61053,0.00643
2278.55036,0.00643
2276.49019,0.00668
2274.43002,0.00695
2272.36984,0.00691
2270.30967,0.00640
2268.24950,0.00569
2266.18933,0.00529
2264.12916,0.00548
2262.06898,0.00600
2260.00881,0.00629
2257.94864,0.00601
2255.88847,0.00533
2253.82830,0.00483
2251.76812,0.00507
2249.70795,0.00612
2247.64778,0.00728
2245.58761,0.00722
2243.52744,0.00594
2241.46726,0.00480
2239.40709,0.00492
2237.34692,0.00555
2235.28675,0.00546
2233.22657,0.00505
2231.16640,0.00520
2229.10623,0.00563
2227.04606,0.00563
2224.98589,0.00533
2222.92571,0.00529
2220.86554,0.00557
2218.80537,0.00595
2216.74520,0.00631
2214.68503,0.00672
2212.62485,0.00708
2210.56468,0.00700
2208.50451,0.00658
2206.44434,0.00644
2204.38417,0.00705
2202.32399,0.00806
2200.26382,0.00830
2198.20365,0.00747
2196.14348,0.00684
2194.08330,0.00709
2192.02313,0.00729
2189.96296,0.00685
2187.90279,0.00622
2185.84262,0.00552
2183.78244,0.00491
2181.72227,0.00511
2179.66210,0.00585
2177.60193,0.00595
2175.54176,0.00529
2173.48158,0.00472
2171.42141,0.00488
2169.36124,0.00588
2167.30107,0.00676
2165.24089,0.00617
2163.18072,0.00404
2161.12055,0.00146
2159.06038,0.00000
2157.00021,0.00066
2154.94003,0.00248
2152.87986,0.00347
2150.81969,0.00294
2148.75952,0.00221
2146.69935,0.00264
2144.63917,0.00356
2142.57900,0.00363
2140.51883,0.00331
2138.45866,0.00339
2136.39849,0.00331
2134.33831,0.00301
2132.27814,0.00355
2130.21797,0.00514
2128.15780,0.00655
2126.09762,0.00663
2124.03745,0.00556
2121.97728,0.00450
2119.91711,0.00438
2117.85694,0.00526
2115.79676,0.00648
2113.73659,0.00710
2111.67642,0.00678
2109.61625,0.00608
2107.55608,0.00559
2105.49590,0.00539
2103.43573,0.00526
2101.37556,0.00505
2099.31539,0.00492
2097.25521,0.00523
2095.19504,0.00600
2093.13487,0.00683
2091.07470,0.00737
2089.01453,0.00758
2086.95435,0.00759
2084.89418,0.00746
2082.83401,0.00719
2080.77384,0.00679
2078.71367,0.00634
2076.65349,0.00597
2074.59332,0.00583
2072.53315,0.00583
2070.47298,0.00591
2068.41281,0.00607
2066.35263,0.00629
2064.29246,0.00643
2062.23229,0.00640
2060.17212,0.00632
2058.11194,0.00620
2056.05177,0.00606
2053.99160,0.00615
2051.93143,0.00663
2049.87126,0.00717
2047.81108,0.00734
2045.75091,0.00704
2043.69074,0.00639
2041.63057,0.00541
2039.57040,0.00439
2037.51022,0.00378
2035.45005,0.00370
2033.38988,0.00375
2031.32971,0.00355
2029.26954,0.00322
2027.20936,0.00331
2025.14919,0.00405
2023.08902,0.00500
2021.02885,0.00542
2018.96867,0.00485
2016.90850,0.00346
2014.84833,0.00188
2012.78816,0.00065
2010.72799,0.00003
2008.66781,0.00000
2006.60764,0.00042
2004.54747,0.00123
2002.48730,0.00220
2000.42713,0.00308
1998.36695,0.00383
1996.30678,0.00459
1994.24661,0.00540
1992.18644,0.00607
1990.12626,0.00643
1988.06609,0.00666
1986.00592,0.00691
1983.94575,0.00707
1981.88558,0.00694
1979.82540,0.00640
1977.76523,0.00548
1975.70506,0.00432
1973.64489,0.00312
1971.58472,0.00205
1969.52454,0.00113
1967.46437,0.00045
1965.40420,0.00016
1963.34403,0.00032
1961.28386,0.00094
1959.22368,0.00201
1957.16351,0.00330
1955.10334,0.00420
1953.04317,0.00415
1950.98299,0.00330
1948.92282,0.00232
1946.86265,0.00165
1944.80248,0.00118
1942.74231,0.00073
1940.68213,0.00034
1938.62196,0.00024
1936.56179,0.00056
1934.50162,0.00126
1932.44145,0.00203
1930.38127,0.00258
1928.32110,0.00277
1926.26093,0.00256
1924.20076,0.00205
1922.14059,0.00149
1920.08041,0.00118
1918.02024,0.00139
1915.96007,0.00211
1913.89990,0.00303
1911.83972,0.00378
1909.77955,0.00417
1907.71938,0.00425
1905.65921,0.00409
1903.59904,0.00374
1901.53886,0.00330
1899.47869,0.00295
1897.41852,0.00286
1895.35835,0.00305
1893.29818,0.00334
1891.23800,0.00341
1889.17783,0.00313
1887.11766,0.00274
1885.05749,0.00255
1882.99731,0.00263
1880.93714,0.00281
1878.87697,0.00289
1876.81680,0.00289
1874.75663,0.00296
1872.69645,0.00315
1870.63628,0.00330
1868.57611,0.00326
1866.51594,0.00311
1864.45577,0.00301
1862.39559,0.00301
1860.33542,0.00305
1858.27525,0.00308
1856.21508,0.00302
1854.15491,0.00285
1852.09473,0.00259
1850.03456,0.00237
1847.97439,0.00237
1845.91422,0.00261
1843.85404,0.00284
1841.79387,0.00285
1839.73370,0.00266
1837.67353,0.00242
1835.61336,0.00229
1833.55318,0.00225
1831.49301,0.00223
1829.43284,0.00221
1827.37267,0.00226
1825.31250,0.00241
1823.25232,0.00256
1821.19215,0.00257
1819.13198,0.00241
1817.07181,0.00226
1815.01163,0.00228
1812.95146,0.00245
1810.89129,0.00261
1808.83112,0.00268
1806.77095,0.00266
1804.71077,0.00260
1802.65060,0.00252
1800.59043,0.00247
1798.53026,0.00252
1796.47009,0.00260
1794.40991,0.00256
1792.34974,0.00234
1790.28957,0.00211
1788.22940,0.00207
1786.16923,0.00218
1784.10905,0.00232
1782.04888,0.00242
1779.98871,0.00244
1777.92854,0.00239
1775.86836,0.00234
1773.80819,0.00239
1771.74802,0.00257
1769.68785,0.00282
1767.62768,0.00301
1765.56750,0.00304
1763.50733,0.00301
1761.44716,0.00307
1759.38699,0.00331
1757.32682,0.00371
1755.26664,0.00423
1753.20647,0.00483
1751.14630,0.00553
1749.08613,0.00614
1747.02596,0.00642
1744.96578,0.00636
1742.90561,0.00616
1740.84544,0.00602
1738.78527,0.00602
1736.72509,0.00615
1734.66492,0.00640
1732.60475,0.00666
1730.54458,0.00683
1728.48441,0.00685
1726.42423,0.00675
1724.36406,0.00656
1722.30389,0.00636
1720.24372,0.00623
1718.18355,0.00611
1716.12337,0.00585
1714.06320,0.00538
1712.00303,0.00481
1709.94286,0.00434
1707.88268,0.00406
1705.82251,0.00397
1703.76234,0.00402
1701.70217,0.00410
1699.64200,0.00414
1697.58182,0.00412
1695.52165,0.00409
1693.46148,0.00408
1691.40131,0.00418
1689.34114,0.00440
1687.28096,0.00470
1685.22079,0.00501
1683.16062,0.00522
1681.10045,0.00531
1679.04028,0.00543
1676.98010,0.00564
1674.91993,0.00590
1672.85976,0.00614
1670.79959,0.00646
1668.73941,0.00689
1666.67924,0.00734
1664.61907,0.00778
1662.55890,0.00817
1660.49873,0.00849
1658.43855,0.00885
1656.37838,0.00936
1654.31821,0.00999
1652.25804,0.01053
1650.19787,0.01086
1648.13769,0.01107
1646.07752,0.01119
1644.01735,0.01118
1641.95718,0.01116
1639.89701,0.01129
1637.83683,0.01157
1635.77666,0.01186
1633.71649,0.01197
1631.65632,0.01192
1629.59614,0.01186
1627.53597,0.01191
1625.47580,0.01203
1623.41563,0.01216
1621.35546,0.01224
1619.29528,0.01233
1617.23511,0.01245
1615.17494,0.01244
1613.11477,0.01222
1611.05460,0.01182
1608.99442,0.01132
1606.93425,0.01077
1604.87408,0.01021
1602.81391,0.00966
1600.75373,0.00918
1598.69356,0.00874
1596.63339,0.00826
1594.57322,0.00765
1592.51305,0.00689
1590.45287,0.00609
1588.39270,0.00536
1586.33253,0.00476
1584.27236,0.00430
1582.21219,0.00394
1580.15201,0.00366
1578.09184,0.00343
1576.03167,0.00321
1573.97150,0.00299
1571.91133,0.00280
1569.85115,0.00260
1567.79098,0.00231
1565.73081,0.00199
1563.67064,0.00185
1561.61046,0.00204
1559.55029,0.00248
1557.49012,0.00277
1555.42995,0.00268
1553.36978,0.00236
1551.30960,0.00202
1549.24943,0.00178
1547.18926,0.00172
1545.12909,0.00181
1543.06892,0.00188
1541.00874,0.00174
1538.94857,0.00142
1536.88840,0.00112
1534.82823,0.00098
1532.76805,0.00093
1530.70788,0.00093
1528.64771,0.00105
1526.58754,0.00128
1524.52737,0.00160
1522.46719,0.00189
1520.40702,0.00195
1518.34685,0.00175
1516.28668,0.00145
1514.22651,0.00124
1512.16633,0.00130
1510.10616,0.00162
1508.04599,0.00197
1505.98582,0.00205
1503.92565,0.00181
1501.86547,0.00147
1499.80530,0.00124
1497.74513,0.00119
1495.68496,0.00126
1493.62478,0.00139
1491.56461,0.00157
1489.50444,0.00178
1487.44427,0.00193
1485.38410,0.00199
1483.32392,0.00203
1481.26375,0.00216
1479.20358,0.00242
1477.14341,0.00284
1475.08324,0.00337
1473.02306,0.00389
1470.96289,0.00425
1468.90272,0.00447
1466.84255,0.00468
1464.78238,0.00489
1462.72220,0.00508
1460.66203,0.00527
1458.60186,0.00555
1456.54169,0.00590
1454.48151,0.00621
1452.42134,0.00643
1450.36117,0.00657
1448.30100,0.00668
1446.24083,0.00675
1444.18065,0.00683
1442.12048,0.00700
1440.06031,0.00730
1438.00014,0.00769
1435.93997,0.00807
1433.87979,0.00839
1431.81962,0.00861
1429.75945,0.00871
1427.69928,0.00873
1425.63910,0.00883
1423.57893,0.00915
1421.51876,0.00968
1419.45859,0.01023
1417.39842,0.01055
1415.33824,0.01058
1413.27807,0.01043
1411.21790,0.01020
1409.15773,0.00998
1407.09756,0.00984
1405.03738,0.00977
1402.97721,0.00968
1400.91704,0.00952
1398.85687,0.00926
1396.79670,0.00893
1394.73652,0.00856
1392.67635,0.00828
1390.61618,0.00818
1388.55601,0.00824
1386.49583,0.00836
1384.43566,0.00851
1382.37549,0.00874
1380.31532,0.00909
1378.25515,0.00947
1376.19497,0.00978
1374.13480,0.00994
1372.07463,0.00986
1370.01446,0.00958
1367.95429,0.00925
1365.89411,0.00898
1363.83394,0.00880
1361.77377,0.00869
1359.71360,0.00868
1357.65343,0.00871
1355.59325,0.00873
1353.53308,0.00867
1351.47291,0.00855
1349.41274,0.00838
1347.35256,0.00816
1345.29239,0.00796
1343.23222,0.00783
1341.17205,0.00779
1339.11188,0.00782
1337.05170,0.00788
1334.99153,0.00793
1332.93136,0.00794
1330.87119,0.00791
1328.81102,0.00785
1326.75084,0.00781
1324.69067,0.00784
1322.63050,0.00795
1320.57033,0.00805
1318.51015,0.00807
1316.44998,0.00802
1314.38981,0.00796
1312.32964,0.00791
1310.26947,0.00783
1308.20929,0.00770
1306.14912,0.00757
1304.08895,0.00746
1302.02878,0.00734
1299.96861,0.00719
1297.90843,0.00701
1295.84826,0.00683
1293.78809,0.00667
1291.72792,0.00655
1289.66775,0.00648
1287.60757,0.00644
1285.54740,0.00640
1283.48723,0.00637
1281.42706,0.00642
1279.36688,0.00650
1277.30671,0.00658
1275.24654,0.00664
1273.18637,0.00677
1271.12620,0.00698
1269.06602,0.00725
1267.00585,0.00759
1264.94568,0.00798
1262.88551,0.00842
1260.82534,0.00884
1258.76516,0.00915
1256.70499,0.00932
1254.64482,0.00943
1252.58465,0.00953
1250.52447,0.00964
1248.46430,0.00972
1246.40413,0.00974
1244.34396,0.00969
1242.28379,0.00952
1240.22361,0.00923
1238.16344,0.00886
1236.10327,0.00851
1234.04310,0.00825
1231.98293,0.00809
1229.92275,0.00797
1227.86258,0.00781
1225.80241,0.00759
1223.74224,0.00732
1221.68207,0.00701
1219.62189,0.00666
1217.56172,0.00626
1215.50155,0.00580
1213.44138,0.00535
1211.38120,0.00492
1209.32103,0.00450
1207.26086,0.00407
1205.20069,0.00356
1203.14052,0.00294
1201.08034,0.00222
1199.02017,0.00142
1196.96000,0.00063
1194.89983,0.00008
1192.83966,0.00000
1190.77948,0.00017
1188.71931,0.00023
1186.65914,0.00014
1184.59897,0.00017
1182.53880,0.00044
1180.47862,0.00079
1178.41845,0.00123
1176.35828,0.00195
1174.29811,0.00280
1172.23793,0.00348
1170.17776,0.00406
1168.11759,0.00477
1166.05742,0.00546
1163.99725,0.00595
1161.93707,0.00643
1159.87690,0.00702
1157.81673,0.00754
1155.75656,0.00798
1153.69639,0.00857
1151.63621,0.00936
1149.57604,0.01006
1147.51587,0.01046
1145.45570,0.01059
1143.39552,0.01054
1141.33535,0.01047
1139.27518,0.01057
1137.21501,0.01096
1135.15484,0.01136
1133.09466,0.01150
1131.03449,0.01164
1128.97432,0.01212
1126.91415,0.01278
1124.85398,0.01338
1122.79380,0.01394
1120.73363,0.01457
1118.67346,0.01523
1116.61329,0.01581
1114.55312,0.01626
1112.49294,0.01661
1110.43277,0.01702
1108.37260,0.01770
1106.31243,0.01854
1104.25225,0.01927
1102.19208,0.01978
1100.13191,0.02019
1098.07174,0.02077
1096.01157,0.02171
1093.95139,0.02286
1091.89122,0.02395
1089.83105,0.02474
1087.77088,0.02528
1085.71071,0.02581
1083.65053,0.02648
1081.59036,0.02732
1079.53019,0.02827
1077.47002,0.02918
1075.40985,0.02993
1073.34967,0.03055
1071.28950,0.03111
1069.22933,0.03160
1067.16916,0.03191
1065.10898,0.03212
1063.04881,0.03247
1060.98864,0.03297
1058.92847,0.03344
1056.86830,0.03388
1054.80812,0.03430
1052.74795,0.03454
1050.68778,0.03481
1048.62761,0.03549
1046.56744,0.03636
1044.50726,0.03685
1042.44709,0.03698
1040.38692,0.03723
1038.32675,0.03775
1036.26657,0.03835
1034.20640,0.03893
1032.14623,0.03936
1030.08606,0.03952
1028.02589,0.03957
1025.96571,0.03968
1023.90554,0.03983
1021.84537,0.03989
1019.78520,0.03983
1017.72503,0.03973
1015.66485,0.03985
1013.60468,0.04022
1011.54451,0.04049
1009.48434,0.04030
1007.42417,0.03971
1005.36399,0.03922
1003.30382,0.03896
1001.24365,0.03869
999.18348,0.03835
997.12330,0.03806
995.06313,0.03769
993.00296,0.03721
990.94279,0.03684
988.88262,0.03662
986.82244,0.03617
984.76227,0.03540
982.70210,0.03466
980.64193,0.03409
978.58176,0.03362
976.52158,0.03341
974.46141,0.03347
972.40124,0.03353
970.34107,0.03339
968.28089,0.03291
966.22072,0.03215
964.16055,0.03144
962.10038,0.03103
960.04021,0.03085
957.98003,0.03075
955.91986,0.03057
953.85969,0.03019
951.79952,0.02962
949.73935,0.02889
947.67917,0.02799
945.61900,0.02692
943.55883,0.02567
941.49866,0.02425
939.43849,0.02289
937.37831,0.02175
935.31814,0.02061
933.25797,0.01921
931.19780,0.01764
929.13762,0.01603
927.07745,0.01450
925.01728,0.01320
922.95711,0.01222
920.89694,0.01137
918.83676,0.01073
916.77659,0.01055
914.71642,0.01042
912.65625,0.00993
910.59608,0.00926
908.53590,0.00867
906.47573,0.00819
904.41556,0.00787
902.35539,0.00780
900.29522,0.00784
898.23504,0.00782
896.17487,0.00783
894.11470,0.00800
892.05453,0.00811
889.99435,0.00779
887.93418,0.00704
885.87401,0.00634
883.81384,0.00597
881.75367,0.00584
879.69349,0.00578
877.63332,0.00551
875.57315,0.00508
873.51298,0.00478
871.45281,0.00466
869.39263,0.00450
867.33246,0.00425
865.27229,0.00403
863.21212,0.00396
861.15194,0.00410
859.09177,0.00414
857.03160,0.00372
854.97143,0.00297
852.91126,0.00242
850.85108,0.00226
848.79091,0.00228
846.73074,0.00234
844.67057,0.00239
842.61040,0.00234
840.55022,0.00211
838.49005,0.00162
836.42988,0.00113
834.36971,0.00092
832.30954,0.00084
830.24936,0.00078
828.18919,0.00071
826.12902,0.00057
824.06885,0.00060
822.00867,0.00120
819.94850,0.00223
817.88833,0.00305
815.82816,0.00330
813.76799,0.00323
811.70781,0.00292
809.64764,0.00247
807.58747,0.00243
805.52730,0.00272
803.46713,0.00261
801.40695,0.00198
799.34678,0.00144
797.28661,0.00142
795.22644,0.00148
793.16627,0.00132
791.10609,0.00130
789.04592,0.00155
786.98575,0.00173
784.92558,0.00165
782.86540,0.00158
780.80523,0.00173
778.74506,0.00161
776.68489,0.00115
774.62472,0.00107
772.56454,0.00136
770.50437,0.00151
768.44420,0.00149
766.38403,0.00151
764.32386,0.00165
762.26368,0.00181
760.20351,0.00165
758.14334,0.00114
756.08317,0.00078
754.02299,0.00093
751.96282,0.00139
749.90265,0.00180
747.84248,0.00203
745.78231,0.00188
743.72213,0.00133
741.66196,0.00058
739.60179,0.00000
737.54162,-0.00010
735.48145,0.00042
733.42127,0.00117
731.36110,0.00151
729.30093,0.00149
727.24076,0.00185
725.18059,0.00261
723.12041,0.00315
721.06024,0.00323
719.00007,0.00297
716.93990,0.00271
714.87972,0.00287
712.81955,0.00351
710.75938,0.00427
708.69921,0.00471
706.63904,0.00460
704.57886,0.00411
702.51869,0.00360
700.45852,0.00337
698.39835,0.00345
696.33818,0.00366
694.27800,0.00384
692.21783,0.00400
690.15766,0.00415
688.09749,0.00410
686.03731,0.00383
683.97714,0.00375
681.91697,0.00414
679.85680,0.00480
677.79663,0.00535
675.73645,0.00562
673.67628,0.00536
671.61611,0.00443
669.55594,0.00312
667.49577,0.00219
665.43559,0.00196
663.37542,0.00216
661.31525,0.00271
659.25508,0.00388
657.19491,0.00567
655.13473,0.00748
653.07456,0.00863
651.01439,0.00905
648.95422,0.00911
646.89404,0.00903
644.83387,0.00896
642.77370,0.00888
640.71353,0.00847
638.65336,0.00773
636.59318,0.00720
634.53301,0.00703
632.47284,0.00658
630.41267,0.00535
628.35250,0.00352
626.29232,0.00206
624.23215,0.00274
622.17198,0.00529
620.11181,0.00697
618.05164,0.00662
615.99146,0.00540
613.93129,0.00448
611.87112,0.00427
609.81095,0.00466
607.75077,0.00443
605.69060,0.00297
603.63043,0.00156
601.57026,0.00074
599.51009,0.00000
