3996.73391,-0.00012
3994.67373,-0.00017
3992.61356,-0.00018
3990.55339,-0.00019
3988.49322,-0.00025
3986.43305,-0.00037
3984.37287,-0.00038
3982.31270,-0.00019
3980.25253,-0.00002
3978.19236,0.00004
3976.13219,0.00011
3974.07201,0.00020
3972.01184,0.00016
3969.95167,0.00005
3967.89150,0.00002
3965.83133,0.00000
3963.77115,-0.00002
3961.71098,0.00002
3959.65081,0.00010
3957.59064,0.00010
3955.53046,0.00010
3953.47029,0.00011
3951.41012,0.00005
3949.34995,0.00000
3947.28978,0.00009
3945.22960,0.00027
3943.16943,0.00052
3941.10926,0.00082
3939.04909,0.00099
3936.98892,0.00087
3934.92874,0.00053
3932.86857,0.00033
3930.80840,0.00044
3928.74823,0.00058
3926.68805,0.00062
3924.62788,0.00067
3922.56771,0.00064
3920.50754,0.00055
3918.44737,0.00068
3916.38719,0.00102
3914.32702,0.00115
3912.26685,0.00104
3910.20668,0.00095
3908.14651,0.00074
3906.08633,0.00029
3904.02616,0.00000
3901.96599,0.00017
3899.90582,0.00054
3897.84565,0.00087
3895.78547,0.00100
3893.72530,0.00077
3891.66513,0.00043
3889.60496,0.00039
3887.54478,0.00057
3885.48461,0.00082
3883.42444,0.00103
3881.36427,0.00119
3879.30410,0.00129
3877.24392,0.00100
3875.18375,0.00046
3873.12358,0.00031
3871.06341,0.00083
3869.00324,0.00148
3866.94306,0.00158
3864.88289,0.00133
3862.82272,0.00111
3860.76255,0.00086
3858.70237,0.00051
3856.64220,0.00027
3854.58203,0.00039
3852.52186,0.00091
3850.46169,0.00133
3848.40151,0.00129
3846.34134,0.00086
3844.28117,0.00035
3842.22100,0.00028
3840.16083,0.00077
3838.10065,0.00122
3836.04048,0.00120
3833.98031,0.00095
3831.92014,0.00076
3829.85997,0.00075
3827.79979,0.00089
3825.73962,0.00095
3823.67945,0.00054
3821.61928,0.00000
3819.55910,0.00020
3817.49893,0.00100
3815.43876,0.00172
3813.37859,0.00198
3811.31842,0.00177
3809.25824,0.00137
3807.19807,0.00124
3805.13790,0.00139
3803.07773,0.00146
3801.01756,0.00162
3798.95738,0.00185
3796.89721,0.00183
3794.83704,0.00159
3792.77687,0.00141
3790.71670,0.00141
3788.65652,0.00147
3786.59635,0.00156
3784.53618,0.00156
3782.47601,0.00117
3780.41583,0.00072
3778.35566,0.00080
3776.29549,0.00115
3774.23532,0.00129
3772.17515,0.00134
3770.11497,0.00151
3768.05480,0.00177
3765.99463,0.00196
3763.93446,0.00195
3761.87429,0.00181
3759.81411,0.00173
3757.75394,0.00168
3755.69377,0.00144
3753.63360,0.00109
3751.57342,0.00070
3749.51325,0.00034
3747.45308,0.00017
3745.39291,0.00057
3743.33274,0.00133
3741.27256,0.00139
3739.21239,0.00082
3737.15222,0.00051
3735.09205,0.00090
3733.03188,0.00149
3730.97170,0.00167
3728.91153,0.00155
3726.85136,0.00147
3724.79119,0.00154
3722.73102,0.00153
3720.67084,0.00137
3718.61067,0.00124
3716.55050,0.00125
3714.49033,0.00117
3712.43015,0.00097
3710.36998,0.00114
3708.30981,0.00159
3706.24964,0.00164
3704.18947,0.00127
3702.12929,0.00120
3700.06912,0.00177
3698.00895,0.00236
3695.94878,0.00260
3693.88861,0.00241
3691.82843,0.00176
3689.76826,0.00123
3687.70809,0.00154
3685.64792,0.00223
3683.58775,0.00261
3681.52757,0.00251
3679.46740,0.00208
3677.40723,0.00166
3675.34706,0.00169
3673.28688,0.00207
3671.22671,0.00258
3669.16654,0.00332
3667.10637,0.00372
3665.04620,0.00355
3662.98602,0.00354
3660.92585,0.00404
3658.86568,0.00469
3656.80551,0.00523
3654.74534,0.00549
3652.68516,0.00525
3650.62499,0.00495
3648.56482,0.00543
3646.50465,0.00646
3644.44447,0.00710
3642.38430,0.00726
3640.32413,0.00738
3638.26396,0.00768
3636.20379,0.00807
3634.14361,0.00852
3632.08344,0.00896
3630.02327,0.00935
3627.96310,0.00980
3625.90293,0.01009
3623.84275,0.01010
3621.78258,0.01020
3619.72241,0.01068
3617.66224,0.01133
3615.60207,0.01175
3613.54189,0.01217
3611.48172,0.01290
3609.42155,0.01387
3607.36138,0.01481
3605.30120,0.01556
3603.24103,0.01617
3601.18086,0.01663
3599.12069,0.01681
3597.06052,0.01694
3595.00034,0.01729
3592.94017,0.01766
3590.88000,0.01780
3588.81983,0.01807
3586.75966,0.01886
3584.69948,0.01970
3582.63931,0.02028
3580.57914,0.02083
3578.51897,0.02128
3576.45879,0.02154
3574.39862,0.02193
3572.33845,0.02244
3570.27828,0.02273
3568.21811,0.02302
3566.15793,0.02378
3564.09776,0.02487
3562.03759,0.02588
3559.97742,0.02665
3557.91725,0.02717
3555.85707,0.02750
3553.79690,0.02769
3551.73673,0.02785
3549.67656,0.02813
3547.61639,0.02851
3545.55621,0.02894
3543.49604,0.02952
3541.43587,0.03032
3539.37570,0.03117
3537.31552,0.03183
3535.25535,0.03225
3533.19518,0.03261
3531.13501,0.03290
3529.07484,0.03312
3527.01466,0.03357
3524.95449,0.03432
3522.89432,0.03515
3520.83415,0.03582
3518.77398,0.03621
3516.71380,0.03650
3514.65363,0.03695
3512.59346,0.03758
3510.53329,0.03823
3508.47312,0.03866
3506.41294,0.03873
3504.35277,0.03871
3502.29260,0.03903
3500.23243,0.03956
3498.17225,0.04003
3496.11208,0.04071
3494.05191,0.04161
3491.99174,0.04225
3489.93157,0.04242
3487.87139,0.04249
3485.81122,0.04283
3483.75105,0.04339
3481.69088,0.04397
3479.63071,0.04461
3477.57053,0.04529
3475.51036,0.04578
3473.45019,0.04603
3471.39002,0.04621
3469.32984,0.04652
3467.26967,0.04692
3465.20950,0.04719
3463.14933,0.04750
3461.08916,0.04796
3459.02898,0.04840
3456.96881,0.04880
3454.90864,0.04922
3452.84847,0.04964
3450.78830,0.04992
3448.72812,0.05018
3446.66795,0.05065
3444.60778,0.05124
3442.54761,0.05183
3440.48744,0.05227
3438.42726,0.05244
3436.36709,0.05254
3434.30692,0.05280
3432.24675,0.05328
3430.18657,0.05375
3428.12640,0.05410
3426.06623,0.05433
3424.00606,0.05436
3421.94589,0.05435
3419.88571,0.05446
3417.82554,0.05470
3415.76537,0.05508
3413.70520,0.05550
3411.64503,0.05588
3409.58485,0.05605
3407.52468,0.05602
3405.46451,0.05623
3403.40434,0.05677
3401.34416,0.05714
3399.28399,0.05717
3397.22382,0.05714
3395.16365,0.05726
3393.10348,0.05752
3391.04330,0.05805
3388.98313,0.05868
3386.92296,0.05890
3384.86279,0.05880
3382.80262,0.05883
3380.74244,0.05894
3378.68227,0.05888
3376.62210,0.05899
3374.56193,0.05936
3372.50176,0.05950
3370.44158,0.05945
3368.38141,0.05954
3366.32124,0.05982
3364.26107,0.06012
3362.20089,0.06029
3360.14072,0.06034
3358.08055,0.06033
3356.02038,0.06025
3353.96021,0.06028
3351.90003,0.06047
3349.83986,0.06051
3347.77969,0.06025
3345.71952,0.05993
3343.65935,0.05984
3341.59917,0.05994
3339.53900,0.06000
3337.47883,0.06003
3335.41866,0.06021
3333.35849,0.06037
3331.29831,0.06036
3329.23814,0.06031
3327.17797,0.06030
3325.11780,0.06032
3323.05762,0.06032
3320.99745,0.06030
3318.93728,0.06033
3316.87711,0.06031
3314.81694,0.06010
3312.75676,0.05996
3310.69659,0.05998
3308.63642,0.05987
3306.57625,0.05961
3304.51608,0.05958
3302.45590,0.05971
3300.39573,0.05974
3298.33556,0.05977
3296.27539,0.05975
3294.21521,0.05970
3292.15504,0.05970
3290.09487,0.05967
3288.03470,0.05961
3285.97453,0.05956
3283.91435,0.05956
3281.85418,0.05950
3279.79401,0.05929
3277.73384,0.05906
3275.67367,0.05892
3273.61349,0.05893
3271.55332,0.05905
3269.49315,0.05903
3267.43298,0.05876
3265.37281,0.05843
3263.31263,0.05827
3261.25246,0.05837
3259.19229,0.05856
3257.13212,0.05867
3255.07194,0.05868
3253.01177,0.05852
3250.95160,0.05831
3248.89143,0.05819
3246.83126,0.05806
3244.77108,0.05791
3242.71091,0.05776
3240.65074,0.05756
3238.59057,0.05736
3236.53040,0.05704
3234.47022,0.05662
3232.41005,0.05631
3230.34988,0.05613
3228.28971,0.05609
3226.22954,0.05608
3224.16936,0.05593
3222.10919,0.05576
3220.04902,0.05551
3217.98885,0.05512
3215.92867,0.05483
3213.86850,0.05464
3211.80833,0.05430
3209.74816,0.05389
3207.68799,0.05353
3205.62781,0.05319
3203.56764,0.05294
3201.50747,0.05285
3199.44730,0.05272
3197.38713,0.05233
3195.32695,0.05178
3193.26678,0.05135
3191.20661,0.05116
3189.14644,0.05105
3187.08626,0.05082
3185.02609,0.05040
3182.96592,0.04985
3180.90575,0.04935
3178.84558,0.04901
3176.78540,0.04879
3174.72523,0.04858
3172.66506,0.04831
3170.60489,0.04801
3168.54472,0.04763
3166.48454,0.04704
3164.42437,0.04649
3162.36420,0.04632
3160.30403,0.04626
3158.24386,0.04595
3156.18368,0.04549
3154.12351,0.04498
3152.06334,0.04456
3150.00317,0.04431
3147.94299,0.04405
3145.88282,0.04367
3143.82265,0.04327
3141.76248,0.04297
3139.70231,0.04272
3137.64213,0.04231
3135.58196,0.04170
3133.52179,0.04118
3131.46162,0.04084
3129.40145,0.04052
3127.34127,0.04019
3125.28110,0.03989
3123.22093,0.03957
3121.16076,0.03914
3119.10058,0.03865
3117.04041,0.03819
3114.98024,0.03797
3112.92007,0.03790
3110.85990,0.03766
3108.79972,0.03725
3106.73955,0.03687
3104.67938,0.03649
3102.61921,0.03603
3100.55904,0.03563
3098.49886,0.03529
3096.43869,0.03492
3094.37852,0.03467
3092.31835,0.03446
3090.25818,0.03411
3088.19800,0.03367
3086.13783,0.03330
3084.07766,0.03301
3082.01749,0.03280
3079.95731,0.03272
3077.89714,0.03261
3075.83697,0.03229
3073.77680,0.03190
3071.71663,0.03154
3069.65645,0.03116
3067.59628,0.03084
3065.53611,0.03064
3063.47594,0.03039
3061.41577,0.02994
3059.35559,0.02948
3057.29542,0.02918
3055.23525,0.02901
3053.17508,0.02877
3051.11491,0.02849
3049.05473,0.02829
3046.99456,0.02809
3044.93439,0.02774
3042.87422,0.02733
3040.81404,0.02705
3038.75387,0.02691
3036.69370,0.02675
3034.63353,0.02651
3032.57336,0.02623
3030.51318,0.02589
3028.45301,0.02553
3026.39284,0.02527
3024.33267,0.02503
3022.27250,0.02479
3020.21232,0.02461
3018.15215,0.02437
3016.09198,0.02401
3014.03181,0.02368
3011.97163,0.02345
3009.91146,0.02330
3007.85129,0.02317
3005.79112,0.02295
3003.73095,0.02266
3001.67077,0.02242
2999.61060,0.02233
2997.55043,0.02243
2995.49026,0.02246
2993.43009,0.02235
2991.36991,0.02230
2989.30974,0.02231
2987.24957,0.02238
2985.18940,0.02261
2983.12923,0.02277
2981.06905,0.02269
2979.00888,0.02252
2976.94871,0.02248
2974.88854,0.02257
2972.82836,0.02263
2970.76819,0.02265
2968.70802,0.02269
2966.64785,0.02276
2964.58768,0.02287
2962.52750,0.02309
2960.46733,0.02349
2958.40716,0.02391
2956.34699,0.02420
2954.28682,0.02442
2952.22664,0.02469
2950.16647,0.02514
2948.10630,0.02563
2946.04613,0.02590
2943.98596,0.02590
2941.92578,0.02579
2939.86561,0.02579
2937.80544,0.02597
2935.74527,0.02624
2933.68509,0.02646
2931.62492,0.02657
2929.56475,0.02646
2927.50458,0.02611
2925.44441,0.02579
2923.38423,0.02558
2921.32406,0.02540
2919.26389,0.02524
2917.20372,0.02503
2915.14355,0.02476
2913.08337,0.02450
2911.02320,0.02430
2908.96303,0.02416
2906.90286,0.02401
2904.84268,0.02376
2902.78251,0.02352
2900.72234,0.02343
2898.66217,0.02335
2896.60200,0.02323
2894.54182,0.02323
2892.48165,0.02327
2890.42148,0.02315
2888.36131,0.02294
2886.30114,0.02281
2884.24096,0.02276
2882.18079,0.02271
2880.12062,0.02255
2878.06045,0.02229
2876.00028,0.02201
2873.94010,0.02179
2871.87993,0.02170
2869.81976,0.02159
2867.75959,0.02135
2865.69941,0.02104
2863.63924,0.02072
2861.57907,0.02027
2859.51890,0.01981
2857.45873,0.01962
2855.39855,0.01956
2853.33838,0.01937
2851.27821,0.01913
2849.21804,0.01889
2847.15787,0.01872
2845.09769,0.01856
2843.03752,0.01823
2840.97735,0.01790
2838.91718,0.01775
2836.85700,0.01763
2834.79683,0.01750
2832.73666,0.01742
2830.67649,0.01732
2828.61632,0.01713
2826.55614,0.01697
2824.49597,0.01687
2822.43580,0.01669
2820.37563,0.01644
2818.31546,0.01623
2816.25528,0.01606
2814.19511,0.01589
2812.13494,0.01577
2810.07477,0.01565
2808.01460,0.01551
2805.95442,0.01541
2803.89425,0.01527
2801.83408,0.01513
2799.77391,0.01509
2797.71373,0.01509
2795.65356,0.01505
2793.59339,0.01491
2791.53322,0.01474
2789.47305,0.01465
2787.41287,0.01460
2785.35270,0.01447
2783.29253,0.01436
2781.23236,0.01438
2779.17219,0.01445
2777.11201,0.01441
2775.05184,0.01418
2772.99167,0.01409
2770.93150,0.01419
2768.87133,0.01415
2766.81115,0.01390
2764.75098,0.01369
2762.69081,0.01363
2760.63064,0.01358
2758.57046,0.01341
2756.51029,0.01319
2754.45012,0.01309
2752.38995,0.01308
2750.32978,0.01303
2748.26960,0.01298
2746.20943,0.01292
2744.14926,0.01283
2742.08909,0.01280
2740.02892,0.01279
2737.96874,0.01265
2735.90857,0.01256
2733.84840,0.01265
2731.78823,0.01272
2729.72805,0.01267
2727.66788,0.01264
2725.60771,0.01265
2723.54754,0.01254
2721.48737,0.01235
2719.42719,0.01219
2717.36702,0.01210
2715.30685,0.01203
2713.24668,0.01198
2711.18651,0.01194
2709.12633,0.01179
2707.06616,0.01156
2705.00599,0.01139
2702.94582,0.01136
2700.88565,0.01154
2698.82547,0.01170
2696.76530,0.01165
2694.70513,0.01152
2692.64496,0.01142
2690.58478,0.01134
2688.52461,0.01126
2686.46444,0.01121
2684.40427,0.01116
2682.34410,0.01105
2680.28392,0.01093
2678.22375,0.01093
2676.16358,0.01091
2674.10341,0.01065
2672.04324,0.01039
2669.98306,0.01038
2667.92289,0.01053
2665.86272,0.01056
2663.80255,0.01041
2661.74238,0.01017
2659.68220,0.01004
2657.62203,0.01018
2655.56186,0.01034
2653.50169,0.01030
2651.44151,0.01013
2649.38134,0.00996
2647.32117,0.00982
2645.26100,0.00976
2643.20083,0.00965
2641.14065,0.00936
2639.08048,0.00908
2637.02031,0.00904
2634.96014,0.00914
2632.89997,0.00915
2630.83979,0.00901
2628.77962,0.00878
2626.71945,0.00859
2624.65928,0.00852
2622.59910,0.00854
2620.53893,0.00856
2618.47876,0.00849
2616.41859,0.00838
2614.35842,0.00833
2612.29824,0.00825
2610.23807,0.00816
2608.17790,0.00809
2606.11773,0.00801
2604.05756,0.00806
2601.99738,0.00816
2599.93721,0.00805
2597.87704,0.00774
2595.81687,0.00752
2593.75670,0.00751
2591.69652,0.00748
2589.63635,0.00733
2587.57618,0.00716
2585.51601,0.00717
2583.45583,0.00732
2581.39566,0.00728
2579.33549,0.00716
2577.27532,0.00724
2575.21515,0.00742
2573.15497,0.00754
2571.09480,0.00770
2569.03463,0.00787
2566.97446,0.00769
2564.91429,0.00713
2562.85411,0.00671
2560.79394,0.00664
2558.73377,0.00675
2556.67360,0.00685
2554.61342,0.00694
2552.55325,0.00706
2550.49308,0.00715
2548.43291,0.00713
2546.37274,0.00699
2544.31256,0.00689
2542.25239,0.00689
2540.19222,0.00683
2538.13205,0.00668
2536.07188,0.00656
2534.01170,0.00656
2531.95153,0.00664
2529.89136,0.00671
2527.83119,0.00668
2525.77102,0.00644
2523.71084,0.00619
2521.65067,0.00620
2519.59050,0.00632
2517.53033,0.00641
2515.47015,0.00662
2513.40998,0.00685
2511.34981,0.00693
2509.28964,0.00690
2507.22947,0.00684
2505.16929,0.00667
2503.10912,0.00650
2501.04895,0.00638
2498.98878,0.00628
2496.92861,0.00631
2494.86843,0.00638
2492.80826,0.00635
2490.74809,0.00628
2488.68792,0.00624
2486.62775,0.00628
2484.56757,0.00647
2482.50740,0.00666
2480.44723,0.00663
2478.38706,0.00646
2476.32688,0.00636
2474.26671,0.00634
2472.20654,0.00622
2470.14637,0.00615
2468.08620,0.00613
2466.02602,0.00606
2463.96585,0.00609
2461.90568,0.00619
2459.84551,0.00628
2457.78534,0.00637
2455.72516,0.00634
2453.66499,0.00634
2451.60482,0.00642
2449.54465,0.00644
2447.48447,0.00648
2445.42430,0.00649
2443.36413,0.00651
2441.30396,0.00652
2439.24379,0.00630
2437.18361,0.00602
2435.12344,0.00589
2433.06327,0.00585
2431.00310,0.00580
2428.94293,0.00570
2426.88275,0.00574
2424.82258,0.00602
2422.76241,0.00622
2420.70224,0.00610
2418.64207,0.00589
2416.58189,0.00595
2414.52172,0.00614
2412.46155,0.00619
2410.40138,0.00609
2408.34120,0.00590
2406.28103,0.00573
2404.22086,0.00580
2402.16069,0.00592
2400.10052,0.00580
2398.04034,0.00526
2395.98017,0.00520
2393.92000,0.00543
2391.85983,0.00561
2389.79966,0.00569
2387.73948,0.00583
2385.67931,0.00605
2383.61914,0.00618
2381.55897,0.00616
2379.49880,0.00593
2377.43862,0.00552
2375.37845,0.00536
2373.31828,0.00595
2371.25811,0.00701
2369.19793,0.00781
2367.13776,0.00837
2365.07759,0.00860
2363.01742,0.00781
2360.95725,0.00699
2358.89707,0.00765
2356.83690,0.00911
2354.77673,0.00987
2352.71656,0.00962
2350.65639,0.00913
2348.59621,0.00857
2346.53604,0.00785
2344.47587,0.00737
2342.41570,0.00749
2340.35552,0.00753
2338.29535,0.00719
2336.23518,0.00730
2334.17501,0.00809
2332.11484,0.00881
2330.05466,0.00901
2327.99449,0.00871
2325.93432,0.00820
2323.87415,0.00744
2321.81398,0.00642
2319.75380,0.00600
2317.69363,0.00651
2315.63346,0.00704
2313.57329,0.00718
2311.51312,0.00712
2309.45294,0.00683
2307.39277,0.00641
2305.33260,0.00623
2303.27243,0.00631
2301.21225,0.00635
2299.15208,0.00636
2297.09191,0.00660
2295.03174,0.00711
2292.97157,0.00755
2290.91139,0.00749
2288.85122,0.00693
2286.79105,0.00636
2284.73088,0.00608
2282.67071,0.00607
2280.61053,0.00609
2278.55036,0.00573
2276.49019,0.00502
2274.43002,0.00467
2272.36984,0.00484
2270.30967,0.00493
2268.24950,0.00474
2266.18933,0.00463
2264.12916,0.00474
2262.06898,0.00493
2260.00881,0.00488
2257.94864,0.00438
2255.88847,0.00397
2253.82830,0.00443
2251.76812,0.00528
2249.70795,0.00565
2247.64778,0.00584
2245.58761,0.00596
2243.52744,0.00579
2241.46726,0.00531
2239.40709,0.00499
2237.34692,0.00492
2235.28675,0.00470
2233.22657,0.00464
2231.16640,0.00489
2229.10623,0.00489
2227.04606,0.00443
2224.98589,0.00421
2222.92571,0.00451
2220.86554,0.00500
2218.80537,0.00554
2216.74520,0.00539
2214.68503,0.00443
2212.62485,0.00416
2210.56468,0.00481
2208.50451,0.00501
2206.44434,0.00465
2204.38417,0.00479
2202.32399,0.00516
2200.26382,0.00505
2198.20365,0.00465
2196.14348,0.00445
2194.08330,0.00472
2192.02313,0.00463
2189.96296,0.00406
2187.90279,0.00369
2185.84262,0.00332
2183.78244,0.00318
2181.72227,0.00373
2179.66210,0.00430
2177.60193,0.00394
2175.54176,0.00338
2173.48158,0.00341
2171.42141,0.00325
2169.36124,0.00289
2167.30107,0.00298
2165.24089,0.00321
2163.18072,0.00266
2161.12055,0.00134
2159.06038,0.00104
2157.00021,0.00237
2154.94003,0.00335
2152.87986,0.00331
2150.81969,0.00273
2148.75952,0.00188
2146.69935,0.00158
2144.63917,0.00216
2142.57900,0.00292
2140.51883,0.00346
2138.45866,0.00346
2136.39849,0.00306
2134.33831,0.00300
2132.27814,0.00335
2130.21797,0.00403
2128.15780,0.00455
2126.09762,0.00428
2124.03745,0.00379
2121.97728,0.00395
2119.91711,0.00431
2117.85694,0.00439
2115.79676,0.00482
2113.73659,0.00559
2111.67642,0.00578
2109.61625,0.00516
2107.55608,0.00453
2105.49590,0.00420
2103.43573,0.00400
2101.37556,0.00430
2099.31539,0.00481
2097.25521,0.00482
2095.19504,0.00428
2093.13487,0.00413
2091.07470,0.00468
2089.01453,0.00476
2086.95435,0.00414
2084.89418,0.00410
2082.83401,0.00472
2080.77384,0.00493
2078.71367,0.00462
2076.65349,0.00457
2074.59332,0.00479
2072.53315,0.00475
2070.47298,0.00468
2068.41281,0.00493
2066.35263,0.00490
2064.29246,0.00438
2062.23229,0.00409
2060.17212,0.00406
2058.11194,0.00401
2056.05177,0.00390
2053.99160,0.00370
2051.93143,0.00338
2049.87126,0.00298
2047.81108,0.00291
2045.75091,0.00311
2043.69074,0.00304
2041.63057,0.00286
2039.57040,0.00307
2037.51022,0.00323
2035.45005,0.00293
2033.38988,0.00291
2031.32971,0.00303
2029.26954,0.00255
2027.20936,0.00169
2025.14919,0.00092
2023.08902,0.00067
2021.02885,0.00105
2018.96867,0.00145
2016.90850,0.00152
2014.84833,0.00152
2012.78816,0.00144
2010.72799,0.00136
2008.66781,0.00160
2006.60764,0.00191
2004.54747,0.00226
2002.48730,0.00273
2000.42713,0.00251
1998.36695,0.00173
1996.30678,0.00153
1994.24661,0.00185
1992.18644,0.00207
1990.12626,0.00238
1988.06609,0.00295
1986.00592,0.00316
1983.94575,0.00243
1981.88558,0.00161
1979.82540,0.00156
1977.76523,0.00170
1975.70506,0.00126
1973.64489,0.00035
1971.58472,0.00000
1969.52454,0.00045
1967.46437,0.00109
1965.40420,0.00161
1963.34403,0.00148
1961.28386,0.00087
1959.22368,0.00091
1957.16351,0.00167
1955.10334,0.00223
1953.04317,0.00195
1950.98299,0.00135
1948.92282,0.00111
1946.86265,0.00084
1944.80248,0.00078
1942.74231,0.00129
1940.68213,0.00160
1938.62196,0.00158
1936.56179,0.00163
1934.50162,0.00179
1932.44145,0.00194
1930.38127,0.00207
1928.32110,0.00221
1926.26093,0.00213
1924.20076,0.00159
1922.14059,0.00097
1920.08041,0.00069
1918.02024,0.00065
1915.96007,0.00075
1913.89990,0.00099
1911.83972,0.00142
1909.77955,0.00174
1907.71938,0.00170
1905.65921,0.00152
1903.59904,0.00128
1901.53886,0.00095
1899.47869,0.00080
1897.41852,0.00097
1895.35835,0.00113
1893.29818,0.00111
1891.23800,0.00105
1889.17783,0.00101
1887.11766,0.00089
1885.05749,0.00077
1882.99731,0.00086
1880.93714,0.00105
1878.87697,0.00120
1876.81680,0.00141
1874.75663,0.00155
1872.69645,0.00134
1870.63628,0.00095
1868.57611,0.00078
1866.51594,0.00093
1864.45577,0.00117
1862.39559,0.00123
1860.33542,0.00106
1858.27525,0.00099
1856.21508,0.00121
1854.15491,0.00138
1852.09473,0.00130
1850.03456,0.00112
1847.97439,0.00085
1845.91422,0.00051
1843.85404,0.00034
1841.79387,0.00049
1839.73370,0.00072
1837.67353,0.00076
1835.61336,0.00063
1833.55318,0.00048
1831.49301,0.00044
1829.43284,0.00055
1827.37267,0.00068
1825.31250,0.00067
1823.25232,0.00062
1821.19215,0.00061
1819.13198,0.00054
1817.07181,0.00053
1815.01163,0.00065
1812.95146,0.00067
1810.89129,0.00045
1808.83112,0.00021
1806.77095,0.00016
1804.71077,0.00027
1802.65060,0.00045
1800.59043,0.00056
1798.53026,0.00050
1796.47009,0.00033
1794.40991,0.00022
1792.34974,0.00026
1790.28957,0.00037
1788.22940,0.00042
1786.16923,0.00043
1784.10905,0.00042
1782.04888,0.00040
1779.98871,0.00046
1777.92854,0.00052
1775.86836,0.00037
1773.80819,0.00016
1771.74802,0.00033
1769.68785,0.00083
1767.62768,0.00123
1765.56750,0.00142
1763.50733,0.00156
1761.44716,0.00191
1759.38699,0.00250
1757.32682,0.00317
1755.26664,0.00378
1753.20647,0.00420
1751.14630,0.00466
1749.08613,0.00536
1747.02596,0.00606
1744.96578,0.00655
1742.90561,0.00697
1740.84544,0.00740
1738.78527,0.00767
1736.72509,0.00765
1734.66492,0.00774
1732.60475,0.00828
1730.54458,0.00878
1728.48441,0.00892
1726.42423,0.00879
1724.36406,0.00854
1722.30389,0.00820
1720.24372,0.00777
1718.18355,0.00738
1716.12337,0.00738
1714.06320,0.00744
1712.00303,0.00720
1709.94286,0.00681
1707.88268,0.00649
1705.82251,0.00637
1703.76234,0.00637
1701.70217,0.00631
1699.64200,0.00632
1697.58182,0.00661
1695.52165,0.00720
1693.46148,0.00784
1691.40131,0.00826
1689.34114,0.00843
1687.28096,0.00845
1685.22079,0.00867
1683.16062,0.00955
1681.10045,0.01074
1679.04028,0.01172
1676.98010,0.01248
1674.91993,0.01317
1672.85976,0.01384
1670.79959,0.01465
1668.73941,0.01575
1666.67924,0.01684
1664.61907,0.01773
1662.55890,0.01872
1660.49873,0.01980
1658.43855,0.02055
1656.37838,0.02079
1654.31821,0.02108
1652.25804,0.02195
1650.19787,0.02268
1648.13769,0.02305
1646.07752,0.02343
1644.01735,0.02382
1641.95718,0.02413
1639.89701,0.02426
1637.83683,0.02424
1635.77666,0.02433
1633.71649,0.02456
1631.65632,0.02456
1629.59614,0.02427
1627.53597,0.02388
1625.47580,0.02353
1623.41563,0.02327
1621.35546,0.02309
1619.29528,0.02295
1617.23511,0.02284
1615.17494,0.02274
1613.11477,0.02246
1611.05460,0.02192
1608.99442,0.02122
1606.93425,0.02055
1604.87408,0.01994
1602.81391,0.01929
1600.75373,0.01853
1598.69356,0.01770
1596.63339,0.01678
1594.57322,0.01576
1592.51305,0.01467
1590.45287,0.01360
1588.39270,0.01264
1586.33253,0.01176
1584.27236,0.01093
1582.21219,0.01017
1580.15201,0.00944
1578.09184,0.00862
1576.03167,0.00781
1573.97150,0.00722
1571.91133,0.00671
1569.85115,0.00618
1567.79098,0.00583
1565.73081,0.00560
1563.67064,0.00525
1561.61046,0.00459
1559.55029,0.00371
1557.49012,0.00325
1555.42995,0.00339
1553.36978,0.00351
1551.30960,0.00337
1549.24943,0.00306
1547.18926,0.00257
1545.12909,0.00179
1543.06892,0.00103
1541.00874,0.00094
1538.94857,0.00152
1536.88840,0.00191
1534.82823,0.00186
1532.76805,0.00173
1530.70788,0.00163
1528.64771,0.00140
1526.58754,0.00108
1524.52737,0.00078
1522.46719,0.00056
1520.40702,0.00053
1518.34685,0.00053
1516.28668,0.00062
1514.22651,0.00086
1512.16633,0.00088
1510.10616,0.00046
1508.04599,0.00000
1505.98582,0.00015
1503.92565,0.00060
1501.86547,0.00082
1499.80530,0.00085
1497.74513,0.00092
1495.68496,0.00111
1493.62478,0.00120
1491.56461,0.00111
1489.50444,0.00114
1487.44427,0.00147
1485.38410,0.00183
1483.32392,0.00210
1481.26375,0.00240
1479.20358,0.00269
1477.14341,0.00289
1475.08324,0.00318
1473.02306,0.00386
1470.96289,0.00479
1468.90272,0.00555
1466.84255,0.00611
1464.78238,0.00666
1462.72220,0.00711
1460.66203,0.00730
1458.60186,0.00737
1456.54169,0.00772
1454.48151,0.00832
1452.42134,0.00880
1450.36117,0.00914
1448.30100,0.00952
1446.24083,0.00998
1444.18065,0.01034
1442.12048,0.01055
1440.06031,0.01071
1438.00014,0.01095
1435.93997,0.01130
1433.87979,0.01167
1431.81962,0.01210
1429.75945,0.01271
1427.69928,0.01330
1425.63910,0.01365
1423.57893,0.01389
1421.51876,0.01424
1419.45859,0.01472
1417.39842,0.01519
1415.33824,0.01538
1413.27807,0.01533
1411.21790,0.01524
1409.15773,0.01515
1407.09756,0.01491
1405.03738,0.01449
1402.97721,0.01400
1400.91704,0.01356
1398.85687,0.01314
1396.79670,0.01270
1394.73652,0.01226
1392.67635,0.01199
1390.61618,0.01188
1388.55601,0.01183
1386.49583,0.01198
1384.43566,0.01239
1382.37549,0.01294
1380.31532,0.01342
1378.25515,0.01372
1376.19497,0.01391
1374.13480,0.01411
1372.07463,0.01428
1370.01446,0.01433
1367.95429,0.01426
1365.89411,0.01412
1363.83394,0.01387
1361.77377,0.01353
1359.71360,0.01328
1357.65343,0.01320
1355.59325,0.01318
1353.53308,0.01310
1351.47291,0.01296
1349.41274,0.01270
1347.35256,0.01230
1345.29239,0.01190
1343.23222,0.01165
1341.17205,0.01150
1339.11188,0.01139
1337.05170,0.01139
1334.99153,0.01151
1332.93136,0.01161
1330.87119,0.01162
1328.81102,0.01162
1326.75084,0.01161
1324.69067,0.01162
1322.63050,0.01168
1320.57033,0.01178
1318.51015,0.01184
1316.44998,0.01183
1314.38981,0.01176
1312.32964,0.01169
1310.26947,0.01161
1308.20929,0.01145
1306.14912,0.01121
1304.08895,0.01096
1302.02878,0.01066
1299.96861,0.01031
1297.90843,0.01004
1295.84826,0.00989
1293.78809,0.00977
1291.72792,0.00966
1289.66775,0.00962
1287.60757,0.00957
1285.54740,0.00944
1283.48723,0.00928
1281.42706,0.00922
1279.36688,0.00932
1277.30671,0.00952
1275.24654,0.00972
1273.18637,0.00998
1271.12620,0.01041
1269.06602,0.01095
1267.00585,0.01155
1264.94568,0.01230
1262.88551,0.01315
1260.82534,0.01390
1258.76516,0.01454
1256.70499,0.01519
1254.64482,0.01569
1252.58465,0.01592
1250.52447,0.01604
1248.46430,0.01620
1246.40413,0.01634
1244.34396,0.01631
1242.28379,0.01605
1240.22361,0.01572
1238.16344,0.01541
1236.10327,0.01503
1234.04310,0.01444
1231.98293,0.01375
1229.92275,0.01311
1227.86258,0.01250
1225.80241,0.01183
1223.74224,0.01118
1221.68207,0.01061
1219.62189,0.00998
1217.56172,0.00920
1215.50155,0.00838
1213.44138,0.00766
1211.38120,0.00697
1209.32103,0.00621
1207.26086,0.00542
1205.20069,0.00450
1203.14052,0.00349
1201.08034,0.00260
1199.02017,0.00183
1196.96000,0.00121
1194.89983,0.00081
1192.83966,0.00052
1190.77948,0.00021
1188.71931,0.00000
1186.65914,-0.00003
1184.59897,0.00028
1182.53880,0.00086
1180.47862,0.00162
1178.41845,0.00251
1176.35828,0.00334
1174.29811,0.00423
1172.23793,0.00546
1170.17776,0.00689
1168.11759,0.00834
1166.05742,0.00987
1163.99725,0.01142
1161.93707,0.01282
1159.87690,0.01416
1157.81673,0.01546
1155.75656,0.01662
1153.69639,0.01763
1151.63621,0.01856
1149.57604,0.01953
1147.51587,0.02053
1145.45570,0.02135
1143.39552,0.02194
1141.33535,0.02229
1139.27518,0.02245
1137.21501,0.02272
1135.15484,0.02334
1133.09466,0.02414
1131.03449,0.02499
1128.97432,0.02599
1126.91415,0.02726
1124.85398,0.02878
1122.79380,0.03026
1120.73363,0.03149
1118.67346,0.03264
1116.61329,0.03391
1114.55312,0.03525
1112.49294,0.03649
1110.43277,0.03756
1108.37260,0.03876
1106.31243,0.04032
1104.25225,0.04208
1102.19208,0.04399
1100.13191,0.04612
1098.07174,0.04835
1096.01157,0.05066
1093.95139,0.05302
1091.89122,0.05514
1089.83105,0.05685
1087.77088,0.05834
1085.71071,0.05974
1083.65053,0.06113
1081.59036,0.06272
1079.53019,0.06466
1077.47002,0.06670
1075.40985,0.06849
1073.34967,0.07001
1071.28950,0.07141
1069.22933,0.07254
1067.16916,0.07329
1065.10898,0.07385
1063.04881,0.07436
1060.98864,0.07490
1058.92847,0.07561
1056.86830,0.07634
1054.80812,0.07694
1052.74795,0.07770
1050.68778,0.07871
1048.62761,0.07972
1046.56744,0.08080
1044.50726,0.08199
1042.44709,0.08293
1040.38692,0.08345
1038.32675,0.08358
1036.26657,0.08329
1034.20640,0.08262
1032.14623,0.08169
1030.08606,0.08080
1028.02589,0.08001
1025.96571,0.07912
1023.90554,0.07817
1021.84537,0.07726
1019.78520,0.07634
1017.72503,0.07552
1015.66485,0.07496
1013.60468,0.07447
1011.54451,0.07368
1009.48434,0.07249
1007.42417,0.07107
1005.36399,0.06960
1003.30382,0.06806
1001.24365,0.06638
999.18348,0.06473
997.12330,0.06327
995.06313,0.06202
993.00296,0.06092
990.94279,0.06010
988.88262,0.05950
986.82244,0.05882
984.76227,0.05809
982.70210,0.05738
980.64193,0.05638
978.58176,0.05502
976.52158,0.05372
974.46141,0.05249
972.40124,0.05108
970.34107,0.04947
968.28089,0.04764
966.22072,0.04585
964.16055,0.04432
962.10038,0.04289
960.04021,0.04142
957.98003,0.03993
955.91986,0.03844
953.85969,0.03702
951.79952,0.03561
949.73935,0.03415
947.67917,0.03256
945.61900,0.03092
943.55883,0.02916
941.49866,0.02686
939.43849,0.02424
937.37831,0.02184
935.31814,0.01960
933.25797,0.01756
931.19780,0.01597
929.13762,0.01451
927.07745,0.01293
925.01728,0.01150
922.95711,0.01034
920.89694,0.00940
918.83676,0.00859
916.77659,0.00769
914.71642,0.00677
912.65625,0.00594
910.59608,0.00520
908.53590,0.00458
906.47573,0.00427
904.41556,0.00429
902.35539,0.00453
900.29522,0.00491
898.23504,0.00528
896.17487,0.00549
894.11470,0.00557
892.05453,0.00557
889.99435,0.00541
887.93418,0.00488
885.87401,0.00426
883.81384,0.00407
881.75367,0.00404
879.69349,0.00364
877.63332,0.00313
875.57315,0.00299
873.51298,0.00309
871.45281,0.00330
869.39263,0.00339
867.33246,0.00320
865.27229,0.00289
863.21212,0.00278
861.15194,0.00296
859.09177,0.00297
857.03160,0.00261
854.97143,0.00233
852.91126,0.00228
850.85108,0.00220
848.79091,0.00202
846.73074,0.00182
844.67057,0.00164
842.61040,0.00143
840.55022,0.00113
838.49005,0.00096
836.42988,0.00086
834.36971,0.00048
832.30954,0.00000
830.24936,-0.00012
828.18919,-0.00010
826.12902,-0.00023
824.06885,-0.00043
822.00867,-0.00023
819.94850,0.00026
817.88833,0.00034
815.82816,0.00029
813.76799,0.00039
811.70781,0.00052
809.64764,0.00086
807.58747,0.00129
805.52730,0.00154
803.46713,0.00174
801.40695,0.00203
799.34678,0.00215
797.28661,0.00190
795.22644,0.00129
793.16627,0.00045
791.10609,0.00000
789.04592,0.00015
786.98575,0.00051
784.92558,0.00077
782.86540,0.00098
780.80523,0.00098
778.74506,0.00100
776.68489,0.00112
774.62472,0.00104
772.56454,0.00081
770.50437,0.00081
768.44420,0.00106
766.38403,0.00114
764.32386,0.00098
762.26368,0.00084
760.20351,0.00060
758.14334,0.00030
756.08317,0.00022
754.02299,0.00018
751.96282,0.00000
749.90265,-0.00025
747.84248,-0.00041
745.78231,-0.00064
743.72213,-0.00083
741.66196,-0.00075
739.60179,-0.00070
737.54162,-0.00076
735.48145,-0.00071
733.42127,-0.00061
731.36110,-0.00063
729.30093,-0.00101
727.24076,-0.00163
725.18059,-0.00183
723.12041,-0.00123
721.06024,-0.00077
719.00007,-0.00045
716.93990,-0.00021
714.87972,0.00020
712.81955,0.00094
710.75938,0.00162
708.69921,0.00214
706.63904,0.00260
704.57886,0.00303
702.51869,0.00329
700.45852,0.00327
698.39835,0.00332
696.33818,0.00335
694.27800,0.00262
692.21783,0.00148
690.15766,0.00100
688.09749,0.00117
686.03731,0.00099
683.97714,0.00036
681.91697,0.00032
679.85680,0.00131
677.79663,0.00222
675.73645,0.00211
673.67628,0.00118
671.61611,0.00009
669.55594,-0.00023
667.49577,0.00057
665.43559,0.00118
663.37542,0.00179
661.31525,0.00137
659.25508,-0.00008
657.19491,-0.00097
655.13473,-0.00051
653.07456,0.00020
651.01439,0.00021
648.95422,0.00000
646.89404,0.00020
644.83387,0.00097
642.77370,0.00194
640.71353,0.00235
638.65336,0.00190
636.59318,0.00113
634.53301,0.00045
632.47284,0.00017
630.41267,0.00051
628.35250,0.00081
626.29232,0.00030
624.23215,-0.00056
622.17198,-0.00120
620.11181,-0.00128
618.05164,-0.00095
615.99146,-0.00035
613.93129,0.00062
611.87112,0.00121
609.81095,0.00167
607.75077,0.00243
605.69060,0.00242
603.63043,0.00162
601.57026,0.00071
599.51009,0.00000
