3996.73391,0.00000
3994.67373,0.00009
3992.61356,0.00031
3990.55339,0.00043
3988.49322,0.00044
3986.43305,0.00034
3984.37287,0.00024
3982.31270,0.00029
3980.25253,0.00048
3978.19236,0.00064
3976.13219,0.00071
3974.07201,0.00073
3972.01184,0.00067
3969.95167,0.00047
3967.89150,0.00027
3965.83133,0.00020
3963.77115,0.00022
3961.71098,0.00030
3959.65081,0.00039
3957.59064,0.00043
3955.53046,0.00041
3953.47029,0.00041
3951.41012,0.00044
3949.34995,0.00040
3947.28978,0.00032
3945.22960,0.00024
3943.16943,0.00016
3941.10926,0.00020
3939.04909,0.00037
3936.98892,0.00041
3934.92874,0.00022
3932.86857,0.00005
3930.80840,0.00017
3928.74823,0.00038
3926.68805,0.00051
3924.62788,0.00063
3922.56771,0.00067
3920.50754,0.00058
3918.44737,0.00063
3916.38719,0.00082
3914.32702,0.00086
3912.26685,0.00072
3910.20668,0.00055
3908.14651,0.00038
3906.08633,0.00015
3904.02616,0.00000
3901.96599,0.00007
3899.90582,0.00025
3897.84565,0.00041
3895.78547,0.00057
3893.72530,0.00059
3891.66513,0.00046
3889.60496,0.00041
3887.54478,0.00047
3885.48461,0.00056
3883.42444,0.00063
3881.36427,0.00063
3879.30410,0.00059
3877.24392,0.00054
3875.18375,0.00044
3873.12358,0.00040
3871.06341,0.00058
3869.00324,0.00096
3866.94306,0.00136
3864.88289,0.00148
3862.82272,0.00119
3860.76255,0.00085
3858.70237,0.00083
3856.64220,0.00115
3854.58203,0.00142
3852.52186,0.00126
3850.46169,0.00097
3848.40151,0.00072
3846.34134,0.00050
3844.28117,0.00042
3842.22100,0.00072
3840.16083,0.00139
3838.10065,0.00179
3836.04048,0.00128
3833.98031,0.00055
3831.92014,0.00027
3829.85997,0.00037
3827.79979,0.00069
3825.73962,0.00092
3823.67945,0.00067
3821.61928,0.00015
3819.55910,0.00010
3817.49893,0.00054
3815.43876,0.00101
3813.37859,0.00127
3811.31842,0.00119
3809.25824,0.00082
3807.19807,0.00063
3805.13790,0.00099
3803.07773,0.00148
3801.01756,0.00160
3798.95738,0.00137
3796.89721,0.00105
3794.83704,0.00070
3792.77687,0.00038
3790.71670,0.00014
3788.65652,0.00006
3786.59635,0.00032
3784.53618,0.00065
3782.47601,0.00059
3780.41583,0.00039
3778.35566,0.00054
3776.29549,0.00083
3774.23532,0.00098
3772.17515,0.00106
3770.11497,0.00105
3768.05480,0.00099
3765.99463,0.00097
3763.93446,0.00088
3761.87429,0.00073
3759.81411,0.00061
3757.75394,0.00055
3755.69377,0.00046
3753.63360,0.00024
3751.57342,0.00000
3749.51325,0.00011
3747.45308,0.00058
3745.39291,0.00100
3743.33274,0.00118
3741.27256,0.00111
3739.21239,0.00095
3737.15222,0.00088
3735.09205,0.00106
3733.03188,0.00125
3730.97170,0.00125
3728.91153,0.00118
3726.85136,0.00116
3724.79119,0.00126
3722.73102,0.00130
3720.67084,0.00106
3718.61067,0.00072
3716.55050,0.00069
3714.49033,0.00086
3712.43015,0.00093
3710.36998,0.00101
3708.30981,0.00113
3706.24964,0.00121
3704.18947,0.00100
3702.12929,0.00072
3700.06912,0.00095
3698.00895,0.00146
3695.94878,0.00162
3693.88861,0.00137
3691.82843,0.00103
3689.76826,0.00080
3687.70809,0.00094
3685.64792,0.00134
3683.58775,0.00166
3681.52757,0.00179
3679.46740,0.00179
3677.40723,0.00158
3675.34706,0.00121
3673.28688,0.00103
3671.22671,0.00123
3669.16654,0.00166
3667.10637,0.00192
3665.04620,0.00196
3662.98602,0.00212
3660.92585,0.00254
3658.86568,0.00300
3656.80551,0.00334
3654.74534,0.00357
3652.68516,0.00368
3650.62499,0.00371
3648.56482,0.00395
3646.50465,0.00458
3644.44447,0.00510
3642.38430,0.00512
3640.32413,0.00491
3638.26396,0.00504
3636.20379,0.00558
3634.14361,0.00626
3632.08344,0.00674
3630.02327,0.00692
3627.96310,0.00701
3625.90293,0.00720
3623.84275,0.00747
3621.78258,0.00781
3619.72241,0.00828
3617.66224,0.00885
3615.60207,0.00932
3613.54189,0.00962
3611.48172,0.00984
3609.42155,0.01039
3607.36138,0.01116
3605.30120,0.01165
3603.24103,0.01198
3601.18086,0.01233
3599.12069,0.01264
3597.06052,0.01294
3595.00034,0.01332
3592.94017,0.01373
3590.88000,0.01419
3588.81983,0.01462
3586.75966,0.01495
3584.69948,0.01520
3582.63931,0.01552
3580.57914,0.01587
3578.51897,0.01619
3576.45879,0.01651
3574.39862,0.01687
3572.33845,0.01719
3570.27828,0.01747
3568.21811,0.01781
3566.15793,0.01830
3564.09776,0.01895
3562.03759,0.01974
3559.97742,0.02047
3557.91725,0.02085
3555.85707,0.02088
3553.79690,0.02094
3551.73673,0.02120
3549.67656,0.02150
3547.61639,0.02182
3545.55621,0.02220
3543.49604,0.02256
3541.43587,0.02298
3539.37570,0.02355
3537.31552,0.02400
3535.25535,0.02423
3533.19518,0.02445
3531.13501,0.02481
3529.07484,0.02525
3527.01466,0.02574
3524.95449,0.02639
3522.89432,0.02713
3520.83415,0.02764
3518.77398,0.02787
3516.71380,0.02804
3514.65363,0.02839
3512.59346,0.02905
3510.53329,0.02961
3508.47312,0.02972
3506.41294,0.02964
3504.35277,0.02978
3502.29260,0.03028
3500.23243,0.03084
3498.17225,0.03112
3496.11208,0.03128
3494.05191,0.03170
3491.99174,0.03237
3489.93157,0.03290
3487.87139,0.03307
3485.81122,0.03307
3483.75105,0.03323
3481.69088,0.03349
3479.63071,0.03384
3477.57053,0.03438
3475.51036,0.03481
3473.45019,0.03495
3471.39002,0.03517
3469.32984,0.03563
3467.26967,0.03608
3465.20950,0.03647
3463.14933,0.03685
3461.08916,0.03714
3459.02898,0.03734
3456.96881,0.03746
3454.90864,0.03760
3452.84847,0.03793
3450.78830,0.03833
3448.72812,0.03871
3446.66795,0.03909
3444.60778,0.03945
3442.54761,0.03972
3440.48744,0.03995
3438.42726,0.04020
3436.36709,0.04041
3434.30692,0.04046
3432.24675,0.04055
3430.18657,0.04089
3428.12640,0.04133
3426.06623,0.04155
3424.00606,0.04156
3421.94589,0.04171
3419.88571,0.04198
3417.82554,0.04213
3415.76537,0.04244
3413.70520,0.04290
3411.64503,0.04317
3409.58485,0.04317
3407.52468,0.04311
3405.46451,0.04326
3403.40434,0.04355
3401.34416,0.04377
3399.28399,0.04394
3397.22382,0.04417
3395.16365,0.04438
3393.10348,0.04448
3391.04330,0.04468
3388.98313,0.04503
3386.92296,0.04518
3384.86279,0.04508
3382.80262,0.04509
3380.74244,0.04533
3378.68227,0.04558
3376.62210,0.04582
3374.56193,0.04603
3372.50176,0.04611
3370.44158,0.04617
3368.38141,0.04628
3366.32124,0.04646
3364.26107,0.04657
3362.20089,0.04652
3360.14072,0.04660
3358.08055,0.04685
3356.02038,0.04704
3353.96021,0.04717
3351.90003,0.04733
3349.83986,0.04745
3347.77969,0.04738
3345.71952,0.04707
3343.65935,0.04661
3341.59917,0.04642
3339.53900,0.04662
3337.47883,0.04685
3335.41866,0.04694
3333.35849,0.04702
3331.29831,0.04719
3329.23814,0.04729
3327.17797,0.04721
3325.11780,0.04715
3323.05762,0.04723
3320.99745,0.04730
3318.93728,0.04724
3316.87711,0.04719
3314.81694,0.04711
3312.75676,0.04699
3310.69659,0.04691
3308.63642,0.04687
3306.57625,0.04693
3304.51608,0.04707
3302.45590,0.04710
3300.39573,0.04705
3298.33556,0.04699
3296.27539,0.04701
3294.21521,0.04706
3292.15504,0.04696
3290.09487,0.04686
3288.03470,0.04685
3285.97453,0.04676
3283.91435,0.04669
3281.85418,0.04680
3279.79401,0.04687
3277.73384,0.04674
3275.67367,0.04657
3273.61349,0.04646
3271.55332,0.04638
3269.49315,0.04638
3267.43298,0.04643
3265.37281,0.04640
3263.31263,0.04621
3261.25246,0.04597
3259.19229,0.04589
3257.13212,0.04615
3255.07194,0.04634
3253.01177,0.04610
3250.95160,0.04584
3248.89143,0.04581
3246.83126,0.04583
3244.77108,0.04574
3242.71091,0.04547
3240.65074,0.04515
3238.59057,0.04509
3236.53040,0.04511
3234.47022,0.04488
3232.41005,0.04461
3230.34988,0.04455
3228.28971,0.04455
3226.22954,0.04444
3224.16936,0.04435
3222.10919,0.04438
3220.04902,0.04428
3217.98885,0.04399
3215.92867,0.04360
3213.86850,0.04326
3211.80833,0.04317
3209.74816,0.04327
3207.68799,0.04327
3205.62781,0.04296
3203.56764,0.04261
3201.50747,0.04246
3199.44730,0.04223
3197.38713,0.04179
3195.32695,0.04141
3193.26678,0.04117
3191.20661,0.04095
3189.14644,0.04075
3187.08626,0.04058
3185.02609,0.04040
3182.96592,0.04009
3180.90575,0.03961
3178.84558,0.03921
3176.78540,0.03905
3174.72523,0.03888
3172.66506,0.03859
3170.60489,0.03830
3168.54472,0.03809
3166.48454,0.03797
3164.42437,0.03781
3162.36420,0.03762
3160.30403,0.03736
3158.24386,0.03688
3156.18368,0.03645
3154.12351,0.03625
3152.06334,0.03612
3150.00317,0.03586
3147.94299,0.03549
3145.88282,0.03517
3143.82265,0.03488
3141.76248,0.03466
3139.70231,0.03453
3137.64213,0.03429
3135.58196,0.03393
3133.52179,0.03356
3131.46162,0.03314
3129.40145,0.03269
3127.34127,0.03236
3125.28110,0.03220
3123.22093,0.03210
3121.16076,0.03202
3119.10058,0.03180
3117.04041,0.03132
3114.98024,0.03084
3112.92007,0.03051
3110.85990,0.03018
3108.79972,0.02993
3106.73955,0.02984
3104.67938,0.02959
3102.61921,0.02914
3100.55904,0.02877
3098.49886,0.02857
3096.43869,0.02841
3094.37852,0.02831
3092.31835,0.02818
3090.25818,0.02795
3088.19800,0.02763
3086.13783,0.02730
3084.07766,0.02700
3082.01749,0.02680
3079.95731,0.02678
3077.89714,0.02669
3075.83697,0.02634
3073.77680,0.02591
3071.71663,0.02554
3069.65645,0.02521
3067.59628,0.02500
3065.53611,0.02490
3063.47594,0.02473
3061.41577,0.02444
3059.35559,0.02413
3057.29542,0.02385
3055.23525,0.02364
3053.17508,0.02350
3051.11491,0.02343
3049.05473,0.02327
3046.99456,0.02287
3044.93439,0.02253
3042.87422,0.02239
3040.81404,0.02216
3038.75387,0.02182
3036.69370,0.02164
3034.63353,0.02161
3032.57336,0.02155
3030.51318,0.02133
3028.45301,0.02101
3026.39284,0.02071
3024.33267,0.02048
3022.27250,0.02031
3020.21232,0.02009
3018.15215,0.01993
3016.09198,0.01989
3014.03181,0.01981
3011.97163,0.01954
3009.91146,0.01922
3007.85129,0.01909
3005.79112,0.01902
3003.73095,0.01873
3001.67077,0.01841
2999.61060,0.01828
2997.55043,0.01831
2995.49026,0.01837
2993.43009,0.01840
2991.36991,0.01842
2989.30974,0.01842
2987.24957,0.01846
2985.18940,0.01866
2983.12923,0.01883
2981.06905,0.01889
2979.00888,0.01888
2976.94871,0.01887
2974.88854,0.01889
2972.82836,0.01882
2970.76819,0.01872
2968.70802,0.01872
2966.64785,0.01887
2964.58768,0.01910
2962.52750,0.01928
2960.46733,0.01946
2958.40716,0.01978
2956.34699,0.02013
2954.28682,0.02039
2952.22664,0.02068
2950.16647,0.02102
2948.10630,0.02123
2946.04613,0.02131
2943.98596,0.02136
2941.92578,0.02142
2939.86561,0.02156
2937.80544,0.02169
2935.74527,0.02182
2933.68509,0.02199
2931.62492,0.02211
2929.56475,0.02210
2927.50458,0.02194
2925.44441,0.02178
2923.38423,0.02175
2921.32406,0.02172
2919.26389,0.02155
2917.20372,0.02127
2915.14355,0.02099
2913.08337,0.02078
2911.02320,0.02053
2908.96303,0.02013
2906.90286,0.01987
2904.84268,0.01990
2902.78251,0.01987
2900.72234,0.01965
2898.66217,0.01942
2896.60200,0.01937
2894.54182,0.01950
2892.48165,0.01953
2890.42148,0.01928
2888.36131,0.01900
2886.30114,0.01896
2884.24096,0.01909
2882.18079,0.01907
2880.12062,0.01885
2878.06045,0.01863
2876.00028,0.01848
2873.94010,0.01828
2871.87993,0.01792
2869.81976,0.01762
2867.75959,0.01754
2865.69941,0.01749
2863.63924,0.01726
2861.57907,0.01699
2859.51890,0.01679
2857.45873,0.01664
2855.39855,0.01645
2853.33838,0.01621
2851.27821,0.01596
2849.21804,0.01584
2847.15787,0.01579
2845.09769,0.01553
2843.03752,0.01514
2840.97735,0.01494
2838.91718,0.01490
2836.85700,0.01478
2834.79683,0.01463
2832.73666,0.01447
2830.67649,0.01420
2828.61632,0.01403
2826.55614,0.01408
2824.49597,0.01408
2822.43580,0.01396
2820.37563,0.01379
2818.31546,0.01358
2816.25528,0.01329
2814.19511,0.01302
2812.13494,0.01290
2810.07477,0.01287
2808.01460,0.01284
2805.95442,0.01278
2803.89425,0.01268
2801.83408,0.01256
2799.77391,0.01243
2797.71373,0.01237
2795.65356,0.01234
2793.59339,0.01228
2791.53322,0.01227
2789.47305,0.01226
2787.41287,0.01208
2785.35270,0.01192
2783.29253,0.01197
2781.23236,0.01211
2779.17219,0.01209
2777.11201,0.01190
2775.05184,0.01165
2772.99167,0.01163
2770.93150,0.01176
2768.87133,0.01170
2766.81115,0.01152
2764.75098,0.01139
2762.69081,0.01134
2760.63064,0.01132
2758.57046,0.01118
2756.51029,0.01094
2754.45012,0.01087
2752.38995,0.01096
2750.32978,0.01099
2748.26960,0.01083
2746.20943,0.01062
2744.14926,0.01054
2742.08909,0.01055
2740.02892,0.01054
2737.96874,0.01049
2735.90857,0.01040
2733.84840,0.01043
2731.78823,0.01056
2729.72805,0.01063
2727.66788,0.01060
2725.60771,0.01048
2723.54754,0.01023
2721.48737,0.01001
2719.42719,0.00992
2717.36702,0.00987
2715.30685,0.00974
2713.24668,0.00964
2711.18651,0.00972
2709.12633,0.00976
2707.06616,0.00961
2705.00599,0.00942
2702.94582,0.00933
2700.88565,0.00936
2698.82547,0.00944
2696.76530,0.00952
2694.70513,0.00959
2692.64496,0.00957
2690.58478,0.00945
2688.52461,0.00933
2686.46444,0.00924
2684.40427,0.00909
2682.34410,0.00891
2680.28392,0.00876
2678.22375,0.00867
2676.16358,0.00859
2674.10341,0.00850
2672.04324,0.00849
2669.98306,0.00859
2667.92289,0.00867
2665.86272,0.00857
2663.80255,0.00840
2661.74238,0.00835
2659.68220,0.00842
2657.62203,0.00849
2655.56186,0.00851
2653.50169,0.00851
2651.44151,0.00845
2649.38134,0.00822
2647.32117,0.00797
2645.26100,0.00787
2643.20083,0.00774
2641.14065,0.00752
2639.08048,0.00737
2637.02031,0.00739
2634.96014,0.00751
2632.89997,0.00754
2630.83979,0.00735
2628.77962,0.00710
2626.71945,0.00699
2624.65928,0.00693
2622.59910,0.00684
2620.53893,0.00683
2618.47876,0.00688
2616.41859,0.00683
2614.35842,0.00668
2612.29824,0.00651
2610.23807,0.00643
2608.17790,0.00639
2606.11773,0.00637
2604.05756,0.00654
2601.99738,0.00680
2599.93721,0.00682
2597.87704,0.00658
2595.81687,0.00643
2593.75670,0.00648
2591.69652,0.00662
2589.63635,0.00661
2587.57618,0.00628
2585.51601,0.00595
2583.45583,0.00598
2581.39566,0.00601
2579.33549,0.00599
2577.27532,0.00610
2575.21515,0.00620
2573.15497,0.00620
2571.09480,0.00620
2569.03463,0.00625
2566.97446,0.00607
2564.91429,0.00575
2562.85411,0.00563
2560.79394,0.00569
2558.73377,0.00565
2556.67360,0.00539
2554.61342,0.00522
2552.55325,0.00540
2550.49308,0.00571
2548.43291,0.00597
2546.37274,0.00629
2544.31256,0.00647
2542.25239,0.00616
2540.19222,0.00564
2538.13205,0.00552
2536.07188,0.00565
2534.01170,0.00556
2531.95153,0.00540
2529.89136,0.00548
2527.83119,0.00566
2525.77102,0.00556
2523.71084,0.00535
2521.65067,0.00540
2519.59050,0.00556
2517.53033,0.00566
2515.47015,0.00568
2513.40998,0.00560
2511.34981,0.00552
2509.28964,0.00548
2507.22947,0.00549
2505.16929,0.00559
2503.10912,0.00559
2501.04895,0.00536
2498.98878,0.00521
2496.92861,0.00527
2494.86843,0.00526
2492.80826,0.00520
2490.74809,0.00513
2488.68792,0.00501
2486.62775,0.00497
2484.56757,0.00499
2482.50740,0.00497
2480.44723,0.00500
2478.38706,0.00520
2476.32688,0.00549
2474.26671,0.00545
2472.20654,0.00495
2470.14637,0.00469
2468.08620,0.00490
2466.02602,0.00504
2463.96585,0.00494
2461.90568,0.00482
2459.84551,0.00498
2457.78534,0.00532
2455.72516,0.00551
2453.66499,0.00552
2451.60482,0.00540
2449.54465,0.00529
2447.48447,0.00529
2445.42430,0.00520
2443.36413,0.00502
2441.30396,0.00494
2439.24379,0.00493
2437.18361,0.00490
2435.12344,0.00485
2433.06327,0.00474
2431.00310,0.00458
2428.94293,0.00458
2426.88275,0.00489
2424.82258,0.00524
2422.76241,0.00546
2420.70224,0.00555
2418.64207,0.00530
2416.58189,0.00496
2414.52172,0.00491
2412.46155,0.00506
2410.40138,0.00511
2408.34120,0.00488
2406.28103,0.00463
2404.22086,0.00463
2402.16069,0.00470
2400.10052,0.00451
2398.04034,0.00380
2395.98017,0.00377
2393.92000,0.00424
2391.85983,0.00471
2389.79966,0.00494
2387.73948,0.00505
2385.67931,0.00525
2383.61914,0.00541
2381.55897,0.00535
2379.49880,0.00511
2377.43862,0.00505
2375.37845,0.00537
2373.31828,0.00613
2371.25811,0.00671
2369.19793,0.00625
2367.13776,0.00569
2365.07759,0.00566
2363.01742,0.00480
2360.95725,0.00485
2358.89707,0.00590
2356.83690,0.00773
2354.77673,0.00847
2352.71656,0.00810
2350.65639,0.00967
2348.59621,0.01063
2346.53604,0.00783
2344.47587,0.00719
2342.41570,0.00806
2340.35552,0.00841
2338.29535,0.00859
2336.23518,0.00858
2334.17501,0.00855
2332.11484,0.00813
2330.05466,0.00781
2327.99449,0.00754
2325.93432,0.00765
2323.87415,0.00717
2321.81398,0.00637
2319.75380,0.00573
2317.69363,0.00621
2315.63346,0.00660
2313.57329,0.00653
2311.51312,0.00653
2309.45294,0.00655
2307.39277,0.00637
2305.33260,0.00615
2303.27243,0.00607
2301.21225,0.00582
2299.15208,0.00563
2297.09191,0.00563
2295.03174,0.00571
2292.97157,0.00572
2290.91139,0.00547
2288.85122,0.00504
2286.79105,0.00489
2284.73088,0.00505
2282.67071,0.00517
2280.61053,0.00501
2278.55036,0.00453
2276.49019,0.00389
2274.43002,0.00357
2272.36984,0.00371
2270.30967,0.00406
2268.24950,0.00425
2266.18933,0.00413
2264.12916,0.00392
2262.06898,0.00393
2260.00881,0.00392
2257.94864,0.00358
2255.88847,0.00330
2253.82830,0.00371
2251.76812,0.00448
2249.70795,0.00468
2247.64778,0.00448
2245.58761,0.00458
2243.52744,0.00489
2241.46726,0.00460
2239.40709,0.00444
2237.34692,0.00466
2235.28675,0.00426
2233.22657,0.00366
2231.16640,0.00371
2229.10623,0.00394
2227.04606,0.00395
2224.98589,0.00420
2222.92571,0.00468
2220.86554,0.00468
2218.80537,0.00404
2216.74520,0.00308
2214.68503,0.00233
2212.62485,0.00271
2210.56468,0.00380
2208.50451,0.00388
2206.44434,0.00302
2204.38417,0.00285
2202.32399,0.00352
2200.26382,0.00371
2198.20365,0.00323
2196.14348,0.00327
2194.08330,0.00396
2192.02313,0.00406
2189.96296,0.00351
2187.90279,0.00292
2185.84262,0.00240
2183.78244,0.00260
2181.72227,0.00333
2179.66210,0.00314
2177.60193,0.00204
2175.54176,0.00175
2173.48158,0.00240
2171.42141,0.00245
2169.36124,0.00187
2167.30107,0.00172
2165.24089,0.00241
2163.18072,0.00353
2161.12055,0.00357
2159.06038,0.00262
2157.00021,0.00259
2154.94003,0.00313
2152.87986,0.00292
2150.81969,0.00178
2148.75952,0.00060
2146.69935,0.00024
2144.63917,0.00092
2142.57900,0.00208
2140.51883,0.00287
2138.45866,0.00290
2136.39849,0.00240
2134.33831,0.00200
2132.27814,0.00213
2130.21797,0.00299
2128.15780,0.00376
2126.09762,0.00354
2124.03745,0.00309
2121.97728,0.00320
2119.91711,0.00349
2117.85694,0.00380
2115.79676,0.00429
2113.73659,0.00447
2111.67642,0.00405
2109.61625,0.00336
2107.55608,0.00297
2105.49590,0.00304
2103.43573,0.00340
2101.37556,0.00404
2099.31539,0.00440
2097.25521,0.00417
2095.19504,0.00381
2093.13487,0.00383
2091.07470,0.00393
2089.01453,0.00332
2086.95435,0.00253
2084.89418,0.00266
2082.83401,0.00316
2080.77384,0.00312
2078.71367,0.00301
2076.65349,0.00326
2074.59332,0.00338
2072.53315,0.00306
2070.47298,0.00278
2068.41281,0.00300
2066.35263,0.00335
2064.29246,0.00352
2062.23229,0.00352
2060.17212,0.00299
2058.11194,0.00256
2056.05177,0.00272
2053.99160,0.00290
2051.93143,0.00273
2049.87126,0.00212
2047.81108,0.00172
2045.75091,0.00209
2043.69074,0.00248
2041.63057,0.00278
2039.57040,0.00373
2037.51022,0.00450
2035.45005,0.00435
2033.38988,0.00400
2031.32971,0.00337
2029.26954,0.00214
2027.20936,0.00079
2025.14919,0.00007
2023.08902,0.00044
2021.02885,0.00089
2018.96867,0.00052
2016.90850,0.00000
2014.84833,0.00008
2012.78816,0.00070
2010.72799,0.00145
2008.66781,0.00175
2006.60764,0.00156
2004.54747,0.00196
2002.48730,0.00300
2000.42713,0.00287
1998.36695,0.00156
1996.30678,0.00127
1994.24661,0.00225
1992.18644,0.00313
1990.12626,0.00338
1988.06609,0.00312
1986.00592,0.00284
1983.94575,0.00267
1981.88558,0.00224
1979.82540,0.00185
1977.76523,0.00175
1975.70506,0.00140
1973.64489,0.00086
1971.58472,0.00053
1969.52454,0.00016
1967.46437,0.00000
1965.40420,0.00059
1963.34403,0.00130
1961.28386,0.00149
1959.22368,0.00162
1957.16351,0.00180
1955.10334,0.00174
1953.04317,0.00146
1950.98299,0.00129
1948.92282,0.00148
1946.86265,0.00164
1944.80248,0.00141
1942.74231,0.00096
1940.68213,0.00065
1938.62196,0.00069
1936.56179,0.00085
1934.50162,0.00089
1932.44145,0.00088
1930.38127,0.00091
1928.32110,0.00097
1926.26093,0.00088
1924.20076,0.00062
1922.14059,0.00054
1920.08041,0.00079
1918.02024,0.00119
1915.96007,0.00155
1913.89990,0.00167
1911.83972,0.00159
1909.77955,0.00144
1907.71938,0.00139
1905.65921,0.00151
1903.59904,0.00156
1901.53886,0.00122
1899.47869,0.00080
1897.41852,0.00072
1895.35835,0.00089
1893.29818,0.00105
1891.23800,0.00110
1889.17783,0.00109
1887.11766,0.00105
1885.05749,0.00103
1882.99731,0.00107
1880.93714,0.00099
1878.87697,0.00071
1876.81680,0.00053
1874.75663,0.00054
1872.69645,0.00056
1870.63628,0.00065
1868.57611,0.00088
1866.51594,0.00101
1864.45577,0.00095
1862.39559,0.00082
1860.33542,0.00071
1858.27525,0.00074
1856.21508,0.00099
1854.15491,0.00115
1852.09473,0.00098
1850.03456,0.00073
1847.97439,0.00071
1845.91422,0.00080
1843.85404,0.00080
1841.79387,0.00071
1839.73370,0.00067
1837.67353,0.00064
1835.61336,0.00054
1833.55318,0.00045
1831.49301,0.00049
1829.43284,0.00053
1827.37267,0.00052
1825.31250,0.00057
1823.25232,0.00065
1821.19215,0.00068
1819.13198,0.00069
1817.07181,0.00072
1815.01163,0.00078
1812.95146,0.00075
1810.89129,0.00057
1808.83112,0.00042
1806.77095,0.00041
1804.71077,0.00045
1802.65060,0.00048
1800.59043,0.00046
1798.53026,0.00037
1796.47009,0.00035
1794.40991,0.00042
1792.34974,0.00046
1790.28957,0.00042
1788.22940,0.00040
1786.16923,0.00051
1784.10905,0.00063
1782.04888,0.00063
1779.98871,0.00062
1777.92854,0.00068
1775.86836,0.00065
1773.80819,0.00063
1771.74802,0.00090
1769.68785,0.00119
1767.62768,0.00128
1765.56750,0.00130
1763.50733,0.00141
1761.44716,0.00172
1759.38699,0.00224
1757.32682,0.00287
1755.26664,0.00348
1753.20647,0.00395
1751.14630,0.00442
1749.08613,0.00498
1747.02596,0.00550
1744.96578,0.00588
1742.90561,0.00623
1740.84544,0.00663
1738.78527,0.00688
1736.72509,0.00687
1734.66492,0.00679
1732.60475,0.00686
1730.54458,0.00700
1728.48441,0.00705
1726.42423,0.00709
1724.36406,0.00711
1722.30389,0.00703
1720.24372,0.00677
1718.18355,0.00639
1716.12337,0.00614
1714.06320,0.00607
1712.00303,0.00589
1709.94286,0.00557
1707.88268,0.00541
1705.82251,0.00552
1703.76234,0.00565
1701.70217,0.00555
1699.64200,0.00539
1697.58182,0.00546
1695.52165,0.00577
1693.46148,0.00615
1691.40131,0.00655
1689.34114,0.00687
1687.28096,0.00696
1685.22079,0.00699
1683.16062,0.00741
1681.10045,0.00819
1679.04028,0.00898
1676.98010,0.00961
1674.91993,0.01009
1672.85976,0.01049
1670.79959,0.01096
1668.73941,0.01165
1666.67924,0.01246
1664.61907,0.01330
1662.55890,0.01418
1660.49873,0.01494
1658.43855,0.01548
1656.37838,0.01584
1654.31821,0.01617
1652.25804,0.01667
1650.19787,0.01716
1648.13769,0.01746
1646.07752,0.01759
1644.01735,0.01767
1641.95718,0.01786
1639.89701,0.01808
1637.83683,0.01824
1635.77666,0.01835
1633.71649,0.01838
1631.65632,0.01832
1629.59614,0.01819
1627.53597,0.01802
1625.47580,0.01792
1623.41563,0.01786
1621.35546,0.01777
1619.29528,0.01772
1617.23511,0.01765
1615.17494,0.01749
1613.11477,0.01728
1611.05460,0.01699
1608.99442,0.01654
1606.93425,0.01596
1604.87408,0.01537
1602.81391,0.01477
1600.75373,0.01416
1598.69356,0.01352
1596.63339,0.01280
1594.57322,0.01200
1592.51305,0.01117
1590.45287,0.01034
1588.39270,0.00952
1586.33253,0.00874
1584.27236,0.00804
1582.21219,0.00745
1580.15201,0.00697
1578.09184,0.00650
1576.03167,0.00599
1573.97150,0.00550
1571.91133,0.00500
1569.85115,0.00451
1567.79098,0.00416
1565.73081,0.00396
1563.67064,0.00375
1561.61046,0.00344
1559.55029,0.00305
1557.49012,0.00280
1555.42995,0.00281
1553.36978,0.00281
1551.30960,0.00264
1549.24943,0.00233
1547.18926,0.00196
1545.12909,0.00156
1543.06892,0.00121
1541.00874,0.00107
1538.94857,0.00113
1536.88840,0.00120
1534.82823,0.00116
1532.76805,0.00103
1530.70788,0.00093
1528.64771,0.00090
1526.58754,0.00090
1524.52737,0.00087
1522.46719,0.00084
1520.40702,0.00084
1518.34685,0.00086
1516.28668,0.00092
1514.22651,0.00098
1512.16633,0.00093
1510.10616,0.00068
1508.04599,0.00027
1505.98582,0.00000
1503.92565,0.00016
1501.86547,0.00049
1499.80530,0.00070
1497.74513,0.00074
1495.68496,0.00079
1493.62478,0.00091
1491.56461,0.00105
1489.50444,0.00119
1487.44427,0.00130
1485.38410,0.00146
1483.32392,0.00169
1481.26375,0.00200
1479.20358,0.00238
1477.14341,0.00272
1475.08324,0.00303
1473.02306,0.00353
1470.96289,0.00423
1468.90272,0.00478
1466.84255,0.00515
1464.78238,0.00549
1462.72220,0.00578
1460.66203,0.00596
1458.60186,0.00607
1456.54169,0.00631
1454.48151,0.00675
1452.42134,0.00717
1450.36117,0.00748
1448.30100,0.00775
1446.24083,0.00804
1444.18065,0.00827
1442.12048,0.00841
1440.06031,0.00859
1438.00014,0.00886
1435.93997,0.00918
1433.87979,0.00947
1431.81962,0.00976
1429.75945,0.01012
1427.69928,0.01054
1425.63910,0.01089
1423.57893,0.01115
1421.51876,0.01140
1419.45859,0.01170
1417.39842,0.01197
1415.33824,0.01209
1413.27807,0.01208
1411.21790,0.01204
1409.15773,0.01198
1407.09756,0.01179
1405.03738,0.01139
1402.97721,0.01099
1400.91704,0.01069
1398.85687,0.01041
1396.79670,0.01009
1394.73652,0.00979
1392.67635,0.00962
1390.61618,0.00951
1388.55601,0.00943
1386.49583,0.00954
1384.43566,0.00986
1382.37549,0.01022
1380.31532,0.01054
1378.25515,0.01079
1376.19497,0.01099
1374.13480,0.01120
1372.07463,0.01141
1370.01446,0.01154
1367.95429,0.01150
1365.89411,0.01132
1363.83394,0.01107
1361.77377,0.01083
1359.71360,0.01062
1357.65343,0.01040
1355.59325,0.01021
1353.53308,0.01011
1351.47291,0.01006
1349.41274,0.00993
1347.35256,0.00967
1345.29239,0.00940
1343.23222,0.00927
1341.17205,0.00917
1339.11188,0.00907
1337.05170,0.00904
1334.99153,0.00902
1332.93136,0.00892
1330.87119,0.00886
1328.81102,0.00892
1326.75084,0.00900
1324.69067,0.00906
1322.63050,0.00920
1320.57033,0.00937
1318.51015,0.00943
1316.44998,0.00937
1314.38981,0.00930
1312.32964,0.00925
1310.26947,0.00920
1308.20929,0.00911
1306.14912,0.00893
1304.08895,0.00867
1302.02878,0.00836
1299.96861,0.00808
1297.90843,0.00789
1295.84826,0.00781
1293.78809,0.00774
1291.72792,0.00765
1289.66775,0.00759
1287.60757,0.00752
1285.54740,0.00750
1283.48723,0.00752
1281.42706,0.00752
1279.36688,0.00754
1277.30671,0.00764
1275.24654,0.00776
1273.18637,0.00793
1271.12620,0.00822
1269.06602,0.00862
1267.00585,0.00911
1264.94568,0.00974
1262.88551,0.01046
1260.82534,0.01112
1258.76516,0.01164
1256.70499,0.01208
1254.64482,0.01241
1252.58465,0.01252
1250.52447,0.01255
1248.46430,0.01261
1246.40413,0.01266
1244.34396,0.01263
1242.28379,0.01243
1240.22361,0.01211
1238.16344,0.01190
1236.10327,0.01177
1234.04310,0.01143
1231.98293,0.01088
1229.92275,0.01032
1227.86258,0.00981
1225.80241,0.00921
1223.74224,0.00858
1221.68207,0.00806
1219.62189,0.00760
1217.56172,0.00709
1215.50155,0.00648
1213.44138,0.00583
1211.38120,0.00519
1209.32103,0.00456
1207.26086,0.00402
1205.20069,0.00352
1203.14052,0.00284
1201.08034,0.00199
1199.02017,0.00124
1196.96000,0.00077
1194.89983,0.00052
1192.83966,0.00032
1190.77948,0.00010
1188.71931,0.00000
1186.65914,0.00011
1184.59897,0.00048
1182.53880,0.00097
1180.47862,0.00155
1178.41845,0.00221
1176.35828,0.00297
1174.29811,0.00385
1172.23793,0.00484
1170.17776,0.00588
1168.11759,0.00701
1166.05742,0.00826
1163.99725,0.00949
1161.93707,0.01061
1159.87690,0.01164
1157.81673,0.01261
1155.75656,0.01345
1153.69639,0.01421
1151.63621,0.01495
1149.57604,0.01569
1147.51587,0.01640
1145.45570,0.01700
1143.39552,0.01741
1141.33535,0.01777
1139.27518,0.01818
1137.21501,0.01872
1135.15484,0.01933
1133.09466,0.01989
1131.03449,0.02049
1128.97432,0.02120
1126.91415,0.02207
1124.85398,0.02319
1122.79380,0.02438
1120.73363,0.02540
1118.67346,0.02631
1116.61329,0.02725
1114.55312,0.02822
1112.49294,0.02921
1110.43277,0.03021
1108.37260,0.03120
1106.31243,0.03234
1104.25225,0.03363
1102.19208,0.03498
1100.13191,0.03647
1098.07174,0.03813
1096.01157,0.03989
1093.95139,0.04161
1091.89122,0.04315
1089.83105,0.04442
1087.77088,0.04553
1085.71071,0.04654
1083.65053,0.04751
1081.59036,0.04854
1079.53019,0.04977
1077.47002,0.05119
1075.40985,0.05253
1073.34967,0.05352
1071.28950,0.05422
1069.22933,0.05475
1067.16916,0.05519
1065.10898,0.05557
1063.04881,0.05596
1060.98864,0.05644
1058.92847,0.05690
1056.86830,0.05718
1054.80812,0.05736
1052.74795,0.05781
1050.68778,0.05851
1048.62761,0.05923
1046.56744,0.05992
1044.50726,0.06053
1042.44709,0.06106
1040.38692,0.06134
1038.32675,0.06128
1036.26657,0.06103
1034.20640,0.06068
1032.14623,0.06015
1030.08606,0.05953
1028.02589,0.05892
1025.96571,0.05829
1023.90554,0.05764
1021.84537,0.05691
1019.78520,0.05617
1017.72503,0.05554
1015.66485,0.05502
1013.60468,0.05452
1011.54451,0.05395
1009.48434,0.05334
1007.42417,0.05258
1005.36399,0.05165
1003.30382,0.05071
1001.24365,0.04969
999.18348,0.04855
997.12330,0.04751
995.06313,0.04660
993.00296,0.04580
990.94279,0.04526
988.88262,0.04494
986.82244,0.04458
984.76227,0.04412
982.70210,0.04362
980.64193,0.04303
978.58176,0.04226
976.52158,0.04130
974.46141,0.04020
972.40124,0.03903
970.34107,0.03776
968.28089,0.03635
966.22072,0.03504
964.16055,0.03398
962.10038,0.03288
960.04021,0.03177
957.98003,0.03091
955.91986,0.03009
953.85969,0.02915
951.79952,0.02815
949.73935,0.02702
947.67917,0.02568
945.61900,0.02433
943.55883,0.02305
941.49866,0.02156
939.43849,0.01980
937.37831,0.01793
935.31814,0.01601
933.25797,0.01444
931.19780,0.01343
929.13762,0.01235
927.07745,0.01095
925.01728,0.00969
922.95711,0.00889
920.89694,0.00838
918.83676,0.00762
916.77659,0.00662
914.71642,0.00582
912.65625,0.00534
910.59608,0.00501
908.53590,0.00460
906.47573,0.00423
904.41556,0.00420
902.35539,0.00429
900.29522,0.00435
898.23504,0.00453
896.17487,0.00486
894.11470,0.00526
892.05453,0.00549
889.99435,0.00535
887.93418,0.00494
885.87401,0.00451
883.81384,0.00433
881.75367,0.00420
879.69349,0.00385
877.63332,0.00344
875.57315,0.00333
873.51298,0.00363
871.45281,0.00395
869.39263,0.00381
867.33246,0.00346
865.27229,0.00327
863.21212,0.00307
861.15194,0.00297
859.09177,0.00305
857.03160,0.00302
854.97143,0.00286
852.91126,0.00273
850.85108,0.00253
848.79091,0.00216
846.73074,0.00167
844.67057,0.00125
842.61040,0.00103
840.55022,0.00086
838.49005,0.00077
836.42988,0.00071
834.36971,0.00037
832.30954,0.00000
830.24936,0.00002
828.18919,0.00009
826.12902,0.00007
824.06885,0.00020
822.00867,0.00040
819.94850,0.00047
817.88833,0.00026
815.82816,0.00022
813.76799,0.00054
811.70781,0.00084
809.64764,0.00098
807.58747,0.00096
805.52730,0.00094
803.46713,0.00113
801.40695,0.00144
799.34678,0.00156
797.28661,0.00134
795.22644,0.00080
793.16627,0.00020
791.10609,0.00000
789.04592,0.00027
786.98575,0.00056
784.92558,0.00059
782.86540,0.00069
780.80523,0.00096
778.74506,0.00121
776.68489,0.00122
774.62472,0.00096
772.56454,0.00087
770.50437,0.00110
768.44420,0.00113
766.38403,0.00072
764.32386,0.00043
762.26368,0.00051
760.20351,0.00051
758.14334,0.00033
756.08317,0.00021
754.02299,0.00003
751.96282,0.00000
749.90265,0.00027
747.84248,0.00045
745.78231,0.00030
743.72213,0.00014
741.66196,0.00010
739.60179,-0.00001
737.54162,-0.00011
735.48145,-0.00013
733.42127,-0.00015
731.36110,0.00001
729.30093,0.00048
727.24076,0.00087
725.18059,0.00103
723.12041,0.00163
721.06024,0.00145
719.00007,0.00172
716.93990,0.00232
714.87972,0.00280
712.81955,0.00309
710.75938,0.00305
708.69921,0.00313
706.63904,0.00369
704.57886,0.00440
702.51869,0.00480
700.45852,0.00489
698.39835,0.00500
696.33818,0.00510
694.27800,0.00497
692.21783,0.00465
690.15766,0.00450
688.09749,0.00474
686.03731,0.00506
683.97714,0.00499
681.91697,0.00481
679.85680,0.00489
677.79663,0.00510
675.73645,0.00528
673.67628,0.00581
671.61611,0.00625
669.55594,0.00252
667.49577,0.00000
665.43559,0.00595
663.37542,0.00676
661.31525,0.00593
659.25508,0.00508
657.19491,0.00431
655.13473,0.00412
653.07456,0.00432
651.01439,0.00396
648.95422,0.00325
646.89404,0.00359
644.83387,0.00417
642.77370,0.00382
640.71353,0.00287
638.65336,0.00218
636.59318,0.00185
634.53301,0.00190
632.47284,0.00229
630.41267,0.00279
628.35250,0.00328
626.29232,0.00301
624.23215,0.00128
622.17198,0.00026
620.11181,0.00104
618.05164,0.00224
615.99146,0.00255
613.93129,0.00167
611.87112,0.00066
609.81095,0.00122
607.75077,0.00221
605.69060,0.00177
603.63043,0.00138
601.57026,0.00096
599.51009,0.00000
