3996.73391,0.00001
3994.67373,0.00000
3992.61356,0.00018
3990.55339,0.00037
3988.49322,0.00038
3986.43305,0.00028
3984.37287,0.00025
3982.31270,0.00040
3980.25253,0.00059
3978.19236,0.00063
3976.13219,0.00058
3974.07201,0.00047
3972.01184,0.00035
3969.95167,0.00027
3967.89150,0.00017
3965.83133,0.00012
3963.77115,0.00028
3961.71098,0.00056
3959.65081,0.00069
3957.59064,0.00058
3955.53046,0.00039
3953.47029,0.00031
3951.41012,0.00042
3949.34995,0.00057
3947.28978,0.00057
3945.22960,0.00040
3943.16943,0.00021
3941.10926,0.00011
3939.04909,0.00020
3936.98892,0.00046
3934.92874,0.00063
3932.86857,0.00058
3930.80840,0.00047
3928.74823,0.00051
3926.68805,0.00064
3924.62788,0.00074
3922.56771,0.00078
3920.50754,0.00072
3918.44737,0.00053
3916.38719,0.00031
3914.32702,0.00029
3912.26685,0.00050
3910.20668,0.00072
3908.14651,0.00078
3906.08633,0.00071
3904.02616,0.00055
3901.96599,0.00039
3899.90582,0.00036
3897.84565,0.00043
3895.78547,0.00052
3893.72530,0.00055
3891.66513,0.00046
3889.60496,0.00031
3887.54478,0.00023
3885.48461,0.00031
3883.42444,0.00050
3881.36427,0.00059
3879.30410,0.00054
3877.24392,0.00058
3875.18375,0.00069
3873.12358,0.00066
3871.06341,0.00056
3869.00324,0.00071
3866.94306,0.00106
3864.88289,0.00137
3862.82272,0.00136
3860.76255,0.00096
3858.70237,0.00057
3856.64220,0.00060
3854.58203,0.00093
3852.52186,0.00111
3850.46169,0.00098
3848.40151,0.00078
3846.34134,0.00058
3844.28117,0.00038
3842.22100,0.00030
3840.16083,0.00038
3838.10065,0.00051
3836.04048,0.00063
3833.98031,0.00067
3831.92014,0.00062
3829.85997,0.00066
3827.79979,0.00081
3825.73962,0.00096
3823.67945,0.00103
3821.61928,0.00091
3819.55910,0.00070
3817.49893,0.00070
3815.43876,0.00076
3813.37859,0.00062
3811.31842,0.00047
3809.25824,0.00048
3807.19807,0.00056
3805.13790,0.00068
3803.07773,0.00090
3801.01756,0.00105
3798.95738,0.00099
3796.89721,0.00082
3794.83704,0.00065
3792.77687,0.00059
3790.71670,0.00064
3788.65652,0.00067
3786.59635,0.00060
3784.53618,0.00051
3782.47601,0.00060
3780.41583,0.00085
3778.35566,0.00100
3776.29549,0.00089
3774.23532,0.00059
3772.17515,0.00032
3770.11497,0.00030
3768.05480,0.00052
3765.99463,0.00075
3763.93446,0.00083
3761.87429,0.00073
3759.81411,0.00060
3757.75394,0.00058
3755.69377,0.00057
3753.63360,0.00039
3751.57342,0.00023
3749.51325,0.00036
3747.45308,0.00056
3745.39291,0.00069
3743.33274,0.00086
3741.27256,0.00106
3739.21239,0.00111
3737.15222,0.00103
3735.09205,0.00104
3733.03188,0.00117
3730.97170,0.00113
3728.91153,0.00096
3726.85136,0.00084
3724.79119,0.00069
3722.73102,0.00052
3720.67084,0.00054
3718.61067,0.00075
3716.55050,0.00098
3714.49033,0.00115
3712.43015,0.00124
3710.36998,0.00113
3708.30981,0.00078
3706.24964,0.00042
3704.18947,0.00016
3702.12929,0.00000
3700.06912,0.00004
3698.00895,0.00026
3695.94878,0.00048
3693.88861,0.00050
3691.82843,0.00036
3689.76826,0.00029
3687.70809,0.00029
3685.64792,0.00029
3683.58775,0.00044
3681.52757,0.00084
3679.46740,0.00126
3677.40723,0.00136
3675.34706,0.00120
3673.28688,0.00123
3671.22671,0.00139
3669.16654,0.00138
3667.10637,0.00117
3665.04620,0.00100
3662.98602,0.00090
3660.92585,0.00072
3658.86568,0.00043
3656.80551,0.00031
3654.74534,0.00050
3652.68516,0.00078
3650.62499,0.00086
3648.56482,0.00080
3646.50465,0.00088
3644.44447,0.00101
3642.38430,0.00098
3640.32413,0.00092
3638.26396,0.00093
3636.20379,0.00084
3634.14361,0.00067
3632.08344,0.00065
3630.02327,0.00083
3627.96310,0.00089
3625.90293,0.00077
3623.84275,0.00077
3621.78258,0.00091
3619.72241,0.00096
3617.66224,0.00091
3615.60207,0.00087
3613.54189,0.00087
3611.48172,0.00092
3609.42155,0.00095
3607.36138,0.00076
3605.30120,0.00049
3603.24103,0.00030
3601.18086,0.00023
3599.12069,0.00044
3597.06052,0.00090
3595.00034,0.00114
3592.94017,0.00107
3590.88000,0.00111
3588.81983,0.00130
3586.75966,0.00140
3584.69948,0.00143
3582.63931,0.00141
3580.57914,0.00126
3578.51897,0.00109
3576.45879,0.00109
3574.39862,0.00118
3572.33845,0.00124
3570.27828,0.00145
3568.21811,0.00178
3566.15793,0.00176
3564.09776,0.00137
3562.03759,0.00116
3559.97742,0.00118
3557.91725,0.00115
3555.85707,0.00108
3553.79690,0.00112
3551.73673,0.00122
3549.67656,0.00130
3547.61639,0.00137
3545.55621,0.00134
3543.49604,0.00132
3541.43587,0.00146
3539.37570,0.00168
3537.31552,0.00188
3535.25535,0.00202
3533.19518,0.00213
3531.13501,0.00222
3529.07484,0.00219
3527.01466,0.00198
3524.95449,0.00171
3522.89432,0.00163
3520.83415,0.00172
3518.77398,0.00175
3516.71380,0.00170
3514.65363,0.00174
3512.59346,0.00195
3510.53329,0.00219
3508.47312,0.00229
3506.41294,0.00223
3504.35277,0.00223
3502.29260,0.00229
3500.23243,0.00218
3498.17225,0.00199
3496.11208,0.00191
3494.05191,0.00194
3491.99174,0.00191
3489.93157,0.00179
3487.87139,0.00182
3485.81122,0.00200
3483.75105,0.00200
3481.69088,0.00178
3479.63071,0.00165
3477.57053,0.00178
3475.51036,0.00192
3473.45019,0.00190
3471.39002,0.00186
3469.32984,0.00195
3467.26967,0.00208
3465.20950,0.00217
3463.14933,0.00214
3461.08916,0.00196
3459.02898,0.00188
3456.96881,0.00203
3454.90864,0.00225
3452.84847,0.00236
3450.78830,0.00240
3448.72812,0.00250
3446.66795,0.00257
3444.60778,0.00252
3442.54761,0.00250
3440.48744,0.00251
3438.42726,0.00244
3436.36709,0.00228
3434.30692,0.00215
3432.24675,0.00212
3430.18657,0.00210
3428.12640,0.00214
3426.06623,0.00229
3424.00606,0.00234
3421.94589,0.00236
3419.88571,0.00247
3417.82554,0.00242
3415.76537,0.00238
3413.70520,0.00250
3411.64503,0.00249
3409.58485,0.00240
3407.52468,0.00239
3405.46451,0.00228
3403.40434,0.00226
3401.34416,0.00260
3399.28399,0.00296
3397.22382,0.00294
3395.16365,0.00270
3393.10348,0.00255
3391.04330,0.00255
3388.98313,0.00260
3386.92296,0.00262
3384.86279,0.00257
3382.80262,0.00244
3380.74244,0.00245
3378.68227,0.00263
3376.62210,0.00273
3374.56193,0.00267
3372.50176,0.00267
3370.44158,0.00271
3368.38141,0.00257
3366.32124,0.00248
3364.26107,0.00257
3362.20089,0.00263
3360.14072,0.00260
3358.08055,0.00264
3356.02038,0.00272
3353.96021,0.00268
3351.90003,0.00267
3349.83986,0.00274
3347.77969,0.00271
3345.71952,0.00269
3343.65935,0.00267
3341.59917,0.00251
3339.53900,0.00234
3337.47883,0.00235
3335.41866,0.00245
3333.35849,0.00258
3331.29831,0.00265
3329.23814,0.00263
3327.17797,0.00252
3325.11780,0.00238
3323.05762,0.00227
3320.99745,0.00232
3318.93728,0.00254
3316.87711,0.00268
3314.81694,0.00260
3312.75676,0.00248
3310.69659,0.00243
3308.63642,0.00257
3306.57625,0.00286
3304.51608,0.00298
3302.45590,0.00278
3300.39573,0.00250
3298.33556,0.00245
3296.27539,0.00259
3294.21521,0.00271
3292.15504,0.00285
3290.09487,0.00295
3288.03470,0.00289
3285.97453,0.00287
3283.91435,0.00294
3281.85418,0.00290
3279.79401,0.00271
3277.73384,0.00265
3275.67367,0.00271
3273.61349,0.00268
3271.55332,0.00261
3269.49315,0.00263
3267.43298,0.00281
3265.37281,0.00308
3263.31263,0.00306
3261.25246,0.00269
3259.19229,0.00246
3257.13212,0.00258
3255.07194,0.00275
3253.01177,0.00272
3250.95160,0.00261
3248.89143,0.00260
3246.83126,0.00273
3244.77108,0.00294
3242.71091,0.00313
3240.65074,0.00317
3238.59057,0.00302
3236.53040,0.00281
3234.47022,0.00265
3232.41005,0.00263
3230.34988,0.00277
3228.28971,0.00289
3226.22954,0.00288
3224.16936,0.00276
3222.10919,0.00267
3220.04902,0.00279
3217.98885,0.00287
3215.92867,0.00258
3213.86850,0.00222
3211.80833,0.00212
3209.74816,0.00227
3207.68799,0.00247
3205.62781,0.00257
3203.56764,0.00260
3201.50747,0.00261
3199.44730,0.00260
3197.38713,0.00261
3195.32695,0.00271
3193.26678,0.00275
3191.20661,0.00263
3189.14644,0.00242
3187.08626,0.00223
3185.02609,0.00223
3182.96592,0.00234
3180.90575,0.00233
3178.84558,0.00219
3176.78540,0.00212
3174.72523,0.00219
3172.66506,0.00230
3170.60489,0.00243
3168.54472,0.00256
3166.48454,0.00260
3164.42437,0.00245
3162.36420,0.00223
3160.30403,0.00216
3158.24386,0.00222
3156.18368,0.00226
3154.12351,0.00224
3152.06334,0.00217
3150.00317,0.00217
3147.94299,0.00227
3145.88282,0.00232
3143.82265,0.00223
3141.76248,0.00209
3139.70231,0.00213
3137.64213,0.00231
3135.58196,0.00237
3133.52179,0.00222
3131.46162,0.00202
3129.40145,0.00203
3127.34127,0.00212
3125.28110,0.00209
3123.22093,0.00203
3121.16076,0.00203
3119.10058,0.00205
3117.04041,0.00206
3114.98024,0.00199
3112.92007,0.00177
3110.85990,0.00168
3108.79972,0.00191
3106.73955,0.00216
3104.67938,0.00212
3102.61921,0.00192
3100.55904,0.00192
3098.49886,0.00213
3096.43869,0.00226
3094.37852,0.00223
3092.31835,0.00214
3090.25818,0.00207
3088.19800,0.00204
3086.13783,0.00198
3084.07766,0.00187
3082.01749,0.00184
3079.95731,0.00197
3077.89714,0.00213
3075.83697,0.00213
3073.77680,0.00204
3071.71663,0.00203
3069.65645,0.00216
3067.59628,0.00225
3065.53611,0.00217
3063.47594,0.00206
3061.41577,0.00200
3059.35559,0.00189
3057.29542,0.00185
3055.23525,0.00193
3053.17508,0.00198
3051.11491,0.00192
3049.05473,0.00176
3046.99456,0.00168
3044.93439,0.00179
3042.87422,0.00195
3040.81404,0.00197
3038.75387,0.00184
3036.69370,0.00174
3034.63353,0.00166
3032.57336,0.00158
3030.51318,0.00167
3028.45301,0.00182
3026.39284,0.00169
3024.33267,0.00148
3022.27250,0.00153
3020.21232,0.00173
3018.15215,0.00197
3016.09198,0.00213
3014.03181,0.00207
3011.97163,0.00186
3009.91146,0.00176
3007.85129,0.00176
3005.79112,0.00171
3003.73095,0.00165
3001.67077,0.00164
2999.61060,0.00165
2997.55043,0.00166
2995.49026,0.00164
2993.43009,0.00162
2991.36991,0.00161
2989.30974,0.00154
2987.24957,0.00143
2985.18940,0.00141
2983.12923,0.00156
2981.06905,0.00176
2979.00888,0.00183
2976.94871,0.00178
2974.88854,0.00177
2972.82836,0.00186
2970.76819,0.00197
2968.70802,0.00198
2966.64785,0.00186
2964.58768,0.00162
2962.52750,0.00142
2960.46733,0.00158
2958.40716,0.00193
2956.34699,0.00204
2954.28682,0.00201
2952.22664,0.00209
2950.16647,0.00212
2948.10630,0.00198
2946.04613,0.00179
2943.98596,0.00172
2941.92578,0.00181
2939.86561,0.00191
2937.80544,0.00204
2935.74527,0.00232
2933.68509,0.00246
2931.62492,0.00240
2929.56475,0.00229
2927.50458,0.00226
2925.44441,0.00236
2923.38423,0.00245
2921.32406,0.00236
2919.26389,0.00215
2917.20372,0.00203
2915.14355,0.00206
2913.08337,0.00205
2911.02320,0.00195
2908.96303,0.00191
2906.90286,0.00190
2904.84268,0.00191
2902.78251,0.00204
2900.72234,0.00215
2898.66217,0.00208
2896.60200,0.00197
2894.54182,0.00199
2892.48165,0.00203
2890.42148,0.00199
2888.36131,0.00194
2886.30114,0.00198
2884.24096,0.00205
2882.18079,0.00201
2880.12062,0.00190
2878.06045,0.00180
2876.00028,0.00170
2873.94010,0.00169
2871.87993,0.00183
2869.81976,0.00194
2867.75959,0.00192
2865.69941,0.00184
2863.63924,0.00181
2861.57907,0.00183
2859.51890,0.00187
2857.45873,0.00190
2855.39855,0.00196
2853.33838,0.00201
2851.27821,0.00202
2849.21804,0.00203
2847.15787,0.00209
2845.09769,0.00212
2843.03752,0.00203
2840.97735,0.00196
2838.91718,0.00203
2836.85700,0.00207
2834.79683,0.00191
2832.73666,0.00166
2830.67649,0.00152
2828.61632,0.00149
2826.55614,0.00152
2824.49597,0.00158
2822.43580,0.00164
2820.37563,0.00165
2818.31546,0.00163
2816.25528,0.00164
2814.19511,0.00165
2812.13494,0.00165
2810.07477,0.00164
2808.01460,0.00170
2805.95442,0.00171
2803.89425,0.00158
2801.83408,0.00152
2799.77391,0.00167
2797.71373,0.00182
2795.65356,0.00177
2793.59339,0.00167
2791.53322,0.00162
2789.47305,0.00162
2787.41287,0.00169
2785.35270,0.00175
2783.29253,0.00177
2781.23236,0.00175
2779.17219,0.00171
2777.11201,0.00168
2775.05184,0.00175
2772.99167,0.00188
2770.93150,0.00193
2768.87133,0.00188
2766.81115,0.00183
2764.75098,0.00169
2762.69081,0.00154
2760.63064,0.00159
2758.57046,0.00174
2756.51029,0.00174
2754.45012,0.00163
2752.38995,0.00165
2750.32978,0.00179
2748.26960,0.00180
2746.20943,0.00165
2744.14926,0.00155
2742.08909,0.00152
2740.02892,0.00152
2737.96874,0.00158
2735.90857,0.00159
2733.84840,0.00152
2731.78823,0.00155
2729.72805,0.00160
2727.66788,0.00157
2725.60771,0.00160
2723.54754,0.00166
2721.48737,0.00171
2719.42719,0.00181
2717.36702,0.00191
2715.30685,0.00189
2713.24668,0.00181
2711.18651,0.00177
2709.12633,0.00175
2707.06616,0.00166
2705.00599,0.00151
2702.94582,0.00151
2700.88565,0.00165
2698.82547,0.00175
2696.76530,0.00176
2694.70513,0.00175
2692.64496,0.00173
2690.58478,0.00164
2688.52461,0.00157
2686.46444,0.00159
2684.40427,0.00167
2682.34410,0.00175
2680.28392,0.00170
2678.22375,0.00148
2676.16358,0.00137
2674.10341,0.00146
2672.04324,0.00156
2669.98306,0.00157
2667.92289,0.00157
2665.86272,0.00163
2663.80255,0.00175
2661.74238,0.00186
2659.68220,0.00187
2657.62203,0.00183
2655.56186,0.00186
2653.50169,0.00189
2651.44151,0.00190
2649.38134,0.00193
2647.32117,0.00198
2645.26100,0.00206
2643.20083,0.00209
2641.14065,0.00202
2639.08048,0.00197
2637.02031,0.00196
2634.96014,0.00187
2632.89997,0.00188
2630.83979,0.00192
2628.77962,0.00183
2626.71945,0.00174
2624.65928,0.00172
2622.59910,0.00170
2620.53893,0.00162
2618.47876,0.00169
2616.41859,0.00197
2614.35842,0.00214
2612.29824,0.00210
2610.23807,0.00199
2608.17790,0.00200
2606.11773,0.00215
2604.05756,0.00224
2601.99738,0.00206
2599.93721,0.00177
2597.87704,0.00162
2595.81687,0.00164
2593.75670,0.00169
2591.69652,0.00171
2589.63635,0.00171
2587.57618,0.00161
2585.51601,0.00152
2583.45583,0.00158
2581.39566,0.00168
2579.33549,0.00180
2577.27532,0.00195
2575.21515,0.00192
2573.15497,0.00184
2571.09480,0.00193
2569.03463,0.00198
2566.97446,0.00178
2564.91429,0.00159
2562.85411,0.00166
2560.79394,0.00174
2558.73377,0.00162
2556.67360,0.00159
2554.61342,0.00172
2552.55325,0.00169
2550.49308,0.00164
2548.43291,0.00190
2546.37274,0.00219
2544.31256,0.00215
2542.25239,0.00191
2540.19222,0.00178
2538.13205,0.00178
2536.07188,0.00180
2534.01170,0.00176
2531.95153,0.00174
2529.89136,0.00179
2527.83119,0.00177
2525.77102,0.00172
2523.71084,0.00173
2521.65067,0.00171
2519.59050,0.00168
2517.53033,0.00163
2515.47015,0.00155
2513.40998,0.00140
2511.34981,0.00126
2509.28964,0.00134
2507.22947,0.00165
2505.16929,0.00190
2503.10912,0.00193
2501.04895,0.00189
2498.98878,0.00194
2496.92861,0.00193
2494.86843,0.00174
2492.80826,0.00161
2490.74809,0.00163
2488.68792,0.00165
2486.62775,0.00162
2484.56757,0.00156
2482.50740,0.00157
2480.44723,0.00169
2478.38706,0.00180
2476.32688,0.00184
2474.26671,0.00179
2472.20654,0.00177
2470.14637,0.00189
2468.08620,0.00201
2466.02602,0.00200
2463.96585,0.00193
2461.90568,0.00183
2459.84551,0.00179
2457.78534,0.00187
2455.72516,0.00192
2453.66499,0.00179
2451.60482,0.00159
2449.54465,0.00160
2447.48447,0.00172
2445.42430,0.00178
2443.36413,0.00188
2441.30396,0.00196
2439.24379,0.00197
2437.18361,0.00199
2435.12344,0.00188
2433.06327,0.00167
2431.00310,0.00163
2428.94293,0.00169
2426.88275,0.00168
2424.82258,0.00164
2422.76241,0.00173
2420.70224,0.00180
2418.64207,0.00165
2416.58189,0.00135
2414.52172,0.00127
2412.46155,0.00150
2410.40138,0.00174
2408.34120,0.00177
2406.28103,0.00159
2404.22086,0.00155
2402.16069,0.00179
2400.10052,0.00193
2398.04034,0.00177
2395.98017,0.00163
2393.92000,0.00158
2391.85983,0.00159
2389.79966,0.00156
2387.73948,0.00151
2385.67931,0.00154
2383.61914,0.00163
2381.55897,0.00160
2379.49880,0.00142
2377.43862,0.00129
2375.37845,0.00124
2373.31828,0.00092
2371.25811,0.00037
2369.19793,0.00011
2367.13776,0.00030
2365.07759,0.00094
2363.01742,0.00178
2360.95725,0.00221
2358.89707,0.00217
2356.83690,0.00199
2354.77673,0.00192
2352.71656,0.00191
2350.65639,0.00194
2348.59621,0.00202
2346.53604,0.00187
2344.47587,0.00129
2342.41570,0.00092
2340.35552,0.00133
2338.29535,0.00197
2336.23518,0.00224
2334.17501,0.00199
2332.11484,0.00154
2330.05466,0.00152
2327.99449,0.00203
2325.93432,0.00236
2323.87415,0.00213
2321.81398,0.00186
2319.75380,0.00206
2317.69363,0.00237
2315.63346,0.00245
2313.57329,0.00247
2311.51312,0.00239
2309.45294,0.00216
2307.39277,0.00189
2305.33260,0.00165
2303.27243,0.00154
2301.21225,0.00165
2299.15208,0.00189
2297.09191,0.00203
2295.03174,0.00204
2292.97157,0.00214
2290.91139,0.00242
2288.85122,0.00262
2286.79105,0.00260
2284.73088,0.00252
2282.67071,0.00248
2280.61053,0.00234
2278.55036,0.00213
2276.49019,0.00195
2274.43002,0.00177
2272.36984,0.00166
2270.30967,0.00180
2268.24950,0.00211
2266.18933,0.00221
2264.12916,0.00197
2262.06898,0.00168
2260.00881,0.00171
2257.94864,0.00216
2255.88847,0.00274
2253.82830,0.00288
2251.76812,0.00244
2249.70795,0.00196
2247.64778,0.00180
2245.58761,0.00169
2243.52744,0.00154
2241.46726,0.00166
2239.40709,0.00217
2237.34692,0.00254
2235.28675,0.00268
2233.22657,0.00301
2231.16640,0.00329
2229.10623,0.00303
2227.04606,0.00242
2224.98589,0.00203
2222.92571,0.00225
2220.86554,0.00262
2218.80537,0.00285
2216.74520,0.00307
2214.68503,0.00303
2212.62485,0.00273
2210.56468,0.00229
2208.50451,0.00207
2206.44434,0.00247
2204.38417,0.00291
2202.32399,0.00271
2200.26382,0.00221
2198.20365,0.00199
2196.14348,0.00209
2194.08330,0.00207
2192.02313,0.00176
2189.96296,0.00191
2187.90279,0.00265
2185.84262,0.00313
2183.78244,0.00292
2181.72227,0.00217
2179.66210,0.00190
2177.60193,0.00267
2175.54176,0.00364
2173.48158,0.00450
2171.42141,0.00522
2169.36124,0.00504
2167.30107,0.00409
2165.24089,0.00327
2163.18072,0.00260
2161.12055,0.00140
2159.06038,0.00000
2157.00021,0.00029
2154.94003,0.00149
2152.87986,0.00127
2150.81969,0.00053
2148.75952,0.00059
2146.69935,0.00105
2144.63917,0.00151
2142.57900,0.00172
2140.51883,0.00162
2138.45866,0.00146
2136.39849,0.00140
2134.33831,0.00127
2132.27814,0.00102
2130.21797,0.00126
2128.15780,0.00176
2126.09762,0.00171
2124.03745,0.00151
2121.97728,0.00153
2119.91711,0.00157
2117.85694,0.00173
2115.79676,0.00183
2113.73659,0.00164
2111.67642,0.00175
2109.61625,0.00226
2107.55608,0.00233
2105.49590,0.00183
2103.43573,0.00126
2101.37556,0.00113
2099.31539,0.00155
2097.25521,0.00184
2095.19504,0.00185
2093.13487,0.00212
2091.07470,0.00230
2089.01453,0.00181
2086.95435,0.00131
2084.89418,0.00151
2082.83401,0.00204
2080.77384,0.00215
2078.71367,0.00177
2076.65349,0.00122
2074.59332,0.00083
2072.53315,0.00104
2070.47298,0.00157
2068.41281,0.00176
2066.35263,0.00145
2064.29246,0.00095
2062.23229,0.00080
2060.17212,0.00091
2058.11194,0.00113
2056.05177,0.00195
2053.99160,0.00302
2051.93143,0.00330
2049.87126,0.00289
2047.81108,0.00243
2045.75091,0.00179
2043.69074,0.00090
2041.63057,0.00029
2039.57040,0.00045
2037.51022,0.00123
2035.45005,0.00177
2033.38988,0.00173
2031.32971,0.00153
2029.26954,0.00127
2027.20936,0.00089
2025.14919,0.00069
2023.08902,0.00061
2021.02885,0.00032
2018.96867,0.00033
2016.90850,0.00137
2014.84833,0.00248
2012.78816,0.00233
2010.72799,0.00131
2008.66781,0.00046
2006.60764,0.00034
2004.54747,0.00089
2002.48730,0.00147
2000.42713,0.00150
1998.36695,0.00108
1996.30678,0.00096
1994.24661,0.00140
1992.18644,0.00170
1990.12626,0.00155
1988.06609,0.00137
1986.00592,0.00127
1983.94575,0.00124
1981.88558,0.00138
1979.82540,0.00194
1977.76523,0.00259
1975.70506,0.00262
1973.64489,0.00231
1971.58472,0.00223
1969.52454,0.00210
1967.46437,0.00120
1965.40420,0.00011
1963.34403,0.00000
1961.28386,0.00027
1959.22368,0.00044
1957.16351,0.00097
1955.10334,0.00140
1953.04317,0.00124
1950.98299,0.00093
1948.92282,0.00084
1946.86265,0.00091
1944.80248,0.00117
1942.74231,0.00135
1940.68213,0.00109
1938.62196,0.00070
1936.56179,0.00061
1934.50162,0.00079
1932.44145,0.00105
1930.38127,0.00126
1928.32110,0.00135
1926.26093,0.00135
1924.20076,0.00144
1922.14059,0.00162
1920.08041,0.00175
1918.02024,0.00175
1915.96007,0.00159
1913.89990,0.00129
1911.83972,0.00113
1909.77955,0.00117
1907.71938,0.00117
1905.65921,0.00112
1903.59904,0.00104
1901.53886,0.00091
1899.47869,0.00102
1897.41852,0.00149
1895.35835,0.00197
1893.29818,0.00212
1891.23800,0.00193
1889.17783,0.00166
1887.11766,0.00148
1885.05749,0.00133
1882.99731,0.00119
1880.93714,0.00112
1878.87697,0.00121
1876.81680,0.00137
1874.75663,0.00143
1872.69645,0.00134
1870.63628,0.00120
1868.57611,0.00107
1866.51594,0.00098
1864.45577,0.00091
1862.39559,0.00083
1860.33542,0.00080
1858.27525,0.00082
1856.21508,0.00087
1854.15491,0.00096
1852.09473,0.00103
1850.03456,0.00098
1847.97439,0.00092
1845.91422,0.00100
1843.85404,0.00116
1841.79387,0.00122
1839.73370,0.00117
1837.67353,0.00103
1835.61336,0.00079
1833.55318,0.00065
1831.49301,0.00076
1829.43284,0.00092
1827.37267,0.00098
1825.31250,0.00101
1823.25232,0.00096
1821.19215,0.00077
1819.13198,0.00065
1817.07181,0.00066
1815.01163,0.00072
1812.95146,0.00078
1810.89129,0.00083
1808.83112,0.00086
1806.77095,0.00091
1804.71077,0.00101
1802.65060,0.00108
1800.59043,0.00104
1798.53026,0.00093
1796.47009,0.00084
1794.40991,0.00078
1792.34974,0.00076
1790.28957,0.00082
1788.22940,0.00094
1786.16923,0.00105
1784.10905,0.00103
1782.04888,0.00092
1779.98871,0.00081
1777.92854,0.00076
1775.86836,0.00085
1773.80819,0.00100
1771.74802,0.00102
1769.68785,0.00098
1767.62768,0.00097
1765.56750,0.00097
1763.50733,0.00097
1761.44716,0.00093
1759.38699,0.00087
1757.32682,0.00088
1755.26664,0.00102
1753.20647,0.00124
1751.14630,0.00143
1749.08613,0.00149
1747.02596,0.00144
1744.96578,0.00137
1742.90561,0.00136
1740.84544,0.00139
1738.78527,0.00141
1736.72509,0.00136
1734.66492,0.00125
1732.60475,0.00111
1730.54458,0.00101
1728.48441,0.00103
1726.42423,0.00117
1724.36406,0.00131
1722.30389,0.00135
1720.24372,0.00133
1718.18355,0.00130
1716.12337,0.00125
1714.06320,0.00116
1712.00303,0.00108
1709.94286,0.00102
1707.88268,0.00101
1705.82251,0.00105
1703.76234,0.00110
1701.70217,0.00119
1699.64200,0.00134
1697.58182,0.00142
1695.52165,0.00135
1693.46148,0.00121
1691.40131,0.00108
1689.34114,0.00099
1687.28096,0.00102
1685.22079,0.00111
1683.16062,0.00110
1681.10045,0.00102
1679.04028,0.00098
1676.98010,0.00095
1674.91993,0.00091
1672.85976,0.00089
1670.79959,0.00095
1668.73941,0.00110
1666.67924,0.00126
1664.61907,0.00134
1662.55890,0.00132
1660.49873,0.00131
1658.43855,0.00139
1656.37838,0.00150
1654.31821,0.00164
1652.25804,0.00177
1650.19787,0.00174
1648.13769,0.00157
1646.07752,0.00148
1644.01735,0.00156
1641.95718,0.00165
1639.89701,0.00170
1637.83683,0.00175
1635.77666,0.00188
1633.71649,0.00203
1631.65632,0.00202
1629.59614,0.00185
1627.53597,0.00162
1625.47580,0.00153
1623.41563,0.00157
1621.35546,0.00163
1619.29528,0.00166
1617.23511,0.00166
1615.17494,0.00165
1613.11477,0.00167
1611.05460,0.00167
1608.99442,0.00159
1606.93425,0.00151
1604.87408,0.00150
1602.81391,0.00147
1600.75373,0.00135
1598.69356,0.00127
1596.63339,0.00130
1594.57322,0.00130
1592.51305,0.00124
1590.45287,0.00119
1588.39270,0.00116
1586.33253,0.00108
1584.27236,0.00098
1582.21219,0.00097
1580.15201,0.00096
1578.09184,0.00094
1576.03167,0.00093
1573.97150,0.00092
1571.91133,0.00085
1569.85115,0.00073
1567.79098,0.00066
1565.73081,0.00071
1563.67064,0.00084
1561.61046,0.00094
1559.55029,0.00099
1557.49012,0.00101
1555.42995,0.00103
1553.36978,0.00103
1551.30960,0.00096
1549.24943,0.00087
1547.18926,0.00077
1545.12909,0.00073
1543.06892,0.00080
1541.00874,0.00087
1538.94857,0.00084
1536.88840,0.00083
1534.82823,0.00081
1532.76805,0.00074
1530.70788,0.00074
1528.64771,0.00077
1526.58754,0.00075
1524.52737,0.00076
1522.46719,0.00088
1520.40702,0.00097
1518.34685,0.00089
1516.28668,0.00069
1514.22651,0.00060
1512.16633,0.00069
1510.10616,0.00083
1508.04599,0.00086
1505.98582,0.00076
1503.92565,0.00067
1501.86547,0.00068
1499.80530,0.00071
1497.74513,0.00062
1495.68496,0.00044
1493.62478,0.00035
1491.56461,0.00037
1489.50444,0.00040
1487.44427,0.00038
1485.38410,0.00040
1483.32392,0.00048
1481.26375,0.00056
1479.20358,0.00061
1477.14341,0.00064
1475.08324,0.00067
1473.02306,0.00073
1470.96289,0.00078
1468.90272,0.00082
1466.84255,0.00082
1464.78238,0.00073
1462.72220,0.00070
1460.66203,0.00082
1458.60186,0.00104
1456.54169,0.00116
1454.48151,0.00109
1452.42134,0.00096
1450.36117,0.00091
1448.30100,0.00096
1446.24083,0.00102
1444.18065,0.00102
1442.12048,0.00101
1440.06031,0.00109
1438.00014,0.00121
1435.93997,0.00127
1433.87979,0.00124
1431.81962,0.00124
1429.75945,0.00132
1427.69928,0.00139
1425.63910,0.00138
1423.57893,0.00141
1421.51876,0.00152
1419.45859,0.00163
1417.39842,0.00158
1415.33824,0.00145
1413.27807,0.00135
1411.21790,0.00127
1409.15773,0.00129
1407.09756,0.00140
1405.03738,0.00145
1402.97721,0.00137
1400.91704,0.00129
1398.85687,0.00130
1396.79670,0.00129
1394.73652,0.00116
1392.67635,0.00099
1390.61618,0.00092
1388.55601,0.00097
1386.49583,0.00106
1384.43566,0.00112
1382.37549,0.00116
1380.31532,0.00119
1378.25515,0.00122
1376.19497,0.00124
1374.13480,0.00123
1372.07463,0.00126
1370.01446,0.00135
1367.95429,0.00139
1365.89411,0.00140
1363.83394,0.00145
1361.77377,0.00145
1359.71360,0.00131
1357.65343,0.00117
1355.59325,0.00116
1353.53308,0.00125
1351.47291,0.00133
1349.41274,0.00133
1347.35256,0.00130
1345.29239,0.00128
1343.23222,0.00124
1341.17205,0.00116
1339.11188,0.00104
1337.05170,0.00089
1334.99153,0.00089
1332.93136,0.00101
1330.87119,0.00112
1328.81102,0.00117
1326.75084,0.00118
1324.69067,0.00121
1322.63050,0.00121
1320.57033,0.00116
1318.51015,0.00107
1316.44998,0.00097
1314.38981,0.00093
1312.32964,0.00097
1310.26947,0.00104
1308.20929,0.00108
1306.14912,0.00110
1304.08895,0.00109
1302.02878,0.00108
1299.96861,0.00104
1297.90843,0.00098
1295.84826,0.00093
1293.78809,0.00092
1291.72792,0.00094
1289.66775,0.00095
1287.60757,0.00089
1285.54740,0.00081
1283.48723,0.00077
1281.42706,0.00078
1279.36688,0.00080
1277.30671,0.00083
1275.24654,0.00086
1273.18637,0.00090
1271.12620,0.00093
1269.06602,0.00093
1267.00585,0.00097
1264.94568,0.00106
1262.88551,0.00111
1260.82534,0.00115
1258.76516,0.00123
1256.70499,0.00133
1254.64482,0.00143
1252.58465,0.00149
1250.52447,0.00151
1248.46430,0.00146
1246.40413,0.00138
1244.34396,0.00135
1242.28379,0.00136
1240.22361,0.00134
1238.16344,0.00131
1236.10327,0.00128
1234.04310,0.00111
1231.98293,0.00091
1229.92275,0.00087
1227.86258,0.00092
1225.80241,0.00091
1223.74224,0.00092
1221.68207,0.00098
1219.62189,0.00097
1217.56172,0.00091
1215.50155,0.00090
1213.44138,0.00088
1211.38120,0.00078
1209.32103,0.00065
1207.26086,0.00056
1205.20069,0.00050
1203.14052,0.00050
1201.08034,0.00048
1199.02017,0.00030
1196.96000,0.00012
1194.89983,0.00003
1192.83966,0.00000
1190.77948,-0.00002
1188.71931,-0.00002
1186.65914,-0.00001
1184.59897,0.00005
1182.53880,0.00007
1180.47862,0.00002
1178.41845,0.00006
1176.35828,0.00023
1174.29811,0.00036
1172.23793,0.00040
1170.17776,0.00048
1168.11759,0.00063
1166.05742,0.00070
1163.99725,0.00074
1161.93707,0.00088
1159.87690,0.00110
1157.81673,0.00129
1155.75656,0.00132
1153.69639,0.00129
1151.63621,0.00141
1149.57604,0.00156
1147.51587,0.00169
1145.45570,0.00189
1143.39552,0.00206
1141.33535,0.00211
1139.27518,0.00204
1137.21501,0.00205
1135.15484,0.00219
1133.09466,0.00230
1131.03449,0.00240
1128.97432,0.00254
1126.91415,0.00266
1124.85398,0.00282
1122.79380,0.00303
1120.73363,0.00331
1118.67346,0.00357
1116.61329,0.00374
1114.55312,0.00384
1112.49294,0.00389
1110.43277,0.00396
1108.37260,0.00408
1106.31243,0.00418
1104.25225,0.00432
1102.19208,0.00458
1100.13191,0.00486
1098.07174,0.00507
1096.01157,0.00536
1093.95139,0.00576
1091.89122,0.00614
1089.83105,0.00642
1087.77088,0.00660
1085.71071,0.00673
1083.65053,0.00682
1081.59036,0.00690
1079.53019,0.00707
1077.47002,0.00743
1075.40985,0.00774
1073.34967,0.00787
1071.28950,0.00798
1069.22933,0.00804
1067.16916,0.00798
1065.10898,0.00789
1063.04881,0.00787
1060.98864,0.00799
1058.92847,0.00816
1056.86830,0.00831
1054.80812,0.00838
1052.74795,0.00839
1050.68778,0.00852
1048.62761,0.00876
1046.56744,0.00896
1044.50726,0.00905
1042.44709,0.00900
1040.38692,0.00891
1038.32675,0.00891
1036.26657,0.00895
1034.20640,0.00883
1032.14623,0.00860
1030.08606,0.00839
1028.02589,0.00821
1025.96571,0.00799
1023.90554,0.00782
1021.84537,0.00782
1019.78520,0.00778
1017.72503,0.00755
1015.66485,0.00732
1013.60468,0.00732
1011.54451,0.00737
1009.48434,0.00716
1007.42417,0.00682
1005.36399,0.00663
1003.30382,0.00656
1001.24365,0.00646
999.18348,0.00634
997.12330,0.00621
995.06313,0.00601
993.00296,0.00576
990.94279,0.00553
988.88262,0.00541
986.82244,0.00540
984.76227,0.00540
982.70210,0.00536
980.64193,0.00529
978.58176,0.00517
976.52158,0.00497
974.46141,0.00470
972.40124,0.00443
970.34107,0.00415
968.28089,0.00390
966.22072,0.00379
964.16055,0.00378
962.10038,0.00377
960.04021,0.00373
957.98003,0.00359
955.91986,0.00328
953.85969,0.00297
951.79952,0.00286
949.73935,0.00284
947.67917,0.00275
945.61900,0.00263
943.55883,0.00255
941.49866,0.00244
939.43849,0.00223
937.37831,0.00197
935.31814,0.00174
933.25797,0.00155
931.19780,0.00130
929.13762,0.00105
927.07745,0.00090
925.01728,0.00087
922.95711,0.00109
920.89694,0.00134
918.83676,0.00135
916.77659,0.00117
914.71642,0.00091
912.65625,0.00077
910.59608,0.00088
908.53590,0.00096
906.47573,0.00091
904.41556,0.00090
902.35539,0.00095
900.29522,0.00097
898.23504,0.00103
896.17487,0.00119
894.11470,0.00132
892.05453,0.00144
889.99435,0.00149
887.93418,0.00149
885.87401,0.00163
883.81384,0.00184
881.75367,0.00186
879.69349,0.00164
877.63332,0.00149
875.57315,0.00163
873.51298,0.00182
871.45281,0.00182
869.39263,0.00179
867.33246,0.00181
865.27229,0.00174
863.21212,0.00172
861.15194,0.00192
859.09177,0.00198
857.03160,0.00188
854.97143,0.00182
852.91126,0.00167
850.85108,0.00163
848.79091,0.00185
846.73074,0.00188
844.67057,0.00170
842.61040,0.00176
840.55022,0.00189
838.49005,0.00168
836.42988,0.00125
834.36971,0.00085
832.30954,0.00065
830.24936,0.00074
828.18919,0.00078
826.12902,0.00059
824.06885,0.00049
822.00867,0.00055
819.94850,0.00047
817.88833,0.00019
815.82816,0.00000
813.76799,0.00017
811.70781,0.00039
809.64764,0.00022
807.58747,0.00006
805.52730,0.00032
803.46713,0.00057
801.40695,0.00031
799.34678,0.00000
797.28661,0.00016
795.22644,0.00044
793.16627,0.00047
791.10609,0.00041
789.04592,0.00032
786.98575,0.00031
784.92558,0.00045
782.86540,0.00047
780.80523,0.00030
778.74506,0.00011
776.68489,0.00001
774.62472,-0.00002
772.56454,0.00001
770.50437,0.00011
768.44420,0.00012
766.38403,0.00020
764.32386,0.00059
762.26368,0.00098
760.20351,0.00098
758.14334,0.00066
756.08317,0.00048
754.02299,0.00045
751.96282,0.00028
749.90265,0.00027
747.84248,0.00067
745.78231,0.00098
743.72213,0.00082
741.66196,0.00056
739.60179,0.00052
737.54162,0.00051
735.48145,0.00032
733.42127,0.00018
731.36110,0.00019
729.30093,0.00026
727.24076,0.00036
725.18059,0.00041
723.12041,0.00037
721.06024,0.00037
719.00007,0.00062
716.93990,0.00085
714.87972,0.00087
712.81955,0.00087
710.75938,0.00077
708.69921,0.00056
706.63904,0.00056
704.57886,0.00074
702.51869,0.00084
700.45852,0.00088
698.39835,0.00093
696.33818,0.00088
694.27800,0.00051
692.21783,0.00000
690.15766,-0.00012
688.09749,0.00013
686.03731,0.00019
683.97714,-0.00005
681.91697,-0.00004
679.85680,0.00032
677.79663,0.00056
675.73645,0.00050
673.67628,0.00005
671.61611,-0.00053
669.55594,-0.00023
667.49577,0.00104
665.43559,0.00155
663.37542,0.00111
661.31525,0.00038
659.25508,-0.00017
657.19491,-0.00048
655.13473,-0.00059
653.07456,-0.00050
651.01439,-0.00026
648.95422,0.00000
646.89404,0.00001
644.83387,-0.00017
642.77370,-0.00033
640.71353,-0.00052
638.65336,-0.00051
636.59318,-0.00013
634.53301,-0.00001
632.47284,-0.00062
630.41267,-0.00124
628.35250,-0.00103
626.29232,-0.00027
624.23215,0.00011
622.17198,0.00007
620.11181,-0.00014
618.05164,0.00023
615.99146,0.00050
613.93129,-0.00078
611.87112,-0.00246
609.81095,-0.00277
607.75077,-0.00216
605.69060,-0.00147
603.63043,-0.00034
601.57026,0.00073
599.51009,0.00000
