3996.73391,0.00004
3994.67373,0.00015
3992.61356,0.00038
3990.55339,0.00058
3988.49322,0.00056
3986.43305,0.00053
3984.37287,0.00053
3982.31270,0.00042
3980.25253,0.00025
3978.19236,0.00031
3976.13219,0.00051
3974.07201,0.00060
3972.01184,0.00048
3969.95167,0.00020
3967.89150,0.00000
3965.83133,0.00011
3963.77115,0.00038
3961.71098,0.00041
3959.65081,0.00028
3957.59064,0.00038
3955.53046,0.00053
3953.47029,0.00047
3951.41012,0.00043
3949.34995,0.00045
3947.28978,0.00023
3945.22960,0.00025
3943.16943,0.00069
3941.10926,0.00079
3939.04909,0.00070
3936.98892,0.00072
3934.92874,0.00095
3932.86857,0.00131
3930.80840,0.00115
3928.74823,0.00061
3926.68805,0.00050
3924.62788,0.00056
3922.56771,0.00038
3920.50754,0.00067
3918.44737,0.00116
3916.38719,0.00103
3914.32702,0.00059
3912.26685,0.00057
3910.20668,0.00061
3908.14651,0.00056
3906.08633,0.00092
3904.02616,0.00114
3901.96599,0.00094
3899.90582,0.00108
3897.84565,0.00070
3895.78547,0.00015
3893.72530,0.00060
3891.66513,0.00102
3889.60496,0.00027
3887.54478,0.00038
3885.48461,0.00097
3883.42444,0.00063
3881.36427,0.00109
3879.30410,0.00117
3877.24392,0.00078
3875.18375,0.00138
3873.12358,0.00178
3871.06341,0.00215
3869.00324,0.00164
3866.94306,0.00074
3864.88289,0.00118
3862.82272,0.00122
3860.76255,0.00050
3858.70237,0.00008
3856.64220,0.00109
3854.58203,0.00332
3852.52186,0.00300
3850.46169,0.00067
3848.40151,0.00008
3846.34134,0.00091
3844.28117,0.00164
3842.22100,0.00154
3840.16083,0.00159
3838.10065,0.00182
3836.04048,0.00138
3833.98031,0.00132
3831.92014,0.00177
3829.85997,0.00179
3827.79979,0.00185
3825.73962,0.00167
3823.67945,0.00191
3821.61928,0.00259
3819.55910,0.00148
3817.49893,0.00140
3815.43876,0.00197
3813.37859,0.00104
3811.31842,0.00069
3809.25824,0.00161
3807.19807,0.00220
3805.13790,0.00128
3803.07773,0.00148
3801.01756,0.00180
3798.95738,0.00109
3796.89721,0.00168
3794.83704,0.00206
3792.77687,0.00185
3790.71670,0.00173
3788.65652,0.00162
3786.59635,0.00192
3784.53618,0.00220
3782.47601,0.00215
3780.41583,0.00253
3778.35566,0.00255
3776.29549,0.00203
3774.23532,0.00190
3772.17515,0.00239
3770.11497,0.00275
3768.05480,0.00217
3765.99463,0.00177
3763.93446,0.00150
3761.87429,0.00184
3759.81411,0.00254
3757.75394,0.00186
3755.69377,0.00072
3753.63360,0.00125
3751.57342,0.00263
3749.51325,0.00209
3747.45308,0.00144
3745.39291,0.00307
3743.33274,0.00278
3741.27256,0.00059
3739.21239,0.00015
3737.15222,0.00138
3735.09205,0.00256
3733.03188,0.00252
3730.97170,0.00181
3728.91153,0.00169
3726.85136,0.00247
3724.79119,0.00277
3722.73102,0.00268
3720.67084,0.00258
3718.61067,0.00222
3716.55050,0.00172
3714.49033,0.00186
3712.43015,0.00248
3710.36998,0.00223
3708.30981,0.00148
3706.24964,0.00145
3704.18947,0.00225
3702.12929,0.00289
3700.06912,0.00241
3698.00895,0.00186
3695.94878,0.00158
3693.88861,0.00126
3691.82843,0.00177
3689.76826,0.00268
3687.70809,0.00240
3685.64792,0.00170
3683.58775,0.00194
3681.52757,0.00227
3679.46740,0.00233
3677.40723,0.00314
3675.34706,0.00341
3673.28688,0.00180
3671.22671,0.00252
3669.16654,0.00359
3667.10637,0.00271
3665.04620,0.00249
3662.98602,0.00290
3660.92585,0.00292
3658.86568,0.00315
3656.80551,0.00347
3654.74534,0.00246
3652.68516,0.00212
3650.62499,0.00366
3648.56482,0.00447
3646.50465,0.00393
3644.44447,0.00361
3642.38430,0.00399
3640.32413,0.00414
3638.26396,0.00396
3636.20379,0.00387
3634.14361,0.00385
3632.08344,0.00434
3630.02327,0.00598
3627.96310,0.00594
3625.90293,0.00409
3623.84275,0.00365
3621.78258,0.00465
3619.72241,0.00563
3617.66224,0.00534
3615.60207,0.00512
3613.54189,0.00557
3611.48172,0.00545
3609.42155,0.00560
3607.36138,0.00586
3605.30120,0.00557
3603.24103,0.00580
3601.18086,0.00651
3599.12069,0.00691
3597.06052,0.00718
3595.00034,0.00739
3592.94017,0.00695
3590.88000,0.00686
3588.81983,0.00797
3586.75966,0.00872
3584.69948,0.00830
3582.63931,0.00823
3580.57914,0.00876
3578.51897,0.00921
3576.45879,0.00935
3574.39862,0.00920
3572.33845,0.00901
3570.27828,0.00934
3568.21811,0.01025
3566.15793,0.01049
3564.09776,0.00999
3562.03759,0.01003
3559.97742,0.01046
3557.91725,0.01076
3555.85707,0.01104
3553.79690,0.01150
3551.73673,0.01158
3549.67656,0.01136
3547.61639,0.01176
3545.55621,0.01247
3543.49604,0.01266
3541.43587,0.01252
3539.37570,0.01256
3537.31552,0.01292
3535.25535,0.01321
3533.19518,0.01325
3531.13501,0.01331
3529.07484,0.01345
3527.01466,0.01354
3524.95449,0.01349
3522.89432,0.01335
3520.83415,0.01351
3518.77398,0.01424
3516.71380,0.01487
3514.65363,0.01511
3512.59346,0.01530
3510.53329,0.01550
3508.47312,0.01534
3506.41294,0.01516
3504.35277,0.01552
3502.29260,0.01583
3500.23243,0.01587
3498.17225,0.01613
3496.11208,0.01642
3494.05191,0.01648
3491.99174,0.01660
3489.93157,0.01696
3487.87139,0.01729
3485.81122,0.01732
3483.75105,0.01727
3481.69088,0.01724
3479.63071,0.01721
3477.57053,0.01748
3475.51036,0.01799
3473.45019,0.01826
3471.39002,0.01825
3469.32984,0.01842
3467.26967,0.01875
3465.20950,0.01897
3463.14933,0.01926
3461.08916,0.01947
3459.02898,0.01946
3456.96881,0.01960
3454.90864,0.01989
3452.84847,0.02007
3450.78830,0.02017
3448.72812,0.02050
3446.66795,0.02064
3444.60778,0.02048
3442.54761,0.02049
3440.48744,0.02048
3438.42726,0.02064
3436.36709,0.02101
3434.30692,0.02122
3432.24675,0.02123
3430.18657,0.02126
3428.12640,0.02150
3426.06623,0.02185
3424.00606,0.02212
3421.94589,0.02229
3419.88571,0.02226
3417.82554,0.02218
3415.76537,0.02238
3413.70520,0.02265
3411.64503,0.02286
3409.58485,0.02307
3407.52468,0.02314
3405.46451,0.02304
3403.40434,0.02309
3401.34416,0.02320
3399.28399,0.02330
3397.22382,0.02352
3395.16365,0.02373
3393.10348,0.02393
3391.04330,0.02398
3388.98313,0.02384
3386.92296,0.02374
3384.86279,0.02385
3382.80262,0.02413
3380.74244,0.02445
3378.68227,0.02474
3376.62210,0.02498
3374.56193,0.02504
3372.50176,0.02489
3370.44158,0.02476
3368.38141,0.02478
3366.32124,0.02486
3364.26107,0.02492
3362.20089,0.02499
3360.14072,0.02499
3358.08055,0.02505
3356.02038,0.02526
3353.96021,0.02531
3351.90003,0.02522
3349.83986,0.02514
3347.77969,0.02507
3345.71952,0.02506
3343.65935,0.02515
3341.59917,0.02540
3339.53900,0.02572
3337.47883,0.02586
3335.41866,0.02591
3333.35849,0.02604
3331.29831,0.02606
3329.23814,0.02587
3327.17797,0.02573
3325.11780,0.02575
3323.05762,0.02580
3320.99745,0.02583
3318.93728,0.02591
3316.87711,0.02597
3314.81694,0.02587
3312.75676,0.02574
3310.69659,0.02586
3308.63642,0.02607
3306.57625,0.02611
3304.51608,0.02608
3302.45590,0.02606
3300.39573,0.02613
3298.33556,0.02627
3296.27539,0.02627
3294.21521,0.02612
3292.15504,0.02605
3290.09487,0.02603
3288.03470,0.02600
3285.97453,0.02608
3283.91435,0.02621
3281.85418,0.02609
3279.79401,0.02574
3277.73384,0.02567
3275.67367,0.02603
3273.61349,0.02643
3271.55332,0.02656
3269.49315,0.02650
3267.43298,0.02637
3265.37281,0.02626
3263.31263,0.02613
3261.25246,0.02588
3259.19229,0.02563
3257.13212,0.02552
3255.07194,0.02549
3253.01177,0.02548
3250.95160,0.02556
3248.89143,0.02567
3246.83126,0.02563
3244.77108,0.02542
3242.71091,0.02522
3240.65074,0.02518
3238.59057,0.02513
3236.53040,0.02499
3234.47022,0.02486
3232.41005,0.02486
3230.34988,0.02497
3228.28971,0.02507
3226.22954,0.02502
3224.16936,0.02492
3222.10919,0.02491
3220.04902,0.02488
3217.98885,0.02456
3215.92867,0.02410
3213.86850,0.02381
3211.80833,0.02375
3209.74816,0.02371
3207.68799,0.02351
3205.62781,0.02332
3203.56764,0.02324
3201.50747,0.02322
3199.44730,0.02320
3197.38713,0.02312
3195.32695,0.02302
3193.26678,0.02304
3191.20661,0.02305
3189.14644,0.02285
3187.08626,0.02256
3185.02609,0.02243
3182.96592,0.02240
3180.90575,0.02225
3178.84558,0.02190
3176.78540,0.02153
3174.72523,0.02143
3172.66506,0.02147
3170.60489,0.02137
3168.54472,0.02125
3166.48454,0.02120
3164.42437,0.02106
3162.36420,0.02078
3160.30403,0.02048
3158.24386,0.02027
3156.18368,0.02009
3154.12351,0.01996
3152.06334,0.01988
3150.00317,0.01984
3147.94299,0.01973
3145.88282,0.01954
3143.82265,0.01926
3141.76248,0.01891
3139.70231,0.01856
3137.64213,0.01836
3135.58196,0.01837
3133.52179,0.01848
3131.46162,0.01851
3129.40145,0.01842
3127.34127,0.01816
3125.28110,0.01777
3123.22093,0.01738
3121.16076,0.01710
3119.10058,0.01704
3117.04041,0.01703
3114.98024,0.01693
3112.92007,0.01684
3110.85990,0.01676
3108.79972,0.01654
3106.73955,0.01631
3104.67938,0.01615
3102.61921,0.01595
3100.55904,0.01562
3098.49886,0.01529
3096.43869,0.01518
3094.37852,0.01510
3092.31835,0.01495
3090.25818,0.01486
3088.19800,0.01489
3086.13783,0.01483
3084.07766,0.01459
3082.01749,0.01437
3079.95731,0.01431
3077.89714,0.01432
3075.83697,0.01429
3073.77680,0.01416
3071.71663,0.01383
3069.65645,0.01327
3067.59628,0.01281
3065.53611,0.01264
3063.47594,0.01262
3061.41577,0.01260
3059.35559,0.01258
3057.29542,0.01256
3055.23525,0.01236
3053.17508,0.01208
3051.11491,0.01187
3049.05473,0.01177
3046.99456,0.01189
3044.93439,0.01207
3042.87422,0.01201
3040.81404,0.01175
3038.75387,0.01159
3036.69370,0.01147
3034.63353,0.01123
3032.57336,0.01103
3030.51318,0.01092
3028.45301,0.01079
3026.39284,0.01075
3024.33267,0.01069
3022.27250,0.01057
3020.21232,0.01055
3018.15215,0.01055
3016.09198,0.01045
3014.03181,0.01032
3011.97163,0.01018
3009.91146,0.01002
3007.85129,0.00997
3005.79112,0.01006
3003.73095,0.01005
3001.67077,0.00985
2999.61060,0.00966
2997.55043,0.00968
2995.49026,0.00980
2993.43009,0.00989
2991.36991,0.00998
2989.30974,0.01003
2987.24957,0.01008
2985.18940,0.01023
2983.12923,0.01034
2981.06905,0.01038
2979.00888,0.01042
2976.94871,0.01050
2974.88854,0.01064
2972.82836,0.01080
2970.76819,0.01092
2968.70802,0.01099
2966.64785,0.01112
2964.58768,0.01135
2962.52750,0.01159
2960.46733,0.01180
2958.40716,0.01195
2956.34699,0.01215
2954.28682,0.01252
2952.22664,0.01289
2950.16647,0.01311
2948.10630,0.01334
2946.04613,0.01348
2943.98596,0.01348
2941.92578,0.01354
2939.86561,0.01366
2937.80544,0.01378
2935.74527,0.01393
2933.68509,0.01402
2931.62492,0.01400
2929.56475,0.01407
2927.50458,0.01417
2925.44441,0.01409
2923.38423,0.01390
2921.32406,0.01370
2919.26389,0.01351
2917.20372,0.01329
2915.14355,0.01316
2913.08337,0.01317
2911.02320,0.01318
2908.96303,0.01307
2906.90286,0.01296
2904.84268,0.01292
2902.78251,0.01292
2900.72234,0.01287
2898.66217,0.01278
2896.60200,0.01274
2894.54182,0.01273
2892.48165,0.01275
2890.42148,0.01275
2888.36131,0.01261
2886.30114,0.01248
2884.24096,0.01239
2882.18079,0.01233
2880.12062,0.01231
2878.06045,0.01228
2876.00028,0.01219
2873.94010,0.01202
2871.87993,0.01186
2869.81976,0.01173
2867.75959,0.01151
2865.69941,0.01118
2863.63924,0.01095
2861.57907,0.01089
2859.51890,0.01087
2857.45873,0.01084
2855.39855,0.01076
2853.33838,0.01052
2851.27821,0.01021
2849.21804,0.01004
2847.15787,0.00998
2845.09769,0.00990
2843.03752,0.00990
2840.97735,0.00989
2838.91718,0.00973
2836.85700,0.00955
2834.79683,0.00946
2832.73666,0.00934
2830.67649,0.00910
2828.61632,0.00885
2826.55614,0.00875
2824.49597,0.00879
2822.43580,0.00880
2820.37563,0.00872
2818.31546,0.00864
2816.25528,0.00859
2814.19511,0.00858
2812.13494,0.00858
2810.07477,0.00855
2808.01460,0.00850
2805.95442,0.00845
2803.89425,0.00844
2801.83408,0.00846
2799.77391,0.00843
2797.71373,0.00835
2795.65356,0.00825
2793.59339,0.00816
2791.53322,0.00807
2789.47305,0.00794
2787.41287,0.00794
2785.35270,0.00802
2783.29253,0.00797
2781.23236,0.00789
2779.17219,0.00794
2777.11201,0.00808
2775.05184,0.00812
2772.99167,0.00795
2770.93150,0.00767
2768.87133,0.00755
2766.81115,0.00766
2764.75098,0.00769
2762.69081,0.00761
2760.63064,0.00762
2758.57046,0.00771
2756.51029,0.00774
2754.45012,0.00765
2752.38995,0.00751
2750.32978,0.00743
2748.26960,0.00745
2746.20943,0.00745
2744.14926,0.00743
2742.08909,0.00745
2740.02892,0.00743
2737.96874,0.00738
2735.90857,0.00739
2733.84840,0.00741
2731.78823,0.00739
2729.72805,0.00725
2727.66788,0.00704
2725.60771,0.00695
2723.54754,0.00696
2721.48737,0.00697
2719.42719,0.00699
2717.36702,0.00699
2715.30685,0.00698
2713.24668,0.00703
2711.18651,0.00705
2709.12633,0.00704
2707.06616,0.00703
2705.00599,0.00696
2702.94582,0.00689
2700.88565,0.00693
2698.82547,0.00701
2696.76530,0.00695
2694.70513,0.00681
2692.64496,0.00682
2690.58478,0.00693
2688.52461,0.00701
2686.46444,0.00701
2684.40427,0.00694
2682.34410,0.00697
2680.28392,0.00709
2678.22375,0.00701
2676.16358,0.00669
2674.10341,0.00650
2672.04324,0.00648
2669.98306,0.00640
2667.92289,0.00634
2665.86272,0.00635
2663.80255,0.00639
2661.74238,0.00647
2659.68220,0.00663
2657.62203,0.00679
2655.56186,0.00678
2653.50169,0.00661
2651.44151,0.00644
2649.38134,0.00635
2647.32117,0.00641
2645.26100,0.00661
2643.20083,0.00672
2641.14065,0.00655
2639.08048,0.00630
2637.02031,0.00621
2634.96014,0.00625
2632.89997,0.00630
2630.83979,0.00629
2628.77962,0.00622
2626.71945,0.00616
2624.65928,0.00615
2622.59910,0.00609
2620.53893,0.00589
2618.47876,0.00568
2616.41859,0.00561
2614.35842,0.00572
2612.29824,0.00584
2610.23807,0.00593
2608.17790,0.00605
2606.11773,0.00599
2604.05756,0.00582
2601.99738,0.00575
2599.93721,0.00567
2597.87704,0.00552
2595.81687,0.00560
2593.75670,0.00580
2591.69652,0.00586
2589.63635,0.00588
2587.57618,0.00577
2585.51601,0.00552
2583.45583,0.00542
2581.39566,0.00530
2579.33549,0.00513
2577.27532,0.00514
2575.21515,0.00522
2573.15497,0.00524
2571.09480,0.00535
2569.03463,0.00555
2566.97446,0.00550
2564.91429,0.00511
2562.85411,0.00491
2560.79394,0.00512
2558.73377,0.00527
2556.67360,0.00526
2554.61342,0.00540
2552.55325,0.00549
2550.49308,0.00524
2548.43291,0.00497
2546.37274,0.00488
2544.31256,0.00484
2542.25239,0.00488
2540.19222,0.00501
2538.13205,0.00510
2536.07188,0.00510
2534.01170,0.00512
2531.95153,0.00510
2529.89136,0.00497
2527.83119,0.00487
2525.77102,0.00485
2523.71084,0.00480
2521.65067,0.00476
2519.59050,0.00482
2517.53033,0.00481
2515.47015,0.00475
2513.40998,0.00483
2511.34981,0.00492
2509.28964,0.00482
2507.22947,0.00459
2505.16929,0.00451
2503.10912,0.00463
2501.04895,0.00485
2498.98878,0.00502
2496.92861,0.00502
2494.86843,0.00496
2492.80826,0.00493
2490.74809,0.00479
2488.68792,0.00460
2486.62775,0.00456
2484.56757,0.00457
2482.50740,0.00456
2480.44723,0.00464
2478.38706,0.00474
2476.32688,0.00479
2474.26671,0.00484
2472.20654,0.00485
2470.14637,0.00482
2468.08620,0.00486
2466.02602,0.00493
2463.96585,0.00493
2461.90568,0.00475
2459.84551,0.00458
2457.78534,0.00463
2455.72516,0.00479
2453.66499,0.00488
2451.60482,0.00490
2449.54465,0.00484
2447.48447,0.00467
2445.42430,0.00455
2443.36413,0.00454
2441.30396,0.00459
2439.24379,0.00461
2437.18361,0.00460
2435.12344,0.00449
2433.06327,0.00430
2431.00310,0.00413
2428.94293,0.00403
2426.88275,0.00415
2424.82258,0.00443
2422.76241,0.00473
2420.70224,0.00487
2418.64207,0.00476
2416.58189,0.00474
2414.52172,0.00494
2412.46155,0.00503
2410.40138,0.00479
2408.34120,0.00445
2406.28103,0.00439
2404.22086,0.00451
2402.16069,0.00445
2400.10052,0.00428
2398.04034,0.00422
2395.98017,0.00432
2393.92000,0.00450
2391.85983,0.00463
2389.79966,0.00463
2387.73948,0.00459
2385.67931,0.00464
2383.61914,0.00454
2381.55897,0.00419
2379.49880,0.00393
2377.43862,0.00395
2375.37845,0.00394
2373.31828,0.00441
2371.25811,0.00500
2369.19793,0.00457
2367.13776,0.00377
2365.07759,0.00349
2363.01742,0.00271
2360.95725,0.00339
2358.89707,0.00336
2356.83690,0.00311
2354.77673,0.00270
2352.71656,0.00332
2350.65639,0.00639
2348.59621,0.00771
2346.53604,0.00328
2344.47587,0.00228
2342.41570,0.00331
2340.35552,0.00425
2338.29535,0.00492
2336.23518,0.00498
2334.17501,0.00480
2332.11484,0.00427
2330.05466,0.00426
2327.99449,0.00448
2325.93432,0.00553
2323.87415,0.00553
2321.81398,0.00543
2319.75380,0.00485
2317.69363,0.00511
2315.63346,0.00505
2313.57329,0.00469
2311.51312,0.00460
2309.45294,0.00453
2307.39277,0.00447
2305.33260,0.00463
2303.27243,0.00500
2301.21225,0.00512
2299.15208,0.00512
2297.09191,0.00492
2295.03174,0.00470
2292.97157,0.00476
2290.91139,0.00485
2288.85122,0.00483
2286.79105,0.00482
2284.73088,0.00479
2282.67071,0.00475
2280.61053,0.00490
2278.55036,0.00523
2276.49019,0.00539
2274.43002,0.00530
2272.36984,0.00503
2270.30967,0.00472
2268.24950,0.00435
2266.18933,0.00403
2264.12916,0.00404
2262.06898,0.00430
2260.00881,0.00438
2257.94864,0.00407
2255.88847,0.00352
2253.82830,0.00349
2251.76812,0.00408
2249.70795,0.00435
2247.64778,0.00400
2245.58761,0.00368
2243.52744,0.00365
2241.46726,0.00411
2239.40709,0.00469
2237.34692,0.00477
2235.28675,0.00455
2233.22657,0.00449
2231.16640,0.00474
2229.10623,0.00481
2227.04606,0.00463
2224.98589,0.00457
2222.92571,0.00432
2220.86554,0.00389
2218.80537,0.00384
2216.74520,0.00407
2214.68503,0.00447
2212.62485,0.00480
2210.56468,0.00458
2208.50451,0.00409
2206.44434,0.00413
2204.38417,0.00462
2202.32399,0.00457
2200.26382,0.00395
2198.20365,0.00346
2196.14348,0.00344
2194.08330,0.00366
2192.02313,0.00380
2189.96296,0.00433
2187.90279,0.00509
2185.84262,0.00528
2183.78244,0.00480
2181.72227,0.00404
2179.66210,0.00378
2177.60193,0.00432
2175.54176,0.00447
2173.48158,0.00380
2171.42141,0.00402
2169.36124,0.00516
2167.30107,0.00561
2165.24089,0.00554
2163.18072,0.00497
2161.12055,0.00317
2159.06038,0.00130
2157.00021,0.00137
2154.94003,0.00285
2152.87986,0.00375
2150.81969,0.00340
2148.75952,0.00251
2146.69935,0.00172
2144.63917,0.00148
2142.57900,0.00212
2140.51883,0.00311
2138.45866,0.00355
2136.39849,0.00316
2134.33831,0.00285
2132.27814,0.00303
2130.21797,0.00310
2128.15780,0.00314
2126.09762,0.00340
2124.03745,0.00384
2121.97728,0.00419
2119.91711,0.00426
2117.85694,0.00426
2115.79676,0.00419
2113.73659,0.00374
2111.67642,0.00325
2109.61625,0.00333
2107.55608,0.00387
2105.49590,0.00467
2103.43573,0.00537
2101.37556,0.00546
2099.31539,0.00506
2097.25521,0.00458
2095.19504,0.00421
2093.13487,0.00399
2091.07470,0.00393
2089.01453,0.00403
2086.95435,0.00417
2084.89418,0.00432
2082.83401,0.00437
2080.77384,0.00415
2078.71367,0.00388
2076.65349,0.00379
2074.59332,0.00382
2072.53315,0.00410
2070.47298,0.00426
2068.41281,0.00404
2066.35263,0.00402
2064.29246,0.00421
2062.23229,0.00421
2060.17212,0.00438
2058.11194,0.00465
2056.05177,0.00449
2053.99160,0.00443
2051.93143,0.00498
2049.87126,0.00537
2047.81108,0.00553
2045.75091,0.00533
2043.69074,0.00432
2041.63057,0.00337
2039.57040,0.00310
2037.51022,0.00339
2035.45005,0.00384
2033.38988,0.00376
2031.32971,0.00345
2029.26954,0.00326
2027.20936,0.00255
2025.14919,0.00147
2023.08902,0.00126
2021.02885,0.00222
2018.96867,0.00354
2016.90850,0.00431
2014.84833,0.00415
2012.78816,0.00333
2010.72799,0.00239
2008.66781,0.00205
2006.60764,0.00252
2004.54747,0.00341
2002.48730,0.00383
2000.42713,0.00324
1998.36695,0.00240
1996.30678,0.00247
1994.24661,0.00357
1992.18644,0.00438
1990.12626,0.00404
1988.06609,0.00339
1986.00592,0.00302
1983.94575,0.00315
1981.88558,0.00352
1979.82540,0.00319
1977.76523,0.00211
1975.70506,0.00166
1973.64489,0.00192
1971.58472,0.00199
1969.52454,0.00215
1967.46437,0.00268
1965.40420,0.00279
1963.34403,0.00223
1961.28386,0.00164
1959.22368,0.00152
1957.16351,0.00205
1955.10334,0.00287
1953.04317,0.00328
1950.98299,0.00313
1948.92282,0.00278
1946.86265,0.00244
1944.80248,0.00247
1942.74231,0.00295
1940.68213,0.00315
1938.62196,0.00325
1936.56179,0.00336
1934.50162,0.00330
1932.44145,0.00317
1930.38127,0.00293
1928.32110,0.00258
1926.26093,0.00229
1924.20076,0.00236
1922.14059,0.00229
1920.08041,0.00265
1918.02024,0.00368
1915.96007,0.00357
1913.89990,0.00293
1911.83972,0.00287
1909.77955,0.00317
1907.71938,0.00323
1905.65921,0.00307
1903.59904,0.00298
1901.53886,0.00291
1899.47869,0.00279
1897.41852,0.00292
1895.35835,0.00311
1893.29818,0.00291
1891.23800,0.00307
1889.17783,0.00329
1887.11766,0.00288
1885.05749,0.00268
1882.99731,0.00284
1880.93714,0.00301
1878.87697,0.00314
1876.81680,0.00320
1874.75663,0.00298
1872.69645,0.00261
1870.63628,0.00282
1868.57611,0.00317
1866.51594,0.00277
1864.45577,0.00236
1862.39559,0.00239
1860.33542,0.00254
1858.27525,0.00270
1856.21508,0.00279
1854.15491,0.00275
1852.09473,0.00256
1850.03456,0.00232
1847.97439,0.00207
1845.91422,0.00233
1843.85404,0.00282
1841.79387,0.00255
1839.73370,0.00252
1837.67353,0.00282
1835.61336,0.00266
1833.55318,0.00234
1831.49301,0.00260
1829.43284,0.00263
1827.37267,0.00220
1825.31250,0.00254
1823.25232,0.00282
1821.19215,0.00279
1819.13198,0.00281
1817.07181,0.00273
1815.01163,0.00257
1812.95146,0.00271
1810.89129,0.00292
1808.83112,0.00273
1806.77095,0.00246
1804.71077,0.00244
1802.65060,0.00276
1800.59043,0.00291
1798.53026,0.00230
1796.47009,0.00164
1794.40991,0.00197
1792.34974,0.00267
1790.28957,0.00219
1788.22940,0.00176
1786.16923,0.00223
1784.10905,0.00251
1782.04888,0.00258
1779.98871,0.00249
1777.92854,0.00193
1775.86836,0.00190
1773.80819,0.00303
1771.74802,0.00371
1769.68785,0.00306
1767.62768,0.00252
1765.56750,0.00226
1763.50733,0.00286
1761.44716,0.00354
1759.38699,0.00359
1757.32682,0.00400
1755.26664,0.00400
1753.20647,0.00425
1751.14630,0.00523
1749.08613,0.00540
1747.02596,0.00503
1744.96578,0.00516
1742.90561,0.00578
1740.84544,0.00626
1738.78527,0.00568
1736.72509,0.00557
1734.66492,0.00731
1732.60475,0.00740
1730.54458,0.00671
1728.48441,0.00693
1726.42423,0.00719
1724.36406,0.00717
1722.30389,0.00638
1720.24372,0.00614
1718.18355,0.00700
1716.12337,0.00667
1714.06320,0.00562
1712.00303,0.00509
1709.94286,0.00504
1707.88268,0.00532
1705.82251,0.00513
1703.76234,0.00400
1701.70217,0.00431
1699.64200,0.00477
1697.58182,0.00448
1695.52165,0.00494
1693.46148,0.00423
1691.40131,0.00401
1689.34114,0.00415
1687.28096,0.00444
1685.22079,0.00641
1683.16062,0.00679
1681.10045,0.00527
1679.04028,0.00505
1676.98010,0.00619
1674.91993,0.00685
1672.85976,0.00645
1670.79959,0.00746
1668.73941,0.00821
1666.67924,0.00755
1664.61907,0.00827
1662.55890,0.00967
1660.49873,0.00946
1658.43855,0.00879
1656.37838,0.00970
1654.31821,0.01258
1652.25804,0.01227
1650.19787,0.00961
1648.13769,0.01077
1646.07752,0.01229
1644.01735,0.01142
1641.95718,0.01087
1639.89701,0.01105
1637.83683,0.01219
1635.77666,0.01349
1633.71649,0.01245
1631.65632,0.01165
1629.59614,0.01247
1627.53597,0.01300
1625.47580,0.01326
1623.41563,0.01373
1621.35546,0.01299
1619.29528,0.01298
1617.23511,0.01426
1615.17494,0.01373
1613.11477,0.01269
1611.05460,0.01293
1608.99442,0.01322
1606.93425,0.01289
1604.87408,0.01249
1602.81391,0.01224
1600.75373,0.01180
1598.69356,0.01126
1596.63339,0.01082
1594.57322,0.01028
1592.51305,0.00960
1590.45287,0.00904
1588.39270,0.00858
1586.33253,0.00817
1584.27236,0.00769
1582.21219,0.00689
1580.15201,0.00612
1578.09184,0.00665
1576.03167,0.00707
1573.97150,0.00526
1571.91133,0.00469
1569.85115,0.00558
1567.79098,0.00482
1565.73081,0.00379
1563.67064,0.00312
1561.61046,0.00416
1559.55029,0.00683
1557.49012,0.00496
1555.42995,0.00259
1553.36978,0.00258
1551.30960,0.00313
1549.24943,0.00308
1547.18926,0.00243
1545.12909,0.00228
1543.06892,0.00262
1541.00874,0.00389
1538.94857,0.00350
1536.88840,0.00158
1534.82823,0.00229
1532.76805,0.00322
1530.70788,0.00232
1528.64771,0.00222
1526.58754,0.00241
1524.52737,0.00215
1522.46719,0.00276
1520.40702,0.00259
1518.34685,0.00211
1516.28668,0.00248
1514.22651,0.00213
1512.16633,0.00162
1510.10616,0.00204
1508.04599,0.00422
1505.98582,0.00458
1503.92565,0.00227
1501.86547,0.00174
1499.80530,0.00300
1497.74513,0.00398
1495.68496,0.00332
1493.62478,0.00227
1491.56461,0.00304
1489.50444,0.00416
1487.44427,0.00390
1485.38410,0.00347
1483.32392,0.00377
1481.26375,0.00420
1479.20358,0.00406
1477.14341,0.00407
1475.08324,0.00480
1473.02306,0.00598
1470.96289,0.00582
1468.90272,0.00528
1466.84255,0.00639
1464.78238,0.00744
1462.72220,0.00653
1460.66203,0.00614
1458.60186,0.00787
1456.54169,0.00877
1454.48151,0.00754
1452.42134,0.00726
1450.36117,0.00815
1448.30100,0.00910
1446.24083,0.00923
1444.18065,0.00900
1442.12048,0.00889
1440.06031,0.00897
1438.00014,0.00996
1435.93997,0.01027
1433.87979,0.00938
1431.81962,0.00975
1429.75945,0.01063
1427.69928,0.01063
1425.63910,0.01070
1423.57893,0.01076
1421.51876,0.01104
1419.45859,0.01211
1417.39842,0.01202
1415.33824,0.01139
1413.27807,0.01152
1411.21790,0.01175
1409.15773,0.01164
1407.09756,0.01167
1405.03738,0.01160
1402.97721,0.01080
1400.91704,0.01047
1398.85687,0.01063
1396.79670,0.01059
1394.73652,0.01057
1392.67635,0.01001
1390.61618,0.00973
1388.55601,0.01036
1386.49583,0.01069
1384.43566,0.01055
1382.37549,0.01077
1380.31532,0.01100
1378.25515,0.01101
1376.19497,0.01131
1374.13480,0.01170
1372.07463,0.01147
1370.01446,0.01136
1367.95429,0.01133
1365.89411,0.01114
1363.83394,0.01140
1361.77377,0.01138
1359.71360,0.01085
1357.65343,0.01068
1355.59325,0.01079
1353.53308,0.01074
1351.47291,0.01054
1349.41274,0.01037
1347.35256,0.01020
1345.29239,0.00990
1343.23222,0.00959
1341.17205,0.00967
1339.11188,0.00985
1337.05170,0.00964
1334.99153,0.00954
1332.93136,0.00968
1330.87119,0.00979
1328.81102,0.00978
1326.75084,0.00978
1324.69067,0.00976
1322.63050,0.00978
1320.57033,0.00998
1318.51015,0.01013
1316.44998,0.01007
1314.38981,0.01008
1312.32964,0.01001
1310.26947,0.00985
1308.20929,0.00983
1306.14912,0.00977
1304.08895,0.00957
1302.02878,0.00934
1299.96861,0.00914
1297.90843,0.00902
1295.84826,0.00891
1293.78809,0.00870
1291.72792,0.00850
1289.66775,0.00851
1287.60757,0.00860
1285.54740,0.00850
1283.48723,0.00828
1281.42706,0.00813
1279.36688,0.00811
1277.30671,0.00825
1275.24654,0.00848
1273.18637,0.00876
1271.12620,0.00892
1269.06602,0.00902
1267.00585,0.00930
1264.94568,0.00966
1262.88551,0.01000
1260.82534,0.01037
1258.76516,0.01070
1256.70499,0.01093
1254.64482,0.01108
1252.58465,0.01120
1250.52447,0.01133
1248.46430,0.01148
1246.40413,0.01156
1244.34396,0.01146
1242.28379,0.01127
1240.22361,0.01117
1238.16344,0.01108
1236.10327,0.01089
1234.04310,0.01059
1231.98293,0.01025
1229.92275,0.00992
1227.86258,0.00960
1225.80241,0.00924
1223.74224,0.00882
1221.68207,0.00848
1219.62189,0.00823
1217.56172,0.00796
1215.50155,0.00761
1213.44138,0.00718
1211.38120,0.00668
1209.32103,0.00624
1207.26086,0.00583
1205.20069,0.00532
1203.14052,0.00468
1201.08034,0.00404
1199.02017,0.00347
1196.96000,0.00294
1194.89983,0.00252
1192.83966,0.00219
1190.77948,0.00197
1188.71931,0.00186
1186.65914,0.00180
1184.59897,0.00193
1182.53880,0.00229
1180.47862,0.00263
1178.41845,0.00290
1176.35828,0.00328
1174.29811,0.00391
1172.23793,0.00462
1170.17776,0.00529
1168.11759,0.00596
1166.05742,0.00666
1163.99725,0.00733
1161.93707,0.00797
1159.87690,0.00857
1157.81673,0.00914
1155.75656,0.00967
1153.69639,0.01015
1151.63621,0.01054
1149.57604,0.01086
1147.51587,0.01116
1145.45570,0.01152
1143.39552,0.01188
1141.33535,0.01211
1139.27518,0.01224
1137.21501,0.01244
1135.15484,0.01270
1133.09466,0.01299
1131.03449,0.01335
1128.97432,0.01387
1126.91415,0.01446
1124.85398,0.01491
1122.79380,0.01535
1120.73363,0.01592
1118.67346,0.01650
1116.61329,0.01706
1114.55312,0.01763
1112.49294,0.01807
1110.43277,0.01847
1108.37260,0.01896
1106.31243,0.01951
1104.25225,0.02010
1102.19208,0.02077
1100.13191,0.02143
1098.07174,0.02212
1096.01157,0.02300
1093.95139,0.02400
1091.89122,0.02491
1089.83105,0.02559
1087.77088,0.02607
1085.71071,0.02656
1083.65053,0.02716
1081.59036,0.02793
1079.53019,0.02882
1077.47002,0.02962
1075.40985,0.03026
1073.34967,0.03086
1071.28950,0.03145
1069.22933,0.03196
1067.16916,0.03237
1065.10898,0.03282
1063.04881,0.03334
1060.98864,0.03375
1058.92847,0.03394
1056.86830,0.03412
1054.80812,0.03442
1052.74795,0.03476
1050.68778,0.03516
1048.62761,0.03576
1046.56744,0.03638
1044.50726,0.03680
1042.44709,0.03718
1040.38692,0.03766
1038.32675,0.03814
1036.26657,0.03861
1034.20640,0.03907
1032.14623,0.03929
1030.08606,0.03921
1028.02589,0.03911
1025.96571,0.03911
1023.90554,0.03903
1021.84537,0.03889
1019.78520,0.03889
1017.72503,0.03902
1015.66485,0.03908
1013.60468,0.03901
1011.54451,0.03888
1009.48434,0.03879
1007.42417,0.03881
1005.36399,0.03870
1003.30382,0.03842
1001.24365,0.03807
999.18348,0.03768
997.12330,0.03724
995.06313,0.03669
993.00296,0.03606
990.94279,0.03546
988.88262,0.03503
986.82244,0.03475
984.76227,0.03447
982.70210,0.03411
980.64193,0.03374
978.58176,0.03344
976.52158,0.03318
974.46141,0.03286
972.40124,0.03250
970.34107,0.03213
968.28089,0.03169
966.22072,0.03113
964.16055,0.03063
962.10038,0.03028
960.04021,0.02988
957.98003,0.02934
955.91986,0.02878
953.85969,0.02832
951.79952,0.02799
949.73935,0.02761
947.67917,0.02691
945.61900,0.02603
943.55883,0.02517
941.49866,0.02410
939.43849,0.02267
937.37831,0.02121
935.31814,0.01981
933.25797,0.01826
931.19780,0.01678
929.13762,0.01567
927.07745,0.01470
925.01728,0.01364
922.95711,0.01264
920.89694,0.01198
918.83676,0.01157
916.77659,0.01088
914.71642,0.00997
912.65625,0.00933
910.59608,0.00879
908.53590,0.00825
906.47573,0.00801
904.41556,0.00806
902.35539,0.00812
900.29522,0.00804
898.23504,0.00807
896.17487,0.00830
894.11470,0.00844
892.05453,0.00840
889.99435,0.00826
887.93418,0.00785
885.87401,0.00729
883.81384,0.00687
881.75367,0.00660
879.69349,0.00634
877.63332,0.00594
875.57315,0.00554
873.51298,0.00532
871.45281,0.00524
869.39263,0.00531
867.33246,0.00536
865.27229,0.00528
863.21212,0.00514
861.15194,0.00490
859.09177,0.00465
857.03160,0.00444
854.97143,0.00412
852.91126,0.00381
850.85108,0.00367
848.79091,0.00368
846.73074,0.00353
844.67057,0.00314
842.61040,0.00282
840.55022,0.00263
838.49005,0.00238
836.42988,0.00214
834.36971,0.00203
832.30954,0.00201
830.24936,0.00202
828.18919,0.00215
826.12902,0.00234
824.06885,0.00234
822.00867,0.00235
819.94850,0.00262
817.88833,0.00276
815.82816,0.00272
813.76799,0.00303
811.70781,0.00350
809.64764,0.00376
807.58747,0.00378
805.52730,0.00383
803.46713,0.00384
801.40695,0.00345
799.34678,0.00289
797.28661,0.00260
795.22644,0.00249
793.16627,0.00246
791.10609,0.00261
789.04592,0.00265
786.98575,0.00247
784.92558,0.00242
782.86540,0.00242
780.80523,0.00230
778.74506,0.00234
776.68489,0.00269
774.62472,0.00291
772.56454,0.00271
770.50437,0.00248
768.44420,0.00247
766.38403,0.00247
764.32386,0.00274
762.26368,0.00311
760.20351,0.00309
758.14334,0.00288
756.08317,0.00268
754.02299,0.00256
751.96282,0.00276
749.90265,0.00315
747.84248,0.00319
745.78231,0.00281
743.72213,0.00241
741.66196,0.00222
739.60179,0.00241
737.54162,0.00301
735.48145,0.00349
733.42127,0.00330
731.36110,0.00289
729.30093,0.00288
727.24076,0.00288
725.18059,0.00271
723.12041,0.00312
721.06024,0.00346
719.00007,0.00460
716.93990,0.00537
714.87972,0.00545
712.81955,0.00536
710.75938,0.00534
708.69921,0.00547
706.63904,0.00575
704.57886,0.00608
702.51869,0.00615
700.45852,0.00600
698.39835,0.00603
696.33818,0.00632
694.27800,0.00661
692.21783,0.00690
690.15766,0.00734
688.09749,0.00754
686.03731,0.00725
683.97714,0.00714
681.91697,0.00736
679.85680,0.00741
677.79663,0.00732
675.73645,0.00732
673.67628,0.00803
671.61611,0.00985
669.55594,0.00683
667.49577,0.00214
665.43559,0.00983
663.37542,0.00825
661.31525,0.00612
659.25508,0.00631
657.19491,0.00700
655.13473,0.00723
653.07456,0.00646
651.01439,0.00502
648.95422,0.00415
646.89404,0.00475
644.83387,0.00566
642.77370,0.00628
640.71353,0.00624
638.65336,0.00570
636.59318,0.00505
634.53301,0.00425
632.47284,0.00351
630.41267,0.00314
628.35250,0.00243
626.29232,0.00121
624.23215,0.00090
622.17198,0.00078
620.11181,0.00011
618.05164,0.00000
615.99146,0.00027
613.93129,0.00054
611.87112,0.00074
609.81095,0.00114
607.75077,0.00133
605.69060,0.00106
603.63043,0.00068
601.57026,0.00035
599.51009,0.00000
