3996.73391,0.00000
3994.67373,0.00025
3992.61356,0.00058
3990.55339,0.00097
3988.49322,0.00133
3986.43305,0.00151
3984.37287,0.00148
3982.31270,0.00135
3980.25253,0.00121
3978.19236,0.00103
3976.13219,0.00076
3974.07201,0.00047
3972.01184,0.00028
3969.95167,0.00027
3967.89150,0.00040
3965.83133,0.00058
3963.77115,0.00080
3961.71098,0.00102
3959.65081,0.00121
3957.59064,0.00133
3955.53046,0.00142
3953.47029,0.00160
3951.41012,0.00186
3949.34995,0.00207
3947.28978,0.00213
3945.22960,0.00199
3943.16943,0.00169
3941.10926,0.00137
3939.04909,0.00112
3936.98892,0.00098
3934.92874,0.00099
3932.86857,0.00117
3930.80840,0.00146
3928.74823,0.00176
3926.68805,0.00194
3924.62788,0.00202
3922.56771,0.00202
3920.50754,0.00193
3918.44737,0.00177
3916.38719,0.00156
3914.32702,0.00137
3912.26685,0.00118
3910.20668,0.00098
3908.14651,0.00082
3906.08633,0.00085
3904.02616,0.00118
3901.96599,0.00166
3899.90582,0.00197
3897.84565,0.00193
3895.78547,0.00171
3893.72530,0.00158
3891.66513,0.00166
3889.60496,0.00185
3887.54478,0.00199
3885.48461,0.00199
3883.42444,0.00187
3881.36427,0.00177
3879.30410,0.00175
3877.24392,0.00177
3875.18375,0.00164
3873.12358,0.00122
3871.06341,0.00060
3869.00324,0.00019
3866.94306,0.00032
3864.88289,0.00087
3862.82272,0.00151
3860.76255,0.00194
3858.70237,0.00200
3856.64220,0.00178
3854.58203,0.00157
3852.52186,0.00156
3850.46169,0.00175
3848.40151,0.00205
3846.34134,0.00229
3844.28117,0.00233
3842.22100,0.00215
3840.16083,0.00186
3838.10065,0.00161
3836.04048,0.00153
3833.98031,0.00170
3831.92014,0.00193
3829.85997,0.00199
3827.79979,0.00175
3825.73962,0.00132
3823.67945,0.00078
3821.61928,0.00026
3819.55910,0.00000
3817.49893,0.00016
3815.43876,0.00072
3813.37859,0.00140
3811.31842,0.00192
3809.25824,0.00214
3807.19807,0.00207
3805.13790,0.00185
3803.07773,0.00159
3801.01756,0.00141
3798.95738,0.00148
3796.89721,0.00186
3794.83704,0.00241
3792.77687,0.00282
3790.71670,0.00292
3788.65652,0.00271
3786.59635,0.00235
3784.53618,0.00194
3782.47601,0.00158
3780.41583,0.00133
3778.35566,0.00127
3776.29549,0.00142
3774.23532,0.00171
3772.17515,0.00198
3770.11497,0.00211
3768.05480,0.00217
3765.99463,0.00230
3763.93446,0.00246
3761.87429,0.00249
3759.81411,0.00229
3757.75394,0.00194
3755.69377,0.00152
3753.63360,0.00118
3751.57342,0.00110
3749.51325,0.00136
3747.45308,0.00169
3745.39291,0.00177
3743.33274,0.00157
3741.27256,0.00133
3739.21239,0.00121
3737.15222,0.00120
3735.09205,0.00133
3733.03188,0.00161
3730.97170,0.00190
3728.91153,0.00206
3726.85136,0.00218
3724.79119,0.00233
3722.73102,0.00248
3720.67084,0.00250
3718.61067,0.00234
3716.55050,0.00203
3714.49033,0.00170
3712.43015,0.00150
3710.36998,0.00149
3708.30981,0.00159
3706.24964,0.00175
3704.18947,0.00190
3702.12929,0.00202
3700.06912,0.00219
3698.00895,0.00241
3695.94878,0.00255
3693.88861,0.00251
3691.82843,0.00248
3689.76826,0.00269
3687.70809,0.00307
3685.64792,0.00338
3683.58775,0.00345
3681.52757,0.00328
3679.46740,0.00300
3677.40723,0.00278
3675.34706,0.00260
3673.28688,0.00236
3671.22671,0.00213
3669.16654,0.00215
3667.10637,0.00246
3665.04620,0.00292
3662.98602,0.00338
3660.92585,0.00375
3658.86568,0.00393
3656.80551,0.00382
3654.74534,0.00346
3652.68516,0.00292
3650.62499,0.00242
3648.56482,0.00226
3646.50465,0.00248
3644.44447,0.00295
3642.38430,0.00351
3640.32413,0.00401
3638.26396,0.00430
3636.20379,0.00443
3634.14361,0.00460
3632.08344,0.00499
3630.02327,0.00558
3627.96310,0.00610
3625.90293,0.00632
3623.84275,0.00622
3621.78258,0.00588
3619.72241,0.00546
3617.66224,0.00516
3615.60207,0.00512
3613.54189,0.00528
3611.48172,0.00554
3609.42155,0.00583
3607.36138,0.00613
3605.30120,0.00648
3603.24103,0.00683
3601.18086,0.00705
3599.12069,0.00718
3597.06052,0.00735
3595.00034,0.00761
3592.94017,0.00787
3590.88000,0.00806
3588.81983,0.00823
3586.75966,0.00853
3584.69948,0.00896
3582.63931,0.00940
3580.57914,0.00974
3578.51897,0.00996
3576.45879,0.01012
3574.39862,0.01027
3572.33845,0.01038
3570.27828,0.01034
3568.21811,0.01008
3566.15793,0.00972
3564.09776,0.00948
3562.03759,0.00949
3559.97742,0.00979
3557.91725,0.01031
3555.85707,0.01090
3553.79690,0.01150
3551.73673,0.01210
3549.67656,0.01261
3547.61639,0.01292
3545.55621,0.01310
3543.49604,0.01324
3541.43587,0.01340
3539.37570,0.01352
3537.31552,0.01357
3535.25535,0.01362
3533.19518,0.01373
3531.13501,0.01392
3529.07484,0.01414
3527.01466,0.01439
3524.95449,0.01475
3522.89432,0.01530
3520.83415,0.01595
3518.77398,0.01648
3516.71380,0.01680
3514.65363,0.01694
3512.59346,0.01702
3510.53329,0.01711
3508.47312,0.01719
3506.41294,0.01724
3504.35277,0.01733
3502.29260,0.01753
3500.23243,0.01777
3498.17225,0.01797
3496.11208,0.01817
3494.05191,0.01840
3491.99174,0.01859
3489.93157,0.01870
3487.87139,0.01877
3485.81122,0.01892
3483.75105,0.01919
3481.69088,0.01951
3479.63071,0.01981
3477.57053,0.02006
3475.51036,0.02025
3473.45019,0.02034
3471.39002,0.02037
3469.32984,0.02043
3467.26967,0.02059
3465.20950,0.02083
3463.14933,0.02115
3461.08916,0.02150
3459.02898,0.02181
3456.96881,0.02207
3454.90864,0.02222
3452.84847,0.02225
3450.78830,0.02220
3448.72812,0.02221
3446.66795,0.02238
3444.60778,0.02268
3442.54761,0.02301
3440.48744,0.02332
3438.42726,0.02354
3436.36709,0.02361
3434.30692,0.02354
3432.24675,0.02347
3430.18657,0.02348
3428.12640,0.02358
3426.06623,0.02372
3424.00606,0.02388
3421.94589,0.02403
3419.88571,0.02420
3417.82554,0.02438
3415.76537,0.02460
3413.70520,0.02486
3411.64503,0.02511
3409.58485,0.02534
3407.52468,0.02553
3405.46451,0.02563
3403.40434,0.02567
3401.34416,0.02570
3399.28399,0.02574
3397.22382,0.02579
3395.16365,0.02577
3393.10348,0.02569
3391.04330,0.02559
3388.98313,0.02558
3386.92296,0.02572
3384.86279,0.02603
3382.80262,0.02642
3380.74244,0.02678
3378.68227,0.02704
3376.62210,0.02720
3374.56193,0.02727
3372.50176,0.02729
3370.44158,0.02733
3368.38141,0.02742
3366.32124,0.02757
3364.26107,0.02775
3362.20089,0.02791
3360.14072,0.02810
3358.08055,0.02829
3356.02038,0.02840
3353.96021,0.02834
3351.90003,0.02821
3349.83986,0.02815
3347.77969,0.02824
3345.71952,0.02832
3343.65935,0.02823
3341.59917,0.02801
3339.53900,0.02784
3337.47883,0.02779
3335.41866,0.02785
3333.35849,0.02798
3331.29831,0.02816
3329.23814,0.02834
3327.17797,0.02844
3325.11780,0.02838
3323.05762,0.02822
3320.99745,0.02816
3318.93728,0.02836
3316.87711,0.02881
3314.81694,0.02928
3312.75676,0.02954
3310.69659,0.02952
3308.63642,0.02939
3306.57625,0.02928
3304.51608,0.02921
3302.45590,0.02911
3300.39573,0.02894
3298.33556,0.02871
3296.27539,0.02851
3294.21521,0.02849
3292.15504,0.02872
3290.09487,0.02909
3288.03470,0.02933
3285.97453,0.02926
3283.91435,0.02898
3281.85418,0.02871
3279.79401,0.02857
3277.73384,0.02855
3275.67367,0.02856
3273.61349,0.02859
3271.55332,0.02867
3269.49315,0.02882
3267.43298,0.02904
3265.37281,0.02928
3263.31263,0.02939
3261.25246,0.02925
3259.19229,0.02890
3257.13212,0.02861
3255.07194,0.02859
3253.01177,0.02884
3250.95160,0.02916
3248.89143,0.02934
3246.83126,0.02927
3244.77108,0.02901
3242.71091,0.02867
3240.65074,0.02831
3238.59057,0.02798
3236.53040,0.02778
3234.47022,0.02773
3232.41005,0.02777
3230.34988,0.02784
3228.28971,0.02786
3226.22954,0.02782
3224.16936,0.02777
3222.10919,0.02774
3220.04902,0.02776
3217.98885,0.02778
3215.92867,0.02767
3213.86850,0.02739
3211.80833,0.02704
3209.74816,0.02676
3207.68799,0.02658
3205.62781,0.02641
3203.56764,0.02625
3201.50747,0.02615
3199.44730,0.02619
3197.38713,0.02631
3195.32695,0.02642
3193.26678,0.02646
3191.20661,0.02640
3189.14644,0.02623
3187.08626,0.02594
3185.02609,0.02556
3182.96592,0.02516
3180.90575,0.02480
3178.84558,0.02448
3176.78540,0.02422
3174.72523,0.02405
3172.66506,0.02397
3170.60489,0.02393
3168.54472,0.02382
3166.48454,0.02360
3164.42437,0.02330
3162.36420,0.02299
3160.30403,0.02268
3158.24386,0.02238
3156.18368,0.02218
3154.12351,0.02207
3152.06334,0.02201
3150.00317,0.02192
3147.94299,0.02172
3145.88282,0.02142
3143.82265,0.02109
3141.76248,0.02076
3139.70231,0.02042
3137.64213,0.02010
3135.58196,0.01990
3133.52179,0.01981
3131.46162,0.01970
3129.40145,0.01948
3127.34127,0.01917
3125.28110,0.01890
3123.22093,0.01870
3121.16076,0.01852
3119.10058,0.01832
3117.04041,0.01813
3114.98024,0.01799
3112.92007,0.01793
3110.85990,0.01797
3108.79972,0.01803
3106.73955,0.01800
3104.67938,0.01781
3102.61921,0.01755
3100.55904,0.01737
3098.49886,0.01729
3096.43869,0.01721
3094.37852,0.01704
3092.31835,0.01676
3090.25818,0.01638
3088.19800,0.01593
3086.13783,0.01549
3084.07766,0.01516
3082.01749,0.01503
3079.95731,0.01505
3077.89714,0.01503
3075.83697,0.01485
3073.77680,0.01458
3071.71663,0.01439
3069.65645,0.01433
3067.59628,0.01433
3065.53611,0.01431
3063.47594,0.01423
3061.41577,0.01409
3059.35559,0.01394
3057.29542,0.01384
3055.23525,0.01379
3053.17508,0.01370
3051.11491,0.01350
3049.05473,0.01321
3046.99456,0.01295
3044.93439,0.01278
3042.87422,0.01265
3040.81404,0.01244
3038.75387,0.01212
3036.69370,0.01178
3034.63353,0.01154
3032.57336,0.01142
3030.51318,0.01136
3028.45301,0.01126
3026.39284,0.01114
3024.33267,0.01107
3022.27250,0.01106
3020.21232,0.01106
3018.15215,0.01102
3016.09198,0.01097
3014.03181,0.01092
3011.97163,0.01082
3009.91146,0.01067
3007.85129,0.01047
3005.79112,0.01029
3003.73095,0.01016
3001.67077,0.01014
2999.61060,0.01023
2997.55043,0.01040
2995.49026,0.01063
2993.43009,0.01083
2991.36991,0.01096
2989.30974,0.01102
2987.24957,0.01093
2985.18940,0.01075
2983.12923,0.01068
2981.06905,0.01069
2979.00888,0.01070
2976.94871,0.01073
2974.88854,0.01089
2972.82836,0.01110
2970.76819,0.01124
2968.70802,0.01139
2966.64785,0.01170
2964.58768,0.01202
2962.52750,0.01219
2960.46733,0.01229
2958.40716,0.01256
2956.34699,0.01297
2954.28682,0.01330
2952.22664,0.01343
2950.16647,0.01352
2948.10630,0.01374
2946.04613,0.01398
2943.98596,0.01415
2941.92578,0.01433
2939.86561,0.01469
2937.80544,0.01519
2935.74527,0.01552
2933.68509,0.01541
2931.62492,0.01511
2929.56475,0.01505
2927.50458,0.01519
2925.44441,0.01511
2923.38423,0.01471
2921.32406,0.01435
2919.26389,0.01427
2917.20372,0.01428
2915.14355,0.01421
2913.08337,0.01403
2911.02320,0.01375
2908.96303,0.01348
2906.90286,0.01339
2904.84268,0.01351
2902.78251,0.01371
2900.72234,0.01388
2898.66217,0.01388
2896.60200,0.01377
2894.54182,0.01369
2892.48165,0.01362
2890.42148,0.01353
2888.36131,0.01342
2886.30114,0.01326
2884.24096,0.01311
2882.18079,0.01302
2880.12062,0.01298
2878.06045,0.01296
2876.00028,0.01294
2873.94010,0.01292
2871.87993,0.01283
2869.81976,0.01258
2867.75959,0.01220
2865.69941,0.01174
2863.63924,0.01127
2861.57907,0.01103
2859.51890,0.01102
2857.45873,0.01107
2855.39855,0.01100
2853.33838,0.01074
2851.27821,0.01037
2849.21804,0.01008
2847.15787,0.00998
2845.09769,0.00994
2843.03752,0.00979
2840.97735,0.00963
2838.91718,0.00961
2836.85700,0.00956
2834.79683,0.00938
2832.73666,0.00922
2830.67649,0.00908
2828.61632,0.00893
2826.55614,0.00887
2824.49597,0.00897
2822.43580,0.00920
2820.37563,0.00941
2818.31546,0.00942
2816.25528,0.00931
2814.19511,0.00921
2812.13494,0.00900
2810.07477,0.00871
2808.01460,0.00853
2805.95442,0.00850
2803.89425,0.00856
2801.83408,0.00861
2799.77391,0.00856
2797.71373,0.00840
2795.65356,0.00819
2793.59339,0.00801
2791.53322,0.00798
2789.47305,0.00803
2787.41287,0.00805
2785.35270,0.00816
2783.29253,0.00836
2781.23236,0.00842
2779.17219,0.00827
2777.11201,0.00803
2775.05184,0.00774
2772.99167,0.00744
2770.93150,0.00734
2768.87133,0.00750
2766.81115,0.00765
2764.75098,0.00759
2762.69081,0.00758
2760.63064,0.00773
2758.57046,0.00776
2756.51029,0.00754
2754.45012,0.00736
2752.38995,0.00736
2750.32978,0.00745
2748.26960,0.00755
2746.20943,0.00766
2744.14926,0.00775
2742.08909,0.00774
2740.02892,0.00763
2737.96874,0.00753
2735.90857,0.00752
2733.84840,0.00767
2731.78823,0.00781
2729.72805,0.00770
2727.66788,0.00735
2725.60771,0.00702
2723.54754,0.00693
2721.48737,0.00712
2719.42719,0.00732
2717.36702,0.00724
2715.30685,0.00699
2713.24668,0.00689
2711.18651,0.00689
2709.12633,0.00679
2707.06616,0.00670
2705.00599,0.00684
2702.94582,0.00711
2700.88565,0.00723
2698.82547,0.00710
2696.76530,0.00692
2694.70513,0.00685
2692.64496,0.00693
2690.58478,0.00705
2688.52461,0.00708
2686.46444,0.00699
2684.40427,0.00688
2682.34410,0.00682
2680.28392,0.00670
2678.22375,0.00648
2676.16358,0.00629
2674.10341,0.00628
2672.04324,0.00640
2669.98306,0.00646
2667.92289,0.00641
2665.86272,0.00633
2663.80255,0.00627
2661.74238,0.00623
2659.68220,0.00631
2657.62203,0.00651
2655.56186,0.00664
2653.50169,0.00658
2651.44151,0.00645
2649.38134,0.00635
2647.32117,0.00633
2645.26100,0.00639
2643.20083,0.00649
2641.14065,0.00645
2639.08048,0.00622
2637.02031,0.00600
2634.96014,0.00597
2632.89997,0.00606
2630.83979,0.00614
2628.77962,0.00624
2626.71945,0.00636
2624.65928,0.00635
2622.59910,0.00622
2620.53893,0.00611
2618.47876,0.00616
2616.41859,0.00629
2614.35842,0.00626
2612.29824,0.00596
2610.23807,0.00549
2608.17790,0.00513
2606.11773,0.00520
2604.05756,0.00553
2601.99738,0.00566
2599.93721,0.00546
2597.87704,0.00521
2595.81687,0.00497
2593.75670,0.00478
2591.69652,0.00483
2589.63635,0.00512
2587.57618,0.00530
2585.51601,0.00516
2583.45583,0.00488
2581.39566,0.00489
2579.33549,0.00525
2577.27532,0.00553
2575.21515,0.00543
2573.15497,0.00524
2571.09480,0.00523
2569.03463,0.00528
2566.97446,0.00526
2564.91429,0.00516
2562.85411,0.00507
2560.79394,0.00506
2558.73377,0.00512
2556.67360,0.00529
2554.61342,0.00562
2552.55325,0.00585
2550.49308,0.00572
2548.43291,0.00542
2546.37274,0.00522
2544.31256,0.00497
2542.25239,0.00449
2540.19222,0.00409
2538.13205,0.00405
2536.07188,0.00418
2534.01170,0.00431
2531.95153,0.00451
2529.89136,0.00470
2527.83119,0.00460
2525.77102,0.00416
2523.71084,0.00371
2521.65067,0.00361
2519.59050,0.00385
2517.53033,0.00417
2515.47015,0.00453
2513.40998,0.00498
2511.34981,0.00544
2509.28964,0.00568
2507.22947,0.00552
2505.16929,0.00509
2503.10912,0.00464
2501.04895,0.00430
2498.98878,0.00413
2496.92861,0.00407
2494.86843,0.00405
2492.80826,0.00421
2490.74809,0.00450
2488.68792,0.00465
2486.62775,0.00465
2484.56757,0.00480
2482.50740,0.00514
2480.44723,0.00541
2478.38706,0.00542
2476.32688,0.00529
2474.26671,0.00504
2472.20654,0.00451
2470.14637,0.00381
2468.08620,0.00337
2466.02602,0.00347
2463.96585,0.00392
2461.90568,0.00443
2459.84551,0.00472
2457.78534,0.00470
2455.72516,0.00453
2453.66499,0.00437
2451.60482,0.00434
2449.54465,0.00448
2447.48447,0.00460
2445.42430,0.00449
2443.36413,0.00421
2441.30396,0.00396
2439.24379,0.00394
2437.18361,0.00428
2435.12344,0.00477
2433.06327,0.00488
2431.00310,0.00454
2428.94293,0.00416
2426.88275,0.00401
2424.82258,0.00400
2422.76241,0.00409
2420.70224,0.00434
2418.64207,0.00466
2416.58189,0.00492
2414.52172,0.00489
2412.46155,0.00450
2410.40138,0.00403
2408.34120,0.00376
2406.28103,0.00371
2404.22086,0.00385
2402.16069,0.00412
2400.10052,0.00439
2398.04034,0.00461
2395.98017,0.00471
2393.92000,0.00466
2391.85983,0.00447
2389.79966,0.00421
2387.73948,0.00403
2385.67931,0.00399
2383.61914,0.00405
2381.55897,0.00414
2379.49880,0.00422
2377.43862,0.00425
2375.37845,0.00418
2373.31828,0.00396
2371.25811,0.00370
2369.19793,0.00361
2367.13776,0.00367
2365.07759,0.00337
2363.01742,0.00241
2360.95725,0.00148
2358.89707,0.00162
2356.83690,0.00287
2354.77673,0.00433
2352.71656,0.00516
2350.65639,0.00522
2348.59621,0.00478
2346.53604,0.00406
2344.47587,0.00328
2342.41570,0.00285
2340.35552,0.00315
2338.29535,0.00407
2336.23518,0.00522
2334.17501,0.00624
2332.11484,0.00690
2330.05466,0.00717
2327.99449,0.00711
2325.93432,0.00669
2323.87415,0.00590
2321.81398,0.00497
2319.75380,0.00427
2317.69363,0.00400
2315.63346,0.00409
2313.57329,0.00436
2311.51312,0.00470
2309.45294,0.00502
2307.39277,0.00524
2305.33260,0.00537
2303.27243,0.00544
2301.21225,0.00544
2299.15208,0.00534
2297.09191,0.00518
2295.03174,0.00503
2292.97157,0.00498
2290.91139,0.00508
2288.85122,0.00533
2286.79105,0.00557
2284.73088,0.00560
2282.67071,0.00529
2280.61053,0.00467
2278.55036,0.00404
2276.49019,0.00369
2274.43002,0.00365
2272.36984,0.00368
2270.30967,0.00365
2268.24950,0.00359
2266.18933,0.00356
2264.12916,0.00359
2262.06898,0.00373
2260.00881,0.00392
2257.94864,0.00409
2255.88847,0.00419
2253.82830,0.00419
2251.76812,0.00414
2249.70795,0.00425
2247.64778,0.00471
2245.58761,0.00523
2243.52744,0.00552
2241.46726,0.00546
2239.40709,0.00493
2237.34692,0.00419
2235.28675,0.00381
2233.22657,0.00399
2231.16640,0.00433
2229.10623,0.00427
2227.04606,0.00392
2224.98589,0.00402
2222.92571,0.00424
2220.86554,0.00354
2218.80537,0.00268
2216.74520,0.00305
2214.68503,0.00391
2212.62485,0.00377
2210.56468,0.00290
2208.50451,0.00281
2206.44434,0.00383
2204.38417,0.00490
2202.32399,0.00492
2200.26382,0.00394
2198.20365,0.00336
2196.14348,0.00389
2194.08330,0.00445
2192.02313,0.00439
2189.96296,0.00448
2187.90279,0.00506
2185.84262,0.00530
2183.78244,0.00510
2181.72227,0.00527
2179.66210,0.00560
2177.60193,0.00481
2175.54176,0.00265
2173.48158,0.00044
2171.42141,0.00004
2169.36124,0.00212
2167.30107,0.00478
2165.24089,0.00577
2163.18072,0.00520
2161.12055,0.00393
2159.06038,0.00177
2157.00021,0.00000
2154.94003,0.00078
2152.87986,0.00266
2150.81969,0.00288
2148.75952,0.00230
2146.69935,0.00298
2144.63917,0.00436
2142.57900,0.00486
2140.51883,0.00447
2138.45866,0.00408
2136.39849,0.00409
2134.33831,0.00421
2132.27814,0.00425
2130.21797,0.00438
2128.15780,0.00470
2126.09762,0.00480
2124.03745,0.00412
2121.97728,0.00287
2119.91711,0.00223
2117.85694,0.00287
2115.79676,0.00405
2113.73659,0.00477
2111.67642,0.00490
2109.61625,0.00469
2107.55608,0.00425
2105.49590,0.00365
2103.43573,0.00312
2101.37556,0.00305
2099.31539,0.00353
2097.25521,0.00410
2095.19504,0.00450
2093.13487,0.00482
2091.07470,0.00516
2089.01453,0.00537
2086.95435,0.00533
2084.89418,0.00514
2082.83401,0.00488
2080.77384,0.00436
2078.71367,0.00348
2076.65349,0.00254
2074.59332,0.00202
2072.53315,0.00194
2070.47298,0.00200
2068.41281,0.00200
2066.35263,0.00205
2064.29246,0.00230
2062.23229,0.00279
2060.17212,0.00345
2058.11194,0.00415
2056.05177,0.00467
2053.99160,0.00490
2051.93143,0.00491
2049.87126,0.00490
2047.81108,0.00515
2045.75091,0.00578
2043.69074,0.00651
2041.63057,0.00675
2039.57040,0.00616
2037.51022,0.00509
2035.45005,0.00423
2033.38988,0.00406
2031.32971,0.00449
2029.26954,0.00503
2027.20936,0.00540
2025.14919,0.00572
2023.08902,0.00620
2021.02885,0.00663
2018.96867,0.00653
2016.90850,0.00556
2014.84833,0.00378
2012.78816,0.00178
2010.72799,0.00035
2008.66781,0.00000
2006.60764,0.00067
2004.54747,0.00179
2002.48730,0.00258
2000.42713,0.00256
1998.36695,0.00194
1996.30678,0.00148
1994.24661,0.00195
1992.18644,0.00335
1990.12626,0.00497
1988.06609,0.00613
1986.00592,0.00657
1983.94575,0.00634
1981.88558,0.00569
1979.82540,0.00487
1977.76523,0.00392
1975.70506,0.00288
1973.64489,0.00205
1971.58472,0.00172
1969.52454,0.00188
1967.46437,0.00220
1965.40420,0.00223
1963.34403,0.00183
1961.28386,0.00137
1959.22368,0.00124
1957.16351,0.00147
1955.10334,0.00188
1953.04317,0.00216
1950.98299,0.00201
1948.92282,0.00154
1946.86265,0.00121
1944.80248,0.00123
1942.74231,0.00147
1940.68213,0.00171
1938.62196,0.00196
1936.56179,0.00227
1934.50162,0.00251
1932.44145,0.00265
1930.38127,0.00286
1928.32110,0.00321
1926.26093,0.00349
1924.20076,0.00347
1922.14059,0.00310
1920.08041,0.00244
1918.02024,0.00166
1915.96007,0.00104
1913.89990,0.00079
1911.83972,0.00086
1909.77955,0.00110
1907.71938,0.00134
1905.65921,0.00147
1903.59904,0.00149
1901.53886,0.00145
1899.47869,0.00136
1897.41852,0.00123
1895.35835,0.00113
1893.29818,0.00111
1891.23800,0.00115
1889.17783,0.00128
1887.11766,0.00157
1885.05749,0.00198
1882.99731,0.00237
1880.93714,0.00256
1878.87697,0.00255
1876.81680,0.00239
1874.75663,0.00210
1872.69645,0.00168
1870.63628,0.00125
1868.57611,0.00092
1866.51594,0.00069
1864.45577,0.00055
1862.39559,0.00052
1860.33542,0.00063
1858.27525,0.00083
1856.21508,0.00097
1854.15491,0.00098
1852.09473,0.00094
1850.03456,0.00096
1847.97439,0.00106
1845.91422,0.00120
1843.85404,0.00134
1841.79387,0.00148
1839.73370,0.00157
1837.67353,0.00157
1835.61336,0.00155
1833.55318,0.00155
1831.49301,0.00158
1829.43284,0.00161
1827.37267,0.00163
1825.31250,0.00160
1823.25232,0.00150
1821.19215,0.00133
1819.13198,0.00113
1817.07181,0.00094
1815.01163,0.00079
1812.95146,0.00070
1810.89129,0.00068
1808.83112,0.00074
1806.77095,0.00082
1804.71077,0.00086
1802.65060,0.00084
1800.59043,0.00077
1798.53026,0.00065
1796.47009,0.00051
1794.40991,0.00039
1792.34974,0.00036
1790.28957,0.00049
1788.22940,0.00072
1786.16923,0.00093
1784.10905,0.00106
1782.04888,0.00119
1779.98871,0.00134
1777.92854,0.00144
1775.86836,0.00142
1773.80819,0.00129
1771.74802,0.00123
1769.68785,0.00137
1767.62768,0.00163
1765.56750,0.00183
1763.50733,0.00188
1761.44716,0.00191
1759.38699,0.00205
1757.32682,0.00237
1755.26664,0.00280
1753.20647,0.00323
1751.14630,0.00357
1749.08613,0.00385
1747.02596,0.00412
1744.96578,0.00443
1742.90561,0.00474
1740.84544,0.00498
1738.78527,0.00502
1736.72509,0.00483
1734.66492,0.00466
1732.60475,0.00483
1730.54458,0.00538
1728.48441,0.00600
1726.42423,0.00634
1724.36406,0.00632
1722.30389,0.00601
1720.24372,0.00560
1718.18355,0.00522
1716.12337,0.00495
1714.06320,0.00474
1712.00303,0.00451
1709.94286,0.00420
1707.88268,0.00375
1705.82251,0.00318
1703.76234,0.00264
1701.70217,0.00228
1699.64200,0.00214
1697.58182,0.00222
1695.52165,0.00249
1693.46148,0.00282
1691.40131,0.00307
1689.34114,0.00318
1687.28096,0.00325
1685.22079,0.00342
1683.16062,0.00375
1681.10045,0.00415
1679.04028,0.00446
1676.98010,0.00466
1674.91993,0.00485
1672.85976,0.00514
1670.79959,0.00565
1668.73941,0.00639
1666.67924,0.00722
1664.61907,0.00794
1662.55890,0.00844
1660.49873,0.00873
1658.43855,0.00877
1656.37838,0.00862
1654.31821,0.00856
1652.25804,0.00884
1650.19787,0.00933
1648.13769,0.00983
1646.07752,0.01029
1644.01735,0.01070
1641.95718,0.01097
1639.89701,0.01106
1637.83683,0.01106
1635.77666,0.01116
1633.71649,0.01151
1631.65632,0.01197
1629.59614,0.01236
1627.53597,0.01256
1625.47580,0.01259
1623.41563,0.01254
1621.35546,0.01247
1619.29528,0.01238
1617.23511,0.01232
1615.17494,0.01235
1613.11477,0.01238
1611.05460,0.01232
1608.99442,0.01212
1606.93425,0.01181
1604.87408,0.01140
1602.81391,0.01091
1600.75373,0.01039
1598.69356,0.00985
1596.63339,0.00929
1594.57322,0.00870
1592.51305,0.00809
1590.45287,0.00747
1588.39270,0.00684
1586.33253,0.00624
1584.27236,0.00570
1582.21219,0.00519
1580.15201,0.00468
1578.09184,0.00413
1576.03167,0.00361
1573.97150,0.00324
1571.91133,0.00301
1569.85115,0.00281
1567.79098,0.00258
1565.73081,0.00229
1563.67064,0.00188
1561.61046,0.00133
1559.55029,0.00077
1557.49012,0.00051
1555.42995,0.00061
1553.36978,0.00090
1551.30960,0.00119
1549.24943,0.00137
1547.18926,0.00135
1545.12909,0.00107
1543.06892,0.00061
1541.00874,0.00017
1538.94857,0.00000
1536.88840,0.00007
1534.82823,0.00019
1532.76805,0.00026
1530.70788,0.00030
1528.64771,0.00029
1526.58754,0.00022
1524.52737,0.00013
1522.46719,0.00011
1520.40702,0.00018
1518.34685,0.00031
1516.28668,0.00041
1514.22651,0.00041
1512.16633,0.00024
1510.10616,-0.00007
1508.04599,-0.00028
1505.98582,-0.00014
1503.92565,0.00029
1501.86547,0.00071
1499.80530,0.00095
1497.74513,0.00103
1495.68496,0.00106
1493.62478,0.00107
1491.56461,0.00107
1489.50444,0.00114
1487.44427,0.00135
1485.38410,0.00165
1483.32392,0.00194
1481.26375,0.00212
1479.20358,0.00216
1477.14341,0.00216
1475.08324,0.00232
1473.02306,0.00278
1470.96289,0.00343
1468.90272,0.00406
1466.84255,0.00452
1464.78238,0.00480
1462.72220,0.00495
1460.66203,0.00502
1458.60186,0.00518
1456.54169,0.00557
1454.48151,0.00613
1452.42134,0.00659
1450.36117,0.00686
1448.30100,0.00702
1446.24083,0.00719
1444.18065,0.00744
1442.12048,0.00770
1440.06031,0.00789
1438.00014,0.00803
1435.93997,0.00821
1433.87979,0.00848
1431.81962,0.00876
1429.75945,0.00901
1427.69928,0.00924
1425.63910,0.00951
1423.57893,0.00985
1421.51876,0.01018
1419.45859,0.01049
1417.39842,0.01077
1415.33824,0.01094
1413.27807,0.01093
1411.21790,0.01082
1409.15773,0.01069
1407.09756,0.01053
1405.03738,0.01028
1402.97721,0.00992
1400.91704,0.00949
1398.85687,0.00912
1396.79670,0.00894
1394.73652,0.00889
1392.67635,0.00886
1390.61618,0.00878
1388.55601,0.00876
1386.49583,0.00891
1384.43566,0.00924
1382.37549,0.00962
1380.31532,0.00989
1378.25515,0.01000
1376.19497,0.00997
1374.13480,0.00988
1372.07463,0.00988
1370.01446,0.00995
1367.95429,0.01001
1365.89411,0.00995
1363.83394,0.00981
1361.77377,0.00971
1359.71360,0.00967
1357.65343,0.00961
1355.59325,0.00949
1353.53308,0.00933
1351.47291,0.00913
1349.41274,0.00892
1347.35256,0.00871
1345.29239,0.00849
1343.23222,0.00824
1341.17205,0.00799
1339.11188,0.00777
1337.05170,0.00766
1334.99153,0.00769
1332.93136,0.00785
1330.87119,0.00805
1328.81102,0.00823
1326.75084,0.00836
1324.69067,0.00844
1322.63050,0.00848
1320.57033,0.00853
1318.51015,0.00861
1316.44998,0.00870
1314.38981,0.00873
1312.32964,0.00867
1310.26947,0.00854
1308.20929,0.00839
1306.14912,0.00825
1304.08895,0.00812
1302.02878,0.00797
1299.96861,0.00779
1297.90843,0.00760
1295.84826,0.00739
1293.78809,0.00719
1291.72792,0.00706
1289.66775,0.00704
1287.60757,0.00707
1285.54740,0.00708
1283.48723,0.00705
1281.42706,0.00700
1279.36688,0.00703
1277.30671,0.00714
1275.24654,0.00732
1273.18637,0.00752
1271.12620,0.00774
1269.06602,0.00801
1267.00585,0.00837
1264.94568,0.00878
1262.88551,0.00921
1260.82534,0.00961
1258.76516,0.00995
1256.70499,0.01024
1254.64482,0.01044
1252.58465,0.01055
1250.52447,0.01060
1248.46430,0.01064
1246.40413,0.01067
1244.34396,0.01063
1242.28379,0.01047
1240.22361,0.01018
1238.16344,0.00984
1236.10327,0.00958
1234.04310,0.00941
1231.98293,0.00924
1229.92275,0.00899
1227.86258,0.00864
1225.80241,0.00823
1223.74224,0.00783
1221.68207,0.00744
1219.62189,0.00705
1217.56172,0.00664
1215.50155,0.00615
1213.44138,0.00558
1211.38120,0.00496
1209.32103,0.00433
1207.26086,0.00371
1205.20069,0.00313
1203.14052,0.00262
1201.08034,0.00214
1199.02017,0.00166
1196.96000,0.00118
1194.89983,0.00070
1192.83966,0.00025
1190.77948,0.00000
1188.71931,-0.00002
1186.65914,0.00005
1184.59897,0.00008
1182.53880,0.00019
1180.47862,0.00055
1178.41845,0.00113
1176.35828,0.00177
1174.29811,0.00233
1172.23793,0.00287
1170.17776,0.00353
1168.11759,0.00431
1166.05742,0.00510
1163.99725,0.00595
1161.93707,0.00692
1159.87690,0.00782
1157.81673,0.00848
1155.75656,0.00895
1153.69639,0.00934
1151.63621,0.00977
1149.57604,0.01030
1147.51587,0.01080
1145.45570,0.01120
1143.39552,0.01150
1141.33535,0.01170
1139.27518,0.01188
1137.21501,0.01214
1135.15484,0.01246
1133.09466,0.01274
1131.03449,0.01300
1128.97432,0.01340
1126.91415,0.01406
1124.85398,0.01485
1122.79380,0.01552
1120.73363,0.01600
1118.67346,0.01650
1116.61329,0.01717
1114.55312,0.01790
1112.49294,0.01845
1110.43277,0.01880
1108.37260,0.01921
1106.31243,0.01989
1104.25225,0.02087
1102.19208,0.02196
1100.13191,0.02301
1098.07174,0.02397
1096.01157,0.02479
1093.95139,0.02557
1091.89122,0.02658
1089.83105,0.02778
1087.77088,0.02883
1085.71071,0.02945
1083.65053,0.02981
1081.59036,0.03035
1079.53019,0.03125
1077.47002,0.03231
1075.40985,0.03322
1073.34967,0.03388
1071.28950,0.03442
1069.22933,0.03496
1067.16916,0.03535
1065.10898,0.03561
1063.04881,0.03596
1060.98864,0.03645
1058.92847,0.03684
1056.86830,0.03699
1054.80812,0.03718
1052.74795,0.03772
1050.68778,0.03847
1048.62761,0.03913
1046.56744,0.03970
1044.50726,0.04022
1042.44709,0.04061
1040.38692,0.04087
1038.32675,0.04113
1036.26657,0.04158
1034.20640,0.04217
1032.14623,0.04254
1030.08606,0.04252
1028.02589,0.04234
1025.96571,0.04236
1023.90554,0.04272
1021.84537,0.04311
1019.78520,0.04318
1017.72503,0.04304
1015.66485,0.04294
1013.60468,0.04282
1011.54451,0.04262
1009.48434,0.04239
1007.42417,0.04202
1005.36399,0.04142
1003.30382,0.04065
1001.24365,0.03997
999.18348,0.03968
997.12330,0.03966
995.06313,0.03945
993.00296,0.03894
990.94279,0.03828
988.88262,0.03766
986.82244,0.03717
984.76227,0.03676
982.70210,0.03628
980.64193,0.03575
978.58176,0.03528
976.52158,0.03496
974.46141,0.03476
972.40124,0.03444
970.34107,0.03379
968.28089,0.03295
966.22072,0.03212
964.16055,0.03150
962.10038,0.03108
960.04021,0.03062
957.98003,0.03000
955.91986,0.02938
953.85969,0.02901
951.79952,0.02892
949.73935,0.02881
947.67917,0.02832
945.61900,0.02743
943.55883,0.02628
941.49866,0.02486
939.43849,0.02307
937.37831,0.02121
935.31814,0.01976
933.25797,0.01861
931.19780,0.01746
929.13762,0.01623
927.07745,0.01493
925.01728,0.01361
922.95711,0.01246
920.89694,0.01169
918.83676,0.01118
916.77659,0.01052
914.71642,0.00969
912.65625,0.00906
910.59608,0.00873
908.53590,0.00846
906.47573,0.00805
904.41556,0.00750
902.35539,0.00700
900.29522,0.00672
898.23504,0.00688
896.17487,0.00743
894.11470,0.00795
892.05453,0.00796
889.99435,0.00732
887.93418,0.00642
885.87401,0.00569
883.81384,0.00513
881.75367,0.00463
879.69349,0.00431
877.63332,0.00422
875.57315,0.00428
873.51298,0.00430
871.45281,0.00408
869.39263,0.00354
867.33246,0.00290
865.27229,0.00258
863.21212,0.00278
861.15194,0.00310
859.09177,0.00313
857.03160,0.00298
854.97143,0.00295
852.91126,0.00303
850.85108,0.00277
848.79091,0.00214
846.73074,0.00163
844.67057,0.00150
842.61040,0.00149
840.55022,0.00116
838.49005,0.00056
836.42988,0.00024
834.36971,0.00046
832.30954,0.00079
830.24936,0.00077
828.18919,0.00046
826.12902,0.00011
824.06885,0.00011
822.00867,0.00079
819.94850,0.00185
817.88833,0.00251
815.82816,0.00243
813.76799,0.00206
811.70781,0.00185
809.64764,0.00190
807.58747,0.00211
805.52730,0.00207
803.46713,0.00178
801.40695,0.00184
799.34678,0.00209
797.28661,0.00156
795.22644,0.00043
793.16627,0.00000
791.10609,0.00063
789.04592,0.00142
786.98575,0.00168
784.92558,0.00155
782.86540,0.00134
780.80523,0.00119
778.74506,0.00111
776.68489,0.00102
774.62472,0.00086
772.56454,0.00065
770.50437,0.00037
768.44420,0.00012
766.38403,0.00013
764.32386,0.00033
762.26368,0.00049
760.20351,0.00064
758.14334,0.00076
756.08317,0.00092
754.02299,0.00135
751.96282,0.00174
749.90265,0.00161
747.84248,0.00126
745.78231,0.00117
743.72213,0.00126
741.66196,0.00128
739.60179,0.00115
737.54162,0.00096
735.48145,0.00086
733.42127,0.00079
731.36110,0.00045
729.30093,0.00005
727.24076,0.00015
725.18059,0.00092
723.12041,0.00202
721.06024,0.00288
719.00007,0.00322
716.93990,0.00315
714.87972,0.00290
712.81955,0.00268
710.75938,0.00269
708.69921,0.00300
706.63904,0.00345
704.57886,0.00383
702.51869,0.00397
700.45852,0.00386
698.39835,0.00366
696.33818,0.00350
694.27800,0.00344
692.21783,0.00335
690.15766,0.00293
688.09749,0.00206
686.03731,0.00116
683.97714,0.00093
681.91697,0.00153
679.85680,0.00259
677.79663,0.00378
675.73645,0.00493
673.67628,0.00579
671.61611,0.00625
669.55594,0.00634
667.49577,0.00621
665.43559,0.00605
663.37542,0.00596
661.31525,0.00584
659.25508,0.00545
657.19491,0.00462
655.13473,0.00334
653.07456,0.00178
651.01439,0.00045
648.95422,0.00000
646.89404,0.00056
644.83387,0.00218
642.77370,0.00433
640.71353,0.00611
638.65336,0.00676
636.59318,0.00627
634.53301,0.00566
632.47284,0.00586
630.41267,0.00634
628.35250,0.00560
626.29232,0.00336
624.23215,0.00221
622.17198,0.00301
620.11181,0.00456
618.05164,0.00557
615.99146,0.00462
613.93129,0.00230
611.87112,0.00214
609.81095,0.00468
607.75077,0.00592
605.69060,0.00396
603.63043,0.00097
601.57026,-0.00049
599.51009,0.00000
