3996.73391,0.00056
3994.67373,0.00028
3992.61356,0.00012
3990.55339,0.00017
3988.49322,0.00040
3986.43305,0.00073
3984.37287,0.00105
3982.31270,0.00126
3980.25253,0.00132
3978.19236,0.00123
3976.13219,0.00102
3974.07201,0.00076
3972.01184,0.00055
3969.95167,0.00039
3967.89150,0.00023
3965.83133,0.00006
3963.77115,0.00000
3961.71098,0.00004
3959.65081,0.00009
3957.59064,0.00012
3955.53046,0.00022
3953.47029,0.00048
3951.41012,0.00082
3949.34995,0.00104
3947.28978,0.00103
3945.22960,0.00089
3943.16943,0.00082
3941.10926,0.00095
3939.04909,0.00117
3936.98892,0.00134
3934.92874,0.00138
3932.86857,0.00132
3930.80840,0.00128
3928.74823,0.00131
3926.68805,0.00146
3924.62788,0.00165
3922.56771,0.00173
3920.50754,0.00160
3918.44737,0.00129
3916.38719,0.00093
3914.32702,0.00066
3912.26685,0.00049
3910.20668,0.00041
3908.14651,0.00037
3906.08633,0.00043
3904.02616,0.00075
3901.96599,0.00128
3899.90582,0.00171
3897.84565,0.00181
3895.78547,0.00165
3893.72530,0.00143
3891.66513,0.00137
3889.60496,0.00154
3887.54478,0.00176
3885.48461,0.00185
3883.42444,0.00179
3881.36427,0.00171
3879.30410,0.00174
3877.24392,0.00188
3875.18375,0.00191
3873.12358,0.00166
3871.06341,0.00114
3869.00324,0.00066
3866.94306,0.00050
3864.88289,0.00069
3862.82272,0.00109
3860.76255,0.00145
3858.70237,0.00156
3856.64220,0.00147
3854.58203,0.00135
3852.52186,0.00137
3850.46169,0.00157
3848.40151,0.00188
3846.34134,0.00216
3844.28117,0.00225
3842.22100,0.00220
3840.16083,0.00219
3838.10065,0.00230
3836.04048,0.00244
3833.98031,0.00248
3831.92014,0.00232
3829.85997,0.00192
3827.79979,0.00136
3825.73962,0.00077
3823.67945,0.00028
3821.61928,0.00000
3819.55910,0.00002
3817.49893,0.00036
3815.43876,0.00088
3813.37859,0.00135
3811.31842,0.00152
3809.25824,0.00132
3807.19807,0.00094
3805.13790,0.00070
3803.07773,0.00077
3801.01756,0.00112
3798.95738,0.00157
3796.89721,0.00203
3794.83704,0.00242
3792.77687,0.00264
3790.71670,0.00263
3788.65652,0.00250
3786.59635,0.00233
3784.53618,0.00217
3782.47601,0.00207
3780.41583,0.00214
3778.35566,0.00235
3776.29549,0.00256
3774.23532,0.00264
3772.17515,0.00260
3770.11497,0.00252
3768.05480,0.00249
3765.99463,0.00256
3763.93446,0.00266
3761.87429,0.00269
3759.81411,0.00258
3757.75394,0.00229
3755.69377,0.00180
3753.63360,0.00129
3751.57342,0.00117
3749.51325,0.00166
3747.45308,0.00245
3745.39291,0.00305
3743.33274,0.00330
3741.27256,0.00327
3739.21239,0.00305
3737.15222,0.00273
3735.09205,0.00256
3733.03188,0.00265
3730.97170,0.00279
3728.91153,0.00278
3726.85136,0.00265
3724.79119,0.00254
3722.73102,0.00249
3720.67084,0.00248
3718.61067,0.00246
3716.55050,0.00242
3714.49033,0.00236
3712.43015,0.00232
3710.36998,0.00231
3708.30981,0.00231
3706.24964,0.00228
3704.18947,0.00220
3702.12929,0.00212
3700.06912,0.00212
3698.00895,0.00222
3695.94878,0.00229
3693.88861,0.00216
3691.82843,0.00190
3689.76826,0.00176
3687.70809,0.00189
3685.64792,0.00220
3683.58775,0.00248
3681.52757,0.00258
3679.46740,0.00248
3677.40723,0.00227
3675.34706,0.00198
3673.28688,0.00161
3671.22671,0.00133
3669.16654,0.00141
3667.10637,0.00192
3665.04620,0.00258
3662.98602,0.00308
3660.92585,0.00330
3658.86568,0.00318
3656.80551,0.00273
3654.74534,0.00206
3652.68516,0.00135
3650.62499,0.00086
3648.56482,0.00083
3646.50465,0.00119
3644.44447,0.00166
3642.38430,0.00206
3640.32413,0.00240
3638.26396,0.00271
3636.20379,0.00299
3634.14361,0.00318
3632.08344,0.00335
3630.02327,0.00358
3627.96310,0.00385
3625.90293,0.00402
3623.84275,0.00395
3621.78258,0.00359
3619.72241,0.00308
3617.66224,0.00259
3615.60207,0.00224
3613.54189,0.00207
3611.48172,0.00213
3609.42155,0.00245
3607.36138,0.00286
3605.30120,0.00324
3603.24103,0.00357
3601.18086,0.00378
3599.12069,0.00383
3597.06052,0.00379
3595.00034,0.00378
3592.94017,0.00383
3590.88000,0.00389
3588.81983,0.00391
3586.75966,0.00388
3584.69948,0.00389
3582.63931,0.00390
3580.57914,0.00386
3578.51897,0.00376
3576.45879,0.00373
3574.39862,0.00385
3572.33845,0.00416
3570.27828,0.00455
3568.21811,0.00486
3566.15793,0.00494
3564.09776,0.00482
3562.03759,0.00465
3559.97742,0.00455
3557.91725,0.00450
3555.85707,0.00441
3553.79690,0.00433
3551.73673,0.00438
3549.67656,0.00455
3547.61639,0.00473
3545.55621,0.00485
3543.49604,0.00497
3541.43587,0.00511
3539.37570,0.00520
3537.31552,0.00512
3535.25535,0.00492
3533.19518,0.00479
3531.13501,0.00483
3529.07484,0.00500
3527.01466,0.00519
3524.95449,0.00541
3522.89432,0.00568
3520.83415,0.00601
3518.77398,0.00629
3516.71380,0.00636
3514.65363,0.00617
3512.59346,0.00581
3510.53329,0.00549
3508.47312,0.00540
3506.41294,0.00556
3504.35277,0.00584
3502.29260,0.00606
3500.23243,0.00615
3498.17225,0.00613
3496.11208,0.00607
3494.05191,0.00597
3491.99174,0.00583
3489.93157,0.00573
3487.87139,0.00582
3485.81122,0.00616
3483.75105,0.00665
3481.69088,0.00716
3479.63071,0.00755
3477.57053,0.00770
3475.51036,0.00762
3473.45019,0.00740
3471.39002,0.00718
3469.32984,0.00712
3467.26967,0.00729
3465.20950,0.00764
3463.14933,0.00801
3461.08916,0.00823
3459.02898,0.00826
3456.96881,0.00812
3454.90864,0.00787
3452.84847,0.00761
3450.78830,0.00740
3448.72812,0.00725
3446.66795,0.00719
3444.60778,0.00723
3442.54761,0.00736
3440.48744,0.00749
3438.42726,0.00754
3436.36709,0.00749
3434.30692,0.00741
3432.24675,0.00739
3430.18657,0.00744
3428.12640,0.00750
3426.06623,0.00750
3424.00606,0.00750
3421.94589,0.00756
3419.88571,0.00769
3417.82554,0.00787
3415.76537,0.00809
3413.70520,0.00826
3411.64503,0.00827
3409.58485,0.00812
3407.52468,0.00799
3405.46451,0.00802
3403.40434,0.00814
3401.34416,0.00825
3399.28399,0.00826
3397.22382,0.00817
3395.16365,0.00803
3393.10348,0.00794
3391.04330,0.00794
3388.98313,0.00800
3386.92296,0.00805
3384.86279,0.00813
3382.80262,0.00829
3380.74244,0.00850
3378.68227,0.00862
3376.62210,0.00859
3374.56193,0.00843
3372.50176,0.00822
3370.44158,0.00809
3368.38141,0.00815
3366.32124,0.00840
3364.26107,0.00872
3362.20089,0.00898
3360.14072,0.00913
3358.08055,0.00918
3356.02038,0.00915
3353.96021,0.00909
3351.90003,0.00904
3349.83986,0.00901
3347.77969,0.00899
3345.71952,0.00896
3343.65935,0.00893
3341.59917,0.00889
3339.53900,0.00883
3337.47883,0.00874
3335.41866,0.00868
3333.35849,0.00870
3331.29831,0.00883
3329.23814,0.00902
3327.17797,0.00915
3325.11780,0.00911
3323.05762,0.00892
3320.99745,0.00873
3318.93728,0.00877
3316.87711,0.00907
3314.81694,0.00939
3312.75676,0.00951
3310.69659,0.00940
3308.63642,0.00924
3306.57625,0.00921
3304.51608,0.00937
3302.45590,0.00956
3300.39573,0.00963
3298.33556,0.00959
3296.27539,0.00953
3294.21521,0.00952
3292.15504,0.00957
3290.09487,0.00961
3288.03470,0.00957
3285.97453,0.00942
3283.91435,0.00932
3281.85418,0.00937
3279.79401,0.00947
3277.73384,0.00952
3275.67367,0.00949
3273.61349,0.00941
3271.55332,0.00933
3269.49315,0.00933
3267.43298,0.00946
3265.37281,0.00967
3263.31263,0.00983
3261.25246,0.00984
3259.19229,0.00972
3257.13212,0.00957
3255.07194,0.00950
3253.01177,0.00957
3250.95160,0.00977
3248.89143,0.00996
3246.83126,0.01002
3244.77108,0.00989
3242.71091,0.00970
3240.65074,0.00956
3238.59057,0.00953
3236.53040,0.00954
3234.47022,0.00952
3232.41005,0.00945
3230.34988,0.00937
3228.28971,0.00931
3226.22954,0.00929
3224.16936,0.00936
3222.10919,0.00952
3220.04902,0.00970
3217.98885,0.00978
3215.92867,0.00968
3213.86850,0.00947
3211.80833,0.00927
3209.74816,0.00917
3207.68799,0.00911
3205.62781,0.00901
3203.56764,0.00890
3201.50747,0.00890
3199.44730,0.00906
3197.38713,0.00932
3195.32695,0.00955
3193.26678,0.00964
3191.20661,0.00961
3189.14644,0.00953
3187.08626,0.00944
3185.02609,0.00933
3182.96592,0.00922
3180.90575,0.00909
3178.84558,0.00894
3176.78540,0.00881
3174.72523,0.00874
3172.66506,0.00871
3170.60489,0.00864
3168.54472,0.00852
3166.48454,0.00838
3164.42437,0.00827
3162.36420,0.00821
3160.30403,0.00823
3158.24386,0.00833
3156.18368,0.00842
3154.12351,0.00838
3152.06334,0.00817
3150.00317,0.00792
3147.94299,0.00776
3145.88282,0.00776
3143.82265,0.00784
3141.76248,0.00786
3139.70231,0.00777
3137.64213,0.00765
3135.58196,0.00755
3133.52179,0.00750
3131.46162,0.00748
3129.40145,0.00749
3127.34127,0.00750
3125.28110,0.00747
3123.22093,0.00740
3121.16076,0.00730
3119.10058,0.00716
3117.04041,0.00701
3114.98024,0.00697
3112.92007,0.00710
3110.85990,0.00737
3108.79972,0.00765
3106.73955,0.00783
3104.67938,0.00787
3102.61921,0.00783
3100.55904,0.00781
3098.49886,0.00785
3096.43869,0.00790
3094.37852,0.00784
3092.31835,0.00768
3090.25818,0.00748
3088.19800,0.00723
3086.13783,0.00691
3084.07766,0.00658
3082.01749,0.00635
3079.95731,0.00625
3077.89714,0.00622
3075.83697,0.00624
3073.77680,0.00631
3071.71663,0.00641
3069.65645,0.00654
3067.59628,0.00670
3065.53611,0.00686
3063.47594,0.00699
3061.41577,0.00702
3059.35559,0.00696
3057.29542,0.00685
3055.23525,0.00674
3053.17508,0.00665
3051.11491,0.00657
3049.05473,0.00648
3046.99456,0.00640
3044.93439,0.00635
3042.87422,0.00636
3040.81404,0.00643
3038.75387,0.00651
3036.69370,0.00656
3034.63353,0.00657
3032.57336,0.00657
3030.51318,0.00655
3028.45301,0.00649
3026.39284,0.00639
3024.33267,0.00630
3022.27250,0.00625
3020.21232,0.00627
3018.15215,0.00635
3016.09198,0.00646
3014.03181,0.00650
3011.97163,0.00641
3009.91146,0.00622
3007.85129,0.00605
3005.79112,0.00600
3003.73095,0.00607
3001.67077,0.00618
2999.61060,0.00619
2997.55043,0.00608
2995.49026,0.00615
2993.43009,0.00651
2991.36991,0.00688
2989.30974,0.00693
2987.24957,0.00656
2985.18940,0.00613
2983.12923,0.00606
2981.06905,0.00627
2979.00888,0.00642
2976.94871,0.00633
2974.88854,0.00611
2972.82836,0.00594
2970.76819,0.00588
2968.70802,0.00601
2966.64785,0.00637
2964.58768,0.00678
2962.52750,0.00698
2960.46733,0.00695
2958.40716,0.00685
2956.34699,0.00675
2954.28682,0.00660
2952.22664,0.00638
2950.16647,0.00631
2948.10630,0.00655
2946.04613,0.00685
2943.98596,0.00695
2941.92578,0.00705
2939.86561,0.00732
2937.80544,0.00757
2935.74527,0.00762
2933.68509,0.00753
2931.62492,0.00753
2929.56475,0.00765
2927.50458,0.00766
2925.44441,0.00736
2923.38423,0.00699
2921.32406,0.00696
2919.26389,0.00731
2917.20372,0.00764
2915.14355,0.00767
2913.08337,0.00742
2911.02320,0.00704
2908.96303,0.00669
2906.90286,0.00660
2904.84268,0.00681
2902.78251,0.00713
2900.72234,0.00734
2898.66217,0.00725
2896.60200,0.00705
2894.54182,0.00699
2892.48165,0.00700
2890.42148,0.00691
2888.36131,0.00666
2886.30114,0.00641
2884.24096,0.00641
2882.18079,0.00660
2880.12062,0.00682
2878.06045,0.00705
2876.00028,0.00727
2873.94010,0.00734
2871.87993,0.00722
2869.81976,0.00703
2867.75959,0.00686
2865.69941,0.00671
2863.63924,0.00665
2861.57907,0.00662
2859.51890,0.00649
2857.45873,0.00629
2855.39855,0.00625
2853.33838,0.00643
2851.27821,0.00655
2849.21804,0.00650
2847.15787,0.00649
2845.09769,0.00652
2843.03752,0.00642
2840.97735,0.00618
2838.91718,0.00597
2836.85700,0.00589
2834.79683,0.00586
2832.73666,0.00584
2830.67649,0.00591
2828.61632,0.00609
2826.55614,0.00630
2824.49597,0.00649
2822.43580,0.00658
2820.37563,0.00643
2818.31546,0.00608
2816.25528,0.00583
2814.19511,0.00594
2812.13494,0.00621
2810.07477,0.00636
2808.01460,0.00635
2805.95442,0.00622
2803.89425,0.00611
2801.83408,0.00617
2799.77391,0.00624
2797.71373,0.00616
2795.65356,0.00596
2793.59339,0.00583
2791.53322,0.00583
2789.47305,0.00588
2787.41287,0.00603
2785.35270,0.00624
2783.29253,0.00635
2781.23236,0.00632
2779.17219,0.00626
2777.11201,0.00618
2775.05184,0.00600
2772.99167,0.00578
2770.93150,0.00572
2768.87133,0.00576
2766.81115,0.00565
2764.75098,0.00551
2762.69081,0.00556
2760.63064,0.00576
2758.57046,0.00593
2756.51029,0.00598
2754.45012,0.00597
2752.38995,0.00597
2750.32978,0.00602
2748.26960,0.00608
2746.20943,0.00610
2744.14926,0.00606
2742.08909,0.00596
2740.02892,0.00587
2737.96874,0.00589
2735.90857,0.00599
2733.84840,0.00609
2731.78823,0.00612
2729.72805,0.00612
2727.66788,0.00613
2725.60771,0.00616
2723.54754,0.00621
2721.48737,0.00627
2719.42719,0.00626
2717.36702,0.00614
2715.30685,0.00601
2713.24668,0.00599
2711.18651,0.00599
2709.12633,0.00587
2707.06616,0.00576
2705.00599,0.00588
2702.94582,0.00620
2700.88565,0.00650
2698.82547,0.00666
2696.76530,0.00661
2694.70513,0.00635
2692.64496,0.00614
2690.58478,0.00616
2688.52461,0.00630
2686.46444,0.00633
2684.40427,0.00625
2682.34410,0.00624
2680.28392,0.00632
2678.22375,0.00627
2676.16358,0.00611
2674.10341,0.00610
2672.04324,0.00629
2669.98306,0.00645
2667.92289,0.00642
2665.86272,0.00628
2663.80255,0.00610
2661.74238,0.00596
2659.68220,0.00596
2657.62203,0.00616
2655.56186,0.00644
2653.50169,0.00665
2651.44151,0.00670
2649.38134,0.00657
2647.32117,0.00633
2645.26100,0.00619
2643.20083,0.00624
2641.14065,0.00639
2639.08048,0.00643
2637.02031,0.00634
2634.96014,0.00622
2632.89997,0.00616
2630.83979,0.00620
2628.77962,0.00640
2626.71945,0.00669
2624.65928,0.00685
2622.59910,0.00681
2620.53893,0.00666
2618.47876,0.00655
2616.41859,0.00655
2614.35842,0.00650
2612.29824,0.00616
2610.23807,0.00557
2608.17790,0.00513
2606.11773,0.00515
2604.05756,0.00557
2601.99738,0.00598
2599.93721,0.00613
2597.87704,0.00608
2595.81687,0.00597
2593.75670,0.00608
2591.69652,0.00660
2589.63635,0.00710
2587.57618,0.00706
2585.51601,0.00655
2583.45583,0.00594
2581.39566,0.00572
2579.33549,0.00601
2577.27532,0.00630
2575.21515,0.00616
2573.15497,0.00581
2571.09480,0.00570
2569.03463,0.00590
2566.97446,0.00608
2564.91429,0.00608
2562.85411,0.00602
2560.79394,0.00598
2558.73377,0.00593
2556.67360,0.00598
2554.61342,0.00630
2552.55325,0.00673
2550.49308,0.00692
2548.43291,0.00682
2546.37274,0.00653
2544.31256,0.00607
2542.25239,0.00546
2540.19222,0.00497
2538.13205,0.00496
2536.07188,0.00528
2534.01170,0.00551
2531.95153,0.00561
2529.89136,0.00578
2527.83119,0.00578
2525.77102,0.00546
2523.71084,0.00520
2521.65067,0.00544
2519.59050,0.00595
2517.53033,0.00617
2515.47015,0.00601
2513.40998,0.00601
2511.34981,0.00651
2509.28964,0.00709
2507.22947,0.00716
2505.16929,0.00663
2503.10912,0.00604
2501.04895,0.00581
2498.98878,0.00570
2496.92861,0.00541
2494.86843,0.00517
2492.80826,0.00536
2490.74809,0.00592
2488.68792,0.00647
2486.62775,0.00676
2484.56757,0.00691
2482.50740,0.00695
2480.44723,0.00678
2478.38706,0.00649
2476.32688,0.00633
2474.26671,0.00645
2472.20654,0.00660
2470.14637,0.00637
2468.08620,0.00593
2466.02602,0.00580
2463.96585,0.00601
2461.90568,0.00613
2459.84551,0.00600
2457.78534,0.00590
2455.72516,0.00604
2453.66499,0.00633
2451.60482,0.00653
2449.54465,0.00649
2447.48447,0.00623
2445.42430,0.00592
2443.36413,0.00569
2441.30396,0.00554
2439.24379,0.00556
2437.18361,0.00582
2435.12344,0.00597
2433.06327,0.00561
2431.00310,0.00500
2428.94293,0.00483
2426.88275,0.00526
2424.82258,0.00580
2422.76241,0.00606
2420.70224,0.00605
2418.64207,0.00604
2416.58189,0.00616
2414.52172,0.00624
2412.46155,0.00603
2410.40138,0.00571
2408.34120,0.00556
2406.28103,0.00569
2404.22086,0.00602
2402.16069,0.00638
2400.10052,0.00661
2398.04034,0.00665
2395.98017,0.00653
2393.92000,0.00632
2391.85983,0.00608
2389.79966,0.00589
2387.73948,0.00583
2385.67931,0.00591
2383.61914,0.00603
2381.55897,0.00607
2379.49880,0.00598
2377.43862,0.00578
2375.37845,0.00549
2373.31828,0.00522
2371.25811,0.00516
2369.19793,0.00539
2367.13776,0.00559
2365.07759,0.00524
2363.01742,0.00455
2360.95725,0.00459
2358.89707,0.00574
2356.83690,0.00729
2354.77673,0.00851
2352.71656,0.00890
2350.65639,0.00817
2348.59621,0.00668
2346.53604,0.00525
2344.47587,0.00454
2342.41570,0.00466
2340.35552,0.00511
2338.29535,0.00541
2336.23518,0.00566
2334.17501,0.00632
2332.11484,0.00737
2330.05466,0.00826
2327.99449,0.00866
2325.93432,0.00859
2323.87415,0.00819
2321.81398,0.00763
2319.75380,0.00702
2317.69363,0.00644
2315.63346,0.00604
2313.57329,0.00599
2311.51312,0.00620
2309.45294,0.00649
2307.39277,0.00674
2305.33260,0.00693
2303.27243,0.00699
2301.21225,0.00688
2299.15208,0.00667
2297.09191,0.00659
2295.03174,0.00680
2292.97157,0.00717
2290.91139,0.00744
2288.85122,0.00753
2286.79105,0.00752
2284.73088,0.00744
2282.67071,0.00718
2280.61053,0.00674
2278.55036,0.00623
2276.49019,0.00583
2274.43002,0.00564
2272.36984,0.00569
2270.30967,0.00593
2268.24950,0.00629
2266.18933,0.00658
2264.12916,0.00671
2262.06898,0.00673
2260.00881,0.00670
2257.94864,0.00658
2255.88847,0.00641
2253.82830,0.00632
2251.76812,0.00641
2249.70795,0.00656
2247.64778,0.00657
2245.58761,0.00649
2243.52744,0.00656
2241.46726,0.00669
2239.40709,0.00670
2237.34692,0.00679
2235.28675,0.00734
2233.22657,0.00807
2231.16640,0.00809
2229.10623,0.00714
2227.04606,0.00609
2224.98589,0.00579
2222.92571,0.00587
2220.86554,0.00528
2218.80537,0.00469
2216.74520,0.00537
2214.68503,0.00650
2212.62485,0.00666
2210.56468,0.00594
2208.50451,0.00527
2206.44434,0.00530
2204.38417,0.00600
2202.32399,0.00658
2200.26382,0.00636
2198.20365,0.00585
2196.14348,0.00566
2194.08330,0.00527
2192.02313,0.00448
2189.96296,0.00437
2187.90279,0.00514
2185.84262,0.00581
2183.78244,0.00644
2181.72227,0.00747
2179.66210,0.00801
2177.60193,0.00711
2175.54176,0.00543
2173.48158,0.00434
2171.42141,0.00453
2169.36124,0.00592
2167.30107,0.00720
2165.24089,0.00688
2163.18072,0.00514
2161.12055,0.00278
2159.06038,0.00060
2157.00021,0.00000
2154.94003,0.00143
2152.87986,0.00321
2150.81969,0.00381
2148.75952,0.00432
2146.69935,0.00618
2144.63917,0.00827
2142.57900,0.00884
2140.51883,0.00807
2138.45866,0.00656
2136.39849,0.00470
2134.33831,0.00385
2132.27814,0.00448
2130.21797,0.00539
2128.15780,0.00579
2126.09762,0.00576
2124.03745,0.00544
2121.97728,0.00502
2119.91711,0.00487
2117.85694,0.00537
2115.79676,0.00652
2113.73659,0.00761
2111.67642,0.00772
2109.61625,0.00676
2107.55608,0.00544
2105.49590,0.00446
2103.43573,0.00404
2101.37556,0.00404
2099.31539,0.00422
2097.25521,0.00454
2095.19504,0.00507
2093.13487,0.00584
2091.07470,0.00657
2089.01453,0.00688
2086.95435,0.00673
2084.89418,0.00644
2082.83401,0.00634
2080.77384,0.00636
2078.71367,0.00619
2076.65349,0.00577
2074.59332,0.00539
2072.53315,0.00538
2070.47298,0.00566
2068.41281,0.00587
2066.35263,0.00582
2064.29246,0.00568
2062.23229,0.00572
2060.17212,0.00600
2058.11194,0.00647
2056.05177,0.00707
2053.99160,0.00752
2051.93143,0.00743
2049.87126,0.00666
2047.81108,0.00566
2045.75091,0.00508
2043.69074,0.00525
2041.63057,0.00585
2039.57040,0.00614
2037.51022,0.00572
2035.45005,0.00486
2033.38988,0.00423
2031.32971,0.00434
2029.26954,0.00523
2027.20936,0.00651
2025.14919,0.00765
2023.08902,0.00830
2021.02885,0.00837
2018.96867,0.00792
2016.90850,0.00692
2014.84833,0.00547
2012.78816,0.00420
2010.72799,0.00373
2008.66781,0.00409
2006.60764,0.00486
2004.54747,0.00560
2002.48730,0.00592
2000.42713,0.00548
1998.36695,0.00445
1996.30678,0.00372
1994.24661,0.00410
1992.18644,0.00546
1990.12626,0.00706
1988.06609,0.00816
1986.00592,0.00840
1983.94575,0.00788
1981.88558,0.00691
1979.82540,0.00574
1977.76523,0.00445
1975.70506,0.00348
1973.64489,0.00333
1971.58472,0.00398
1969.52454,0.00484
1967.46437,0.00530
1965.40420,0.00504
1963.34403,0.00416
1961.28386,0.00313
1959.22368,0.00250
1957.16351,0.00257
1955.10334,0.00317
1953.04317,0.00371
1950.98299,0.00373
1948.92282,0.00341
1946.86265,0.00325
1944.80248,0.00342
1942.74231,0.00372
1940.68213,0.00402
1938.62196,0.00432
1936.56179,0.00449
1934.50162,0.00438
1932.44145,0.00417
1930.38127,0.00417
1928.32110,0.00441
1926.26093,0.00453
1924.20076,0.00434
1922.14059,0.00400
1920.08041,0.00367
1918.02024,0.00345
1915.96007,0.00341
1913.89990,0.00347
1911.83972,0.00349
1909.77955,0.00349
1907.71938,0.00345
1905.65921,0.00330
1903.59904,0.00310
1901.53886,0.00296
1899.47869,0.00294
1897.41852,0.00310
1895.35835,0.00339
1893.29818,0.00363
1891.23800,0.00366
1889.17783,0.00347
1887.11766,0.00324
1885.05749,0.00318
1882.99731,0.00336
1880.93714,0.00366
1878.87697,0.00387
1876.81680,0.00389
1874.75663,0.00378
1872.69645,0.00360
1870.63628,0.00330
1868.57611,0.00290
1866.51594,0.00256
1864.45577,0.00243
1862.39559,0.00249
1860.33542,0.00262
1858.27525,0.00273
1856.21508,0.00279
1854.15491,0.00278
1852.09473,0.00278
1850.03456,0.00286
1847.97439,0.00298
1845.91422,0.00309
1843.85404,0.00318
1841.79387,0.00331
1839.73370,0.00344
1837.67353,0.00350
1835.61336,0.00346
1833.55318,0.00339
1831.49301,0.00330
1829.43284,0.00325
1827.37267,0.00324
1825.31250,0.00319
1823.25232,0.00305
1821.19215,0.00286
1819.13198,0.00272
1817.07181,0.00264
1815.01163,0.00260
1812.95146,0.00259
1810.89129,0.00269
1808.83112,0.00286
1806.77095,0.00298
1804.71077,0.00293
1802.65060,0.00272
1800.59043,0.00246
1798.53026,0.00226
1796.47009,0.00221
1794.40991,0.00231
1792.34974,0.00248
1790.28957,0.00261
1788.22940,0.00262
1786.16923,0.00252
1784.10905,0.00242
1782.04888,0.00244
1779.98871,0.00257
1777.92854,0.00273
1775.86836,0.00283
1773.80819,0.00286
1771.74802,0.00287
1769.68785,0.00289
1767.62768,0.00295
1765.56750,0.00299
1763.50733,0.00291
1761.44716,0.00270
1759.38699,0.00247
1757.32682,0.00231
1755.26664,0.00235
1753.20647,0.00260
1751.14630,0.00297
1749.08613,0.00335
1747.02596,0.00363
1744.96578,0.00378
1742.90561,0.00378
1740.84544,0.00363
1738.78527,0.00333
1736.72509,0.00293
1734.66492,0.00261
1732.60475,0.00267
1730.54458,0.00320
1728.48441,0.00391
1726.42423,0.00442
1724.36406,0.00453
1722.30389,0.00423
1720.24372,0.00373
1718.18355,0.00329
1716.12337,0.00312
1714.06320,0.00317
1712.00303,0.00327
1709.94286,0.00326
1707.88268,0.00305
1705.82251,0.00271
1703.76234,0.00237
1701.70217,0.00210
1699.64200,0.00195
1697.58182,0.00200
1695.52165,0.00227
1693.46148,0.00262
1691.40131,0.00285
1689.34114,0.00288
1687.28096,0.00269
1685.22079,0.00241
1683.16062,0.00225
1681.10045,0.00234
1679.04028,0.00259
1676.98010,0.00278
1674.91993,0.00283
1672.85976,0.00281
1670.79959,0.00288
1668.73941,0.00321
1666.67924,0.00373
1664.61907,0.00422
1662.55890,0.00456
1660.49873,0.00468
1658.43855,0.00450
1656.37838,0.00406
1654.31821,0.00357
1652.25804,0.00341
1650.19787,0.00366
1648.13769,0.00411
1646.07752,0.00462
1644.01735,0.00503
1641.95718,0.00522
1639.89701,0.00515
1637.83683,0.00493
1635.77666,0.00476
1633.71649,0.00487
1631.65632,0.00517
1629.59614,0.00540
1627.53597,0.00544
1625.47580,0.00535
1623.41563,0.00528
1621.35546,0.00530
1619.29528,0.00536
1617.23511,0.00540
1615.17494,0.00544
1613.11477,0.00547
1611.05460,0.00543
1608.99442,0.00532
1606.93425,0.00516
1604.87408,0.00501
1602.81391,0.00490
1600.75373,0.00487
1598.69356,0.00485
1596.63339,0.00473
1594.57322,0.00444
1592.51305,0.00405
1590.45287,0.00368
1588.39270,0.00338
1586.33253,0.00315
1584.27236,0.00295
1582.21219,0.00274
1580.15201,0.00248
1578.09184,0.00222
1576.03167,0.00206
1573.97150,0.00204
1571.91133,0.00206
1569.85115,0.00201
1567.79098,0.00185
1565.73081,0.00158
1563.67064,0.00120
1561.61046,0.00070
1559.55029,0.00021
1557.49012,0.00000
1555.42995,0.00016
1553.36978,0.00056
1551.30960,0.00101
1549.24943,0.00133
1547.18926,0.00135
1545.12909,0.00101
1543.06892,0.00047
1541.00874,0.00007
1538.94857,0.00008
1536.88840,0.00042
1534.82823,0.00074
1532.76805,0.00090
1530.70788,0.00093
1528.64771,0.00088
1526.58754,0.00078
1524.52737,0.00066
1522.46719,0.00059
1520.40702,0.00066
1518.34685,0.00082
1516.28668,0.00096
1514.22651,0.00098
1512.16633,0.00086
1510.10616,0.00067
1508.04599,0.00058
1505.98582,0.00071
1503.92565,0.00092
1501.86547,0.00101
1499.80530,0.00099
1497.74513,0.00099
1495.68496,0.00105
1493.62478,0.00106
1491.56461,0.00099
1489.50444,0.00098
1487.44427,0.00116
1485.38410,0.00146
1483.32392,0.00169
1481.26375,0.00172
1479.20358,0.00158
1477.14341,0.00143
1475.08324,0.00144
1473.02306,0.00168
1470.96289,0.00201
1468.90272,0.00225
1466.84255,0.00231
1464.78238,0.00225
1462.72220,0.00214
1460.66203,0.00202
1458.60186,0.00198
1456.54169,0.00212
1454.48151,0.00241
1452.42134,0.00269
1450.36117,0.00290
1448.30100,0.00306
1446.24083,0.00323
1444.18065,0.00342
1442.12048,0.00354
1440.06031,0.00354
1438.00014,0.00348
1435.93997,0.00349
1433.87979,0.00365
1431.81962,0.00390
1429.75945,0.00410
1427.69928,0.00417
1425.63910,0.00415
1423.57893,0.00408
1421.51876,0.00405
1419.45859,0.00412
1417.39842,0.00429
1415.33824,0.00444
1413.27807,0.00452
1411.21790,0.00454
1409.15773,0.00452
1407.09756,0.00445
1405.03738,0.00432
1402.97721,0.00415
1400.91704,0.00395
1398.85687,0.00376
1396.79670,0.00364
1394.73652,0.00362
1392.67635,0.00362
1390.61618,0.00358
1388.55601,0.00350
1386.49583,0.00346
1384.43566,0.00352
1382.37549,0.00367
1380.31532,0.00384
1378.25515,0.00392
1376.19497,0.00387
1374.13480,0.00381
1372.07463,0.00387
1370.01446,0.00407
1367.95429,0.00428
1365.89411,0.00440
1363.83394,0.00438
1361.77377,0.00427
1359.71360,0.00412
1357.65343,0.00395
1355.59325,0.00384
1353.53308,0.00380
1351.47291,0.00379
1349.41274,0.00373
1347.35256,0.00358
1345.29239,0.00338
1343.23222,0.00320
1341.17205,0.00309
1339.11188,0.00306
1337.05170,0.00309
1334.99153,0.00316
1332.93136,0.00327
1330.87119,0.00337
1328.81102,0.00344
1326.75084,0.00346
1324.69067,0.00347
1322.63050,0.00350
1320.57033,0.00353
1318.51015,0.00355
1316.44998,0.00353
1314.38981,0.00345
1312.32964,0.00332
1310.26947,0.00322
1308.20929,0.00321
1306.14912,0.00325
1304.08895,0.00327
1302.02878,0.00325
1299.96861,0.00320
1297.90843,0.00312
1295.84826,0.00299
1293.78809,0.00285
1291.72792,0.00278
1289.66775,0.00283
1287.60757,0.00294
1285.54740,0.00303
1283.48723,0.00302
1281.42706,0.00292
1279.36688,0.00282
1277.30671,0.00277
1275.24654,0.00283
1273.18637,0.00297
1271.12620,0.00316
1269.06602,0.00335
1267.00585,0.00349
1264.94568,0.00358
1262.88551,0.00361
1260.82534,0.00363
1258.76516,0.00371
1256.70499,0.00388
1254.64482,0.00410
1252.58465,0.00430
1250.52447,0.00439
1248.46430,0.00433
1246.40413,0.00419
1244.34396,0.00400
1242.28379,0.00382
1240.22361,0.00367
1238.16344,0.00359
1236.10327,0.00358
1234.04310,0.00360
1231.98293,0.00360
1229.92275,0.00356
1227.86258,0.00344
1225.80241,0.00327
1223.74224,0.00312
1221.68207,0.00300
1219.62189,0.00286
1217.56172,0.00262
1215.50155,0.00227
1213.44138,0.00188
1211.38120,0.00156
1209.32103,0.00133
1207.26086,0.00120
1205.20069,0.00115
1203.14052,0.00114
1201.08034,0.00106
1199.02017,0.00084
1196.96000,0.00048
1194.89983,0.00016
1192.83966,0.00000
1190.77948,0.00002
1188.71931,0.00007
1186.65914,-0.00001
1184.59897,-0.00003
1182.53880,0.00018
1180.47862,0.00045
1178.41845,0.00062
1176.35828,0.00080
1174.29811,0.00105
1172.23793,0.00128
1170.17776,0.00158
1168.11759,0.00197
1166.05742,0.00229
1163.99725,0.00252
1161.93707,0.00282
1159.87690,0.00307
1157.81673,0.00311
1155.75656,0.00303
1153.69639,0.00311
1151.63621,0.00348
1149.57604,0.00396
1147.51587,0.00425
1145.45570,0.00435
1143.39552,0.00442
1141.33535,0.00448
1139.27518,0.00447
1137.21501,0.00441
1135.15484,0.00440
1133.09466,0.00457
1131.03449,0.00488
1128.97432,0.00517
1126.91415,0.00542
1124.85398,0.00575
1122.79380,0.00609
1120.73363,0.00627
1118.67346,0.00632
1116.61329,0.00647
1114.55312,0.00675
1112.49294,0.00694
1110.43277,0.00695
1108.37260,0.00693
1106.31243,0.00717
1104.25225,0.00781
1102.19208,0.00861
1100.13191,0.00927
1098.07174,0.00972
1096.01157,0.01002
1093.95139,0.01035
1091.89122,0.01078
1089.83105,0.01117
1087.77088,0.01143
1085.71071,0.01154
1083.65053,0.01158
1081.59036,0.01167
1079.53019,0.01184
1077.47002,0.01208
1075.40985,0.01241
1073.34967,0.01280
1071.28950,0.01323
1069.22933,0.01373
1067.16916,0.01425
1065.10898,0.01455
1063.04881,0.01451
1060.98864,0.01444
1058.92847,0.01457
1056.86830,0.01471
1054.80812,0.01478
1052.74795,0.01496
1050.68778,0.01523
1048.62761,0.01535
1046.56744,0.01537
1044.50726,0.01552
1042.44709,0.01571
1040.38692,0.01590
1038.32675,0.01617
1036.26657,0.01648
1034.20640,0.01658
1032.14623,0.01639
1030.08606,0.01609
1028.02589,0.01593
1025.96571,0.01600
1023.90554,0.01634
1021.84537,0.01675
1019.78520,0.01693
1017.72503,0.01691
1015.66485,0.01698
1013.60468,0.01713
1011.54451,0.01721
1009.48434,0.01705
1007.42417,0.01672
1005.36399,0.01644
1003.30382,0.01623
1001.24365,0.01597
999.18348,0.01584
997.12330,0.01597
995.06313,0.01612
993.00296,0.01602
990.94279,0.01567
988.88262,0.01517
986.82244,0.01472
984.76227,0.01450
982.70210,0.01431
980.64193,0.01396
978.58176,0.01373
976.52158,0.01382
974.46141,0.01379
972.40124,0.01337
970.34107,0.01295
968.28089,0.01279
966.22072,0.01264
964.16055,0.01241
962.10038,0.01225
960.04021,0.01203
957.98003,0.01157
955.91986,0.01117
953.85969,0.01116
951.79952,0.01146
949.73935,0.01169
947.67917,0.01158
945.61900,0.01127
943.55883,0.01076
941.49866,0.00980
939.43849,0.00860
937.37831,0.00782
935.31814,0.00756
933.25797,0.00738
931.19780,0.00710
929.13762,0.00674
927.07745,0.00623
925.01728,0.00565
922.95711,0.00520
920.89694,0.00485
918.83676,0.00445
916.77659,0.00402
914.71642,0.00373
912.65625,0.00362
910.59608,0.00357
908.53590,0.00339
906.47573,0.00300
904.41556,0.00248
902.35539,0.00209
900.29522,0.00197
898.23504,0.00207
896.17487,0.00234
894.11470,0.00259
892.05453,0.00254
889.99435,0.00229
887.93418,0.00220
885.87401,0.00224
883.81384,0.00219
881.75367,0.00210
879.69349,0.00219
877.63332,0.00249
875.57315,0.00282
873.51298,0.00292
871.45281,0.00274
869.39263,0.00234
867.33246,0.00181
865.27229,0.00151
863.21212,0.00173
861.15194,0.00214
859.09177,0.00219
857.03160,0.00179
854.97143,0.00146
852.91126,0.00156
850.85108,0.00169
848.79091,0.00136
846.73074,0.00081
844.67057,0.00060
842.61040,0.00070
840.55022,0.00063
838.49005,0.00026
836.42988,0.00000
834.36971,0.00010
832.30954,0.00035
830.24936,0.00059
828.18919,0.00093
826.12902,0.00112
824.06885,0.00071
822.00867,0.00006
819.94850,0.00003
817.88833,0.00064
815.82816,0.00124
813.76799,0.00157
811.70781,0.00171
809.64764,0.00190
807.58747,0.00213
805.52730,0.00180
803.46713,0.00096
801.40695,0.00042
799.34678,0.00033
797.28661,0.00030
795.22644,0.00044
793.16627,0.00120
791.10609,0.00236
789.04592,0.00304
786.98575,0.00265
784.92558,0.00156
782.86540,0.00067
780.80523,0.00054
778.74506,0.00095
776.68489,0.00136
774.62472,0.00154
772.56454,0.00155
770.50437,0.00136
768.44420,0.00101
766.38403,0.00077
764.32386,0.00078
762.26368,0.00076
760.20351,0.00056
758.14334,0.00040
756.08317,0.00045
754.02299,0.00080
751.96282,0.00128
749.90265,0.00145
747.84248,0.00129
745.78231,0.00103
743.72213,0.00066
741.66196,0.00022
739.60179,0.00001
737.54162,0.00016
735.48145,0.00047
733.42127,0.00059
731.36110,0.00034
729.30093,-0.00004
727.24076,-0.00009
725.18059,0.00050
723.12041,0.00163
721.06024,0.00266
719.00007,0.00315
716.93990,0.00316
714.87972,0.00296
712.81955,0.00272
710.75938,0.00260
708.69921,0.00278
706.63904,0.00314
704.57886,0.00329
702.51869,0.00296
700.45852,0.00234
698.39835,0.00181
696.33818,0.00155
694.27800,0.00153
692.21783,0.00181
690.15766,0.00235
688.09749,0.00279
686.03731,0.00280
683.97714,0.00248
681.91697,0.00222
679.85680,0.00225
677.79663,0.00263
675.73645,0.00331
673.67628,0.00415
671.61611,0.00474
669.55594,0.00468
667.49577,0.00404
665.43559,0.00333
663.37542,0.00286
661.31525,0.00258
659.25508,0.00241
657.19491,0.00224
655.13473,0.00186
653.07456,0.00109
651.01439,0.00025
648.95422,0.00000
646.89404,0.00060
644.83387,0.00240
642.77370,0.00482
640.71353,0.00696
638.65336,0.00818
636.59318,0.00844
634.53301,0.00833
632.47284,0.00834
630.41267,0.00808
628.35250,0.00652
626.29232,0.00363
624.23215,0.00184
622.17198,0.00146
620.11181,0.00072
618.05164,0.00005
615.99146,0.00105
613.93129,0.00305
611.87112,0.00466
609.81095,0.00487
607.75077,0.00312
605.69060,0.00095
603.63043,-0.00007
601.57026,-0.00021
599.51009,0.00000
