3996.73391,0.00002
3994.67373,0.00011
3992.61356,0.00026
3990.55339,0.00035
3988.49322,0.00034
3986.43305,0.00029
3984.37287,0.00016
3982.31270,0.00001
3980.25253,0.00005
3978.19236,0.00014
3976.13219,0.00007
3974.07201,-0.00001
3972.01184,0.00007
3969.95167,0.00022
3967.89150,0.00022
3965.83133,0.00017
3963.77115,0.00034
3961.71098,0.00060
3959.65081,0.00066
3957.59064,0.00051
3955.53046,0.00029
3953.47029,0.00020
3951.41012,0.00012
3949.34995,-0.00001
3947.28978,0.00000
3945.22960,0.00015
3943.16943,0.00038
3941.10926,0.00063
3939.04909,0.00075
3936.98892,0.00077
3934.92874,0.00084
3932.86857,0.00075
3930.80840,0.00045
3928.74823,0.00038
3926.68805,0.00062
3924.62788,0.00077
3922.56771,0.00072
3920.50754,0.00067
3918.44737,0.00068
3916.38719,0.00078
3914.32702,0.00096
3912.26685,0.00103
3910.20668,0.00091
3908.14651,0.00085
3906.08633,0.00087
3904.02616,0.00080
3901.96599,0.00066
3899.90582,0.00054
3897.84565,0.00059
3895.78547,0.00089
3893.72530,0.00112
3891.66513,0.00105
3889.60496,0.00084
3887.54478,0.00078
3885.48461,0.00080
3883.42444,0.00080
3881.36427,0.00084
3879.30410,0.00091
3877.24392,0.00097
3875.18375,0.00104
3873.12358,0.00112
3871.06341,0.00122
3869.00324,0.00129
3866.94306,0.00126
3864.88289,0.00104
3862.82272,0.00066
3860.76255,0.00049
3858.70237,0.00076
3856.64220,0.00132
3854.58203,0.00165
3852.52186,0.00128
3850.46169,0.00088
3848.40151,0.00083
3846.34134,0.00087
3844.28117,0.00096
3842.22100,0.00107
3840.16083,0.00103
3838.10065,0.00075
3836.04048,0.00066
3833.98031,0.00101
3831.92014,0.00134
3829.85997,0.00141
3827.79979,0.00137
3825.73962,0.00128
3823.67945,0.00101
3821.61928,0.00047
3819.55910,0.00022
3817.49893,0.00065
3815.43876,0.00122
3813.37859,0.00150
3811.31842,0.00163
3809.25824,0.00174
3807.19807,0.00175
3805.13790,0.00159
3803.07773,0.00148
3801.01756,0.00169
3798.95738,0.00205
3796.89721,0.00201
3794.83704,0.00154
3792.77687,0.00125
3790.71670,0.00131
3788.65652,0.00136
3786.59635,0.00112
3784.53618,0.00101
3782.47601,0.00142
3780.41583,0.00176
3778.35566,0.00155
3776.29549,0.00125
3774.23532,0.00138
3772.17515,0.00179
3770.11497,0.00189
3768.05480,0.00154
3765.99463,0.00111
3763.93446,0.00106
3761.87429,0.00139
3759.81411,0.00171
3757.75394,0.00182
3755.69377,0.00184
3753.63360,0.00196
3751.57342,0.00209
3749.51325,0.00197
3747.45308,0.00173
3745.39291,0.00152
3743.33274,0.00146
3741.27256,0.00167
3739.21239,0.00191
3737.15222,0.00182
3735.09205,0.00105
3733.03188,0.00016
3730.97170,0.00000
3728.91153,0.00041
3726.85136,0.00082
3724.79119,0.00114
3722.73102,0.00153
3720.67084,0.00173
3718.61067,0.00165
3716.55050,0.00154
3714.49033,0.00127
3712.43015,0.00079
3710.36998,0.00065
3708.30981,0.00091
3706.24964,0.00111
3704.18947,0.00121
3702.12929,0.00124
3700.06912,0.00122
3698.00895,0.00127
3695.94878,0.00133
3693.88861,0.00136
3691.82843,0.00128
3689.76826,0.00086
3687.70809,0.00033
3685.64792,0.00028
3683.58775,0.00063
3681.52757,0.00099
3679.46740,0.00119
3677.40723,0.00138
3675.34706,0.00155
3673.28688,0.00174
3671.22671,0.00182
3669.16654,0.00136
3667.10637,0.00088
3665.04620,0.00113
3662.98602,0.00171
3660.92585,0.00196
3658.86568,0.00182
3656.80551,0.00158
3654.74534,0.00150
3652.68516,0.00171
3650.62499,0.00204
3648.56482,0.00212
3646.50465,0.00195
3644.44447,0.00187
3642.38430,0.00208
3640.32413,0.00228
3638.26396,0.00220
3636.20379,0.00221
3634.14361,0.00252
3632.08344,0.00272
3630.02327,0.00280
3627.96310,0.00303
3625.90293,0.00332
3623.84275,0.00353
3621.78258,0.00359
3619.72241,0.00339
3617.66224,0.00307
3615.60207,0.00291
3613.54189,0.00304
3611.48172,0.00340
3609.42155,0.00377
3607.36138,0.00408
3605.30120,0.00447
3603.24103,0.00480
3601.18086,0.00478
3599.12069,0.00454
3597.06052,0.00457
3595.00034,0.00494
3592.94017,0.00531
3590.88000,0.00551
3588.81983,0.00549
3586.75966,0.00525
3584.69948,0.00519
3582.63931,0.00545
3580.57914,0.00564
3578.51897,0.00572
3576.45879,0.00616
3574.39862,0.00690
3572.33845,0.00740
3570.27828,0.00760
3568.21811,0.00776
3566.15793,0.00787
3564.09776,0.00786
3562.03759,0.00805
3559.97742,0.00838
3557.91725,0.00841
3555.85707,0.00830
3553.79690,0.00855
3551.73673,0.00911
3549.67656,0.00956
3547.61639,0.00956
3545.55621,0.00919
3543.49604,0.00898
3541.43587,0.00921
3539.37570,0.00962
3537.31552,0.01002
3535.25535,0.01044
3533.19518,0.01085
3531.13501,0.01125
3529.07484,0.01168
3527.01466,0.01205
3524.95449,0.01218
3522.89432,0.01202
3520.83415,0.01177
3518.77398,0.01169
3516.71380,0.01188
3514.65363,0.01217
3512.59346,0.01239
3510.53329,0.01260
3508.47312,0.01289
3506.41294,0.01322
3504.35277,0.01356
3502.29260,0.01378
3500.23243,0.01374
3498.17225,0.01367
3496.11208,0.01392
3494.05191,0.01441
3491.99174,0.01496
3489.93157,0.01535
3487.87139,0.01544
3485.81122,0.01539
3483.75105,0.01550
3481.69088,0.01575
3479.63071,0.01590
3477.57053,0.01600
3475.51036,0.01618
3473.45019,0.01640
3471.39002,0.01661
3469.32984,0.01676
3467.26967,0.01685
3465.20950,0.01704
3463.14933,0.01723
3461.08916,0.01727
3459.02898,0.01744
3456.96881,0.01770
3454.90864,0.01765
3452.84847,0.01753
3450.78830,0.01779
3448.72812,0.01820
3446.66795,0.01843
3444.60778,0.01859
3442.54761,0.01881
3440.48744,0.01901
3438.42726,0.01916
3436.36709,0.01939
3434.30692,0.01963
3432.24675,0.01980
3430.18657,0.02003
3428.12640,0.02013
3426.06623,0.01995
3424.00606,0.01994
3421.94589,0.02024
3419.88571,0.02057
3417.82554,0.02078
3415.76537,0.02087
3413.70520,0.02092
3411.64503,0.02091
3409.58485,0.02094
3407.52468,0.02130
3405.46451,0.02173
3403.40434,0.02184
3401.34416,0.02183
3399.28399,0.02185
3397.22382,0.02196
3395.16365,0.02209
3393.10348,0.02223
3391.04330,0.02243
3388.98313,0.02267
3386.92296,0.02290
3384.86279,0.02310
3382.80262,0.02310
3380.74244,0.02284
3378.68227,0.02262
3376.62210,0.02279
3374.56193,0.02335
3372.50176,0.02388
3370.44158,0.02398
3368.38141,0.02376
3366.32124,0.02353
3364.26107,0.02342
3362.20089,0.02347
3360.14072,0.02363
3358.08055,0.02384
3356.02038,0.02394
3353.96021,0.02389
3351.90003,0.02390
3349.83986,0.02403
3347.77969,0.02409
3345.71952,0.02401
3343.65935,0.02392
3341.59917,0.02398
3339.53900,0.02400
3337.47883,0.02382
3335.41866,0.02368
3333.35849,0.02377
3331.29831,0.02395
3329.23814,0.02414
3327.17797,0.02429
3325.11780,0.02430
3323.05762,0.02433
3320.99745,0.02443
3318.93728,0.02439
3316.87711,0.02427
3314.81694,0.02423
3312.75676,0.02429
3310.69659,0.02436
3308.63642,0.02445
3306.57625,0.02458
3304.51608,0.02461
3302.45590,0.02442
3300.39573,0.02419
3298.33556,0.02418
3296.27539,0.02448
3294.21521,0.02483
3292.15504,0.02499
3290.09487,0.02490
3288.03470,0.02466
3285.97453,0.02440
3283.91435,0.02425
3281.85418,0.02434
3279.79401,0.02450
3277.73384,0.02447
3275.67367,0.02433
3273.61349,0.02424
3271.55332,0.02416
3269.49315,0.02404
3267.43298,0.02401
3265.37281,0.02404
3263.31263,0.02410
3261.25246,0.02423
3259.19229,0.02435
3257.13212,0.02438
3255.07194,0.02442
3253.01177,0.02442
3250.95160,0.02423
3248.89143,0.02387
3246.83126,0.02357
3244.77108,0.02347
3242.71091,0.02349
3240.65074,0.02356
3238.59057,0.02348
3236.53040,0.02321
3234.47022,0.02297
3232.41005,0.02291
3230.34988,0.02297
3228.28971,0.02306
3226.22954,0.02332
3224.16936,0.02355
3222.10919,0.02336
3220.04902,0.02303
3217.98885,0.02286
3215.92867,0.02274
3213.86850,0.02263
3211.80833,0.02244
3209.74816,0.02214
3207.68799,0.02198
3205.62781,0.02213
3203.56764,0.02227
3201.50747,0.02215
3199.44730,0.02183
3197.38713,0.02152
3195.32695,0.02140
3193.26678,0.02146
3191.20661,0.02160
3189.14644,0.02163
3187.08626,0.02146
3185.02609,0.02127
3182.96592,0.02112
3180.90575,0.02096
3178.84558,0.02076
3176.78540,0.02045
3174.72523,0.02023
3172.66506,0.02019
3170.60489,0.02011
3168.54472,0.01995
3166.48454,0.01977
3164.42437,0.01952
3162.36420,0.01930
3160.30403,0.01919
3158.24386,0.01917
3156.18368,0.01920
3154.12351,0.01916
3152.06334,0.01896
3150.00317,0.01872
3147.94299,0.01867
3145.88282,0.01875
3143.82265,0.01865
3141.76248,0.01828
3139.70231,0.01791
3137.64213,0.01770
3135.58196,0.01765
3133.52179,0.01778
3131.46162,0.01788
3129.40145,0.01776
3127.34127,0.01747
3125.28110,0.01709
3123.22093,0.01686
3121.16076,0.01690
3119.10058,0.01701
3117.04041,0.01693
3114.98024,0.01670
3112.92007,0.01651
3110.85990,0.01632
3108.79972,0.01599
3106.73955,0.01573
3104.67938,0.01573
3102.61921,0.01574
3100.55904,0.01565
3098.49886,0.01559
3096.43869,0.01553
3094.37852,0.01539
3092.31835,0.01518
3090.25818,0.01498
3088.19800,0.01482
3086.13783,0.01468
3084.07766,0.01460
3082.01749,0.01450
3079.95731,0.01426
3077.89714,0.01403
3075.83697,0.01400
3073.77680,0.01409
3071.71663,0.01406
3069.65645,0.01389
3067.59628,0.01370
3065.53611,0.01352
3063.47594,0.01343
3061.41577,0.01335
3059.35559,0.01313
3057.29542,0.01291
3055.23525,0.01289
3053.17508,0.01286
3051.11491,0.01271
3049.05473,0.01260
3046.99456,0.01247
3044.93439,0.01235
3042.87422,0.01239
3040.81404,0.01244
3038.75387,0.01240
3036.69370,0.01234
3034.63353,0.01233
3032.57336,0.01237
3030.51318,0.01227
3028.45301,0.01200
3026.39284,0.01179
3024.33267,0.01165
3022.27250,0.01146
3020.21232,0.01123
3018.15215,0.01102
3016.09198,0.01090
3014.03181,0.01099
3011.97163,0.01117
3009.91146,0.01111
3007.85129,0.01080
3005.79112,0.01060
3003.73095,0.01066
3001.67077,0.01083
2999.61060,0.01090
2997.55043,0.01087
2995.49026,0.01086
2993.43009,0.01091
2991.36991,0.01089
2989.30974,0.01082
2987.24957,0.01082
2985.18940,0.01092
2983.12923,0.01101
2981.06905,0.01104
2979.00888,0.01113
2976.94871,0.01133
2974.88854,0.01146
2972.82836,0.01154
2970.76819,0.01176
2968.70802,0.01198
2966.64785,0.01193
2964.58768,0.01180
2962.52750,0.01185
2960.46733,0.01203
2958.40716,0.01213
2956.34699,0.01212
2954.28682,0.01226
2952.22664,0.01253
2950.16647,0.01282
2948.10630,0.01318
2946.04613,0.01350
2943.98596,0.01361
2941.92578,0.01374
2939.86561,0.01394
2937.80544,0.01406
2935.74527,0.01419
2933.68509,0.01428
2931.62492,0.01422
2929.56475,0.01411
2927.50458,0.01411
2925.44441,0.01422
2923.38423,0.01431
2921.32406,0.01428
2919.26389,0.01414
2917.20372,0.01394
2915.14355,0.01386
2913.08337,0.01401
2911.02320,0.01406
2908.96303,0.01384
2906.90286,0.01366
2904.84268,0.01363
2902.78251,0.01354
2900.72234,0.01339
2898.66217,0.01338
2896.60200,0.01344
2894.54182,0.01348
2892.48165,0.01357
2890.42148,0.01363
2888.36131,0.01360
2886.30114,0.01361
2884.24096,0.01353
2882.18079,0.01323
2880.12062,0.01308
2878.06045,0.01329
2876.00028,0.01349
2873.94010,0.01354
2871.87993,0.01353
2869.81976,0.01329
2867.75959,0.01284
2865.69941,0.01257
2863.63924,0.01253
2861.57907,0.01251
2859.51890,0.01248
2857.45873,0.01234
2855.39855,0.01199
2853.33838,0.01173
2851.27821,0.01170
2849.21804,0.01176
2847.15787,0.01172
2845.09769,0.01155
2843.03752,0.01136
2840.97735,0.01122
2838.91718,0.01128
2836.85700,0.01139
2834.79683,0.01123
2832.73666,0.01090
2830.67649,0.01073
2828.61632,0.01073
2826.55614,0.01070
2824.49597,0.01069
2822.43580,0.01071
2820.37563,0.01057
2818.31546,0.01030
2816.25528,0.01009
2814.19511,0.01004
2812.13494,0.01013
2810.07477,0.01014
2808.01460,0.01005
2805.95442,0.01001
2803.89425,0.01005
2801.83408,0.01013
2799.77391,0.01012
2797.71373,0.01004
2795.65356,0.01011
2793.59339,0.01028
2791.53322,0.01024
2789.47305,0.00997
2787.41287,0.00971
2785.35270,0.00965
2783.29253,0.00976
2781.23236,0.00983
2779.17219,0.00979
2777.11201,0.00974
2775.05184,0.00972
2772.99167,0.00967
2770.93150,0.00947
2768.87133,0.00923
2766.81115,0.00930
2764.75098,0.00961
2762.69081,0.00972
2760.63064,0.00954
2758.57046,0.00930
2756.51029,0.00924
2754.45012,0.00939
2752.38995,0.00947
2750.32978,0.00935
2748.26960,0.00918
2746.20943,0.00911
2744.14926,0.00907
2742.08909,0.00904
2740.02892,0.00903
2737.96874,0.00895
2735.90857,0.00879
2733.84840,0.00875
2731.78823,0.00885
2729.72805,0.00898
2727.66788,0.00909
2725.60771,0.00911
2723.54754,0.00906
2721.48737,0.00909
2719.42719,0.00920
2717.36702,0.00918
2715.30685,0.00901
2713.24668,0.00889
2711.18651,0.00883
2709.12633,0.00878
2707.06616,0.00868
2705.00599,0.00850
2702.94582,0.00857
2700.88565,0.00890
2698.82547,0.00907
2696.76530,0.00893
2694.70513,0.00867
2692.64496,0.00856
2690.58478,0.00859
2688.52461,0.00855
2686.46444,0.00848
2684.40427,0.00841
2682.34410,0.00828
2680.28392,0.00828
2678.22375,0.00844
2676.16358,0.00849
2674.10341,0.00846
2672.04324,0.00849
2669.98306,0.00849
2667.92289,0.00847
2665.86272,0.00848
2663.80255,0.00854
2661.74238,0.00865
2659.68220,0.00872
2657.62203,0.00867
2655.56186,0.00866
2653.50169,0.00868
2651.44151,0.00852
2649.38134,0.00822
2647.32117,0.00807
2645.26100,0.00814
2643.20083,0.00825
2641.14065,0.00831
2639.08048,0.00827
2637.02031,0.00822
2634.96014,0.00830
2632.89997,0.00835
2630.83979,0.00819
2628.77962,0.00806
2626.71945,0.00813
2624.65928,0.00806
2622.59910,0.00774
2620.53893,0.00747
2618.47876,0.00743
2616.41859,0.00738
2614.35842,0.00713
2612.29824,0.00692
2610.23807,0.00698
2608.17790,0.00712
2606.11773,0.00725
2604.05756,0.00731
2601.99738,0.00720
2599.93721,0.00699
2597.87704,0.00681
2595.81687,0.00670
2593.75670,0.00672
2591.69652,0.00673
2589.63635,0.00670
2587.57618,0.00678
2585.51601,0.00689
2583.45583,0.00686
2581.39566,0.00684
2579.33549,0.00695
2577.27532,0.00690
2575.21515,0.00680
2573.15497,0.00675
2571.09480,0.00653
2569.03463,0.00640
2566.97446,0.00660
2564.91429,0.00671
2562.85411,0.00667
2560.79394,0.00682
2558.73377,0.00705
2556.67360,0.00694
2554.61342,0.00656
2552.55325,0.00630
2550.49308,0.00635
2548.43291,0.00662
2546.37274,0.00692
2544.31256,0.00678
2542.25239,0.00627
2540.19222,0.00609
2538.13205,0.00623
2536.07188,0.00629
2534.01170,0.00631
2531.95153,0.00641
2529.89136,0.00650
2527.83119,0.00645
2525.77102,0.00635
2523.71084,0.00636
2521.65067,0.00635
2519.59050,0.00624
2517.53033,0.00600
2515.47015,0.00578
2513.40998,0.00575
2511.34981,0.00582
2509.28964,0.00594
2507.22947,0.00607
2505.16929,0.00614
2503.10912,0.00630
2501.04895,0.00635
2498.98878,0.00626
2496.92861,0.00635
2494.86843,0.00637
2492.80826,0.00610
2490.74809,0.00583
2488.68792,0.00583
2486.62775,0.00606
2484.56757,0.00617
2482.50740,0.00600
2480.44723,0.00579
2478.38706,0.00575
2476.32688,0.00572
2474.26671,0.00574
2472.20654,0.00593
2470.14637,0.00598
2468.08620,0.00574
2466.02602,0.00564
2463.96585,0.00593
2461.90568,0.00619
2459.84551,0.00613
2457.78534,0.00594
2455.72516,0.00594
2453.66499,0.00621
2451.60482,0.00641
2449.54465,0.00632
2447.48447,0.00610
2445.42430,0.00592
2443.36413,0.00584
2441.30396,0.00579
2439.24379,0.00559
2437.18361,0.00540
2435.12344,0.00547
2433.06327,0.00564
2431.00310,0.00585
2428.94293,0.00608
2426.88275,0.00629
2424.82258,0.00633
2422.76241,0.00600
2420.70224,0.00563
2418.64207,0.00558
2416.58189,0.00556
2414.52172,0.00545
2412.46155,0.00542
2410.40138,0.00541
2408.34120,0.00556
2406.28103,0.00575
2404.22086,0.00565
2402.16069,0.00546
2400.10052,0.00538
2398.04034,0.00521
2395.98017,0.00514
2393.92000,0.00516
2391.85983,0.00528
2389.79966,0.00543
2387.73948,0.00555
2385.67931,0.00576
2383.61914,0.00607
2381.55897,0.00624
2379.49880,0.00624
2377.43862,0.00628
2375.37845,0.00649
2373.31828,0.00689
2371.25811,0.00705
2369.19793,0.00649
2367.13776,0.00580
2365.07759,0.00568
2363.01742,0.00565
2360.95725,0.00495
2358.89707,0.00418
2356.83690,0.00497
2354.77673,0.00678
2352.71656,0.00774
2350.65639,0.00765
2348.59621,0.00727
2346.53604,0.00709
2344.47587,0.00721
2342.41570,0.00727
2340.35552,0.00702
2338.29535,0.00688
2336.23518,0.00682
2334.17501,0.00630
2332.11484,0.00561
2330.05466,0.00581
2327.99449,0.00688
2325.93432,0.00754
2323.87415,0.00724
2321.81398,0.00655
2319.75380,0.00597
2317.69363,0.00561
2315.63346,0.00563
2313.57329,0.00605
2311.51312,0.00641
2309.45294,0.00623
2307.39277,0.00577
2305.33260,0.00571
2303.27243,0.00614
2301.21225,0.00648
2299.15208,0.00631
2297.09191,0.00591
2295.03174,0.00572
2292.97157,0.00587
2290.91139,0.00628
2288.85122,0.00662
2286.79105,0.00654
2284.73088,0.00620
2282.67071,0.00584
2280.61053,0.00543
2278.55036,0.00505
2276.49019,0.00502
2274.43002,0.00529
2272.36984,0.00531
2270.30967,0.00495
2268.24950,0.00467
2266.18933,0.00462
2264.12916,0.00456
2262.06898,0.00445
2260.00881,0.00445
2257.94864,0.00470
2255.88847,0.00512
2253.82830,0.00534
2251.76812,0.00527
2249.70795,0.00513
2247.64778,0.00488
2245.58761,0.00446
2243.52744,0.00449
2241.46726,0.00494
2239.40709,0.00524
2237.34692,0.00537
2235.28675,0.00537
2233.22657,0.00510
2231.16640,0.00488
2229.10623,0.00490
2227.04606,0.00490
2224.98589,0.00487
2222.92571,0.00471
2220.86554,0.00407
2218.80537,0.00372
2216.74520,0.00452
2214.68503,0.00532
2212.62485,0.00497
2210.56468,0.00446
2208.50451,0.00440
2206.44434,0.00435
2204.38417,0.00397
2202.32399,0.00350
2200.26382,0.00367
2198.20365,0.00430
2196.14348,0.00475
2194.08330,0.00506
2192.02313,0.00505
2189.96296,0.00445
2187.90279,0.00400
2185.84262,0.00397
2183.78244,0.00380
2181.72227,0.00384
2179.66210,0.00447
2177.60193,0.00460
2175.54176,0.00409
2173.48158,0.00412
2171.42141,0.00443
2169.36124,0.00429
2167.30107,0.00415
2165.24089,0.00456
2163.18072,0.00418
2161.12055,0.00207
2159.06038,0.00041
2157.00021,0.00075
2154.94003,0.00165
2152.87986,0.00210
2150.81969,0.00267
2148.75952,0.00344
2146.69935,0.00388
2144.63917,0.00340
2142.57900,0.00255
2140.51883,0.00217
2138.45866,0.00219
2136.39849,0.00265
2134.33831,0.00290
2132.27814,0.00268
2130.21797,0.00287
2128.15780,0.00351
2126.09762,0.00398
2124.03745,0.00400
2121.97728,0.00395
2119.91711,0.00415
2117.85694,0.00423
2115.79676,0.00401
2113.73659,0.00410
2111.67642,0.00461
2109.61625,0.00482
2107.55608,0.00472
2105.49590,0.00484
2103.43573,0.00506
2101.37556,0.00499
2099.31539,0.00457
2097.25521,0.00392
2095.19504,0.00363
2093.13487,0.00411
2091.07470,0.00460
2089.01453,0.00453
2086.95435,0.00419
2084.89418,0.00410
2082.83401,0.00437
2080.77384,0.00459
2078.71367,0.00452
2076.65349,0.00428
2074.59332,0.00417
2072.53315,0.00436
2070.47298,0.00453
2068.41281,0.00436
2066.35263,0.00395
2064.29246,0.00350
2062.23229,0.00348
2060.17212,0.00409
2058.11194,0.00480
2056.05177,0.00489
2053.99160,0.00469
2051.93143,0.00503
2049.87126,0.00505
2047.81108,0.00427
2045.75091,0.00378
2043.69074,0.00386
2041.63057,0.00390
2039.57040,0.00346
2037.51022,0.00293
2035.45005,0.00307
2033.38988,0.00322
2031.32971,0.00261
2029.26954,0.00203
2027.20936,0.00223
2025.14919,0.00266
2023.08902,0.00260
2021.02885,0.00249
2018.96867,0.00282
2016.90850,0.00270
2014.84833,0.00202
2012.78816,0.00207
2010.72799,0.00323
2008.66781,0.00432
2006.60764,0.00395
2004.54747,0.00292
2002.48730,0.00301
2000.42713,0.00369
1998.36695,0.00424
1996.30678,0.00484
1994.24661,0.00474
1992.18644,0.00410
1990.12626,0.00369
1988.06609,0.00332
1986.00592,0.00354
1983.94575,0.00465
1981.88558,0.00535
1979.82540,0.00483
1977.76523,0.00334
1975.70506,0.00171
1973.64489,0.00067
1971.58472,0.00029
1969.52454,0.00024
1967.46437,0.00000
1965.40420,0.00006
1963.34403,0.00078
1961.28386,0.00142
1959.22368,0.00190
1957.16351,0.00252
1955.10334,0.00308
1953.04317,0.00332
1950.98299,0.00316
1948.92282,0.00292
1946.86265,0.00298
1944.80248,0.00320
1942.74231,0.00317
1940.68213,0.00296
1938.62196,0.00309
1936.56179,0.00349
1934.50162,0.00361
1932.44145,0.00342
1930.38127,0.00309
1928.32110,0.00266
1926.26093,0.00232
1924.20076,0.00251
1922.14059,0.00310
1920.08041,0.00334
1918.02024,0.00333
1915.96007,0.00358
1913.89990,0.00376
1911.83972,0.00354
1909.77955,0.00326
1907.71938,0.00310
1905.65921,0.00272
1903.59904,0.00240
1901.53886,0.00265
1899.47869,0.00314
1897.41852,0.00342
1895.35835,0.00354
1893.29818,0.00347
1891.23800,0.00317
1889.17783,0.00299
1887.11766,0.00297
1885.05749,0.00290
1882.99731,0.00293
1880.93714,0.00318
1878.87697,0.00342
1876.81680,0.00334
1874.75663,0.00295
1872.69645,0.00255
1870.63628,0.00235
1868.57611,0.00229
1866.51594,0.00236
1864.45577,0.00249
1862.39559,0.00246
1860.33542,0.00229
1858.27525,0.00226
1856.21508,0.00247
1854.15491,0.00271
1852.09473,0.00264
1850.03456,0.00234
1847.97439,0.00221
1845.91422,0.00221
1843.85404,0.00213
1841.79387,0.00222
1839.73370,0.00256
1837.67353,0.00279
1835.61336,0.00268
1833.55318,0.00233
1831.49301,0.00204
1829.43284,0.00210
1827.37267,0.00240
1825.31250,0.00254
1823.25232,0.00249
1821.19215,0.00238
1819.13198,0.00222
1817.07181,0.00208
1815.01163,0.00200
1812.95146,0.00197
1810.89129,0.00203
1808.83112,0.00209
1806.77095,0.00210
1804.71077,0.00214
1802.65060,0.00213
1800.59043,0.00198
1798.53026,0.00187
1796.47009,0.00191
1794.40991,0.00191
1792.34974,0.00172
1790.28957,0.00152
1788.22940,0.00153
1786.16923,0.00171
1784.10905,0.00189
1782.04888,0.00196
1779.98871,0.00192
1777.92854,0.00187
1775.86836,0.00191
1773.80819,0.00198
1771.74802,0.00197
1769.68785,0.00195
1767.62768,0.00203
1765.56750,0.00214
1763.50733,0.00228
1761.44716,0.00251
1759.38699,0.00283
1757.32682,0.00323
1755.26664,0.00370
1753.20647,0.00421
1751.14630,0.00465
1749.08613,0.00496
1747.02596,0.00522
1744.96578,0.00553
1742.90561,0.00577
1740.84544,0.00602
1738.78527,0.00637
1736.72509,0.00671
1734.66492,0.00714
1732.60475,0.00769
1730.54458,0.00795
1728.48441,0.00781
1726.42423,0.00757
1724.36406,0.00740
1722.30389,0.00729
1720.24372,0.00718
1718.18355,0.00708
1716.12337,0.00696
1714.06320,0.00671
1712.00303,0.00620
1709.94286,0.00558
1707.88268,0.00509
1705.82251,0.00488
1703.76234,0.00479
1701.70217,0.00451
1699.64200,0.00403
1697.58182,0.00382
1695.52165,0.00389
1693.46148,0.00398
1691.40131,0.00401
1689.34114,0.00404
1687.28096,0.00407
1685.22079,0.00406
1683.16062,0.00410
1681.10045,0.00437
1679.04028,0.00480
1676.98010,0.00512
1674.91993,0.00523
1672.85976,0.00534
1670.79959,0.00567
1668.73941,0.00619
1666.67924,0.00661
1664.61907,0.00689
1662.55890,0.00719
1660.49873,0.00748
1658.43855,0.00771
1656.37838,0.00800
1654.31821,0.00841
1652.25804,0.00876
1650.19787,0.00886
1648.13769,0.00904
1646.07752,0.00937
1644.01735,0.00965
1641.95718,0.00995
1639.89701,0.01031
1637.83683,0.01064
1635.77666,0.01093
1633.71649,0.01124
1631.65632,0.01144
1629.59614,0.01154
1627.53597,0.01165
1625.47580,0.01188
1623.41563,0.01227
1621.35546,0.01263
1619.29528,0.01280
1617.23511,0.01295
1615.17494,0.01319
1613.11477,0.01336
1611.05460,0.01335
1608.99442,0.01319
1606.93425,0.01290
1604.87408,0.01259
1602.81391,0.01228
1600.75373,0.01191
1598.69356,0.01149
1596.63339,0.01105
1594.57322,0.01049
1592.51305,0.00983
1590.45287,0.00922
1588.39270,0.00868
1586.33253,0.00820
1584.27236,0.00780
1582.21219,0.00745
1580.15201,0.00703
1578.09184,0.00645
1576.03167,0.00583
1573.97150,0.00553
1571.91133,0.00548
1569.85115,0.00531
1567.79098,0.00493
1565.73081,0.00460
1563.67064,0.00447
1561.61046,0.00442
1559.55029,0.00419
1557.49012,0.00383
1555.42995,0.00360
1553.36978,0.00338
1551.30960,0.00314
1549.24943,0.00298
1547.18926,0.00285
1545.12909,0.00260
1543.06892,0.00216
1541.00874,0.00183
1538.94857,0.00203
1536.88840,0.00236
1534.82823,0.00236
1532.76805,0.00208
1530.70788,0.00177
1528.64771,0.00159
1526.58754,0.00152
1524.52737,0.00155
1522.46719,0.00168
1520.40702,0.00185
1518.34685,0.00189
1516.28668,0.00184
1514.22651,0.00174
1512.16633,0.00159
1510.10616,0.00145
1508.04599,0.00144
1505.98582,0.00159
1503.92565,0.00168
1501.86547,0.00159
1499.80530,0.00146
1497.74513,0.00142
1495.68496,0.00148
1493.62478,0.00158
1491.56461,0.00169
1489.50444,0.00180
1487.44427,0.00186
1485.38410,0.00189
1483.32392,0.00201
1481.26375,0.00228
1479.20358,0.00262
1477.14341,0.00296
1475.08324,0.00323
1473.02306,0.00351
1470.96289,0.00383
1468.90272,0.00410
1466.84255,0.00438
1464.78238,0.00470
1462.72220,0.00495
1460.66203,0.00511
1458.60186,0.00540
1456.54169,0.00585
1454.48151,0.00610
1452.42134,0.00613
1450.36117,0.00620
1448.30100,0.00641
1446.24083,0.00665
1444.18065,0.00686
1442.12048,0.00701
1440.06031,0.00718
1438.00014,0.00749
1435.93997,0.00792
1433.87979,0.00824
1431.81962,0.00854
1429.75945,0.00895
1427.69928,0.00940
1425.63910,0.00985
1423.57893,0.01025
1421.51876,0.01055
1419.45859,0.01075
1417.39842,0.01087
1415.33824,0.01098
1413.27807,0.01112
1411.21790,0.01122
1409.15773,0.01127
1407.09756,0.01129
1405.03738,0.01119
1402.97721,0.01102
1400.91704,0.01086
1398.85687,0.01072
1396.79670,0.01049
1394.73652,0.01015
1392.67635,0.00981
1390.61618,0.00965
1388.55601,0.00972
1386.49583,0.00994
1384.43566,0.01015
1382.37549,0.01037
1380.31532,0.01061
1378.25515,0.01080
1376.19497,0.01101
1374.13480,0.01140
1372.07463,0.01172
1370.01446,0.01169
1367.95429,0.01145
1365.89411,0.01123
1363.83394,0.01107
1361.77377,0.01088
1359.71360,0.01067
1357.65343,0.01047
1355.59325,0.01027
1353.53308,0.01007
1351.47291,0.00991
1349.41274,0.00976
1347.35256,0.00963
1345.29239,0.00952
1343.23222,0.00938
1341.17205,0.00920
1339.11188,0.00907
1337.05170,0.00904
1334.99153,0.00908
1332.93136,0.00904
1330.87119,0.00890
1328.81102,0.00882
1326.75084,0.00890
1324.69067,0.00899
1322.63050,0.00901
1320.57033,0.00906
1318.51015,0.00915
1316.44998,0.00925
1314.38981,0.00939
1312.32964,0.00930
1310.26947,0.00891
1308.20929,0.00856
1306.14912,0.00838
1304.08895,0.00825
1302.02878,0.00810
1299.96861,0.00794
1297.90843,0.00784
1295.84826,0.00781
1293.78809,0.00774
1291.72792,0.00763
1289.66775,0.00753
1287.60757,0.00740
1285.54740,0.00720
1283.48723,0.00714
1281.42706,0.00734
1279.36688,0.00757
1277.30671,0.00764
1275.24654,0.00764
1273.18637,0.00774
1271.12620,0.00795
1269.06602,0.00827
1267.00585,0.00878
1264.94568,0.00944
1262.88551,0.01006
1260.82534,0.01053
1258.76516,0.01098
1256.70499,0.01147
1254.64482,0.01183
1252.58465,0.01203
1250.52447,0.01222
1248.46430,0.01247
1246.40413,0.01272
1244.34396,0.01286
1242.28379,0.01286
1240.22361,0.01275
1238.16344,0.01255
1236.10327,0.01225
1234.04310,0.01194
1231.98293,0.01165
1229.92275,0.01135
1227.86258,0.01094
1225.80241,0.01036
1223.74224,0.00973
1221.68207,0.00923
1219.62189,0.00877
1217.56172,0.00817
1215.50155,0.00757
1213.44138,0.00702
1211.38120,0.00642
1209.32103,0.00582
1207.26086,0.00525
1205.20069,0.00457
1203.14052,0.00378
1201.08034,0.00307
1199.02017,0.00239
1196.96000,0.00156
1194.89983,0.00083
1192.83966,0.00043
1190.77948,0.00018
1188.71931,0.00000
1186.65914,-0.00005
1184.59897,0.00009
1182.53880,0.00026
1180.47862,0.00040
1178.41845,0.00073
1176.35828,0.00129
1174.29811,0.00196
1172.23793,0.00275
1170.17776,0.00370
1168.11759,0.00475
1166.05742,0.00575
1163.99725,0.00667
1161.93707,0.00764
1159.87690,0.00861
1157.81673,0.00946
1155.75656,0.01018
1153.69639,0.01084
1151.63621,0.01152
1149.57604,0.01220
1147.51587,0.01277
1145.45570,0.01317
1143.39552,0.01347
1141.33535,0.01369
1139.27518,0.01382
1137.21501,0.01406
1135.15484,0.01446
1133.09466,0.01476
1131.03449,0.01512
1128.97432,0.01576
1126.91415,0.01653
1124.85398,0.01730
1122.79380,0.01810
1120.73363,0.01896
1118.67346,0.01984
1116.61329,0.02064
1114.55312,0.02137
1112.49294,0.02203
1110.43277,0.02266
1108.37260,0.02341
1106.31243,0.02434
1104.25225,0.02546
1102.19208,0.02680
1100.13191,0.02823
1098.07174,0.02975
1096.01157,0.03145
1093.95139,0.03318
1091.89122,0.03468
1089.83105,0.03596
1087.77088,0.03717
1085.71071,0.03839
1083.65053,0.03955
1081.59036,0.04077
1079.53019,0.04223
1077.47002,0.04370
1075.40985,0.04498
1073.34967,0.04627
1071.28950,0.04757
1069.22933,0.04878
1067.16916,0.04979
1065.10898,0.05050
1063.04881,0.05108
1060.98864,0.05171
1058.92847,0.05226
1056.86830,0.05276
1054.80812,0.05357
1052.74795,0.05477
1050.68778,0.05604
1048.62761,0.05716
1046.56744,0.05816
1044.50726,0.05918
1042.44709,0.06023
1040.38692,0.06112
1038.32675,0.06170
1036.26657,0.06192
1034.20640,0.06181
1032.14623,0.06152
1030.08606,0.06120
1028.02589,0.06092
1025.96571,0.06059
1023.90554,0.06001
1021.84537,0.05921
1019.78520,0.05849
1017.72503,0.05791
1015.66485,0.05749
1013.60468,0.05729
1011.54451,0.05710
1009.48434,0.05673
1007.42417,0.05610
1005.36399,0.05519
1003.30382,0.05403
1001.24365,0.05260
999.18348,0.05104
997.12330,0.04954
995.06313,0.04817
993.00296,0.04700
990.94279,0.04606
988.88262,0.04521
986.82244,0.04423
984.76227,0.04329
982.70210,0.04262
980.64193,0.04218
978.58176,0.04172
976.52158,0.04102
974.46141,0.04014
972.40124,0.03915
970.34107,0.03812
968.28089,0.03715
966.22072,0.03606
964.16055,0.03487
962.10038,0.03396
960.04021,0.03324
957.98003,0.03228
955.91986,0.03105
953.85969,0.02991
951.79952,0.02909
949.73935,0.02853
947.67917,0.02785
945.61900,0.02657
943.55883,0.02503
941.49866,0.02357
939.43849,0.02201
937.37831,0.02033
935.31814,0.01866
933.25797,0.01709
931.19780,0.01580
929.13762,0.01484
927.07745,0.01406
925.01728,0.01334
922.95711,0.01258
920.89694,0.01184
918.83676,0.01125
916.77659,0.01070
914.71642,0.01011
912.65625,0.00941
910.59608,0.00880
908.53590,0.00832
906.47573,0.00792
904.41556,0.00764
902.35539,0.00732
900.29522,0.00721
898.23504,0.00763
896.17487,0.00809
894.11470,0.00815
892.05453,0.00794
889.99435,0.00759
887.93418,0.00733
885.87401,0.00715
883.81384,0.00682
881.75367,0.00633
879.69349,0.00576
877.63332,0.00515
875.57315,0.00458
873.51298,0.00422
871.45281,0.00416
869.39263,0.00422
867.33246,0.00421
865.27229,0.00420
863.21212,0.00415
861.15194,0.00395
859.09177,0.00365
857.03160,0.00331
854.97143,0.00297
852.91126,0.00273
850.85108,0.00267
848.79091,0.00282
846.73074,0.00289
844.67057,0.00260
842.61040,0.00215
840.55022,0.00188
838.49005,0.00191
836.42988,0.00180
834.36971,0.00130
832.30954,0.00079
830.24936,0.00073
828.18919,0.00082
826.12902,0.00067
824.06885,0.00067
822.00867,0.00109
819.94850,0.00146
817.88833,0.00134
815.82816,0.00098
813.76799,0.00081
811.70781,0.00085
809.64764,0.00112
807.58747,0.00143
805.52730,0.00153
803.46713,0.00167
801.40695,0.00182
799.34678,0.00172
797.28661,0.00133
795.22644,0.00073
793.16627,0.00011
791.10609,0.00000
789.04592,0.00060
786.98575,0.00121
784.92558,0.00112
782.86540,0.00077
780.80523,0.00087
778.74506,0.00110
776.68489,0.00105
774.62472,0.00097
772.56454,0.00086
770.50437,0.00068
768.44420,0.00053
766.38403,0.00037
764.32386,0.00038
762.26368,0.00056
760.20351,0.00071
758.14334,0.00098
756.08317,0.00113
754.02299,0.00092
751.96282,0.00048
749.90265,0.00000
747.84248,-0.00017
745.78231,0.00009
743.72213,0.00045
741.66196,0.00071
739.60179,0.00048
737.54162,-0.00018
735.48145,-0.00044
733.42127,-0.00034
731.36110,-0.00044
729.30093,-0.00044
727.24076,-0.00040
725.18059,-0.00054
723.12041,-0.00056
721.06024,-0.00067
719.00007,-0.00078
716.93990,-0.00067
714.87972,-0.00014
712.81955,0.00048
710.75938,0.00077
708.69921,0.00094
706.63904,0.00124
704.57886,0.00155
702.51869,0.00160
700.45852,0.00136
698.39835,0.00116
696.33818,0.00121
694.27800,0.00137
692.21783,0.00163
690.15766,0.00178
688.09749,0.00132
686.03731,0.00052
683.97714,0.00017
681.91697,0.00033
679.85680,0.00043
677.79663,0.00026
675.73645,0.00013
673.67628,0.00011
671.61611,-0.00027
669.55594,-0.00046
667.49577,0.00070
665.43559,0.00204
663.37542,0.00275
661.31525,0.00276
659.25508,0.00257
657.19491,0.00253
655.13473,0.00228
653.07456,0.00143
651.01439,0.00040
648.95422,0.00000
646.89404,0.00012
644.83387,0.00056
642.77370,0.00095
640.71353,0.00120
638.65336,0.00146
636.59318,0.00142
634.53301,0.00036
632.47284,-0.00160
630.41267,-0.00278
628.35250,-0.00210
626.29232,-0.00118
624.23215,-0.00166
622.17198,-0.00196
620.11181,-0.00113
618.05164,-0.00030
615.99146,-0.00138
613.93129,-0.00332
611.87112,-0.00360
609.81095,-0.00245
607.75077,-0.00248
605.69060,-0.00453
603.63043,-0.00564
601.57026,-0.00321
599.51009,0.00000
