3996.73391,-0.00035
3994.67373,0.00007
3992.61356,0.00052
3990.55339,0.00069
3988.49322,0.00047
3986.43305,0.00031
3984.37287,0.00038
3982.31270,0.00033
3980.25253,0.00019
3978.19236,0.00025
3976.13219,0.00030
3974.07201,0.00017
3972.01184,0.00016
3969.95167,0.00025
3967.89150,0.00012
3965.83133,0.00009
3963.77115,0.00063
3961.71098,0.00114
3959.65081,0.00102
3957.59064,0.00067
3955.53046,0.00044
3953.47029,0.00036
3951.41012,0.00035
3949.34995,0.00025
3947.28978,0.00000
3945.22960,0.00013
3943.16943,0.00071
3941.10926,0.00095
3939.04909,0.00100
3936.98892,0.00112
3934.92874,0.00124
3932.86857,0.00119
3930.80840,0.00056
3928.74823,-0.00009
3926.68805,0.00013
3924.62788,0.00056
3922.56771,0.00041
3920.50754,0.00042
3918.44737,0.00073
3916.38719,0.00073
3914.32702,0.00048
3912.26685,0.00048
3910.20668,0.00036
3908.14651,0.00029
3906.08633,0.00091
3904.02616,0.00130
3901.96599,0.00093
3899.90582,0.00078
3897.84565,0.00041
3895.78547,0.00014
3893.72530,0.00088
3891.66513,0.00147
3889.60496,0.00077
3887.54478,0.00072
3885.48461,0.00093
3883.42444,0.00034
3881.36427,0.00104
3879.30410,0.00125
3877.24392,0.00053
3875.18375,0.00087
3873.12358,0.00139
3871.06341,0.00192
3869.00324,0.00141
3866.94306,0.00069
3864.88289,0.00143
3862.82272,0.00144
3860.76255,0.00050
3858.70237,0.00003
3856.64220,0.00114
3854.58203,0.00331
3852.52186,0.00276
3850.46169,0.00049
3848.40151,0.00000
3846.34134,0.00057
3844.28117,0.00091
3842.22100,0.00084
3840.16083,0.00140
3838.10065,0.00204
3836.04048,0.00162
3833.98031,0.00141
3831.92014,0.00167
3829.85997,0.00156
3827.79979,0.00143
3825.73962,0.00091
3823.67945,0.00097
3821.61928,0.00182
3819.55910,0.00098
3817.49893,0.00121
3815.43876,0.00221
3813.37859,0.00173
3811.31842,0.00164
3809.25824,0.00249
3807.19807,0.00269
3805.13790,0.00144
3803.07773,0.00180
3801.01756,0.00260
3798.95738,0.00211
3796.89721,0.00238
3794.83704,0.00214
3792.77687,0.00162
3790.71670,0.00166
3788.65652,0.00181
3786.59635,0.00195
3784.53618,0.00184
3782.47601,0.00178
3780.41583,0.00251
3778.35566,0.00275
3776.29549,0.00227
3774.23532,0.00217
3772.17515,0.00255
3770.11497,0.00269
3768.05480,0.00211
3765.99463,0.00187
3763.93446,0.00155
3761.87429,0.00164
3759.81411,0.00222
3757.75394,0.00183
3755.69377,0.00118
3753.63360,0.00205
3751.57342,0.00349
3749.51325,0.00240
3747.45308,0.00080
3745.39291,0.00219
3743.33274,0.00282
3741.27256,0.00145
3739.21239,0.00096
3737.15222,0.00172
3735.09205,0.00221
3733.03188,0.00140
3730.97170,0.00014
3728.91153,0.00000
3726.85136,0.00120
3724.79119,0.00210
3722.73102,0.00248
3720.67084,0.00240
3718.61067,0.00204
3716.55050,0.00164
3714.49033,0.00176
3712.43015,0.00243
3710.36998,0.00239
3708.30981,0.00168
3706.24964,0.00128
3704.18947,0.00181
3702.12929,0.00264
3700.06912,0.00257
3698.00895,0.00234
3695.94878,0.00223
3693.88861,0.00192
3691.82843,0.00209
3689.76826,0.00246
3687.70809,0.00169
3685.64792,0.00083
3683.58775,0.00118
3681.52757,0.00176
3679.46740,0.00187
3677.40723,0.00252
3675.34706,0.00272
3673.28688,0.00104
3671.22671,0.00142
3669.16654,0.00228
3667.10637,0.00171
3665.04620,0.00185
3662.98602,0.00230
3660.92585,0.00221
3658.86568,0.00226
3656.80551,0.00244
3654.74534,0.00155
3652.68516,0.00170
3650.62499,0.00385
3648.56482,0.00467
3646.50465,0.00321
3644.44447,0.00217
3642.38430,0.00263
3640.32413,0.00313
3638.26396,0.00311
3636.20379,0.00309
3634.14361,0.00299
3632.08344,0.00293
3630.02327,0.00423
3627.96310,0.00462
3625.90293,0.00315
3623.84275,0.00256
3621.78258,0.00327
3619.72241,0.00408
3617.66224,0.00379
3615.60207,0.00366
3613.54189,0.00411
3611.48172,0.00399
3609.42155,0.00417
3607.36138,0.00449
3605.30120,0.00433
3603.24103,0.00453
3601.18086,0.00492
3599.12069,0.00483
3597.06052,0.00495
3595.00034,0.00528
3592.94017,0.00496
3590.88000,0.00488
3588.81983,0.00599
3586.75966,0.00643
3584.69948,0.00551
3582.63931,0.00515
3580.57914,0.00556
3578.51897,0.00608
3576.45879,0.00662
3574.39862,0.00688
3572.33845,0.00659
3570.27828,0.00668
3568.21811,0.00768
3566.15793,0.00812
3564.09776,0.00754
3562.03759,0.00734
3559.97742,0.00759
3557.91725,0.00768
3555.85707,0.00775
3553.79690,0.00813
3551.73673,0.00834
3549.67656,0.00832
3547.61639,0.00851
3545.55621,0.00853
3543.49604,0.00833
3541.43587,0.00853
3539.37570,0.00906
3537.31552,0.00944
3535.25535,0.00944
3533.19518,0.00950
3531.13501,0.00998
3529.07484,0.01042
3527.01466,0.01054
3524.95449,0.01074
3522.89432,0.01086
3520.83415,0.01068
3518.77398,0.01082
3516.71380,0.01116
3514.65363,0.01117
3512.59346,0.01105
3510.53329,0.01123
3508.47312,0.01143
3506.41294,0.01146
3504.35277,0.01168
3502.29260,0.01184
3500.23243,0.01197
3498.17225,0.01234
3496.11208,0.01268
3494.05191,0.01288
3491.99174,0.01313
3489.93157,0.01336
3487.87139,0.01328
3485.81122,0.01302
3483.75105,0.01315
3481.69088,0.01343
3479.63071,0.01344
3477.57053,0.01362
3475.51036,0.01393
3473.45019,0.01401
3471.39002,0.01412
3469.32984,0.01445
3467.26967,0.01474
3465.20950,0.01482
3463.14933,0.01481
3461.08916,0.01482
3459.02898,0.01506
3456.96881,0.01531
3454.90864,0.01521
3452.84847,0.01496
3450.78830,0.01503
3448.72812,0.01560
3446.66795,0.01583
3444.60778,0.01556
3442.54761,0.01592
3440.48744,0.01651
3438.42726,0.01664
3436.36709,0.01655
3434.30692,0.01654
3432.24675,0.01662
3430.18657,0.01667
3428.12640,0.01670
3426.06623,0.01681
3424.00606,0.01719
3421.94589,0.01772
3419.88571,0.01785
3417.82554,0.01773
3415.76537,0.01794
3413.70520,0.01818
3411.64503,0.01816
3409.58485,0.01831
3407.52468,0.01867
3405.46451,0.01882
3403.40434,0.01882
3401.34416,0.01879
3399.28399,0.01868
3397.22382,0.01859
3395.16365,0.01867
3393.10348,0.01883
3391.04330,0.01887
3388.98313,0.01898
3386.92296,0.01915
3384.86279,0.01934
3382.80262,0.01949
3380.74244,0.01945
3378.68227,0.01933
3376.62210,0.01941
3374.56193,0.01972
3372.50176,0.02001
3370.44158,0.02002
3368.38141,0.01981
3366.32124,0.01972
3364.26107,0.01985
3362.20089,0.01998
3360.14072,0.02007
3358.08055,0.02022
3356.02038,0.02032
3353.96021,0.02030
3351.90003,0.02040
3349.83986,0.02052
3347.77969,0.02044
3345.71952,0.02026
3343.65935,0.02018
3341.59917,0.02017
3339.53900,0.02009
3337.47883,0.02006
3335.41866,0.02014
3333.35849,0.02006
3331.29831,0.01995
3329.23814,0.02018
3327.17797,0.02054
3325.11780,0.02056
3323.05762,0.02031
3320.99745,0.02013
3318.93728,0.02024
3316.87711,0.02052
3314.81694,0.02055
3312.75676,0.02031
3310.69659,0.02028
3308.63642,0.02061
3306.57625,0.02094
3304.51608,0.02089
3302.45590,0.02067
3300.39573,0.02069
3298.33556,0.02090
3296.27539,0.02105
3294.21521,0.02100
3292.15504,0.02075
3290.09487,0.02046
3288.03470,0.02033
3285.97453,0.02048
3283.91435,0.02068
3281.85418,0.02071
3279.79401,0.02060
3277.73384,0.02056
3275.67367,0.02063
3273.61349,0.02068
3271.55332,0.02071
3269.49315,0.02084
3267.43298,0.02103
3265.37281,0.02104
3263.31263,0.02080
3261.25246,0.02052
3259.19229,0.02037
3257.13212,0.02033
3255.07194,0.02039
3253.01177,0.02047
3250.95160,0.02059
3248.89143,0.02064
3246.83126,0.02052
3244.77108,0.02039
3242.71091,0.02039
3240.65074,0.02040
3238.59057,0.02018
3236.53040,0.01981
3234.47022,0.01960
3232.41005,0.01955
3230.34988,0.01954
3228.28971,0.01973
3226.22954,0.01998
3224.16936,0.01991
3222.10919,0.01947
3220.04902,0.01912
3217.98885,0.01907
3215.92867,0.01912
3213.86850,0.01904
3211.80833,0.01884
3209.74816,0.01869
3207.68799,0.01876
3205.62781,0.01908
3203.56764,0.01925
3201.50747,0.01910
3199.44730,0.01888
3197.38713,0.01866
3195.32695,0.01845
3193.26678,0.01835
3191.20661,0.01828
3189.14644,0.01815
3187.08626,0.01803
3185.02609,0.01797
3182.96592,0.01795
3180.90575,0.01791
3178.84558,0.01771
3176.78540,0.01738
3174.72523,0.01734
3172.66506,0.01751
3170.60489,0.01748
3168.54472,0.01731
3166.48454,0.01712
3164.42437,0.01682
3162.36420,0.01656
3160.30403,0.01653
3158.24386,0.01667
3156.18368,0.01672
3154.12351,0.01653
3152.06334,0.01623
3150.00317,0.01610
3147.94299,0.01633
3145.88282,0.01659
3143.82265,0.01634
3141.76248,0.01574
3139.70231,0.01546
3137.64213,0.01551
3135.58196,0.01561
3133.52179,0.01568
3131.46162,0.01566
3129.40145,0.01553
3127.34127,0.01521
3125.28110,0.01486
3123.22093,0.01472
3121.16076,0.01468
3119.10058,0.01469
3117.04041,0.01471
3114.98024,0.01454
3112.92007,0.01436
3110.85990,0.01432
3108.79972,0.01413
3106.73955,0.01391
3104.67938,0.01395
3102.61921,0.01404
3100.55904,0.01391
3098.49886,0.01377
3096.43869,0.01368
3094.37852,0.01345
3092.31835,0.01334
3090.25818,0.01344
3088.19800,0.01339
3086.13783,0.01316
3084.07766,0.01300
3082.01749,0.01288
3079.95731,0.01272
3077.89714,0.01258
3075.83697,0.01248
3073.77680,0.01248
3071.71663,0.01257
3069.65645,0.01261
3067.59628,0.01257
3065.53611,0.01245
3063.47594,0.01221
3061.41577,0.01196
3059.35559,0.01185
3057.29542,0.01179
3055.23525,0.01160
3053.17508,0.01138
3051.11491,0.01137
3049.05473,0.01139
3046.99456,0.01127
3044.93439,0.01128
3042.87422,0.01148
3040.81404,0.01155
3038.75387,0.01140
3036.69370,0.01133
3034.63353,0.01150
3032.57336,0.01159
3030.51318,0.01136
3028.45301,0.01095
3026.39284,0.01067
3024.33267,0.01065
3022.27250,0.01075
3020.21232,0.01072
3018.15215,0.01048
3016.09198,0.01025
3014.03181,0.01029
3011.97163,0.01047
3009.91146,0.01043
3007.85129,0.01017
3005.79112,0.01005
3003.73095,0.01014
3001.67077,0.01014
2999.61060,0.00995
2997.55043,0.00986
2995.49026,0.01009
2993.43009,0.01030
2991.36991,0.01014
2989.30974,0.00993
2987.24957,0.00998
2985.18940,0.01019
2983.12923,0.01030
2981.06905,0.01023
2979.00888,0.01019
2976.94871,0.01027
2974.88854,0.01030
2972.82836,0.01032
2970.76819,0.01043
2968.70802,0.01062
2966.64785,0.01076
2964.58768,0.01078
2962.52750,0.01083
2960.46733,0.01096
2958.40716,0.01099
2956.34699,0.01095
2954.28682,0.01101
2952.22664,0.01114
2950.16647,0.01137
2948.10630,0.01172
2946.04613,0.01198
2943.98596,0.01197
2941.92578,0.01184
2939.86561,0.01189
2937.80544,0.01217
2935.74527,0.01238
2933.68509,0.01237
2931.62492,0.01244
2929.56475,0.01257
2927.50458,0.01258
2925.44441,0.01259
2923.38423,0.01262
2921.32406,0.01260
2919.26389,0.01245
2917.20372,0.01222
2915.14355,0.01213
2913.08337,0.01233
2911.02320,0.01255
2908.96303,0.01248
2906.90286,0.01230
2904.84268,0.01220
2902.78251,0.01208
2900.72234,0.01195
2898.66217,0.01197
2896.60200,0.01217
2894.54182,0.01235
2892.48165,0.01233
2890.42148,0.01216
2888.36131,0.01198
2886.30114,0.01187
2884.24096,0.01184
2882.18079,0.01182
2880.12062,0.01184
2878.06045,0.01190
2876.00028,0.01191
2873.94010,0.01191
2871.87993,0.01195
2869.81976,0.01186
2867.75959,0.01156
2865.69941,0.01129
2863.63924,0.01118
2861.57907,0.01106
2859.51890,0.01109
2857.45873,0.01123
2855.39855,0.01106
2853.33838,0.01075
2851.27821,0.01066
2849.21804,0.01071
2847.15787,0.01074
2845.09769,0.01069
2843.03752,0.01054
2840.97735,0.01039
2838.91718,0.01038
2836.85700,0.01052
2834.79683,0.01062
2832.73666,0.01054
2830.67649,0.01031
2828.61632,0.01004
2826.55614,0.00984
2824.49597,0.00980
2822.43580,0.00988
2820.37563,0.00984
2818.31546,0.00960
2816.25528,0.00938
2814.19511,0.00930
2812.13494,0.00930
2810.07477,0.00944
2808.01460,0.00975
2805.95442,0.00989
2803.89425,0.00964
2801.83408,0.00943
2799.77391,0.00954
2797.71373,0.00967
2795.65356,0.00973
2793.59339,0.00971
2791.53322,0.00946
2789.47305,0.00919
2787.41287,0.00914
2785.35270,0.00920
2783.29253,0.00914
2781.23236,0.00902
2779.17219,0.00906
2777.11201,0.00915
2775.05184,0.00915
2772.99167,0.00916
2770.93150,0.00911
2768.87133,0.00895
2766.81115,0.00885
2764.75098,0.00900
2762.69081,0.00920
2760.63064,0.00921
2758.57046,0.00901
2756.51029,0.00886
2754.45012,0.00890
2752.38995,0.00892
2750.32978,0.00881
2748.26960,0.00871
2746.20943,0.00869
2744.14926,0.00865
2742.08909,0.00852
2740.02892,0.00847
2737.96874,0.00853
2735.90857,0.00855
2733.84840,0.00858
2731.78823,0.00865
2729.72805,0.00877
2727.66788,0.00887
2725.60771,0.00880
2723.54754,0.00857
2721.48737,0.00848
2719.42719,0.00862
2717.36702,0.00870
2715.30685,0.00866
2713.24668,0.00864
2711.18651,0.00871
2709.12633,0.00867
2707.06616,0.00841
2705.00599,0.00821
2702.94582,0.00840
2700.88565,0.00878
2698.82547,0.00888
2696.76530,0.00866
2694.70513,0.00833
2692.64496,0.00816
2690.58478,0.00821
2688.52461,0.00829
2686.46444,0.00832
2684.40427,0.00828
2682.34410,0.00814
2680.28392,0.00812
2678.22375,0.00825
2676.16358,0.00829
2674.10341,0.00821
2672.04324,0.00813
2669.98306,0.00805
2667.92289,0.00804
2665.86272,0.00819
2663.80255,0.00838
2661.74238,0.00848
2659.68220,0.00849
2657.62203,0.00845
2655.56186,0.00838
2653.50169,0.00833
2651.44151,0.00829
2649.38134,0.00822
2647.32117,0.00821
2645.26100,0.00823
2643.20083,0.00814
2641.14065,0.00802
2639.08048,0.00802
2637.02031,0.00815
2634.96014,0.00829
2632.89997,0.00826
2630.83979,0.00805
2628.77962,0.00788
2626.71945,0.00784
2624.65928,0.00777
2622.59910,0.00753
2620.53893,0.00733
2618.47876,0.00729
2616.41859,0.00718
2614.35842,0.00700
2612.29824,0.00699
2610.23807,0.00712
2608.17790,0.00715
2606.11773,0.00704
2604.05756,0.00696
2601.99738,0.00686
2599.93721,0.00671
2597.87704,0.00678
2595.81687,0.00705
2593.75670,0.00718
2591.69652,0.00704
2589.63635,0.00683
2587.57618,0.00672
2585.51601,0.00682
2583.45583,0.00687
2581.39566,0.00681
2579.33549,0.00692
2577.27532,0.00696
2575.21515,0.00690
2573.15497,0.00673
2571.09480,0.00639
2569.03463,0.00625
2566.97446,0.00640
2564.91429,0.00652
2562.85411,0.00646
2560.79394,0.00639
2558.73377,0.00642
2556.67360,0.00651
2554.61342,0.00657
2552.55325,0.00643
2550.49308,0.00606
2548.43291,0.00596
2546.37274,0.00621
2544.31256,0.00611
2542.25239,0.00571
2540.19222,0.00574
2538.13205,0.00622
2536.07188,0.00653
2534.01170,0.00639
2531.95153,0.00623
2529.89136,0.00628
2527.83119,0.00623
2525.77102,0.00612
2523.71084,0.00619
2521.65067,0.00630
2519.59050,0.00629
2517.53033,0.00616
2515.47015,0.00600
2513.40998,0.00594
2511.34981,0.00593
2509.28964,0.00590
2507.22947,0.00583
2505.16929,0.00584
2503.10912,0.00612
2501.04895,0.00630
2498.98878,0.00623
2496.92861,0.00619
2494.86843,0.00617
2492.80826,0.00616
2490.74809,0.00598
2488.68792,0.00574
2486.62775,0.00597
2484.56757,0.00637
2482.50740,0.00638
2480.44723,0.00618
2478.38706,0.00595
2476.32688,0.00573
2474.26671,0.00575
2472.20654,0.00580
2470.14637,0.00562
2468.08620,0.00560
2466.02602,0.00574
2463.96585,0.00572
2461.90568,0.00571
2459.84551,0.00585
2457.78534,0.00597
2455.72516,0.00598
2453.66499,0.00601
2451.60482,0.00605
2449.54465,0.00603
2447.48447,0.00612
2445.42430,0.00630
2443.36413,0.00630
2441.30396,0.00614
2439.24379,0.00588
2437.18361,0.00565
2435.12344,0.00560
2433.06327,0.00580
2431.00310,0.00609
2428.94293,0.00604
2426.88275,0.00581
2424.82258,0.00577
2422.76241,0.00567
2420.70224,0.00549
2418.64207,0.00549
2416.58189,0.00545
2414.52172,0.00527
2412.46155,0.00517
2410.40138,0.00524
2408.34120,0.00533
2406.28103,0.00522
2404.22086,0.00515
2402.16069,0.00516
2400.10052,0.00510
2398.04034,0.00496
2395.98017,0.00505
2393.92000,0.00529
2391.85983,0.00549
2389.79966,0.00555
2387.73948,0.00550
2385.67931,0.00543
2383.61914,0.00551
2381.55897,0.00573
2379.49880,0.00591
2377.43862,0.00603
2375.37845,0.00651
2373.31828,0.00695
2371.25811,0.00673
2369.19793,0.00644
2367.13776,0.00627
2365.07759,0.00581
2363.01742,0.00524
2360.95725,0.00349
2358.89707,0.00319
2356.83690,0.00506
2354.77673,0.00734
2352.71656,0.00807
2350.65639,0.00606
2348.59621,0.00469
2346.53604,0.00707
2344.47587,0.00835
2342.41570,0.00854
2340.35552,0.00775
2338.29535,0.00609
2336.23518,0.00516
2334.17501,0.00486
2332.11484,0.00474
2330.05466,0.00474
2327.99449,0.00549
2325.93432,0.00608
2323.87415,0.00645
2321.81398,0.00655
2319.75380,0.00670
2317.69363,0.00604
2315.63346,0.00547
2313.57329,0.00556
2311.51312,0.00595
2309.45294,0.00604
2307.39277,0.00572
2305.33260,0.00557
2303.27243,0.00589
2301.21225,0.00631
2299.15208,0.00623
2297.09191,0.00590
2295.03174,0.00577
2292.97157,0.00588
2290.91139,0.00614
2288.85122,0.00622
2286.79105,0.00598
2284.73088,0.00575
2282.67071,0.00568
2280.61053,0.00564
2278.55036,0.00563
2276.49019,0.00569
2274.43002,0.00566
2272.36984,0.00538
2270.30967,0.00502
2268.24950,0.00493
2266.18933,0.00505
2264.12916,0.00509
2262.06898,0.00509
2260.00881,0.00521
2257.94864,0.00525
2255.88847,0.00545
2253.82830,0.00579
2251.76812,0.00571
2249.70795,0.00529
2247.64778,0.00518
2245.58761,0.00512
2243.52744,0.00476
2241.46726,0.00444
2239.40709,0.00438
2237.34692,0.00451
2235.28675,0.00473
2233.22657,0.00491
2231.16640,0.00502
2229.10623,0.00493
2227.04606,0.00464
2224.98589,0.00442
2222.92571,0.00419
2220.86554,0.00375
2218.80537,0.00370
2216.74520,0.00425
2214.68503,0.00443
2212.62485,0.00415
2210.56468,0.00438
2208.50451,0.00443
2206.44434,0.00359
2204.38417,0.00292
2202.32399,0.00306
2200.26382,0.00368
2198.20365,0.00417
2196.14348,0.00452
2194.08330,0.00527
2192.02313,0.00571
2189.96296,0.00531
2187.90279,0.00504
2185.84262,0.00517
2183.78244,0.00517
2181.72227,0.00486
2179.66210,0.00437
2177.60193,0.00359
2175.54176,0.00294
2173.48158,0.00299
2171.42141,0.00315
2169.36124,0.00297
2167.30107,0.00318
2165.24089,0.00397
2163.18072,0.00412
2161.12055,0.00250
2159.06038,0.00010
2157.00021,0.00000
2154.94003,0.00160
2152.87986,0.00214
2150.81969,0.00249
2148.75952,0.00323
2146.69935,0.00335
2144.63917,0.00302
2142.57900,0.00281
2140.51883,0.00284
2138.45866,0.00295
2136.39849,0.00310
2134.33831,0.00300
2132.27814,0.00276
2130.21797,0.00300
2128.15780,0.00334
2126.09762,0.00323
2124.03745,0.00282
2121.97728,0.00260
2119.91711,0.00293
2117.85694,0.00353
2115.79676,0.00378
2113.73659,0.00375
2111.67642,0.00402
2109.61625,0.00451
2107.55608,0.00446
2105.49590,0.00398
2103.43573,0.00381
2101.37556,0.00381
2099.31539,0.00358
2097.25521,0.00320
2095.19504,0.00310
2093.13487,0.00349
2091.07470,0.00398
2089.01453,0.00417
2086.95435,0.00395
2084.89418,0.00357
2082.83401,0.00342
2080.77384,0.00344
2078.71367,0.00338
2076.65349,0.00334
2074.59332,0.00360
2072.53315,0.00414
2070.47298,0.00442
2068.41281,0.00424
2066.35263,0.00384
2064.29246,0.00321
2062.23229,0.00270
2060.17212,0.00269
2058.11194,0.00301
2056.05177,0.00323
2053.99160,0.00310
2051.93143,0.00307
2049.87126,0.00304
2047.81108,0.00269
2045.75091,0.00219
2043.69074,0.00172
2041.63057,0.00163
2039.57040,0.00196
2037.51022,0.00260
2035.45005,0.00346
2033.38988,0.00415
2031.32971,0.00406
2029.26954,0.00365
2027.20936,0.00362
2025.14919,0.00350
2023.08902,0.00318
2021.02885,0.00288
2018.96867,0.00265
2016.90850,0.00248
2014.84833,0.00256
2012.78816,0.00310
2010.72799,0.00297
2008.66781,0.00179
2006.60764,0.00084
2004.54747,0.00100
2002.48730,0.00170
2000.42713,0.00213
1998.36695,0.00262
1996.30678,0.00327
1994.24661,0.00322
1992.18644,0.00275
1990.12626,0.00292
1988.06609,0.00352
1986.00592,0.00385
1983.94575,0.00429
1981.88558,0.00454
1979.82540,0.00355
1977.76523,0.00148
1975.70506,0.00003
1973.64489,0.00000
1971.58472,0.00054
1969.52454,0.00116
1967.46437,0.00162
1965.40420,0.00174
1963.34403,0.00210
1961.28386,0.00229
1959.22368,0.00183
1957.16351,0.00170
1955.10334,0.00220
1953.04317,0.00267
1950.98299,0.00278
1948.92282,0.00259
1946.86265,0.00244
1944.80248,0.00274
1942.74231,0.00316
1940.68213,0.00313
1938.62196,0.00346
1936.56179,0.00412
1934.50162,0.00418
1932.44145,0.00355
1930.38127,0.00268
1928.32110,0.00200
1926.26093,0.00171
1924.20076,0.00207
1922.14059,0.00230
1920.08041,0.00231
1918.02024,0.00259
1915.96007,0.00256
1913.89990,0.00269
1911.83972,0.00296
1909.77955,0.00291
1907.71938,0.00262
1905.65921,0.00247
1903.59904,0.00251
1901.53886,0.00258
1899.47869,0.00280
1897.41852,0.00323
1895.35835,0.00335
1893.29818,0.00284
1891.23800,0.00268
1889.17783,0.00275
1887.11766,0.00235
1885.05749,0.00236
1882.99731,0.00279
1880.93714,0.00304
1878.87697,0.00309
1876.81680,0.00314
1874.75663,0.00292
1872.69645,0.00238
1870.63628,0.00230
1868.57611,0.00234
1866.51594,0.00181
1864.45577,0.00163
1862.39559,0.00194
1860.33542,0.00213
1858.27525,0.00219
1856.21508,0.00230
1854.15491,0.00243
1852.09473,0.00242
1850.03456,0.00229
1847.97439,0.00216
1845.91422,0.00244
1843.85404,0.00271
1841.79387,0.00227
1839.73370,0.00239
1837.67353,0.00278
1835.61336,0.00234
1833.55318,0.00173
1831.49301,0.00216
1829.43284,0.00261
1827.37267,0.00240
1825.31250,0.00258
1823.25232,0.00242
1821.19215,0.00202
1819.13198,0.00205
1817.07181,0.00212
1815.01163,0.00193
1812.95146,0.00204
1810.89129,0.00243
1808.83112,0.00246
1806.77095,0.00225
1804.71077,0.00215
1802.65060,0.00233
1800.59043,0.00235
1798.53026,0.00176
1796.47009,0.00127
1794.40991,0.00169
1792.34974,0.00235
1790.28957,0.00190
1788.22940,0.00153
1786.16923,0.00197
1784.10905,0.00225
1782.04888,0.00247
1779.98871,0.00246
1777.92854,0.00172
1775.86836,0.00132
1773.80819,0.00196
1771.74802,0.00227
1769.68785,0.00172
1767.62768,0.00161
1765.56750,0.00165
1763.50733,0.00235
1761.44716,0.00285
1759.38699,0.00252
1757.32682,0.00271
1755.26664,0.00269
1753.20647,0.00293
1751.14630,0.00390
1749.08613,0.00427
1747.02596,0.00419
1744.96578,0.00438
1742.90561,0.00483
1740.84544,0.00532
1738.78527,0.00493
1736.72509,0.00480
1734.66492,0.00640
1732.60475,0.00651
1730.54458,0.00584
1728.48441,0.00595
1726.42423,0.00616
1724.36406,0.00619
1722.30389,0.00547
1720.24372,0.00536
1718.18355,0.00638
1716.12337,0.00610
1714.06320,0.00495
1712.00303,0.00426
1709.94286,0.00408
1707.88268,0.00429
1705.82251,0.00406
1703.76234,0.00285
1701.70217,0.00307
1699.64200,0.00351
1697.58182,0.00338
1695.52165,0.00402
1693.46148,0.00327
1691.40131,0.00292
1689.34114,0.00289
1687.28096,0.00284
1685.22079,0.00431
1683.16062,0.00424
1681.10045,0.00267
1679.04028,0.00259
1676.98010,0.00374
1674.91993,0.00425
1672.85976,0.00374
1670.79959,0.00479
1668.73941,0.00550
1666.67924,0.00470
1664.61907,0.00527
1662.55890,0.00654
1660.49873,0.00612
1658.43855,0.00517
1656.37838,0.00577
1654.31821,0.00837
1652.25804,0.00785
1650.19787,0.00520
1648.13769,0.00665
1646.07752,0.00848
1644.01735,0.00780
1641.95718,0.00746
1639.89701,0.00787
1637.83683,0.00923
1635.77666,0.01068
1633.71649,0.00964
1631.65632,0.00874
1629.59614,0.00938
1627.53597,0.00965
1625.47580,0.00971
1623.41563,0.01024
1621.35546,0.00975
1619.29528,0.01000
1617.23511,0.01153
1615.17494,0.01128
1613.11477,0.01051
1611.05460,0.01098
1608.99442,0.01138
1606.93425,0.01106
1604.87408,0.01064
1602.81391,0.01045
1600.75373,0.01017
1598.69356,0.00979
1596.63339,0.00949
1594.57322,0.00906
1592.51305,0.00845
1590.45287,0.00796
1588.39270,0.00758
1586.33253,0.00731
1584.27236,0.00709
1582.21219,0.00654
1580.15201,0.00581
1578.09184,0.00613
1576.03167,0.00625
1573.97150,0.00440
1571.91133,0.00400
1569.85115,0.00506
1567.79098,0.00435
1565.73081,0.00316
1563.67064,0.00217
1561.61046,0.00284
1559.55029,0.00537
1557.49012,0.00386
1555.42995,0.00198
1553.36978,0.00214
1551.30960,0.00256
1549.24943,0.00236
1547.18926,0.00164
1545.12909,0.00151
1543.06892,0.00187
1541.00874,0.00297
1538.94857,0.00234
1536.88840,0.00048
1534.82823,0.00140
1532.76805,0.00237
1530.70788,0.00133
1528.64771,0.00104
1526.58754,0.00100
1524.52737,0.00049
1522.46719,0.00100
1520.40702,0.00091
1518.34685,0.00061
1516.28668,0.00114
1514.22651,0.00080
1512.16633,0.00014
1510.10616,0.00044
1508.04599,0.00259
1505.98582,0.00292
1503.92565,0.00060
1501.86547,0.00000
1499.80530,0.00107
1497.74513,0.00197
1495.68496,0.00148
1493.62478,0.00066
1491.56461,0.00160
1489.50444,0.00279
1487.44427,0.00238
1485.38410,0.00165
1483.32392,0.00178
1481.26375,0.00221
1479.20358,0.00212
1477.14341,0.00222
1475.08324,0.00293
1473.02306,0.00386
1470.96289,0.00331
1468.90272,0.00257
1466.84255,0.00357
1464.78238,0.00444
1462.72220,0.00345
1460.66203,0.00327
1458.60186,0.00531
1456.54169,0.00612
1454.48151,0.00451
1452.42134,0.00409
1450.36117,0.00503
1448.30100,0.00597
1446.24083,0.00599
1444.18065,0.00569
1442.12048,0.00556
1440.06031,0.00562
1438.00014,0.00667
1435.93997,0.00714
1433.87979,0.00633
1431.81962,0.00673
1429.75945,0.00765
1427.69928,0.00774
1425.63910,0.00787
1423.57893,0.00790
1421.51876,0.00808
1419.45859,0.00907
1417.39842,0.00898
1415.33824,0.00848
1413.27807,0.00880
1411.21790,0.00918
1409.15773,0.00912
1407.09756,0.00925
1405.03738,0.00937
1402.97721,0.00875
1400.91704,0.00842
1398.85687,0.00849
1396.79670,0.00839
1394.73652,0.00837
1392.67635,0.00776
1390.61618,0.00744
1388.55601,0.00812
1386.49583,0.00849
1384.43566,0.00827
1382.37549,0.00834
1380.31532,0.00853
1378.25515,0.00857
1376.19497,0.00890
1374.13480,0.00935
1372.07463,0.00917
1370.01446,0.00900
1367.95429,0.00889
1365.89411,0.00870
1363.83394,0.00898
1361.77377,0.00893
1359.71360,0.00840
1357.65343,0.00828
1355.59325,0.00840
1353.53308,0.00833
1351.47291,0.00820
1349.41274,0.00814
1347.35256,0.00798
1345.29239,0.00772
1343.23222,0.00755
1341.17205,0.00768
1339.11188,0.00761
1337.05170,0.00709
1334.99153,0.00689
1332.93136,0.00704
1330.87119,0.00720
1328.81102,0.00735
1326.75084,0.00756
1324.69067,0.00759
1322.63050,0.00748
1320.57033,0.00757
1318.51015,0.00762
1316.44998,0.00740
1314.38981,0.00735
1312.32964,0.00739
1310.26947,0.00722
1308.20929,0.00701
1306.14912,0.00680
1304.08895,0.00656
1302.02878,0.00640
1299.96861,0.00632
1297.90843,0.00624
1295.84826,0.00614
1293.78809,0.00609
1291.72792,0.00606
1289.66775,0.00600
1287.60757,0.00593
1285.54740,0.00584
1283.48723,0.00589
1281.42706,0.00607
1279.36688,0.00621
1277.30671,0.00629
1275.24654,0.00641
1273.18637,0.00656
1271.12620,0.00664
1269.06602,0.00675
1267.00585,0.00712
1264.94568,0.00771
1262.88551,0.00822
1260.82534,0.00860
1258.76516,0.00893
1256.70499,0.00926
1254.64482,0.00952
1252.58465,0.00970
1250.52447,0.00989
1248.46430,0.01006
1246.40413,0.01017
1244.34396,0.01021
1242.28379,0.01023
1240.22361,0.01020
1238.16344,0.01001
1236.10327,0.00970
1234.04310,0.00934
1231.98293,0.00898
1229.92275,0.00870
1227.86258,0.00844
1225.80241,0.00806
1223.74224,0.00764
1221.68207,0.00725
1219.62189,0.00686
1217.56172,0.00638
1215.50155,0.00586
1213.44138,0.00529
1211.38120,0.00477
1209.32103,0.00438
1207.26086,0.00404
1205.20069,0.00362
1203.14052,0.00310
1201.08034,0.00249
1199.02017,0.00184
1196.96000,0.00122
1194.89983,0.00072
1192.83966,0.00033
1190.77948,0.00005
1188.71931,0.00000
1186.65914,0.00008
1184.59897,0.00015
1182.53880,0.00017
1180.47862,0.00022
1178.41845,0.00046
1176.35828,0.00091
1174.29811,0.00150
1172.23793,0.00212
1170.17776,0.00281
1168.11759,0.00367
1166.05742,0.00452
1163.99725,0.00523
1161.93707,0.00598
1159.87690,0.00666
1157.81673,0.00714
1155.75656,0.00761
1153.69639,0.00820
1151.63621,0.00886
1149.57604,0.00950
1147.51587,0.00993
1145.45570,0.01022
1143.39552,0.01051
1141.33535,0.01071
1139.27518,0.01080
1137.21501,0.01099
1135.15484,0.01128
1133.09466,0.01146
1131.03449,0.01170
1128.97432,0.01226
1126.91415,0.01297
1124.85398,0.01363
1122.79380,0.01420
1120.73363,0.01476
1118.67346,0.01536
1116.61329,0.01587
1114.55312,0.01630
1112.49294,0.01682
1110.43277,0.01738
1108.37260,0.01796
1106.31243,0.01863
1104.25225,0.01945
1102.19208,0.02055
1100.13191,0.02183
1098.07174,0.02317
1096.01157,0.02458
1093.95139,0.02594
1091.89122,0.02696
1089.83105,0.02780
1087.77088,0.02879
1085.71071,0.02986
1083.65053,0.03089
1081.59036,0.03202
1079.53019,0.03316
1077.47002,0.03401
1075.40985,0.03480
1073.34967,0.03583
1071.28950,0.03685
1069.22933,0.03774
1067.16916,0.03855
1065.10898,0.03918
1063.04881,0.03974
1060.98864,0.04029
1058.92847,0.04074
1056.86830,0.04120
1054.80812,0.04187
1052.74795,0.04274
1050.68778,0.04372
1048.62761,0.04462
1046.56744,0.04542
1044.50726,0.04628
1042.44709,0.04712
1040.38692,0.04795
1038.32675,0.04856
1036.26657,0.04865
1034.20640,0.04839
1032.14623,0.04805
1030.08606,0.04774
1028.02589,0.04752
1025.96571,0.04728
1023.90554,0.04678
1021.84537,0.04608
1019.78520,0.04557
1017.72503,0.04528
1015.66485,0.04508
1013.60468,0.04493
1011.54451,0.04473
1009.48434,0.04447
1007.42417,0.04405
1005.36399,0.04340
1003.30382,0.04262
1001.24365,0.04159
999.18348,0.04028
997.12330,0.03896
995.06313,0.03781
993.00296,0.03684
990.94279,0.03595
988.88262,0.03514
986.82244,0.03451
984.76227,0.03410
982.70210,0.03375
980.64193,0.03345
978.58176,0.03322
976.52158,0.03282
974.46141,0.03204
972.40124,0.03105
970.34107,0.03009
968.28089,0.02919
966.22072,0.02831
964.16055,0.02734
962.10038,0.02633
960.04021,0.02559
957.98003,0.02504
955.91986,0.02448
953.85969,0.02401
951.79952,0.02344
949.73935,0.02274
947.67917,0.02199
945.61900,0.02089
943.55883,0.01964
941.49866,0.01863
939.43849,0.01754
937.37831,0.01621
935.31814,0.01485
933.25797,0.01361
931.19780,0.01264
929.13762,0.01185
927.07745,0.01104
925.01728,0.01027
922.95711,0.00958
920.89694,0.00886
918.83676,0.00832
916.77659,0.00811
914.71642,0.00785
912.65625,0.00724
910.59608,0.00663
908.53590,0.00631
906.47573,0.00612
904.41556,0.00603
902.35539,0.00604
900.29522,0.00609
898.23504,0.00614
896.17487,0.00617
894.11470,0.00624
892.05453,0.00630
889.99435,0.00619
887.93418,0.00604
885.87401,0.00579
883.81384,0.00535
881.75367,0.00499
879.69349,0.00462
877.63332,0.00396
875.57315,0.00320
873.51298,0.00288
871.45281,0.00315
869.39263,0.00349
867.33246,0.00351
865.27229,0.00334
863.21212,0.00315
861.15194,0.00303
859.09177,0.00276
857.03160,0.00234
854.97143,0.00207
852.91126,0.00179
850.85108,0.00153
848.79091,0.00155
846.73074,0.00171
844.67057,0.00177
842.61040,0.00158
840.55022,0.00120
838.49005,0.00085
836.42988,0.00042
834.36971,0.00000
832.30954,0.00005
830.24936,0.00047
828.18919,0.00061
826.12902,0.00023
824.06885,-0.00002
822.00867,0.00041
819.94850,0.00074
817.88833,0.00060
815.82816,0.00040
813.76799,0.00013
811.70781,0.00008
809.64764,0.00062
807.58747,0.00111
805.52730,0.00102
803.46713,0.00088
801.40695,0.00098
799.34678,0.00105
797.28661,0.00088
795.22644,0.00041
793.16627,0.00005
791.10609,0.00034
789.04592,0.00107
786.98575,0.00146
784.92558,0.00108
782.86540,0.00032
780.80523,-0.00006
778.74506,-0.00004
776.68489,0.00004
774.62472,0.00024
772.56454,0.00037
770.50437,0.00022
768.44420,-0.00011
766.38403,-0.00027
764.32386,-0.00005
762.26368,0.00028
760.20351,0.00059
758.14334,0.00090
756.08317,0.00078
754.02299,0.00044
751.96282,0.00037
749.90265,0.00028
747.84248,0.00000
745.78231,-0.00010
743.72213,0.00016
741.66196,0.00040
739.60179,0.00031
737.54162,-0.00003
735.48145,-0.00011
733.42127,-0.00009
731.36110,-0.00033
729.30093,-0.00045
727.24076,-0.00016
725.18059,0.00012
723.12041,0.00029
721.06024,0.00089
719.00007,0.00101
716.93990,0.00072
714.87972,0.00052
712.81955,0.00049
710.75938,0.00079
708.69921,0.00131
706.63904,0.00184
704.57886,0.00248
702.51869,0.00309
700.45852,0.00340
698.39835,0.00357
696.33818,0.00359
694.27800,0.00305
692.21783,0.00216
690.15766,0.00160
688.09749,0.00164
686.03731,0.00193
683.97714,0.00212
681.91697,0.00226
679.85680,0.00212
677.79663,0.00165
675.73645,0.00138
673.67628,0.00087
671.61611,0.00000
669.55594,0.00340
667.49577,0.00639
665.43559,0.00093
663.37542,0.00119
661.31525,0.00260
659.25508,0.00251
657.19491,0.00169
655.13473,0.00114
653.07456,0.00109
651.01439,0.00073
648.95422,0.00000
646.89404,-0.00019
644.83387,0.00059
642.77370,0.00101
640.71353,0.00076
638.65336,0.00040
636.59318,0.00001
634.53301,-0.00059
632.47284,-0.00133
630.41267,-0.00151
628.35250,-0.00066
626.29232,0.00023
624.23215,-0.00005
622.17198,-0.00052
620.11181,0.00038
618.05164,0.00154
615.99146,0.00055
613.93129,-0.00090
611.87112,-0.00057
609.81095,-0.00089
607.75077,-0.00246
605.69060,-0.00237
603.63043,-0.00116
601.57026,-0.00045
599.51009,0.00000
