3996.73391,0.00008
3994.67373,0.00014
3992.61356,0.00017
3990.55339,0.00005
3988.49322,0.00000
3986.43305,0.00024
3984.37287,0.00052
3982.31270,0.00055
3980.25253,0.00048
3978.19236,0.00048
3976.13219,0.00058
3974.07201,0.00064
3972.01184,0.00055
3969.95167,0.00051
3967.89150,0.00060
3965.83133,0.00058
3963.77115,0.00040
3961.71098,0.00024
3959.65081,0.00024
3957.59064,0.00039
3955.53046,0.00049
3953.47029,0.00046
3951.41012,0.00052
3949.34995,0.00079
3947.28978,0.00100
3945.22960,0.00094
3943.16943,0.00078
3941.10926,0.00073
3939.04909,0.00073
3936.98892,0.00064
3934.92874,0.00062
3932.86857,0.00075
3930.80840,0.00079
3928.74823,0.00070
3926.68805,0.00068
3924.62788,0.00075
3922.56771,0.00092
3920.50754,0.00111
3918.44737,0.00114
3916.38719,0.00105
3914.32702,0.00104
3912.26685,0.00104
3910.20668,0.00102
3908.14651,0.00114
3906.08633,0.00127
3904.02616,0.00119
3901.96599,0.00106
3899.90582,0.00085
3897.84565,0.00055
3895.78547,0.00060
3893.72530,0.00089
3891.66513,0.00084
3889.60496,0.00065
3887.54478,0.00071
3885.48461,0.00076
3883.42444,0.00070
3881.36427,0.00059
3879.30410,0.00036
3877.24392,0.00036
3875.18375,0.00063
3873.12358,0.00079
3871.06341,0.00070
3869.00324,0.00054
3866.94306,0.00063
3864.88289,0.00077
3862.82272,0.00068
3860.76255,0.00068
3858.70237,0.00106
3856.64220,0.00150
3854.58203,0.00130
3852.52186,0.00036
3850.46169,0.00000
3848.40151,0.00048
3846.34134,0.00099
3844.28117,0.00108
3842.22100,0.00095
3840.16083,0.00094
3838.10065,0.00111
3836.04048,0.00132
3833.98031,0.00140
3831.92014,0.00131
3829.85997,0.00112
3827.79979,0.00098
3825.73962,0.00112
3823.67945,0.00133
3821.61928,0.00109
3819.55910,0.00066
3817.49893,0.00057
3815.43876,0.00062
3813.37859,0.00088
3811.31842,0.00123
3809.25824,0.00128
3807.19807,0.00099
3805.13790,0.00079
3803.07773,0.00073
3801.01756,0.00044
3798.95738,0.00017
3796.89721,0.00020
3794.83704,0.00040
3792.77687,0.00067
3790.71670,0.00088
3788.65652,0.00093
3786.59635,0.00099
3784.53618,0.00101
3782.47601,0.00098
3780.41583,0.00107
3778.35566,0.00120
3776.29549,0.00115
3774.23532,0.00088
3772.17515,0.00065
3770.11497,0.00069
3768.05480,0.00101
3765.99463,0.00134
3763.93446,0.00156
3761.87429,0.00179
3759.81411,0.00174
3757.75394,0.00125
3755.69377,0.00087
3753.63360,0.00080
3751.57342,0.00047
3749.51325,0.00000
3747.45308,0.00018
3745.39291,0.00057
3743.33274,0.00059
3741.27256,0.00071
3739.21239,0.00098
3737.15222,0.00104
3735.09205,0.00088
3733.03188,0.00087
3730.97170,0.00100
3728.91153,0.00102
3726.85136,0.00087
3724.79119,0.00083
3722.73102,0.00098
3720.67084,0.00095
3718.61067,0.00085
3716.55050,0.00102
3714.49033,0.00145
3712.43015,0.00162
3710.36998,0.00102
3708.30981,0.00051
3706.24964,0.00072
3704.18947,0.00102
3702.12929,0.00080
3700.06912,0.00051
3698.00895,0.00078
3695.94878,0.00138
3693.88861,0.00185
3691.82843,0.00179
3689.76826,0.00122
3687.70809,0.00089
3685.64792,0.00108
3683.58775,0.00125
3681.52757,0.00131
3679.46740,0.00140
3677.40723,0.00151
3675.34706,0.00145
3673.28688,0.00145
3671.22671,0.00159
3669.16654,0.00150
3667.10637,0.00134
3665.04620,0.00140
3662.98602,0.00165
3660.92585,0.00186
3658.86568,0.00191
3656.80551,0.00203
3654.74534,0.00251
3652.68516,0.00292
3650.62499,0.00269
3648.56482,0.00213
3646.50465,0.00206
3644.44447,0.00247
3642.38430,0.00291
3640.32413,0.00319
3638.26396,0.00336
3636.20379,0.00352
3634.14361,0.00373
3632.08344,0.00397
3630.02327,0.00405
3627.96310,0.00373
3625.90293,0.00351
3623.84275,0.00372
3621.78258,0.00414
3619.72241,0.00432
3617.66224,0.00406
3615.60207,0.00382
3613.54189,0.00392
3611.48172,0.00430
3609.42155,0.00456
3607.36138,0.00483
3605.30120,0.00531
3603.24103,0.00562
3601.18086,0.00552
3599.12069,0.00532
3597.06052,0.00524
3595.00034,0.00525
3592.94017,0.00555
3590.88000,0.00625
3588.81983,0.00701
3586.75966,0.00736
3584.69948,0.00745
3582.63931,0.00759
3580.57914,0.00782
3578.51897,0.00799
3576.45879,0.00796
3574.39862,0.00794
3572.33845,0.00814
3570.27828,0.00841
3568.21811,0.00859
3566.15793,0.00871
3564.09776,0.00884
3562.03759,0.00904
3559.97742,0.00925
3557.91725,0.00937
3555.85707,0.00954
3553.79690,0.00991
3551.73673,0.01034
3549.67656,0.01074
3547.61639,0.01097
3545.55621,0.01086
3543.49604,0.01072
3541.43587,0.01096
3539.37570,0.01143
3537.31552,0.01187
3535.25535,0.01220
3533.19518,0.01238
3531.13501,0.01241
3529.07484,0.01243
3527.01466,0.01261
3524.95449,0.01288
3522.89432,0.01310
3520.83415,0.01334
3518.77398,0.01371
3516.71380,0.01405
3514.65363,0.01426
3512.59346,0.01430
3510.53329,0.01402
3508.47312,0.01391
3506.41294,0.01446
3504.35277,0.01508
3502.29260,0.01519
3500.23243,0.01514
3498.17225,0.01530
3496.11208,0.01545
3494.05191,0.01547
3491.99174,0.01551
3489.93157,0.01559
3487.87139,0.01574
3485.81122,0.01592
3483.75105,0.01604
3481.69088,0.01628
3479.63071,0.01655
3477.57053,0.01652
3475.51036,0.01643
3473.45019,0.01668
3471.39002,0.01698
3469.32984,0.01720
3467.26967,0.01759
3465.20950,0.01802
3463.14933,0.01834
3461.08916,0.01866
3459.02898,0.01879
3456.96881,0.01858
3454.90864,0.01836
3452.84847,0.01847
3450.78830,0.01889
3448.72812,0.01925
3446.66795,0.01921
3444.60778,0.01899
3442.54761,0.01928
3440.48744,0.02002
3438.42726,0.02031
3436.36709,0.01999
3434.30692,0.01972
3432.24675,0.01983
3430.18657,0.02010
3428.12640,0.02033
3426.06623,0.02044
3424.00606,0.02051
3421.94589,0.02068
3419.88571,0.02099
3417.82554,0.02115
3415.76537,0.02105
3413.70520,0.02104
3411.64503,0.02136
3409.58485,0.02171
3407.52468,0.02176
3405.46451,0.02171
3403.40434,0.02174
3401.34416,0.02172
3399.28399,0.02166
3397.22382,0.02169
3395.16365,0.02186
3393.10348,0.02211
3391.04330,0.02231
3388.98313,0.02239
3386.92296,0.02249
3384.86279,0.02281
3382.80262,0.02322
3380.74244,0.02335
3378.68227,0.02315
3376.62210,0.02296
3374.56193,0.02310
3372.50176,0.02334
3370.44158,0.02356
3368.38141,0.02369
3366.32124,0.02362
3364.26107,0.02350
3362.20089,0.02340
3360.14072,0.02333
3358.08055,0.02345
3356.02038,0.02383
3353.96021,0.02418
3351.90003,0.02418
3349.83986,0.02394
3347.77969,0.02380
3345.71952,0.02383
3343.65935,0.02394
3341.59917,0.02416
3339.53900,0.02439
3337.47883,0.02442
3335.41866,0.02438
3333.35849,0.02442
3331.29831,0.02438
3329.23814,0.02426
3327.17797,0.02406
3325.11780,0.02390
3323.05762,0.02404
3320.99745,0.02437
3318.93728,0.02446
3316.87711,0.02422
3314.81694,0.02402
3312.75676,0.02411
3310.69659,0.02433
3308.63642,0.02453
3306.57625,0.02462
3304.51608,0.02464
3302.45590,0.02462
3300.39573,0.02461
3298.33556,0.02461
3296.27539,0.02464
3294.21521,0.02468
3292.15504,0.02458
3290.09487,0.02444
3288.03470,0.02449
3285.97453,0.02465
3283.91435,0.02468
3281.85418,0.02455
3279.79401,0.02450
3277.73384,0.02449
3275.67367,0.02448
3273.61349,0.02465
3271.55332,0.02491
3269.49315,0.02513
3267.43298,0.02527
3265.37281,0.02524
3263.31263,0.02497
3261.25246,0.02441
3259.19229,0.02381
3257.13212,0.02361
3255.07194,0.02380
3253.01177,0.02407
3250.95160,0.02424
3248.89143,0.02429
3246.83126,0.02433
3244.77108,0.02447
3242.71091,0.02460
3240.65074,0.02453
3238.59057,0.02425
3236.53040,0.02393
3234.47022,0.02366
3232.41005,0.02350
3230.34988,0.02356
3228.28971,0.02367
3226.22954,0.02355
3224.16936,0.02339
3222.10919,0.02339
3220.04902,0.02344
3217.98885,0.02336
3215.92867,0.02312
3213.86850,0.02287
3211.80833,0.02275
3209.74816,0.02266
3207.68799,0.02254
3205.62781,0.02242
3203.56764,0.02234
3201.50747,0.02232
3199.44730,0.02215
3197.38713,0.02181
3195.32695,0.02160
3193.26678,0.02153
3191.20661,0.02142
3189.14644,0.02124
3187.08626,0.02099
3185.02609,0.02087
3182.96592,0.02099
3180.90575,0.02101
3178.84558,0.02076
3176.78540,0.02044
3174.72523,0.02027
3172.66506,0.02012
3170.60489,0.01983
3168.54472,0.01965
3166.48454,0.01973
3164.42437,0.01976
3162.36420,0.01957
3160.30403,0.01929
3158.24386,0.01906
3156.18368,0.01897
3154.12351,0.01893
3152.06334,0.01882
3150.00317,0.01870
3147.94299,0.01873
3145.88282,0.01874
3143.82265,0.01854
3141.76248,0.01823
3139.70231,0.01799
3137.64213,0.01769
3135.58196,0.01728
3133.52179,0.01706
3131.46162,0.01713
3129.40145,0.01707
3127.34127,0.01686
3125.28110,0.01668
3123.22093,0.01637
3121.16076,0.01597
3119.10058,0.01581
3117.04041,0.01578
3114.98024,0.01560
3112.92007,0.01541
3110.85990,0.01544
3108.79972,0.01556
3106.73955,0.01558
3104.67938,0.01543
3102.61921,0.01514
3100.55904,0.01494
3098.49886,0.01485
3096.43869,0.01471
3094.37852,0.01449
3092.31835,0.01424
3090.25818,0.01399
3088.19800,0.01371
3086.13783,0.01346
3084.07766,0.01328
3082.01749,0.01298
3079.95731,0.01265
3077.89714,0.01255
3075.83697,0.01258
3073.77680,0.01255
3071.71663,0.01256
3069.65645,0.01268
3067.59628,0.01273
3065.53611,0.01255
3063.47594,0.01233
3061.41577,0.01218
3059.35559,0.01201
3057.29542,0.01181
3055.23525,0.01168
3053.17508,0.01155
3051.11491,0.01135
3049.05473,0.01118
3046.99456,0.01106
3044.93439,0.01101
3042.87422,0.01099
3040.81404,0.01088
3038.75387,0.01064
3036.69370,0.01043
3034.63353,0.01039
3032.57336,0.01035
3030.51318,0.01014
3028.45301,0.00988
3026.39284,0.00974
3024.33267,0.00972
3022.27250,0.00963
3020.21232,0.00952
3018.15215,0.00961
3016.09198,0.00983
3014.03181,0.00988
3011.97163,0.00970
3009.91146,0.00946
3007.85129,0.00925
3005.79112,0.00908
3003.73095,0.00900
3001.67077,0.00906
2999.61060,0.00921
2997.55043,0.00918
2995.49026,0.00891
2993.43009,0.00882
2991.36991,0.00902
2989.30974,0.00913
2987.24957,0.00900
2985.18940,0.00882
2983.12923,0.00877
2981.06905,0.00891
2979.00888,0.00917
2976.94871,0.00944
2974.88854,0.00954
2972.82836,0.00956
2970.76819,0.00973
2968.70802,0.00987
2966.64785,0.00984
2964.58768,0.00995
2962.52750,0.01014
2960.46733,0.01024
2958.40716,0.01051
2956.34699,0.01093
2954.28682,0.01117
2952.22664,0.01130
2950.16647,0.01147
2948.10630,0.01169
2946.04613,0.01197
2943.98596,0.01221
2941.92578,0.01244
2939.86561,0.01269
2937.80544,0.01278
2935.74527,0.01278
2933.68509,0.01282
2931.62492,0.01278
2929.56475,0.01280
2927.50458,0.01290
2925.44441,0.01281
2923.38423,0.01253
2921.32406,0.01220
2919.26389,0.01197
2917.20372,0.01188
2915.14355,0.01183
2913.08337,0.01183
2911.02320,0.01181
2908.96303,0.01168
2906.90286,0.01158
2904.84268,0.01163
2902.78251,0.01166
2900.72234,0.01156
2898.66217,0.01148
2896.60200,0.01145
2894.54182,0.01139
2892.48165,0.01125
2890.42148,0.01110
2888.36131,0.01100
2886.30114,0.01093
2884.24096,0.01080
2882.18079,0.01058
2880.12062,0.01051
2878.06045,0.01064
2876.00028,0.01064
2873.94010,0.01055
2871.87993,0.01047
2869.81976,0.01025
2867.75959,0.01005
2865.69941,0.00998
2863.63924,0.00983
2861.57907,0.00967
2859.51890,0.00959
2857.45873,0.00952
2855.39855,0.00951
2853.33838,0.00938
2851.27821,0.00915
2849.21804,0.00902
2847.15787,0.00892
2845.09769,0.00880
2843.03752,0.00874
2840.97735,0.00867
2838.91718,0.00851
2836.85700,0.00834
2834.79683,0.00824
2832.73666,0.00807
2830.67649,0.00787
2828.61632,0.00781
2826.55614,0.00788
2824.49597,0.00795
2822.43580,0.00795
2820.37563,0.00789
2818.31546,0.00776
2816.25528,0.00767
2814.19511,0.00765
2812.13494,0.00764
2810.07477,0.00758
2808.01460,0.00756
2805.95442,0.00749
2803.89425,0.00729
2801.83408,0.00709
2799.77391,0.00699
2797.71373,0.00699
2795.65356,0.00700
2793.59339,0.00692
2791.53322,0.00690
2789.47305,0.00700
2787.41287,0.00701
2785.35270,0.00694
2783.29253,0.00690
2781.23236,0.00680
2779.17219,0.00660
2777.11201,0.00643
2775.05184,0.00640
2772.99167,0.00650
2770.93150,0.00663
2768.87133,0.00668
2766.81115,0.00661
2764.75098,0.00643
2762.69081,0.00626
2760.63064,0.00622
2758.57046,0.00626
2756.51029,0.00627
2754.45012,0.00617
2752.38995,0.00606
2750.32978,0.00616
2748.26960,0.00639
2746.20943,0.00650
2744.14926,0.00646
2742.08909,0.00635
2740.02892,0.00623
2737.96874,0.00614
2735.90857,0.00607
2733.84840,0.00599
2731.78823,0.00593
2729.72805,0.00599
2727.66788,0.00614
2725.60771,0.00616
2723.54754,0.00606
2721.48737,0.00601
2719.42719,0.00596
2717.36702,0.00589
2715.30685,0.00598
2713.24668,0.00613
2711.18651,0.00606
2709.12633,0.00593
2707.06616,0.00592
2705.00599,0.00595
2702.94582,0.00592
2700.88565,0.00580
2698.82547,0.00563
2696.76530,0.00557
2694.70513,0.00567
2692.64496,0.00580
2690.58478,0.00583
2688.52461,0.00584
2686.46444,0.00582
2684.40427,0.00566
2682.34410,0.00546
2680.28392,0.00543
2678.22375,0.00550
2676.16358,0.00547
2674.10341,0.00533
2672.04324,0.00520
2669.98306,0.00521
2667.92289,0.00532
2665.86272,0.00533
2663.80255,0.00540
2661.74238,0.00564
2659.68220,0.00579
2657.62203,0.00575
2655.56186,0.00559
2653.50169,0.00544
2651.44151,0.00539
2649.38134,0.00543
2647.32117,0.00549
2645.26100,0.00553
2643.20083,0.00549
2641.14065,0.00534
2639.08048,0.00526
2637.02031,0.00533
2634.96014,0.00538
2632.89997,0.00523
2630.83979,0.00497
2628.77962,0.00486
2626.71945,0.00485
2624.65928,0.00488
2622.59910,0.00483
2620.53893,0.00456
2618.47876,0.00433
2616.41859,0.00441
2614.35842,0.00462
2612.29824,0.00468
2610.23807,0.00465
2608.17790,0.00467
2606.11773,0.00476
2604.05756,0.00478
2601.99738,0.00460
2599.93721,0.00430
2597.87704,0.00417
2595.81687,0.00439
2593.75670,0.00487
2591.69652,0.00523
2589.63635,0.00507
2587.57618,0.00459
2585.51601,0.00428
2583.45583,0.00416
2581.39566,0.00398
2579.33549,0.00392
2577.27532,0.00422
2575.21515,0.00448
2573.15497,0.00454
2571.09480,0.00461
2569.03463,0.00464
2566.97446,0.00452
2564.91429,0.00417
2562.85411,0.00362
2560.79394,0.00322
2558.73377,0.00325
2556.67360,0.00362
2554.61342,0.00404
2552.55325,0.00427
2550.49308,0.00423
2548.43291,0.00401
2546.37274,0.00384
2544.31256,0.00376
2542.25239,0.00371
2540.19222,0.00368
2538.13205,0.00367
2536.07188,0.00358
2534.01170,0.00347
2531.95153,0.00342
2529.89136,0.00346
2527.83119,0.00354
2525.77102,0.00343
2523.71084,0.00331
2521.65067,0.00342
2519.59050,0.00367
2517.53033,0.00387
2515.47015,0.00375
2513.40998,0.00350
2511.34981,0.00351
2509.28964,0.00361
2507.22947,0.00355
2505.16929,0.00358
2503.10912,0.00378
2501.04895,0.00392
2498.98878,0.00390
2496.92861,0.00366
2494.86843,0.00325
2492.80826,0.00298
2490.74809,0.00308
2488.68792,0.00342
2486.62775,0.00369
2484.56757,0.00386
2482.50740,0.00387
2480.44723,0.00369
2478.38706,0.00351
2476.32688,0.00335
2474.26671,0.00333
2472.20654,0.00343
2470.14637,0.00339
2468.08620,0.00346
2466.02602,0.00363
2463.96585,0.00355
2461.90568,0.00332
2459.84551,0.00314
2457.78534,0.00308
2455.72516,0.00310
2453.66499,0.00304
2451.60482,0.00298
2449.54465,0.00327
2447.48447,0.00379
2445.42430,0.00388
2443.36413,0.00358
2441.30396,0.00338
2439.24379,0.00339
2437.18361,0.00345
2435.12344,0.00346
2433.06327,0.00362
2431.00310,0.00383
2428.94293,0.00360
2426.88275,0.00309
2424.82258,0.00279
2422.76241,0.00266
2420.70224,0.00268
2418.64207,0.00290
2416.58189,0.00325
2414.52172,0.00350
2412.46155,0.00344
2410.40138,0.00323
2408.34120,0.00290
2406.28103,0.00251
2404.22086,0.00255
2402.16069,0.00299
2400.10052,0.00307
2398.04034,0.00276
2395.98017,0.00271
2393.92000,0.00294
2391.85983,0.00313
2389.79966,0.00322
2387.73948,0.00319
2385.67931,0.00300
2383.61914,0.00282
2381.55897,0.00291
2379.49880,0.00330
2377.43862,0.00369
2375.37845,0.00415
2373.31828,0.00445
2371.25811,0.00475
2369.19793,0.00544
2367.13776,0.00532
2365.07759,0.00445
2363.01742,0.00501
2360.95725,0.00479
2358.89707,0.00492
2356.83690,0.00547
2354.77673,0.00609
2352.71656,0.00571
2350.65639,0.00274
2348.59621,0.00084
2346.53604,0.00366
2344.47587,0.00420
2342.41570,0.00383
2340.35552,0.00412
2338.29535,0.00412
2336.23518,0.00404
2334.17501,0.00375
2332.11484,0.00364
2330.05466,0.00377
2327.99449,0.00442
2325.93432,0.00439
2323.87415,0.00461
2321.81398,0.00447
2319.75380,0.00418
2317.69363,0.00342
2315.63346,0.00368
2313.57329,0.00430
2311.51312,0.00415
2309.45294,0.00369
2307.39277,0.00346
2305.33260,0.00343
2303.27243,0.00342
2301.21225,0.00363
2299.15208,0.00392
2297.09191,0.00435
2295.03174,0.00460
2292.97157,0.00445
2290.91139,0.00423
2288.85122,0.00413
2286.79105,0.00402
2284.73088,0.00366
2282.67071,0.00318
2280.61053,0.00309
2278.55036,0.00357
2276.49019,0.00421
2274.43002,0.00454
2272.36984,0.00441
2270.30967,0.00397
2268.24950,0.00347
2266.18933,0.00318
2264.12916,0.00316
2262.06898,0.00319
2260.00881,0.00337
2257.94864,0.00357
2255.88847,0.00342
2253.82830,0.00313
2251.76812,0.00337
2249.70795,0.00384
2247.64778,0.00372
2245.58761,0.00330
2243.52744,0.00324
2241.46726,0.00344
2239.40709,0.00353
2237.34692,0.00330
2235.28675,0.00287
2233.22657,0.00268
2231.16640,0.00292
2229.10623,0.00328
2227.04606,0.00318
2224.98589,0.00279
2222.92571,0.00250
2220.86554,0.00204
2218.80537,0.00196
2216.74520,0.00257
2214.68503,0.00243
2212.62485,0.00175
2210.56468,0.00234
2208.50451,0.00369
2206.44434,0.00416
2204.38417,0.00397
2202.32399,0.00378
2200.26382,0.00300
2198.20365,0.00229
2196.14348,0.00261
2194.08330,0.00282
2192.02313,0.00272
2189.96296,0.00330
2187.90279,0.00369
2185.84262,0.00292
2183.78244,0.00183
2181.72227,0.00162
2179.66210,0.00249
2177.60193,0.00323
2175.54176,0.00313
2173.48158,0.00291
2171.42141,0.00299
2169.36124,0.00308
2167.30107,0.00286
2165.24089,0.00292
2163.18072,0.00360
2161.12055,0.00328
2159.06038,0.00139
2157.00021,0.00000
2154.94003,0.00019
2152.87986,0.00159
2150.81969,0.00303
2148.75952,0.00311
2146.69935,0.00191
2144.63917,0.00110
2142.57900,0.00152
2140.51883,0.00227
2138.45866,0.00234
2136.39849,0.00177
2134.33831,0.00148
2132.27814,0.00196
2130.21797,0.00255
2128.15780,0.00253
2126.09762,0.00234
2124.03745,0.00271
2121.97728,0.00317
2119.91711,0.00316
2117.85694,0.00306
2115.79676,0.00310
2113.73659,0.00310
2111.67642,0.00305
2109.61625,0.00278
2107.55608,0.00231
2105.49590,0.00210
2103.43573,0.00248
2101.37556,0.00296
2099.31539,0.00288
2097.25521,0.00235
2095.19504,0.00182
2093.13487,0.00162
2091.07470,0.00184
2089.01453,0.00206
2086.95435,0.00198
2084.89418,0.00201
2082.83401,0.00265
2080.77384,0.00361
2078.71367,0.00418
2076.65349,0.00396
2074.59332,0.00348
2072.53315,0.00343
2070.47298,0.00348
2068.41281,0.00296
2066.35263,0.00234
2064.29246,0.00239
2062.23229,0.00296
2060.17212,0.00353
2058.11194,0.00366
2056.05177,0.00342
2053.99160,0.00334
2051.93143,0.00340
2049.87126,0.00295
2047.81108,0.00196
2045.75091,0.00156
2043.69074,0.00227
2041.63057,0.00292
2039.57040,0.00307
2037.51022,0.00343
2035.45005,0.00323
2033.38988,0.00203
2031.32971,0.00165
2029.26954,0.00212
2027.20936,0.00217
2025.14919,0.00220
2023.08902,0.00243
2021.02885,0.00240
2018.96867,0.00203
2016.90850,0.00172
2014.84833,0.00186
2012.78816,0.00172
2010.72799,0.00092
2008.66781,0.00058
2006.60764,0.00115
2004.54747,0.00182
2002.48730,0.00174
2000.42713,0.00113
1998.36695,0.00141
1996.30678,0.00257
1994.24661,0.00330
1992.18644,0.00323
1990.12626,0.00261
1988.06609,0.00233
1986.00592,0.00284
1983.94575,0.00329
1981.88558,0.00306
1979.82540,0.00225
1977.76523,0.00140
1975.70506,0.00089
1973.64489,0.00087
1971.58472,0.00165
1969.52454,0.00241
1967.46437,0.00190
1965.40420,0.00096
1963.34403,0.00110
1961.28386,0.00169
1959.22368,0.00203
1957.16351,0.00242
1955.10334,0.00228
1953.04317,0.00146
1950.98299,0.00104
1948.92282,0.00117
1946.86265,0.00099
1944.80248,0.00032
1942.74231,0.00000
1940.68213,0.00048
1938.62196,0.00091
1936.56179,0.00086
1934.50162,0.00095
1932.44145,0.00140
1930.38127,0.00198
1928.32110,0.00240
1926.26093,0.00235
1924.20076,0.00196
1922.14059,0.00174
1920.08041,0.00156
1918.02024,0.00093
1915.96007,0.00034
1913.89990,0.00045
1911.83972,0.00100
1909.77955,0.00144
1907.71938,0.00146
1905.65921,0.00108
1903.59904,0.00078
1901.53886,0.00099
1899.47869,0.00149
1897.41852,0.00174
1895.35835,0.00165
1893.29818,0.00139
1891.23800,0.00107
1889.17783,0.00075
1887.11766,0.00037
1885.05749,0.00000
1882.99731,0.00001
1880.93714,0.00048
1878.87697,0.00102
1876.81680,0.00139
1874.75663,0.00151
1872.69645,0.00153
1870.63628,0.00141
1868.57611,0.00107
1866.51594,0.00098
1864.45577,0.00125
1862.39559,0.00137
1860.33542,0.00123
1858.27525,0.00120
1856.21508,0.00137
1854.15491,0.00140
1852.09473,0.00119
1850.03456,0.00098
1847.97439,0.00094
1845.91422,0.00097
1843.85404,0.00088
1841.79387,0.00077
1839.73370,0.00079
1837.67353,0.00090
1835.61336,0.00090
1833.55318,0.00063
1831.49301,0.00021
1829.43284,0.00001
1827.37267,0.00027
1825.31250,0.00058
1823.25232,0.00058
1821.19215,0.00047
1819.13198,0.00045
1817.07181,0.00045
1815.01163,0.00042
1812.95146,0.00038
1810.89129,0.00029
1808.83112,0.00023
1806.77095,0.00027
1804.71077,0.00038
1802.65060,0.00046
1800.59043,0.00052
1798.53026,0.00056
1796.47009,0.00053
1794.40991,0.00042
1792.34974,0.00028
1790.28957,0.00023
1788.22940,0.00030
1786.16923,0.00034
1784.10905,0.00019
1782.04888,0.00005
1779.98871,0.00016
1777.92854,0.00045
1775.86836,0.00063
1773.80819,0.00057
1771.74802,0.00044
1769.68785,0.00050
1767.62768,0.00072
1765.56750,0.00094
1763.50733,0.00109
1761.44716,0.00128
1759.38699,0.00164
1757.32682,0.00220
1755.26664,0.00279
1753.20647,0.00330
1751.14630,0.00378
1749.08613,0.00430
1747.02596,0.00481
1744.96578,0.00528
1742.90561,0.00561
1740.84544,0.00580
1738.78527,0.00590
1736.72509,0.00597
1734.66492,0.00607
1732.60475,0.00622
1730.54458,0.00624
1728.48441,0.00617
1726.42423,0.00617
1724.36406,0.00623
1722.30389,0.00625
1720.24372,0.00608
1718.18355,0.00556
1716.12337,0.00487
1714.06320,0.00443
1712.00303,0.00417
1709.94286,0.00389
1707.88268,0.00358
1705.82251,0.00330
1703.76234,0.00308
1701.70217,0.00280
1699.64200,0.00243
1697.58182,0.00232
1695.52165,0.00254
1693.46148,0.00286
1691.40131,0.00315
1689.34114,0.00337
1687.28096,0.00348
1685.22079,0.00360
1683.16062,0.00384
1681.10045,0.00417
1679.04028,0.00448
1676.98010,0.00477
1674.91993,0.00506
1672.85976,0.00543
1670.79959,0.00599
1668.73941,0.00662
1666.67924,0.00708
1664.61907,0.00748
1662.55890,0.00809
1660.49873,0.00875
1658.43855,0.00923
1656.37838,0.00960
1654.31821,0.01004
1652.25804,0.01050
1650.19787,0.01075
1648.13769,0.01086
1646.07752,0.01097
1644.01735,0.01114
1641.95718,0.01149
1639.89701,0.01191
1637.83683,0.01212
1635.77666,0.01220
1633.71649,0.01239
1631.65632,0.01259
1629.59614,0.01268
1627.53597,0.01277
1625.47580,0.01302
1623.41563,0.01341
1621.35546,0.01371
1619.29528,0.01370
1617.23511,0.01345
1615.17494,0.01325
1613.11477,0.01319
1611.05460,0.01310
1608.99442,0.01286
1606.93425,0.01251
1604.87408,0.01216
1602.81391,0.01178
1600.75373,0.01124
1598.69356,0.01059
1596.63339,0.00993
1594.57322,0.00931
1592.51305,0.00871
1590.45287,0.00801
1588.39270,0.00720
1586.33253,0.00647
1584.27236,0.00592
1582.21219,0.00544
1580.15201,0.00494
1578.09184,0.00451
1576.03167,0.00413
1573.97150,0.00377
1571.91133,0.00347
1569.85115,0.00317
1567.79098,0.00284
1565.73081,0.00255
1563.67064,0.00242
1561.61046,0.00240
1559.55029,0.00219
1557.49012,0.00179
1555.42995,0.00162
1553.36978,0.00159
1551.30960,0.00152
1549.24943,0.00135
1547.18926,0.00107
1545.12909,0.00066
1543.06892,0.00030
1541.00874,0.00030
1538.94857,0.00038
1536.88840,0.00023
1534.82823,0.00010
1532.76805,0.00020
1530.70788,0.00041
1528.64771,0.00050
1526.58754,0.00037
1524.52737,0.00011
1522.46719,0.00000
1520.40702,0.00013
1518.34685,0.00024
1516.28668,0.00015
1514.22651,0.00003
1512.16633,0.00011
1510.10616,0.00039
1508.04599,0.00067
1505.98582,0.00065
1503.92565,0.00041
1501.86547,0.00023
1499.80530,0.00016
1497.74513,0.00021
1495.68496,0.00027
1493.62478,0.00029
1491.56461,0.00041
1489.50444,0.00061
1487.44427,0.00078
1485.38410,0.00092
1483.32392,0.00117
1481.26375,0.00156
1479.20358,0.00198
1477.14341,0.00233
1475.08324,0.00262
1473.02306,0.00296
1470.96289,0.00337
1468.90272,0.00373
1466.84255,0.00401
1464.78238,0.00429
1462.72220,0.00461
1460.66203,0.00495
1458.60186,0.00542
1456.54169,0.00599
1454.48151,0.00623
1452.42134,0.00619
1450.36117,0.00618
1448.30100,0.00636
1446.24083,0.00666
1444.18065,0.00698
1442.12048,0.00726
1440.06031,0.00752
1438.00014,0.00784
1435.93997,0.00829
1433.87979,0.00870
1431.81962,0.00903
1429.75945,0.00940
1427.69928,0.00985
1425.63910,0.01031
1423.57893,0.01071
1421.51876,0.01105
1419.45859,0.01142
1417.39842,0.01177
1415.33824,0.01190
1413.27807,0.01180
1411.21790,0.01161
1409.15773,0.01142
1407.09756,0.01123
1405.03738,0.01097
1402.97721,0.01065
1400.91704,0.01034
1398.85687,0.01011
1396.79670,0.00992
1394.73652,0.00969
1392.67635,0.00940
1390.61618,0.00919
1388.55601,0.00918
1386.49583,0.00939
1384.43566,0.00968
1382.37549,0.00993
1380.31532,0.01015
1378.25515,0.01040
1376.19497,0.01070
1374.13480,0.01091
1372.07463,0.01094
1370.01446,0.01086
1367.95429,0.01076
1365.89411,0.01068
1363.83394,0.01060
1361.77377,0.01048
1359.71360,0.01028
1357.65343,0.00998
1355.59325,0.00974
1353.53308,0.00963
1351.47291,0.00961
1349.41274,0.00958
1347.35256,0.00945
1345.29239,0.00918
1343.23222,0.00893
1341.17205,0.00887
1339.11188,0.00891
1337.05170,0.00894
1334.99153,0.00894
1332.93136,0.00891
1330.87119,0.00889
1328.81102,0.00898
1326.75084,0.00914
1324.69067,0.00925
1322.63050,0.00925
1320.57033,0.00919
1318.51015,0.00911
1316.44998,0.00907
1314.38981,0.00906
1312.32964,0.00896
1310.26947,0.00886
1308.20929,0.00880
1306.14912,0.00862
1304.08895,0.00826
1302.02878,0.00796
1299.96861,0.00782
1297.90843,0.00778
1295.84826,0.00769
1293.78809,0.00755
1291.72792,0.00746
1289.66775,0.00747
1287.60757,0.00750
1285.54740,0.00752
1283.48723,0.00751
1281.42706,0.00748
1279.36688,0.00746
1277.30671,0.00752
1275.24654,0.00765
1273.18637,0.00788
1271.12620,0.00828
1269.06602,0.00877
1267.00585,0.00930
1264.94568,0.00987
1262.88551,0.01041
1260.82534,0.01084
1258.76516,0.01121
1256.70499,0.01164
1254.64482,0.01218
1252.58465,0.01260
1250.52447,0.01278
1248.46430,0.01285
1246.40413,0.01285
1244.34396,0.01273
1242.28379,0.01257
1240.22361,0.01229
1238.16344,0.01191
1236.10327,0.01155
1234.04310,0.01124
1231.98293,0.01083
1229.92275,0.01030
1227.86258,0.00979
1225.80241,0.00942
1223.74224,0.00914
1221.68207,0.00875
1219.62189,0.00823
1217.56172,0.00770
1215.50155,0.00715
1213.44138,0.00651
1211.38120,0.00580
1209.32103,0.00501
1207.26086,0.00418
1205.20069,0.00353
1203.14052,0.00303
1201.08034,0.00242
1199.02017,0.00175
1196.96000,0.00123
1194.89983,0.00081
1192.83966,0.00034
1190.77948,0.00000
1188.71931,-0.00000
1186.65914,0.00020
1184.59897,0.00030
1182.53880,0.00047
1180.47862,0.00090
1178.41845,0.00142
1176.35828,0.00204
1174.29811,0.00289
1172.23793,0.00376
1170.17776,0.00465
1168.11759,0.00576
1166.05742,0.00696
1163.99725,0.00801
1161.93707,0.00890
1159.87690,0.00966
1157.81673,0.01032
1155.75656,0.01103
1153.69639,0.01182
1151.63621,0.01246
1149.57604,0.01291
1147.51587,0.01332
1145.45570,0.01374
1143.39552,0.01408
1141.33535,0.01430
1139.27518,0.01444
1137.21501,0.01456
1135.15484,0.01474
1133.09466,0.01503
1131.03449,0.01543
1128.97432,0.01593
1126.91415,0.01658
1124.85398,0.01735
1122.79380,0.01813
1120.73363,0.01879
1118.67346,0.01942
1116.61329,0.02024
1114.55312,0.02105
1112.49294,0.02157
1110.43277,0.02193
1108.37260,0.02237
1106.31243,0.02302
1104.25225,0.02399
1102.19208,0.02522
1100.13191,0.02641
1098.07174,0.02752
1096.01157,0.02869
1093.95139,0.02994
1091.89122,0.03126
1089.83105,0.03253
1087.77088,0.03360
1085.71071,0.03448
1083.65053,0.03527
1081.59036,0.03614
1079.53019,0.03726
1077.47002,0.03861
1075.40985,0.03987
1073.34967,0.04094
1071.28950,0.04183
1069.22933,0.04245
1067.16916,0.04298
1065.10898,0.04365
1063.04881,0.04437
1060.98864,0.04501
1058.92847,0.04557
1056.86830,0.04603
1054.80812,0.04656
1052.74795,0.04722
1050.68778,0.04792
1048.62761,0.04867
1046.56744,0.04963
1044.50726,0.05068
1042.44709,0.05152
1040.38692,0.05212
1038.32675,0.05270
1036.26657,0.05319
1034.20640,0.05336
1032.14623,0.05344
1030.08606,0.05359
1028.02589,0.05353
1025.96571,0.05315
1023.90554,0.05283
1021.84537,0.05272
1019.78520,0.05257
1017.72503,0.05241
1015.66485,0.05230
1013.60468,0.05225
1011.54451,0.05218
1009.48434,0.05204
1007.42417,0.05192
1005.36399,0.05154
1003.30382,0.05072
1001.24365,0.04969
999.18348,0.04854
997.12330,0.04734
995.06313,0.04622
993.00296,0.04519
990.94279,0.04436
988.88262,0.04372
986.82244,0.04319
984.76227,0.04282
982.70210,0.04241
980.64193,0.04172
978.58176,0.04103
976.52158,0.04050
974.46141,0.03986
972.40124,0.03910
970.34107,0.03838
968.28089,0.03760
966.22072,0.03676
964.16055,0.03595
962.10038,0.03522
960.04021,0.03458
957.98003,0.03379
955.91986,0.03272
953.85969,0.03173
951.79952,0.03100
949.73935,0.03014
947.67917,0.02899
945.61900,0.02779
943.55883,0.02648
941.49866,0.02476
939.43849,0.02262
937.37831,0.02027
935.31814,0.01801
933.25797,0.01613
931.19780,0.01469
929.13762,0.01336
927.07745,0.01207
925.01728,0.01108
922.95711,0.01028
920.89694,0.00950
918.83676,0.00879
916.77659,0.00819
914.71642,0.00766
912.65625,0.00715
910.59608,0.00661
908.53590,0.00606
906.47573,0.00568
904.41556,0.00569
902.35539,0.00594
900.29522,0.00618
898.23504,0.00644
896.17487,0.00678
894.11470,0.00706
892.05453,0.00715
889.99435,0.00699
887.93418,0.00682
885.87401,0.00662
883.81384,0.00617
881.75367,0.00558
879.69349,0.00499
877.63332,0.00442
875.57315,0.00391
873.51298,0.00345
871.45281,0.00294
869.39263,0.00262
867.33246,0.00281
865.27229,0.00312
863.21212,0.00301
861.15194,0.00259
859.09177,0.00218
857.03160,0.00187
854.97143,0.00193
852.91126,0.00202
850.85108,0.00157
848.79091,0.00130
846.73074,0.00157
844.67057,0.00141
842.61040,0.00075
840.55022,0.00039
838.49005,0.00023
836.42988,0.00000
834.36971,-0.00017
832.30954,-0.00004
830.24936,0.00014
828.18919,0.00006
826.12902,-0.00018
824.06885,-0.00045
822.00867,-0.00050
819.94850,-0.00008
817.88833,0.00029
815.82816,0.00045
813.76799,0.00077
811.70781,0.00118
809.64764,0.00152
807.58747,0.00178
805.52730,0.00188
803.46713,0.00180
801.40695,0.00167
799.34678,0.00145
797.28661,0.00099
795.22644,0.00038
793.16627,0.00000
791.10609,-0.00004
789.04592,0.00004
786.98575,0.00022
784.92558,0.00049
782.86540,0.00045
780.80523,0.00011
778.74506,0.00002
776.68489,0.00020
774.62472,0.00020
772.56454,0.00024
770.50437,0.00041
768.44420,0.00048
766.38403,0.00055
764.32386,0.00060
762.26368,0.00051
760.20351,0.00060
758.14334,0.00103
756.08317,0.00135
754.02299,0.00138
751.96282,0.00117
749.90265,0.00069
747.84248,0.00018
745.78231,0.00010
743.72213,0.00036
741.66196,0.00039
739.60179,0.00019
737.54162,0.00000
735.48145,0.00001
733.42127,0.00022
731.36110,0.00041
729.30093,0.00030
727.24076,-0.00010
725.18059,-0.00019
723.12041,0.00005
721.06024,0.00062
719.00007,0.00033
716.93990,0.00029
714.87972,0.00116
712.81955,0.00229
710.75938,0.00293
708.69921,0.00301
706.63904,0.00333
704.57886,0.00400
702.51869,0.00440
700.45852,0.00444
698.39835,0.00445
696.33818,0.00432
694.27800,0.00403
692.21783,0.00407
690.15766,0.00423
688.09749,0.00402
686.03731,0.00373
683.97714,0.00380
681.91697,0.00388
679.85680,0.00350
677.79663,0.00301
675.73645,0.00285
673.67628,0.00189
671.61611,0.00000
669.55594,0.00370
667.49577,0.00890
665.43559,0.00197
663.37542,0.00193
661.31525,0.00258
659.25508,0.00207
657.19491,0.00178
655.13473,0.00200
653.07456,0.00257
651.01439,0.00290
648.95422,0.00260
646.89404,0.00183
644.83387,0.00174
642.77370,0.00244
640.71353,0.00302
638.65336,0.00287
636.59318,0.00247
634.53301,0.00227
632.47284,0.00198
630.41267,0.00121
628.35250,0.00021
626.29232,-0.00023
624.23215,0.00006
622.17198,-0.00014
620.11181,-0.00056
618.05164,-0.00020
615.99146,0.00038
613.93129,0.00013
611.87112,-0.00069
609.81095,-0.00070
607.75077,-0.00025
605.69060,-0.00058
603.63043,-0.00093
601.57026,-0.00062
599.51009,0.00000
