3996.73391,0.00064
3994.67373,0.00072
3992.61356,0.00099
3990.55339,0.00103
3988.49322,0.00082
3986.43305,0.00059
3984.37287,0.00047
3982.31270,0.00051
3980.25253,0.00068
3978.19236,0.00089
3976.13219,0.00105
3974.07201,0.00104
3972.01184,0.00084
3969.95167,0.00059
3967.89150,0.00045
3965.83133,0.00047
3963.77115,0.00049
3961.71098,0.00045
3959.65081,0.00051
3957.59064,0.00066
3955.53046,0.00060
3953.47029,0.00031
3951.41012,0.00000
3949.34995,0.00003
3947.28978,0.00042
3945.22960,0.00069
3943.16943,0.00058
3941.10926,0.00048
3939.04909,0.00080
3936.98892,0.00151
3934.92874,0.00208
3932.86857,0.00203
3930.80840,0.00173
3928.74823,0.00146
3926.68805,0.00129
3924.62788,0.00129
3922.56771,0.00122
3920.50754,0.00108
3918.44737,0.00123
3916.38719,0.00146
3914.32702,0.00144
3912.26685,0.00134
3910.20668,0.00129
3908.14651,0.00114
3906.08633,0.00096
3904.02616,0.00093
3901.96599,0.00087
3899.90582,0.00062
3897.84565,0.00045
3895.78547,0.00070
3893.72530,0.00133
3891.66513,0.00187
3889.60496,0.00165
3887.54478,0.00096
3885.48461,0.00072
3883.42444,0.00116
3881.36427,0.00148
3879.30410,0.00126
3877.24392,0.00100
3875.18375,0.00114
3873.12358,0.00146
3871.06341,0.00177
3869.00324,0.00179
3866.94306,0.00153
3864.88289,0.00152
3862.82272,0.00180
3860.76255,0.00193
3858.70237,0.00193
3856.64220,0.00214
3854.58203,0.00245
3852.52186,0.00201
3850.46169,0.00116
3848.40151,0.00082
3846.34134,0.00056
3844.28117,0.00019
3842.22100,0.00043
3840.16083,0.00134
3838.10065,0.00185
3836.04048,0.00195
3833.98031,0.00256
3831.92014,0.00315
3829.85997,0.00315
3827.79979,0.00290
3825.73962,0.00225
3823.67945,0.00103
3821.61928,0.00002
3819.55910,0.00000
3817.49893,0.00064
3815.43876,0.00097
3813.37859,0.00072
3811.31842,0.00061
3809.25824,0.00111
3807.19807,0.00173
3805.13790,0.00185
3803.07773,0.00194
3801.01756,0.00225
3798.95738,0.00205
3796.89721,0.00133
3794.83704,0.00086
3792.77687,0.00092
3790.71670,0.00121
3788.65652,0.00133
3786.59635,0.00119
3784.53618,0.00091
3782.47601,0.00066
3780.41583,0.00065
3778.35566,0.00074
3776.29549,0.00062
3774.23532,0.00047
3772.17515,0.00052
3770.11497,0.00075
3768.05480,0.00096
3765.99463,0.00095
3763.93446,0.00081
3761.87429,0.00108
3759.81411,0.00178
3757.75394,0.00200
3755.69377,0.00162
3753.63360,0.00150
3751.57342,0.00165
3749.51325,0.00165
3747.45308,0.00200
3745.39291,0.00263
3743.33274,0.00239
3741.27256,0.00116
3739.21239,0.00009
3737.15222,0.00037
3735.09205,0.00209
3733.03188,0.00307
3730.97170,0.00228
3728.91153,0.00103
3726.85136,0.00030
3724.79119,0.00030
3722.73102,0.00095
3720.67084,0.00166
3718.61067,0.00157
3716.55050,0.00101
3714.49033,0.00079
3712.43015,0.00100
3710.36998,0.00142
3708.30981,0.00154
3706.24964,0.00122
3704.18947,0.00088
3702.12929,0.00077
3700.06912,0.00061
3698.00895,0.00023
3695.94878,0.00000
3693.88861,0.00015
3691.82843,0.00088
3689.76826,0.00199
3687.70809,0.00212
3685.64792,0.00094
3683.58775,0.00006
3681.52757,0.00029
3679.46740,0.00114
3677.40723,0.00184
3675.34706,0.00235
3673.28688,0.00286
3671.22671,0.00310
3669.16654,0.00285
3667.10637,0.00242
3665.04620,0.00228
3662.98602,0.00252
3660.92585,0.00282
3658.86568,0.00276
3656.80551,0.00237
3654.74534,0.00191
3652.68516,0.00167
3650.62499,0.00194
3648.56482,0.00270
3646.50465,0.00339
3644.44447,0.00350
3642.38430,0.00320
3640.32413,0.00291
3638.26396,0.00264
3636.20379,0.00253
3634.14361,0.00282
3632.08344,0.00321
3630.02327,0.00363
3627.96310,0.00444
3625.90293,0.00522
3623.84275,0.00532
3621.78258,0.00507
3619.72241,0.00537
3617.66224,0.00633
3615.60207,0.00693
3613.54189,0.00693
3611.48172,0.00700
3609.42155,0.00724
3607.36138,0.00703
3605.30120,0.00652
3603.24103,0.00641
3601.18086,0.00671
3599.12069,0.00712
3597.06052,0.00741
3595.00034,0.00747
3592.94017,0.00743
3590.88000,0.00764
3588.81983,0.00835
3586.75966,0.00912
3584.69948,0.00925
3582.63931,0.00893
3580.57914,0.00881
3578.51897,0.00919
3576.45879,0.00998
3574.39862,0.01081
3572.33845,0.01142
3570.27828,0.01195
3568.21811,0.01263
3566.15793,0.01334
3564.09776,0.01379
3562.03759,0.01412
3559.97742,0.01427
3557.91725,0.01409
3555.85707,0.01382
3553.79690,0.01387
3551.73673,0.01434
3549.67656,0.01486
3547.61639,0.01537
3545.55621,0.01616
3543.49604,0.01695
3541.43587,0.01730
3539.37570,0.01742
3537.31552,0.01788
3535.25535,0.01871
3533.19518,0.01939
3531.13501,0.01967
3529.07484,0.01978
3527.01466,0.01989
3524.95449,0.02008
3522.89432,0.02050
3520.83415,0.02122
3518.77398,0.02198
3516.71380,0.02242
3514.65363,0.02270
3512.59346,0.02304
3510.53329,0.02328
3508.47312,0.02367
3506.41294,0.02449
3504.35277,0.02532
3502.29260,0.02566
3500.23243,0.02550
3498.17225,0.02529
3496.11208,0.02548
3494.05191,0.02612
3491.99174,0.02687
3489.93157,0.02748
3487.87139,0.02813
3485.81122,0.02886
3483.75105,0.02928
3481.69088,0.02947
3479.63071,0.02985
3477.57053,0.03047
3475.51036,0.03123
3473.45019,0.03174
3471.39002,0.03150
3469.32984,0.03107
3467.26967,0.03125
3465.20950,0.03190
3463.14933,0.03272
3461.08916,0.03334
3459.02898,0.03364
3456.96881,0.03400
3454.90864,0.03449
3452.84847,0.03501
3450.78830,0.03540
3448.72812,0.03573
3446.66795,0.03617
3444.60778,0.03640
3442.54761,0.03637
3440.48744,0.03668
3438.42726,0.03746
3436.36709,0.03821
3434.30692,0.03834
3432.24675,0.03789
3430.18657,0.03786
3428.12640,0.03859
3426.06623,0.03926
3424.00606,0.03984
3421.94589,0.04063
3419.88571,0.04113
3417.82554,0.04125
3415.76537,0.04145
3413.70520,0.04178
3411.64503,0.04206
3409.58485,0.04248
3407.52468,0.04297
3405.46451,0.04309
3403.40434,0.04331
3401.34416,0.04382
3399.28399,0.04385
3397.22382,0.04355
3395.16365,0.04363
3393.10348,0.04413
3391.04330,0.04478
3388.98313,0.04544
3386.92296,0.04590
3384.86279,0.04598
3382.80262,0.04597
3380.74244,0.04625
3378.68227,0.04674
3376.62210,0.04721
3374.56193,0.04741
3372.50176,0.04729
3370.44158,0.04716
3368.38141,0.04728
3366.32124,0.04789
3364.26107,0.04876
3362.20089,0.04928
3360.14072,0.04948
3358.08055,0.04952
3356.02038,0.04928
3353.96021,0.04890
3351.90003,0.04881
3349.83986,0.04916
3347.77969,0.04963
3345.71952,0.04990
3343.65935,0.05002
3341.59917,0.05008
3339.53900,0.05009
3337.47883,0.05020
3335.41866,0.05070
3333.35849,0.05116
3331.29831,0.05095
3329.23814,0.05060
3327.17797,0.05068
3325.11780,0.05068
3323.05762,0.05026
3320.99745,0.04991
3318.93728,0.04999
3316.87711,0.05032
3314.81694,0.05061
3312.75676,0.05089
3310.69659,0.05119
3308.63642,0.05142
3306.57625,0.05163
3304.51608,0.05160
3302.45590,0.05116
3300.39573,0.05089
3298.33556,0.05112
3296.27539,0.05135
3294.21521,0.05144
3292.15504,0.05150
3290.09487,0.05136
3288.03470,0.05118
3285.97453,0.05114
3283.91435,0.05114
3281.85418,0.05112
3279.79401,0.05122
3277.73384,0.05149
3275.67367,0.05170
3273.61349,0.05158
3271.55332,0.05116
3269.49315,0.05066
3267.43298,0.05027
3265.37281,0.05013
3263.31263,0.05024
3261.25246,0.05046
3259.19229,0.05051
3257.13212,0.05038
3255.07194,0.05049
3253.01177,0.05086
3250.95160,0.05110
3248.89143,0.05102
3246.83126,0.05061
3244.77108,0.05011
3242.71091,0.05000
3240.65074,0.05025
3238.59057,0.05009
3236.53040,0.04944
3234.47022,0.04905
3232.41005,0.04911
3230.34988,0.04933
3228.28971,0.04937
3226.22954,0.04902
3224.16936,0.04877
3222.10919,0.04873
3220.04902,0.04859
3217.98885,0.04835
3215.92867,0.04816
3213.86850,0.04815
3211.80833,0.04818
3209.74816,0.04809
3207.68799,0.04796
3205.62781,0.04773
3203.56764,0.04733
3201.50747,0.04694
3199.44730,0.04673
3197.38713,0.04637
3195.32695,0.04573
3193.26678,0.04545
3191.20661,0.04571
3189.14644,0.04584
3187.08626,0.04543
3185.02609,0.04508
3182.96592,0.04521
3180.90575,0.04527
3178.84558,0.04471
3176.78540,0.04388
3174.72523,0.04356
3172.66506,0.04381
3170.60489,0.04373
3168.54472,0.04317
3166.48454,0.04287
3164.42437,0.04299
3162.36420,0.04316
3160.30403,0.04311
3158.24386,0.04278
3156.18368,0.04222
3154.12351,0.04174
3152.06334,0.04167
3150.00317,0.04170
3147.94299,0.04144
3145.88282,0.04111
3143.82265,0.04079
3141.76248,0.04023
3139.70231,0.03970
3137.64213,0.03940
3135.58196,0.03913
3133.52179,0.03892
3131.46162,0.03878
3129.40145,0.03838
3127.34127,0.03760
3125.28110,0.03689
3123.22093,0.03653
3121.16076,0.03656
3119.10058,0.03690
3117.04041,0.03705
3114.98024,0.03675
3112.92007,0.03620
3110.85990,0.03561
3108.79972,0.03505
3106.73955,0.03466
3104.67938,0.03448
3102.61921,0.03433
3100.55904,0.03408
3098.49886,0.03379
3096.43869,0.03340
3094.37852,0.03294
3092.31835,0.03259
3090.25818,0.03243
3088.19800,0.03234
3086.13783,0.03217
3084.07766,0.03189
3082.01749,0.03161
3079.95731,0.03131
3077.89714,0.03083
3075.83697,0.03032
3073.77680,0.03002
3071.71663,0.02987
3069.65645,0.02976
3067.59628,0.02969
3065.53611,0.02958
3063.47594,0.02918
3061.41577,0.02850
3059.35559,0.02792
3057.29542,0.02773
3055.23525,0.02760
3053.17508,0.02745
3051.11491,0.02759
3049.05473,0.02776
3046.99456,0.02755
3044.93439,0.02704
3042.87422,0.02661
3040.81404,0.02644
3038.75387,0.02632
3036.69370,0.02603
3034.63353,0.02555
3032.57336,0.02520
3030.51318,0.02525
3028.45301,0.02534
3026.39284,0.02516
3024.33267,0.02495
3022.27250,0.02477
3020.21232,0.02451
3018.15215,0.02434
3016.09198,0.02441
3014.03181,0.02446
3011.97163,0.02435
3009.91146,0.02432
3007.85129,0.02432
3005.79112,0.02408
3003.73095,0.02374
3001.67077,0.02351
2999.61060,0.02336
2997.55043,0.02322
2995.49026,0.02303
2993.43009,0.02274
2991.36991,0.02250
2989.30974,0.02241
2987.24957,0.02242
2985.18940,0.02253
2983.12923,0.02276
2981.06905,0.02299
2979.00888,0.02334
2976.94871,0.02401
2974.88854,0.02479
2972.82836,0.02559
2970.76819,0.02624
2968.70802,0.02689
2966.64785,0.02802
2964.58768,0.02943
2962.52750,0.03088
2960.46733,0.03232
2958.40716,0.03369
2956.34699,0.03515
2954.28682,0.03679
2952.22664,0.03848
2950.16647,0.04040
2948.10630,0.04268
2946.04613,0.04481
2943.98596,0.04679
2941.92578,0.04929
2939.86561,0.05201
2937.80544,0.05434
2935.74527,0.05637
2933.68509,0.05841
2931.62492,0.06053
2929.56475,0.06258
2927.50458,0.06429
2925.44441,0.06572
2923.38423,0.06689
2921.32406,0.06747
2919.26389,0.06750
2917.20372,0.06694
2915.14355,0.06542
2913.08337,0.06292
2911.02320,0.06006
2908.96303,0.05767
2906.90286,0.05603
2904.84268,0.05456
2902.78251,0.05285
2900.72234,0.05097
2898.66217,0.04913
2896.60200,0.04758
2894.54182,0.04643
2892.48165,0.04549
2890.42148,0.04456
2888.36131,0.04355
2886.30114,0.04258
2884.24096,0.04187
2882.18079,0.04108
2880.12062,0.04014
2878.06045,0.03977
2876.00028,0.04010
2873.94010,0.04064
2871.87993,0.04116
2869.81976,0.04147
2867.75959,0.04160
2865.69941,0.04212
2863.63924,0.04343
2861.57907,0.04524
2859.51890,0.04724
2857.45873,0.04933
2855.39855,0.05115
2853.33838,0.05231
2851.27821,0.05278
2849.21804,0.05203
2847.15787,0.04945
2845.09769,0.04584
2843.03752,0.04222
2840.97735,0.03931
2838.91718,0.03725
2836.85700,0.03547
2834.79683,0.03400
2832.73666,0.03289
2830.67649,0.03175
2828.61632,0.03076
2826.55614,0.03014
2824.49597,0.02965
2822.43580,0.02912
2820.37563,0.02856
2818.31546,0.02794
2816.25528,0.02732
2814.19511,0.02682
2812.13494,0.02644
2810.07477,0.02595
2808.01460,0.02524
2805.95442,0.02456
2803.89425,0.02425
2801.83408,0.02437
2799.77391,0.02462
2797.71373,0.02447
2795.65356,0.02391
2793.59339,0.02350
2791.53322,0.02358
2789.47305,0.02388
2787.41287,0.02391
2785.35270,0.02353
2783.29253,0.02306
2781.23236,0.02278
2779.17219,0.02258
2777.11201,0.02243
2775.05184,0.02231
2772.99167,0.02205
2770.93150,0.02186
2768.87133,0.02188
2766.81115,0.02178
2764.75098,0.02152
2762.69081,0.02136
2760.63064,0.02133
2758.57046,0.02133
2756.51029,0.02136
2754.45012,0.02142
2752.38995,0.02130
2750.32978,0.02087
2748.26960,0.02027
2746.20943,0.01983
2744.14926,0.01989
2742.08909,0.02032
2740.02892,0.02049
2737.96874,0.02045
2735.90857,0.02065
2733.84840,0.02074
2731.78823,0.02047
2729.72805,0.02030
2727.66788,0.02045
2725.60771,0.02038
2723.54754,0.01993
2721.48737,0.01967
2719.42719,0.01957
2717.36702,0.01933
2715.30685,0.01919
2713.24668,0.01949
2711.18651,0.01980
2709.12633,0.01972
2707.06616,0.01965
2705.00599,0.01981
2702.94582,0.01977
2700.88565,0.01939
2698.82547,0.01902
2696.76530,0.01896
2694.70513,0.01914
2692.64496,0.01929
2690.58478,0.01931
2688.52461,0.01934
2686.46444,0.01942
2684.40427,0.01926
2682.34410,0.01883
2680.28392,0.01858
2678.22375,0.01856
2676.16358,0.01834
2674.10341,0.01817
2672.04324,0.01832
2669.98306,0.01848
2667.92289,0.01854
2665.86272,0.01845
2663.80255,0.01819
2661.74238,0.01790
2659.68220,0.01779
2657.62203,0.01782
2655.56186,0.01776
2653.50169,0.01756
2651.44151,0.01736
2649.38134,0.01733
2647.32117,0.01730
2645.26100,0.01721
2643.20083,0.01724
2641.14065,0.01732
2639.08048,0.01722
2637.02031,0.01689
2634.96014,0.01648
2632.89997,0.01631
2630.83979,0.01639
2628.77962,0.01644
2626.71945,0.01632
2624.65928,0.01612
2622.59910,0.01600
2620.53893,0.01580
2618.47876,0.01546
2616.41859,0.01524
2614.35842,0.01523
2612.29824,0.01543
2610.23807,0.01561
2608.17790,0.01566
2606.11773,0.01567
2604.05756,0.01527
2601.99738,0.01465
2599.93721,0.01459
2597.87704,0.01495
2595.81687,0.01521
2593.75670,0.01527
2591.69652,0.01510
2589.63635,0.01495
2587.57618,0.01509
2585.51601,0.01521
2583.45583,0.01496
2581.39566,0.01450
2579.33549,0.01424
2577.27532,0.01417
2575.21515,0.01378
2573.15497,0.01340
2571.09480,0.01358
2569.03463,0.01377
2566.97446,0.01363
2564.91429,0.01351
2562.85411,0.01353
2560.79394,0.01349
2558.73377,0.01321
2556.67360,0.01300
2554.61342,0.01297
2552.55325,0.01278
2550.49308,0.01265
2548.43291,0.01275
2546.37274,0.01276
2544.31256,0.01259
2542.25239,0.01253
2540.19222,0.01288
2538.13205,0.01314
2536.07188,0.01265
2534.01170,0.01205
2531.95153,0.01212
2529.89136,0.01275
2527.83119,0.01320
2525.77102,0.01298
2523.71084,0.01271
2521.65067,0.01275
2519.59050,0.01259
2517.53033,0.01230
2515.47015,0.01205
2513.40998,0.01178
2511.34981,0.01161
2509.28964,0.01169
2507.22947,0.01184
2505.16929,0.01162
2503.10912,0.01123
2501.04895,0.01111
2498.98878,0.01153
2496.92861,0.01230
2494.86843,0.01254
2492.80826,0.01234
2490.74809,0.01229
2488.68792,0.01238
2486.62775,0.01228
2484.56757,0.01164
2482.50740,0.01079
2480.44723,0.01048
2478.38706,0.01073
2476.32688,0.01091
2474.26671,0.01094
2472.20654,0.01123
2470.14637,0.01137
2468.08620,0.01102
2466.02602,0.01088
2463.96585,0.01075
2461.90568,0.01011
2459.84551,0.00982
2457.78534,0.01026
2455.72516,0.01089
2453.66499,0.01140
2451.60482,0.01147
2449.54465,0.01096
2447.48447,0.01046
2445.42430,0.01046
2443.36413,0.01077
2441.30396,0.01078
2439.24379,0.01040
2437.18361,0.01039
2435.12344,0.01062
2433.06327,0.01051
2431.00310,0.01025
2428.94293,0.01004
2426.88275,0.00987
2424.82258,0.00979
2422.76241,0.00978
2420.70224,0.00955
2418.64207,0.00922
2416.58189,0.00932
2414.52172,0.00983
2412.46155,0.01022
2410.40138,0.01014
2408.34120,0.00991
2406.28103,0.01000
2404.22086,0.01001
2402.16069,0.00957
2400.10052,0.00911
2398.04034,0.00885
2395.98017,0.00873
2393.92000,0.00891
2391.85983,0.00946
2389.79966,0.01000
2387.73948,0.01015
2385.67931,0.01003
2383.61914,0.01007
2381.55897,0.01054
2379.49880,0.01114
2377.43862,0.01132
2375.37845,0.01113
2373.31828,0.01114
2371.25811,0.01078
2369.19793,0.00927
2367.13776,0.00706
2365.07759,0.00575
2363.01742,0.00731
2360.95725,0.01136
2358.89707,0.01367
2356.83690,0.01323
2354.77673,0.01211
2352.71656,0.01116
2350.65639,0.01069
2348.59621,0.00993
2346.53604,0.00737
2344.47587,0.00586
2342.41570,0.00637
2340.35552,0.00856
2338.29535,0.00980
2336.23518,0.00929
2334.17501,0.00925
2332.11484,0.01031
2330.05466,0.01147
2327.99449,0.01143
2325.93432,0.01033
2323.87415,0.00882
2321.81398,0.00848
2319.75380,0.00862
2317.69363,0.00836
2315.63346,0.00796
2313.57329,0.00846
2311.51312,0.00953
2309.45294,0.01010
2307.39277,0.01017
2305.33260,0.01006
2303.27243,0.00971
2301.21225,0.00933
2299.15208,0.00940
2297.09191,0.00978
2295.03174,0.00980
2292.97157,0.00918
2290.91139,0.00851
2288.85122,0.00845
2286.79105,0.00888
2284.73088,0.00907
2282.67071,0.00859
2280.61053,0.00789
2278.55036,0.00789
2276.49019,0.00848
2274.43002,0.00845
2272.36984,0.00740
2270.30967,0.00645
2268.24950,0.00664
2266.18933,0.00762
2264.12916,0.00836
2262.06898,0.00871
2260.00881,0.00880
2257.94864,0.00839
2255.88847,0.00767
2253.82830,0.00707
2251.76812,0.00662
2249.70795,0.00649
2247.64778,0.00689
2245.58761,0.00769
2243.52744,0.00821
2241.46726,0.00782
2239.40709,0.00732
2237.34692,0.00738
2235.28675,0.00737
2233.22657,0.00688
2231.16640,0.00612
2229.10623,0.00535
2227.04606,0.00483
2224.98589,0.00464
2222.92571,0.00475
2220.86554,0.00523
2218.80537,0.00575
2216.74520,0.00535
2214.68503,0.00399
2212.62485,0.00348
2210.56468,0.00408
2208.50451,0.00470
2206.44434,0.00495
2204.38417,0.00480
2202.32399,0.00554
2200.26382,0.00690
2198.20365,0.00686
2196.14348,0.00639
2194.08330,0.00684
2192.02313,0.00655
2189.96296,0.00466
2187.90279,0.00261
2185.84262,0.00301
2183.78244,0.00512
2181.72227,0.00502
2179.66210,0.00302
2177.60193,0.00212
2175.54176,0.00340
2173.48158,0.00569
2171.42141,0.00677
2169.36124,0.00630
2167.30107,0.00668
2165.24089,0.00850
2163.18072,0.00935
2161.12055,0.00669
2159.06038,0.00214
2157.00021,0.00042
2154.94003,0.00137
2152.87986,0.00261
2150.81969,0.00323
2148.75952,0.00402
2146.69935,0.00491
2144.63917,0.00447
2142.57900,0.00350
2140.51883,0.00385
2138.45866,0.00502
2136.39849,0.00532
2134.33831,0.00491
2132.27814,0.00501
2130.21797,0.00586
2128.15780,0.00655
2126.09762,0.00636
2124.03745,0.00578
2121.97728,0.00583
2119.91711,0.00640
2117.85694,0.00673
2115.79676,0.00702
2113.73659,0.00732
2111.67642,0.00659
2109.61625,0.00519
2107.55608,0.00508
2105.49590,0.00597
2103.43573,0.00645
2101.37556,0.00661
2099.31539,0.00657
2097.25521,0.00595
2095.19504,0.00492
2093.13487,0.00393
2091.07470,0.00416
2089.01453,0.00602
2086.95435,0.00723
2084.89418,0.00642
2082.83401,0.00543
2080.77384,0.00575
2078.71367,0.00654
2076.65349,0.00671
2074.59332,0.00632
2072.53315,0.00632
2070.47298,0.00670
2068.41281,0.00668
2066.35263,0.00671
2064.29246,0.00707
2062.23229,0.00758
2060.17212,0.00825
2058.11194,0.00817
2056.05177,0.00695
2053.99160,0.00641
2051.93143,0.00650
2049.87126,0.00512
2047.81108,0.00309
2045.75091,0.00242
2043.69074,0.00261
2041.63057,0.00357
2039.57040,0.00589
2037.51022,0.00771
2035.45005,0.00691
2033.38988,0.00538
2031.32971,0.00602
2029.26954,0.00723
2027.20936,0.00726
2025.14919,0.00663
2023.08902,0.00495
2021.02885,0.00247
2018.96867,0.00063
2016.90850,0.00024
2014.84833,0.00080
2012.78816,0.00202
2010.72799,0.00263
2008.66781,0.00122
2006.60764,0.00000
2004.54747,0.00107
2002.48730,0.00294
2000.42713,0.00381
1998.36695,0.00443
1996.30678,0.00589
1994.24661,0.00677
1992.18644,0.00616
1990.12626,0.00557
1988.06609,0.00567
1986.00592,0.00565
1983.94575,0.00498
1981.88558,0.00373
1979.82540,0.00274
1977.76523,0.00300
1975.70506,0.00408
1973.64489,0.00403
1971.58472,0.00226
1969.52454,0.00117
1967.46437,0.00258
1965.40420,0.00457
1963.34403,0.00463
1961.28386,0.00296
1959.22368,0.00154
1957.16351,0.00182
1955.10334,0.00329
1953.04317,0.00451
1950.98299,0.00471
1948.92282,0.00423
1946.86265,0.00369
1944.80248,0.00365
1942.74231,0.00387
1940.68213,0.00297
1938.62196,0.00165
1936.56179,0.00147
1934.50162,0.00213
1932.44145,0.00299
1930.38127,0.00325
1928.32110,0.00286
1926.26093,0.00287
1924.20076,0.00338
1922.14059,0.00375
1920.08041,0.00355
1918.02024,0.00294
1915.96007,0.00285
1913.89990,0.00337
1911.83972,0.00333
1909.77955,0.00266
1907.71938,0.00227
1905.65921,0.00217
1903.59904,0.00215
1901.53886,0.00212
1899.47869,0.00206
1897.41852,0.00226
1895.35835,0.00237
1893.29818,0.00209
1891.23800,0.00190
1889.17783,0.00179
1887.11766,0.00163
1885.05749,0.00177
1882.99731,0.00204
1880.93714,0.00209
1878.87697,0.00196
1876.81680,0.00168
1874.75663,0.00140
1872.69645,0.00150
1870.63628,0.00202
1868.57611,0.00258
1866.51594,0.00265
1864.45577,0.00236
1862.39559,0.00218
1860.33542,0.00210
1858.27525,0.00190
1856.21508,0.00170
1854.15491,0.00170
1852.09473,0.00175
1850.03456,0.00153
1847.97439,0.00113
1845.91422,0.00100
1843.85404,0.00115
1841.79387,0.00121
1839.73370,0.00125
1837.67353,0.00137
1835.61336,0.00127
1833.55318,0.00087
1831.49301,0.00050
1829.43284,0.00035
1827.37267,0.00044
1825.31250,0.00075
1823.25232,0.00116
1821.19215,0.00121
1819.13198,0.00084
1817.07181,0.00038
1815.01163,0.00009
1812.95146,0.00000
1810.89129,0.00010
1808.83112,0.00030
1806.77095,0.00042
1804.71077,0.00036
1802.65060,0.00026
1800.59043,0.00032
1798.53026,0.00052
1796.47009,0.00075
1794.40991,0.00080
1792.34974,0.00066
1790.28957,0.00057
1788.22940,0.00055
1786.16923,0.00039
1784.10905,0.00014
1782.04888,0.00000
1779.98871,-0.00011
1777.92854,-0.00014
1775.86836,-0.00004
1773.80819,0.00006
1771.74802,0.00011
1769.68785,0.00029
1767.62768,0.00060
1765.56750,0.00097
1763.50733,0.00166
1761.44716,0.00283
1759.38699,0.00413
1757.32682,0.00538
1755.26664,0.00664
1753.20647,0.00786
1751.14630,0.00938
1749.08613,0.01145
1747.02596,0.01335
1744.96578,0.01442
1742.90561,0.01490
1740.84544,0.01544
1738.78527,0.01616
1736.72509,0.01673
1734.66492,0.01691
1732.60475,0.01674
1730.54458,0.01651
1728.48441,0.01650
1726.42423,0.01668
1724.36406,0.01693
1722.30389,0.01724
1720.24372,0.01752
1718.18355,0.01742
1716.12337,0.01677
1714.06320,0.01618
1712.00303,0.01606
1709.94286,0.01618
1707.88268,0.01632
1705.82251,0.01649
1703.76234,0.01643
1701.70217,0.01597
1699.64200,0.01567
1697.58182,0.01610
1695.52165,0.01680
1693.46148,0.01756
1691.40131,0.01866
1689.34114,0.02017
1687.28096,0.02179
1685.22079,0.02379
1683.16062,0.02642
1681.10045,0.02860
1679.04028,0.03013
1676.98010,0.03147
1674.91993,0.03250
1672.85976,0.03287
1670.79959,0.03273
1668.73941,0.03231
1666.67924,0.03178
1664.61907,0.03118
1662.55890,0.03040
1660.49873,0.02967
1658.43855,0.02925
1656.37838,0.02902
1654.31821,0.02856
1652.25804,0.02775
1650.19787,0.02728
1648.13769,0.02725
1646.07752,0.02755
1644.01735,0.02787
1641.95718,0.02797
1639.89701,0.02818
1637.83683,0.02900
1635.77666,0.03048
1633.71649,0.03163
1631.65632,0.03194
1629.59614,0.03209
1627.53597,0.03244
1625.47580,0.03283
1623.41563,0.03313
1621.35546,0.03349
1619.29528,0.03406
1617.23511,0.03473
1615.17494,0.03528
1613.11477,0.03599
1611.05460,0.03735
1608.99442,0.03911
1606.93425,0.04043
1604.87408,0.04070
1602.81391,0.03984
1600.75373,0.03826
1598.69356,0.03656
1596.63339,0.03503
1594.57322,0.03370
1592.51305,0.03256
1590.45287,0.03156
1588.39270,0.03062
1586.33253,0.02969
1584.27236,0.02870
1582.21219,0.02772
1580.15201,0.02676
1578.09184,0.02573
1576.03167,0.02476
1573.97150,0.02412
1571.91133,0.02379
1569.85115,0.02338
1567.79098,0.02236
1565.73081,0.02086
1563.67064,0.01974
1561.61046,0.01930
1559.55029,0.01863
1557.49012,0.01716
1555.42995,0.01607
1553.36978,0.01556
1551.30960,0.01501
1549.24943,0.01415
1547.18926,0.01329
1545.12909,0.01260
1543.06892,0.01188
1541.00874,0.01098
1538.94857,0.00996
1536.88840,0.00912
1534.82823,0.00842
1532.76805,0.00773
1530.70788,0.00724
1528.64771,0.00698
1526.58754,0.00688
1524.52737,0.00714
1522.46719,0.00806
1520.40702,0.00942
1518.34685,0.01094
1516.28668,0.01246
1514.22651,0.01314
1512.16633,0.01265
1510.10616,0.01162
1508.04599,0.01019
1505.98582,0.00806
1503.92565,0.00615
1501.86547,0.00495
1499.80530,0.00419
1497.74513,0.00360
1495.68496,0.00297
1493.62478,0.00243
1491.56461,0.00198
1489.50444,0.00141
1487.44427,0.00084
1485.38410,0.00058
1483.32392,0.00060
1481.26375,0.00067
1479.20358,0.00096
1477.14341,0.00184
1475.08324,0.00345
1473.02306,0.00583
1470.96289,0.00853
1468.90272,0.01088
1466.84255,0.01298
1464.78238,0.01481
1462.72220,0.01601
1460.66203,0.01687
1458.60186,0.01814
1456.54169,0.01985
1454.48151,0.02097
1452.42134,0.02139
1450.36117,0.02182
1448.30100,0.02265
1446.24083,0.02366
1444.18065,0.02457
1442.12048,0.02543
1440.06031,0.02633
1438.00014,0.02729
1435.93997,0.02818
1433.87979,0.02866
1431.81962,0.02886
1429.75945,0.02897
1427.69928,0.02901
1425.63910,0.02903
1423.57893,0.02913
1421.51876,0.02939
1419.45859,0.02976
1417.39842,0.02988
1415.33824,0.02951
1413.27807,0.02896
1411.21790,0.02838
1409.15773,0.02770
1407.09756,0.02696
1405.03738,0.02615
1402.97721,0.02522
1400.91704,0.02425
1398.85687,0.02330
1396.79670,0.02239
1394.73652,0.02160
1392.67635,0.02112
1390.61618,0.02109
1388.55601,0.02147
1386.49583,0.02209
1384.43566,0.02274
1382.37549,0.02352
1380.31532,0.02453
1378.25515,0.02558
1376.19497,0.02633
1374.13480,0.02659
1372.07463,0.02652
1370.01446,0.02639
1367.95429,0.02631
1365.89411,0.02619
1363.83394,0.02584
1361.77377,0.02512
1359.71360,0.02439
1357.65343,0.02394
1355.59325,0.02362
1353.53308,0.02334
1351.47291,0.02329
1349.41274,0.02353
1347.35256,0.02368
1345.29239,0.02346
1343.23222,0.02327
1341.17205,0.02350
1339.11188,0.02391
1337.05170,0.02389
1334.99153,0.02347
1332.93136,0.02318
1330.87119,0.02325
1328.81102,0.02362
1326.75084,0.02400
1324.69067,0.02407
1322.63050,0.02376
1320.57033,0.02340
1318.51015,0.02331
1316.44998,0.02333
1314.38981,0.02318
1312.32964,0.02280
1310.26947,0.02231
1308.20929,0.02181
1306.14912,0.02126
1304.08895,0.02064
1302.02878,0.02005
1299.96861,0.01941
1297.90843,0.01871
1295.84826,0.01820
1293.78809,0.01810
1291.72792,0.01839
1289.66775,0.01882
1287.60757,0.01913
1285.54740,0.01936
1283.48723,0.01962
1281.42706,0.01988
1279.36688,0.02006
1277.30671,0.02019
1275.24654,0.02032
1273.18637,0.02053
1271.12620,0.02095
1269.06602,0.02158
1267.00585,0.02238
1264.94568,0.02325
1262.88551,0.02423
1260.82534,0.02540
1258.76516,0.02642
1256.70499,0.02699
1254.64482,0.02743
1252.58465,0.02797
1250.52447,0.02833
1248.46430,0.02844
1246.40413,0.02861
1244.34396,0.02886
1242.28379,0.02900
1240.22361,0.02898
1238.16344,0.02885
1236.10327,0.02858
1234.04310,0.02800
1231.98293,0.02710
1229.92275,0.02619
1227.86258,0.02534
1225.80241,0.02425
1223.74224,0.02286
1221.68207,0.02146
1219.62189,0.02036
1217.56172,0.01934
1215.50155,0.01791
1213.44138,0.01622
1211.38120,0.01469
1209.32103,0.01330
1207.26086,0.01182
1205.20069,0.01028
1203.14052,0.00889
1201.08034,0.00747
1199.02017,0.00582
1196.96000,0.00426
1194.89983,0.00293
1192.83966,0.00173
1190.77948,0.00090
1188.71931,0.00051
1186.65914,0.00024
1184.59897,0.00000
1182.53880,0.00000
1180.47862,0.00036
1178.41845,0.00105
1176.35828,0.00248
1174.29811,0.00463
1172.23793,0.00706
1170.17776,0.00964
1168.11759,0.01194
1166.05742,0.01340
1163.99725,0.01425
1161.93707,0.01498
1159.87690,0.01564
1157.81673,0.01625
1155.75656,0.01691
1153.69639,0.01772
1151.63621,0.01896
1149.57604,0.02050
1147.51587,0.02187
1145.45570,0.02288
1143.39552,0.02360
1141.33535,0.02432
1139.27518,0.02522
1137.21501,0.02598
1135.15484,0.02651
1133.09466,0.02711
1131.03449,0.02801
1128.97432,0.02910
1126.91415,0.03041
1124.85398,0.03185
1122.79380,0.03314
1120.73363,0.03443
1118.67346,0.03578
1116.61329,0.03705
1114.55312,0.03826
1112.49294,0.03961
1110.43277,0.04095
1108.37260,0.04198
1106.31243,0.04291
1104.25225,0.04407
1102.19208,0.04571
1100.13191,0.04799
1098.07174,0.05031
1096.01157,0.05222
1093.95139,0.05421
1091.89122,0.05620
1089.83105,0.05801
1087.77088,0.06018
1085.71071,0.06242
1083.65053,0.06422
1081.59036,0.06607
1079.53019,0.06815
1077.47002,0.07032
1075.40985,0.07282
1073.34967,0.07567
1071.28950,0.07836
1069.22933,0.08033
1067.16916,0.08188
1065.10898,0.08337
1063.04881,0.08482
1060.98864,0.08639
1058.92847,0.08795
1056.86830,0.08954
1054.80812,0.09151
1052.74795,0.09366
1050.68778,0.09584
1048.62761,0.09849
1046.56744,0.10147
1044.50726,0.10393
1042.44709,0.10591
1040.38692,0.10821
1038.32675,0.11072
1036.26657,0.11275
1034.20640,0.11417
1032.14623,0.11486
1030.08606,0.11484
1028.02589,0.11445
1025.96571,0.11383
1023.90554,0.11322
1021.84537,0.11250
1019.78520,0.11144
1017.72503,0.11101
1015.66485,0.11155
1013.60468,0.11196
1011.54451,0.11184
1009.48434,0.11159
1007.42417,0.11149
1005.36399,0.11142
1003.30382,0.11113
1001.24365,0.11047
999.18348,0.10913
997.12330,0.10748
995.06313,0.10595
993.00296,0.10414
990.94279,0.10207
988.88262,0.10015
986.82244,0.09851
984.76227,0.09721
982.70210,0.09592
980.64193,0.09427
978.58176,0.09239
976.52158,0.09067
974.46141,0.08926
972.40124,0.08769
970.34107,0.08555
968.28089,0.08337
966.22072,0.08166
964.16055,0.07994
962.10038,0.07791
960.04021,0.07581
957.98003,0.07364
955.91986,0.07157
953.85969,0.06999
951.79952,0.06867
949.73935,0.06733
947.67917,0.06608
945.61900,0.06459
943.55883,0.06247
941.49866,0.05976
939.43849,0.05638
937.37831,0.05255
935.31814,0.04861
933.25797,0.04471
931.19780,0.04134
929.13762,0.03878
927.07745,0.03660
925.01728,0.03434
922.95711,0.03182
920.89694,0.02936
918.83676,0.02755
916.77659,0.02620
914.71642,0.02455
912.65625,0.02254
910.59608,0.02083
908.53590,0.01941
906.47573,0.01800
904.41556,0.01679
902.35539,0.01586
900.29522,0.01570
898.23504,0.01632
896.17487,0.01674
894.11470,0.01646
892.05453,0.01603
889.99435,0.01590
887.93418,0.01577
885.87401,0.01544
883.81384,0.01473
881.75367,0.01358
879.69349,0.01224
877.63332,0.01118
875.57315,0.01076
873.51298,0.01031
871.45281,0.00904
869.39263,0.00754
867.33246,0.00710
865.27229,0.00759
863.21212,0.00780
861.15194,0.00739
859.09177,0.00681
857.03160,0.00630
854.97143,0.00619
852.91126,0.00639
850.85108,0.00652
848.79091,0.00667
846.73074,0.00676
844.67057,0.00656
842.61040,0.00613
840.55022,0.00569
838.49005,0.00561
836.42988,0.00589
834.36971,0.00582
832.30954,0.00560
830.24936,0.00575
828.18919,0.00548
826.12902,0.00440
824.06885,0.00328
822.00867,0.00275
819.94850,0.00292
817.88833,0.00322
815.82816,0.00308
813.76799,0.00261
811.70781,0.00181
809.64764,0.00179
807.58747,0.00256
805.52730,0.00241
803.46713,0.00180
801.40695,0.00201
799.34678,0.00256
797.28661,0.00208
795.22644,0.00122
793.16627,0.00127
791.10609,0.00096
789.04592,0.00000
786.98575,-0.00014
784.92558,0.00082
782.86540,0.00144
780.80523,0.00122
778.74506,0.00163
776.68489,0.00321
774.62472,0.00413
772.56454,0.00360
770.50437,0.00255
768.44420,0.00182
766.38403,0.00154
764.32386,0.00127
762.26368,0.00087
760.20351,0.00093
758.14334,0.00144
756.08317,0.00131
754.02299,0.00101
751.96282,0.00159
749.90265,0.00158
747.84248,0.00043
745.78231,0.00000
743.72213,0.00051
741.66196,0.00051
739.60179,-0.00022
737.54162,-0.00044
735.48145,-0.00014
733.42127,-0.00006
731.36110,0.00031
729.30093,0.00173
727.24076,0.00311
725.18059,0.00313
723.12041,0.00362
721.06024,0.00490
719.00007,0.00613
716.93990,0.00634
714.87972,0.00595
712.81955,0.00579
710.75938,0.00647
708.69921,0.00789
706.63904,0.00928
704.57886,0.01004
702.51869,0.00992
700.45852,0.00953
698.39835,0.00994
696.33818,0.01141
694.27800,0.01250
692.21783,0.01190
690.15766,0.01036
688.09749,0.00908
686.03731,0.00877
683.97714,0.01002
681.91697,0.01181
679.85680,0.01207
677.79663,0.01146
675.73645,0.01227
673.67628,0.01355
671.61611,0.01171
669.55594,0.00444
667.49577,0.00000
665.43559,0.00411
663.37542,0.00579
661.31525,0.00510
659.25508,0.00386
657.19491,0.00483
655.13473,0.00769
653.07456,0.00851
651.01439,0.00698
648.95422,0.00525
646.89404,0.00331
644.83387,0.00118
642.77370,0.00063
640.71353,0.00200
638.65336,0.00378
636.59318,0.00516
634.53301,0.00691
632.47284,0.00715
630.41267,0.00371
628.35250,-0.00056
626.29232,-0.00217
624.23215,-0.00128
622.17198,0.00035
620.11181,-0.00045
618.05164,-0.00326
615.99146,-0.00366
613.93129,-0.00067
611.87112,0.00042
609.81095,-0.00212
607.75077,-0.00505
605.69060,-0.00650
603.63043,-0.00563
601.57026,-0.00194
599.51009,0.00000
