3996.73391,-0.00010
3994.67373,-0.00015
3992.61356,0.00006
3990.55339,0.00037
3988.49322,0.00046
3986.43305,0.00019
3984.37287,0.00002
3982.31270,0.00020
3980.25253,0.00048
3978.19236,0.00067
3976.13219,0.00077
3974.07201,0.00067
3972.01184,0.00044
3969.95167,0.00034
3967.89150,0.00035
3965.83133,0.00027
3963.77115,0.00010
3961.71098,0.00000
3959.65081,0.00013
3957.59064,0.00037
3955.53046,0.00050
3953.47029,0.00050
3951.41012,0.00041
3949.34995,0.00044
3947.28978,0.00068
3945.22960,0.00072
3943.16943,0.00033
3941.10926,0.00000
3939.04909,0.00020
3936.98892,0.00091
3934.92874,0.00159
3932.86857,0.00169
3930.80840,0.00149
3928.74823,0.00133
3926.68805,0.00114
3924.62788,0.00096
3922.56771,0.00076
3920.50754,0.00070
3918.44737,0.00099
3916.38719,0.00141
3914.32702,0.00153
3912.26685,0.00137
3910.20668,0.00110
3908.14651,0.00077
3906.08633,0.00056
3904.02616,0.00069
3901.96599,0.00082
3899.90582,0.00055
3897.84565,0.00030
3895.78547,0.00045
3893.72530,0.00082
3891.66513,0.00105
3889.60496,0.00095
3887.54478,0.00072
3885.48461,0.00071
3883.42444,0.00104
3881.36427,0.00138
3879.30410,0.00128
3877.24392,0.00103
3875.18375,0.00119
3873.12358,0.00154
3871.06341,0.00162
3869.00324,0.00142
3866.94306,0.00118
3864.88289,0.00124
3862.82272,0.00159
3860.76255,0.00172
3858.70237,0.00148
3856.64220,0.00157
3854.58203,0.00228
3852.52186,0.00253
3850.46169,0.00196
3848.40151,0.00141
3846.34134,0.00089
3844.28117,0.00048
3842.22100,0.00086
3840.16083,0.00186
3838.10065,0.00203
3836.04048,0.00136
3833.98031,0.00138
3831.92014,0.00201
3829.85997,0.00231
3827.79979,0.00217
3825.73962,0.00167
3823.67945,0.00088
3821.61928,0.00016
3819.55910,0.00000
3817.49893,0.00030
3815.43876,0.00057
3813.37859,0.00072
3811.31842,0.00092
3809.25824,0.00126
3807.19807,0.00161
3805.13790,0.00190
3803.07773,0.00227
3801.01756,0.00242
3798.95738,0.00170
3796.89721,0.00076
3794.83704,0.00049
3792.77687,0.00074
3790.71670,0.00091
3788.65652,0.00087
3786.59635,0.00080
3784.53618,0.00080
3782.47601,0.00080
3780.41583,0.00086
3778.35566,0.00099
3776.29549,0.00101
3774.23532,0.00099
3772.17515,0.00106
3770.11497,0.00116
3768.05480,0.00117
3765.99463,0.00095
3763.93446,0.00061
3761.87429,0.00057
3759.81411,0.00092
3757.75394,0.00113
3755.69377,0.00098
3753.63360,0.00091
3751.57342,0.00105
3749.51325,0.00133
3747.45308,0.00193
3745.39291,0.00254
3743.33274,0.00234
3741.27256,0.00132
3739.21239,0.00034
3737.15222,0.00044
3735.09205,0.00176
3733.03188,0.00241
3730.97170,0.00161
3728.91153,0.00056
3726.85136,0.00000
3724.79119,0.00000
3722.73102,0.00059
3720.67084,0.00120
3718.61067,0.00100
3716.55050,0.00041
3714.49033,0.00028
3712.43015,0.00059
3710.36998,0.00096
3708.30981,0.00127
3706.24964,0.00130
3704.18947,0.00101
3702.12929,0.00065
3700.06912,0.00030
3698.00895,0.00000
3695.94878,-0.00002
3693.88861,0.00026
3691.82843,0.00082
3689.76826,0.00169
3687.70809,0.00191
3685.64792,0.00095
3683.58775,0.00007
3681.52757,0.00012
3679.46740,0.00052
3677.40723,0.00057
3675.34706,0.00076
3673.28688,0.00176
3671.22671,0.00287
3669.16654,0.00331
3667.10637,0.00308
3665.04620,0.00266
3662.98602,0.00240
3660.92585,0.00221
3658.86568,0.00194
3656.80551,0.00193
3654.74534,0.00211
3652.68516,0.00198
3650.62499,0.00170
3648.56482,0.00194
3646.50465,0.00279
3644.44447,0.00339
3642.38430,0.00341
3640.32413,0.00323
3638.26396,0.00314
3636.20379,0.00318
3634.14361,0.00334
3632.08344,0.00357
3630.02327,0.00384
3627.96310,0.00424
3625.90293,0.00461
3623.84275,0.00468
3621.78258,0.00463
3619.72241,0.00504
3617.66224,0.00605
3615.60207,0.00672
3613.54189,0.00651
3611.48172,0.00628
3609.42155,0.00665
3607.36138,0.00701
3605.30120,0.00707
3603.24103,0.00722
3601.18086,0.00755
3599.12069,0.00793
3597.06052,0.00821
3595.00034,0.00821
3592.94017,0.00781
3590.88000,0.00752
3588.81983,0.00826
3586.75966,0.00967
3584.69948,0.01015
3582.63931,0.00972
3580.57914,0.00937
3578.51897,0.00943
3576.45879,0.00980
3574.39862,0.01036
3572.33845,0.01100
3570.27828,0.01171
3568.21811,0.01263
3566.15793,0.01371
3564.09776,0.01442
3562.03759,0.01447
3559.97742,0.01402
3557.91725,0.01348
3555.85707,0.01327
3553.79690,0.01358
3551.73673,0.01422
3549.67656,0.01482
3547.61639,0.01553
3545.55621,0.01648
3543.49604,0.01728
3541.43587,0.01775
3539.37570,0.01801
3537.31552,0.01820
3535.25535,0.01860
3533.19518,0.01916
3531.13501,0.01955
3529.07484,0.01976
3527.01466,0.01997
3524.95449,0.02034
3522.89432,0.02092
3520.83415,0.02157
3518.77398,0.02209
3516.71380,0.02245
3514.65363,0.02284
3512.59346,0.02324
3510.53329,0.02339
3508.47312,0.02364
3506.41294,0.02430
3504.35277,0.02502
3502.29260,0.02539
3500.23243,0.02545
3498.17225,0.02570
3496.11208,0.02644
3494.05191,0.02723
3491.99174,0.02762
3489.93157,0.02773
3487.87139,0.02813
3485.81122,0.02881
3483.75105,0.02925
3481.69088,0.02953
3479.63071,0.03004
3477.57053,0.03070
3475.51036,0.03142
3473.45019,0.03196
3471.39002,0.03206
3469.32984,0.03202
3467.26967,0.03231
3465.20950,0.03301
3463.14933,0.03365
3461.08916,0.03374
3459.02898,0.03370
3456.96881,0.03404
3454.90864,0.03459
3452.84847,0.03526
3450.78830,0.03584
3448.72812,0.03625
3446.66795,0.03676
3444.60778,0.03708
3442.54761,0.03698
3440.48744,0.03710
3438.42726,0.03784
3436.36709,0.03864
3434.30692,0.03887
3432.24675,0.03880
3430.18657,0.03912
3428.12640,0.03971
3426.06623,0.04017
3424.00606,0.04073
3421.94589,0.04134
3419.88571,0.04156
3417.82554,0.04154
3415.76537,0.04173
3413.70520,0.04214
3411.64503,0.04241
3409.58485,0.04281
3407.52468,0.04343
3405.46451,0.04363
3403.40434,0.04370
3401.34416,0.04410
3399.28399,0.04443
3397.22382,0.04449
3395.16365,0.04464
3393.10348,0.04510
3391.04330,0.04587
3388.98313,0.04652
3386.92296,0.04656
3384.86279,0.04626
3382.80262,0.04632
3380.74244,0.04686
3378.68227,0.04743
3376.62210,0.04776
3374.56193,0.04784
3372.50176,0.04776
3370.44158,0.04776
3368.38141,0.04800
3366.32124,0.04855
3364.26107,0.04930
3362.20089,0.04980
3360.14072,0.04981
3358.08055,0.04951
3356.02038,0.04929
3353.96021,0.04947
3351.90003,0.04988
3349.83986,0.05021
3347.77969,0.05047
3345.71952,0.05065
3343.65935,0.05074
3341.59917,0.05083
3339.53900,0.05081
3337.47883,0.05086
3335.41866,0.05126
3333.35849,0.05155
3331.29831,0.05142
3329.23814,0.05140
3327.17797,0.05156
3325.11780,0.05157
3323.05762,0.05137
3320.99745,0.05115
3318.93728,0.05114
3316.87711,0.05143
3314.81694,0.05188
3312.75676,0.05219
3310.69659,0.05221
3308.63642,0.05216
3306.57625,0.05235
3304.51608,0.05245
3302.45590,0.05223
3300.39573,0.05210
3298.33556,0.05219
3296.27539,0.05234
3294.21521,0.05250
3292.15504,0.05255
3290.09487,0.05241
3288.03470,0.05227
3285.97453,0.05227
3283.91435,0.05229
3281.85418,0.05228
3279.79401,0.05226
3277.73384,0.05220
3275.67367,0.05217
3273.61349,0.05205
3271.55332,0.05178
3269.49315,0.05149
3267.43298,0.05123
3265.37281,0.05109
3263.31263,0.05108
3261.25246,0.05115
3259.19229,0.05127
3257.13212,0.05143
3255.07194,0.05165
3253.01177,0.05185
3250.95160,0.05201
3248.89143,0.05197
3246.83126,0.05157
3244.77108,0.05107
3242.71091,0.05092
3240.65074,0.05089
3238.59057,0.05043
3236.53040,0.04990
3234.47022,0.04982
3232.41005,0.04982
3230.34988,0.04976
3228.28971,0.04972
3226.22954,0.04966
3224.16936,0.04955
3222.10919,0.04936
3220.04902,0.04921
3217.98885,0.04921
3215.92867,0.04924
3213.86850,0.04919
3211.80833,0.04898
3209.74816,0.04864
3207.68799,0.04838
3205.62781,0.04821
3203.56764,0.04795
3201.50747,0.04768
3199.44730,0.04750
3197.38713,0.04722
3195.32695,0.04677
3193.26678,0.04664
3191.20661,0.04702
3189.14644,0.04729
3187.08626,0.04697
3185.02609,0.04645
3182.96592,0.04619
3180.90575,0.04604
3178.84558,0.04557
3176.78540,0.04478
3174.72523,0.04436
3172.66506,0.04460
3170.60489,0.04471
3168.54472,0.04424
3166.48454,0.04376
3164.42437,0.04368
3162.36420,0.04380
3160.30403,0.04377
3158.24386,0.04340
3156.18368,0.04273
3154.12351,0.04222
3152.06334,0.04210
3150.00317,0.04201
3147.94299,0.04180
3145.88282,0.04163
3143.82265,0.04130
3141.76248,0.04065
3139.70231,0.04016
3137.64213,0.03987
3135.58196,0.03955
3133.52179,0.03933
3131.46162,0.03919
3129.40145,0.03886
3127.34127,0.03833
3125.28110,0.03782
3123.22093,0.03734
3121.16076,0.03710
3119.10058,0.03733
3117.04041,0.03752
3114.98024,0.03718
3112.92007,0.03667
3110.85990,0.03626
3108.79972,0.03583
3106.73955,0.03548
3104.67938,0.03535
3102.61921,0.03520
3100.55904,0.03483
3098.49886,0.03446
3096.43869,0.03425
3094.37852,0.03410
3092.31835,0.03380
3090.25818,0.03337
3088.19800,0.03311
3086.13783,0.03302
3084.07766,0.03277
3082.01749,0.03230
3079.95731,0.03185
3077.89714,0.03144
3075.83697,0.03109
3073.77680,0.03088
3071.71663,0.03072
3069.65645,0.03042
3067.59628,0.03012
3065.53611,0.02994
3063.47594,0.02956
3061.41577,0.02899
3059.35559,0.02867
3057.29542,0.02870
3055.23525,0.02874
3053.17508,0.02856
3051.11491,0.02835
3049.05473,0.02818
3046.99456,0.02777
3044.93439,0.02717
3042.87422,0.02677
3040.81404,0.02670
3038.75387,0.02676
3036.69370,0.02665
3034.63353,0.02618
3032.57336,0.02565
3030.51318,0.02547
3028.45301,0.02550
3026.39284,0.02536
3024.33267,0.02515
3022.27250,0.02514
3020.21232,0.02514
3018.15215,0.02496
3016.09198,0.02486
3014.03181,0.02492
3011.97163,0.02485
3009.91146,0.02477
3007.85129,0.02472
3005.79112,0.02438
3003.73095,0.02393
3001.67077,0.02386
2999.61060,0.02403
2997.55043,0.02400
2995.49026,0.02375
2993.43009,0.02341
2991.36991,0.02301
2989.30974,0.02275
2987.24957,0.02293
2985.18940,0.02339
2983.12923,0.02375
2981.06905,0.02389
2979.00888,0.02407
2976.94871,0.02447
2974.88854,0.02510
2972.82836,0.02611
2970.76819,0.02711
2968.70802,0.02784
2966.64785,0.02876
2964.58768,0.02995
2962.52750,0.03143
2960.46733,0.03327
2958.40716,0.03507
2956.34699,0.03669
2954.28682,0.03824
2952.22664,0.03963
2950.16647,0.04107
2948.10630,0.04290
2946.04613,0.04496
2943.98596,0.04723
2941.92578,0.04993
2939.86561,0.05264
2937.80544,0.05506
2935.74527,0.05730
2933.68509,0.05942
2931.62492,0.06174
2929.56475,0.06408
2927.50458,0.06586
2925.44441,0.06714
2923.38423,0.06806
2921.32406,0.06858
2919.26389,0.06861
2917.20372,0.06791
2915.14355,0.06621
2913.08337,0.06374
2911.02320,0.06110
2908.96303,0.05880
2906.90286,0.05693
2904.84268,0.05526
2902.78251,0.05350
2900.72234,0.05161
2898.66217,0.04977
2896.60200,0.04826
2894.54182,0.04719
2892.48165,0.04626
2890.42148,0.04529
2888.36131,0.04438
2886.30114,0.04354
2884.24096,0.04279
2882.18079,0.04197
2880.12062,0.04113
2878.06045,0.04075
2876.00028,0.04094
2873.94010,0.04128
2871.87993,0.04172
2869.81976,0.04227
2867.75959,0.04271
2865.69941,0.04322
2863.63924,0.04423
2861.57907,0.04597
2859.51890,0.04815
2857.45873,0.05027
2855.39855,0.05206
2853.33838,0.05330
2851.27821,0.05376
2849.21804,0.05292
2847.15787,0.05046
2845.09769,0.04702
2843.03752,0.04340
2840.97735,0.04029
2838.91718,0.03802
2836.85700,0.03626
2834.79683,0.03505
2832.73666,0.03419
2830.67649,0.03310
2828.61632,0.03190
2826.55614,0.03104
2824.49597,0.03044
2822.43580,0.02975
2820.37563,0.02898
2818.31546,0.02841
2816.25528,0.02810
2814.19511,0.02786
2812.13494,0.02763
2810.07477,0.02726
2808.01460,0.02641
2805.95442,0.02536
2803.89425,0.02491
2801.83408,0.02504
2799.77391,0.02526
2797.71373,0.02529
2795.65356,0.02502
2793.59339,0.02466
2791.53322,0.02458
2789.47305,0.02465
2787.41287,0.02451
2785.35270,0.02410
2783.29253,0.02371
2781.23236,0.02355
2779.17219,0.02346
2777.11201,0.02336
2775.05184,0.02321
2772.99167,0.02287
2770.93150,0.02259
2768.87133,0.02252
2766.81115,0.02239
2764.75098,0.02213
2762.69081,0.02200
2760.63064,0.02205
2758.57046,0.02219
2756.51029,0.02224
2754.45012,0.02208
2752.38995,0.02180
2750.32978,0.02155
2748.26960,0.02129
2746.20943,0.02101
2744.14926,0.02095
2742.08909,0.02107
2740.02892,0.02101
2737.96874,0.02096
2735.90857,0.02113
2733.84840,0.02115
2731.78823,0.02106
2729.72805,0.02123
2727.66788,0.02141
2725.60771,0.02110
2723.54754,0.02059
2721.48737,0.02042
2719.42719,0.02040
2717.36702,0.02018
2715.30685,0.01998
2713.24668,0.02010
2711.18651,0.02029
2709.12633,0.02019
2707.06616,0.02010
2705.00599,0.02036
2702.94582,0.02054
2700.88565,0.02025
2698.82547,0.01991
2696.76530,0.01993
2694.70513,0.02002
2692.64496,0.01981
2690.58478,0.01960
2688.52461,0.01976
2686.46444,0.01999
2684.40427,0.01994
2682.34410,0.01972
2680.28392,0.01966
2678.22375,0.01968
2676.16358,0.01943
2674.10341,0.01913
2672.04324,0.01915
2669.98306,0.01945
2667.92289,0.01959
2665.86272,0.01937
2663.80255,0.01902
2661.74238,0.01879
2659.68220,0.01872
2657.62203,0.01878
2655.56186,0.01877
2653.50169,0.01852
2651.44151,0.01825
2649.38134,0.01808
2647.32117,0.01787
2645.26100,0.01783
2643.20083,0.01816
2641.14065,0.01848
2639.08048,0.01843
2637.02031,0.01823
2634.96014,0.01799
2632.89997,0.01768
2630.83979,0.01744
2628.77962,0.01733
2626.71945,0.01724
2624.65928,0.01708
2622.59910,0.01702
2620.53893,0.01698
2618.47876,0.01668
2616.41859,0.01642
2614.35842,0.01644
2612.29824,0.01658
2610.23807,0.01668
2608.17790,0.01680
2606.11773,0.01675
2604.05756,0.01621
2601.99738,0.01565
2599.93721,0.01572
2597.87704,0.01605
2595.81687,0.01615
2593.75670,0.01605
2591.69652,0.01601
2589.63635,0.01629
2587.57618,0.01645
2585.51601,0.01619
2583.45583,0.01586
2581.39566,0.01554
2579.33549,0.01523
2577.27532,0.01505
2575.21515,0.01492
2573.15497,0.01482
2571.09480,0.01493
2569.03463,0.01508
2566.97446,0.01487
2564.91429,0.01440
2562.85411,0.01422
2560.79394,0.01444
2558.73377,0.01451
2556.67360,0.01427
2554.61342,0.01400
2552.55325,0.01375
2550.49308,0.01352
2548.43291,0.01343
2546.37274,0.01355
2544.31256,0.01360
2542.25239,0.01353
2540.19222,0.01372
2538.13205,0.01381
2536.07188,0.01336
2534.01170,0.01296
2531.95153,0.01311
2529.89136,0.01363
2527.83119,0.01400
2525.77102,0.01398
2523.71084,0.01398
2521.65067,0.01409
2519.59050,0.01381
2517.53033,0.01316
2515.47015,0.01265
2513.40998,0.01241
2511.34981,0.01242
2509.28964,0.01248
2507.22947,0.01238
2505.16929,0.01216
2503.10912,0.01213
2501.04895,0.01229
2498.98878,0.01259
2496.92861,0.01304
2494.86843,0.01320
2492.80826,0.01310
2490.74809,0.01325
2488.68792,0.01353
2486.62775,0.01330
2484.56757,0.01224
2482.50740,0.01120
2480.44723,0.01099
2478.38706,0.01139
2476.32688,0.01183
2474.26671,0.01216
2472.20654,0.01246
2470.14637,0.01247
2468.08620,0.01213
2466.02602,0.01207
2463.96585,0.01199
2461.90568,0.01126
2459.84551,0.01089
2457.78534,0.01136
2455.72516,0.01194
2453.66499,0.01229
2451.60482,0.01235
2449.54465,0.01204
2447.48447,0.01171
2445.42430,0.01163
2443.36413,0.01169
2441.30396,0.01163
2439.24379,0.01149
2437.18361,0.01171
2435.12344,0.01183
2433.06327,0.01160
2431.00310,0.01138
2428.94293,0.01097
2426.88275,0.01056
2424.82258,0.01054
2422.76241,0.01056
2420.70224,0.01035
2418.64207,0.01015
2416.58189,0.01029
2414.52172,0.01084
2412.46155,0.01111
2410.40138,0.01074
2408.34120,0.01057
2406.28103,0.01103
2404.22086,0.01136
2402.16069,0.01109
2400.10052,0.01034
2398.04034,0.00967
2395.98017,0.00960
2393.92000,0.01005
2391.85983,0.01054
2389.79966,0.01077
2387.73948,0.01090
2385.67931,0.01106
2383.61914,0.01112
2381.55897,0.01121
2379.49880,0.01160
2377.43862,0.01206
2375.37845,0.01234
2373.31828,0.01229
2371.25811,0.01129
2369.19793,0.00981
2367.13776,0.00865
2365.07759,0.00752
2363.01742,0.00807
2360.95725,0.01203
2358.89707,0.01634
2356.83690,0.01711
2354.77673,0.01534
2352.71656,0.01328
2350.65639,0.01158
2348.59621,0.01068
2346.53604,0.01004
2344.47587,0.00889
2342.41570,0.00882
2340.35552,0.01066
2338.29535,0.01188
2336.23518,0.01131
2334.17501,0.01061
2332.11484,0.01126
2330.05466,0.01305
2327.99449,0.01427
2325.93432,0.01345
2323.87415,0.01125
2321.81398,0.00964
2319.75380,0.00926
2317.69363,0.00925
2315.63346,0.00949
2313.57329,0.01014
2311.51312,0.01085
2309.45294,0.01110
2307.39277,0.01116
2305.33260,0.01128
2303.27243,0.01101
2301.21225,0.01047
2299.15208,0.01044
2297.09191,0.01093
2295.03174,0.01100
2292.97157,0.01043
2290.91139,0.00986
2288.85122,0.00967
2286.79105,0.00978
2284.73088,0.00985
2282.67071,0.00959
2280.61053,0.00938
2278.55036,0.00966
2276.49019,0.00993
2274.43002,0.00931
2272.36984,0.00811
2270.30967,0.00762
2268.24950,0.00820
2266.18933,0.00887
2264.12916,0.00924
2262.06898,0.00980
2260.00881,0.01028
2257.94864,0.00983
2255.88847,0.00866
2253.82830,0.00789
2251.76812,0.00791
2249.70795,0.00819
2247.64778,0.00824
2245.58761,0.00819
2243.52744,0.00816
2241.46726,0.00776
2239.40709,0.00734
2237.34692,0.00790
2235.28675,0.00900
2233.22657,0.00926
2231.16640,0.00816
2229.10623,0.00663
2227.04606,0.00617
2224.98589,0.00663
2222.92571,0.00692
2220.86554,0.00709
2218.80537,0.00753
2216.74520,0.00791
2214.68503,0.00737
2212.62485,0.00650
2210.56468,0.00615
2208.50451,0.00614
2206.44434,0.00641
2204.38417,0.00671
2202.32399,0.00767
2200.26382,0.00918
2198.20365,0.00959
2196.14348,0.00917
2194.08330,0.00906
2192.02313,0.00901
2189.96296,0.00785
2187.90279,0.00561
2185.84262,0.00485
2183.78244,0.00571
2181.72227,0.00576
2179.66210,0.00487
2177.60193,0.00396
2175.54176,0.00406
2173.48158,0.00523
2171.42141,0.00587
2169.36124,0.00550
2167.30107,0.00599
2165.24089,0.00835
2163.18072,0.01040
2161.12055,0.00897
2159.06038,0.00520
2157.00021,0.00380
2154.94003,0.00393
2152.87986,0.00325
2150.81969,0.00247
2148.75952,0.00305
2146.69935,0.00435
2144.63917,0.00483
2142.57900,0.00517
2140.51883,0.00617
2138.45866,0.00694
2136.39849,0.00657
2134.33831,0.00592
2132.27814,0.00599
2130.21797,0.00637
2128.15780,0.00648
2126.09762,0.00623
2124.03745,0.00624
2121.97728,0.00675
2119.91711,0.00721
2117.85694,0.00759
2115.79676,0.00793
2113.73659,0.00827
2111.67642,0.00812
2109.61625,0.00707
2107.55608,0.00664
2105.49590,0.00747
2103.43573,0.00822
2101.37556,0.00826
2099.31539,0.00779
2097.25521,0.00700
2095.19504,0.00609
2093.13487,0.00526
2091.07470,0.00563
2089.01453,0.00745
2086.95435,0.00856
2084.89418,0.00800
2082.83401,0.00739
2080.77384,0.00760
2078.71367,0.00777
2076.65349,0.00765
2074.59332,0.00772
2072.53315,0.00820
2070.47298,0.00849
2068.41281,0.00811
2066.35263,0.00796
2064.29246,0.00845
2062.23229,0.00891
2060.17212,0.00904
2058.11194,0.00863
2056.05177,0.00769
2053.99160,0.00736
2051.93143,0.00772
2049.87126,0.00715
2047.81108,0.00552
2045.75091,0.00418
2043.69074,0.00395
2041.63057,0.00500
2039.57040,0.00720
2037.51022,0.00929
2035.45005,0.00913
2033.38988,0.00702
2031.32971,0.00538
2029.26954,0.00486
2027.20936,0.00537
2025.14919,0.00561
2023.08902,0.00380
2021.02885,0.00101
2018.96867,0.00000
2016.90850,0.00149
2014.84833,0.00297
2012.78816,0.00363
2010.72799,0.00373
2008.66781,0.00269
2006.60764,0.00217
2004.54747,0.00395
2002.48730,0.00643
2000.42713,0.00733
1998.36695,0.00737
1996.30678,0.00814
1994.24661,0.00871
1992.18644,0.00817
1990.12626,0.00791
1988.06609,0.00820
1986.00592,0.00790
1983.94575,0.00670
1981.88558,0.00491
1979.82540,0.00341
1977.76523,0.00259
1975.70506,0.00214
1973.64489,0.00222
1971.58472,0.00217
1969.52454,0.00198
1967.46437,0.00347
1965.40420,0.00549
1963.34403,0.00515
1961.28386,0.00353
1959.22368,0.00344
1957.16351,0.00468
1955.10334,0.00543
1953.04317,0.00523
1950.98299,0.00442
1948.92282,0.00392
1946.86265,0.00419
1944.80248,0.00466
1942.74231,0.00484
1940.68213,0.00424
1938.62196,0.00335
1936.56179,0.00316
1934.50162,0.00355
1932.44145,0.00411
1930.38127,0.00417
1928.32110,0.00385
1926.26093,0.00398
1924.20076,0.00417
1922.14059,0.00414
1920.08041,0.00419
1918.02024,0.00424
1915.96007,0.00444
1913.89990,0.00498
1911.83972,0.00511
1909.77955,0.00461
1907.71938,0.00426
1905.65921,0.00407
1903.59904,0.00358
1901.53886,0.00286
1899.47869,0.00245
1897.41852,0.00270
1895.35835,0.00312
1893.29818,0.00314
1891.23800,0.00302
1889.17783,0.00296
1887.11766,0.00287
1885.05749,0.00296
1882.99731,0.00307
1880.93714,0.00292
1878.87697,0.00270
1876.81680,0.00262
1874.75663,0.00266
1872.69645,0.00275
1870.63628,0.00298
1868.57611,0.00327
1866.51594,0.00330
1864.45577,0.00312
1862.39559,0.00299
1860.33542,0.00279
1858.27525,0.00232
1856.21508,0.00185
1854.15491,0.00180
1852.09473,0.00186
1850.03456,0.00161
1847.97439,0.00128
1845.91422,0.00127
1843.85404,0.00152
1841.79387,0.00158
1839.73370,0.00154
1837.67353,0.00173
1835.61336,0.00184
1833.55318,0.00155
1831.49301,0.00127
1829.43284,0.00132
1827.37267,0.00138
1825.31250,0.00147
1823.25232,0.00175
1821.19215,0.00170
1819.13198,0.00116
1817.07181,0.00066
1815.01163,0.00045
1812.95146,0.00031
1810.89129,0.00023
1808.83112,0.00043
1806.77095,0.00069
1804.71077,0.00077
1802.65060,0.00085
1800.59043,0.00109
1798.53026,0.00134
1796.47009,0.00137
1794.40991,0.00111
1792.34974,0.00085
1790.28957,0.00088
1788.22940,0.00095
1786.16923,0.00085
1784.10905,0.00072
1782.04888,0.00066
1779.98871,0.00063
1777.92854,0.00049
1775.86836,0.00020
1773.80819,0.00000
1771.74802,0.00027
1769.68785,0.00110
1767.62768,0.00181
1765.56750,0.00218
1763.50733,0.00267
1761.44716,0.00365
1759.38699,0.00496
1757.32682,0.00637
1755.26664,0.00767
1753.20647,0.00886
1751.14630,0.01046
1749.08613,0.01252
1747.02596,0.01420
1744.96578,0.01514
1742.90561,0.01567
1740.84544,0.01621
1738.78527,0.01685
1736.72509,0.01729
1734.66492,0.01735
1732.60475,0.01721
1730.54458,0.01709
1728.48441,0.01712
1726.42423,0.01731
1724.36406,0.01758
1722.30389,0.01782
1720.24372,0.01793
1718.18355,0.01774
1716.12337,0.01726
1714.06320,0.01697
1712.00303,0.01705
1709.94286,0.01722
1707.88268,0.01738
1705.82251,0.01758
1703.76234,0.01751
1701.70217,0.01697
1699.64200,0.01656
1697.58182,0.01689
1695.52165,0.01763
1693.46148,0.01855
1691.40131,0.01973
1689.34114,0.02121
1687.28096,0.02267
1685.22079,0.02447
1683.16062,0.02717
1681.10045,0.02955
1679.04028,0.03111
1676.98010,0.03241
1674.91993,0.03343
1672.85976,0.03368
1670.79959,0.03341
1668.73941,0.03310
1666.67924,0.03284
1664.61907,0.03237
1662.55890,0.03152
1660.49873,0.03067
1658.43855,0.03013
1656.37838,0.02967
1654.31821,0.02892
1652.25804,0.02818
1650.19787,0.02807
1648.13769,0.02817
1646.07752,0.02831
1644.01735,0.02864
1641.95718,0.02904
1639.89701,0.02947
1637.83683,0.03005
1635.77666,0.03098
1633.71649,0.03189
1631.65632,0.03232
1629.59614,0.03253
1627.53597,0.03280
1625.47580,0.03312
1623.41563,0.03353
1621.35546,0.03417
1619.29528,0.03483
1617.23511,0.03535
1615.17494,0.03591
1613.11477,0.03678
1611.05460,0.03808
1608.99442,0.03967
1606.93425,0.04114
1604.87408,0.04177
1602.81391,0.04109
1600.75373,0.03944
1598.69356,0.03755
1596.63339,0.03581
1594.57322,0.03438
1592.51305,0.03324
1590.45287,0.03223
1588.39270,0.03129
1586.33253,0.03045
1584.27236,0.02955
1582.21219,0.02849
1580.15201,0.02737
1578.09184,0.02635
1576.03167,0.02561
1573.97150,0.02514
1571.91133,0.02454
1569.85115,0.02369
1567.79098,0.02269
1565.73081,0.02160
1563.67064,0.02063
1561.61046,0.01987
1559.55029,0.01883
1557.49012,0.01745
1555.42995,0.01669
1553.36978,0.01633
1551.30960,0.01565
1549.24943,0.01450
1547.18926,0.01343
1545.12909,0.01265
1543.06892,0.01173
1541.00874,0.01063
1538.94857,0.00997
1536.88840,0.00961
1534.82823,0.00901
1532.76805,0.00817
1530.70788,0.00755
1528.64771,0.00727
1526.58754,0.00710
1524.52737,0.00714
1522.46719,0.00791
1520.40702,0.00937
1518.34685,0.01104
1516.28668,0.01263
1514.22651,0.01328
1512.16633,0.01264
1510.10616,0.01134
1508.04599,0.00972
1505.98582,0.00785
1503.92565,0.00644
1501.86547,0.00554
1499.80530,0.00478
1497.74513,0.00396
1495.68496,0.00315
1493.62478,0.00256
1491.56461,0.00213
1489.50444,0.00182
1487.44427,0.00160
1485.38410,0.00143
1483.32392,0.00141
1481.26375,0.00151
1479.20358,0.00178
1477.14341,0.00250
1475.08324,0.00398
1473.02306,0.00634
1470.96289,0.00899
1468.90272,0.01128
1466.84255,0.01340
1464.78238,0.01539
1462.72220,0.01682
1460.66203,0.01770
1458.60186,0.01860
1456.54169,0.01972
1454.48151,0.02072
1452.42134,0.02151
1450.36117,0.02230
1448.30100,0.02327
1446.24083,0.02440
1444.18065,0.02545
1442.12048,0.02635
1440.06031,0.02711
1438.00014,0.02780
1435.93997,0.02846
1433.87979,0.02894
1431.81962,0.02930
1429.75945,0.02967
1427.69928,0.02989
1425.63910,0.02980
1423.57893,0.02963
1421.51876,0.02969
1419.45859,0.03005
1417.39842,0.03030
1415.33824,0.03011
1413.27807,0.02967
1411.21790,0.02911
1409.15773,0.02841
1407.09756,0.02765
1405.03738,0.02672
1402.97721,0.02566
1400.91704,0.02467
1398.85687,0.02380
1396.79670,0.02301
1394.73652,0.02236
1392.67635,0.02201
1390.61618,0.02201
1388.55601,0.02223
1386.49583,0.02264
1384.43566,0.02321
1382.37549,0.02400
1380.31532,0.02500
1378.25515,0.02597
1376.19497,0.02667
1374.13480,0.02692
1372.07463,0.02677
1370.01446,0.02656
1367.95429,0.02651
1365.89411,0.02644
1363.83394,0.02599
1361.77377,0.02522
1359.71360,0.02464
1357.65343,0.02439
1355.59325,0.02422
1353.53308,0.02407
1351.47291,0.02409
1349.41274,0.02423
1347.35256,0.02428
1345.29239,0.02409
1343.23222,0.02382
1341.17205,0.02373
1339.11188,0.02382
1337.05170,0.02382
1334.99153,0.02372
1332.93136,0.02370
1330.87119,0.02378
1328.81102,0.02394
1326.75084,0.02420
1324.69067,0.02436
1322.63050,0.02418
1320.57033,0.02389
1318.51015,0.02376
1316.44998,0.02365
1314.38981,0.02346
1312.32964,0.02317
1310.26947,0.02273
1308.20929,0.02219
1306.14912,0.02165
1304.08895,0.02106
1302.02878,0.02044
1299.96861,0.01977
1297.90843,0.01908
1295.84826,0.01866
1293.78809,0.01870
1291.72792,0.01906
1289.66775,0.01943
1287.60757,0.01974
1285.54740,0.01996
1283.48723,0.02003
1281.42706,0.02007
1279.36688,0.02031
1277.30671,0.02065
1275.24654,0.02077
1273.18637,0.02091
1271.12620,0.02141
1269.06602,0.02207
1267.00585,0.02278
1264.94568,0.02361
1262.88551,0.02451
1260.82534,0.02541
1258.76516,0.02625
1256.70499,0.02701
1254.64482,0.02774
1252.58465,0.02836
1250.52447,0.02869
1248.46430,0.02885
1246.40413,0.02909
1244.34396,0.02940
1242.28379,0.02962
1240.22361,0.02967
1238.16344,0.02944
1236.10327,0.02901
1234.04310,0.02844
1231.98293,0.02764
1229.92275,0.02670
1227.86258,0.02564
1225.80241,0.02452
1223.74224,0.02332
1221.68207,0.02201
1219.62189,0.02075
1217.56172,0.01953
1215.50155,0.01800
1213.44138,0.01625
1211.38120,0.01475
1209.32103,0.01357
1207.26086,0.01234
1205.20069,0.01090
1203.14052,0.00947
1201.08034,0.00787
1199.02017,0.00606
1196.96000,0.00450
1194.89983,0.00316
1192.83966,0.00191
1190.77948,0.00112
1188.71931,0.00085
1186.65914,0.00059
1184.59897,0.00016
1182.53880,0.00000
1180.47862,0.00036
1178.41845,0.00132
1176.35828,0.00294
1174.29811,0.00517
1172.23793,0.00779
1170.17776,0.01049
1168.11759,0.01264
1166.05742,0.01394
1163.99725,0.01482
1161.93707,0.01560
1159.87690,0.01625
1157.81673,0.01682
1155.75656,0.01738
1153.69639,0.01797
1151.63621,0.01903
1149.57604,0.02054
1147.51587,0.02188
1145.45570,0.02280
1143.39552,0.02340
1141.33535,0.02410
1139.27518,0.02516
1137.21501,0.02620
1135.15484,0.02690
1133.09466,0.02749
1131.03449,0.02841
1128.97432,0.02975
1126.91415,0.03128
1124.85398,0.03259
1122.79380,0.03355
1120.73363,0.03476
1118.67346,0.03622
1116.61329,0.03752
1114.55312,0.03873
1112.49294,0.04011
1110.43277,0.04145
1108.37260,0.04251
1106.31243,0.04352
1104.25225,0.04479
1102.19208,0.04651
1100.13191,0.04869
1098.07174,0.05078
1096.01157,0.05261
1093.95139,0.05467
1091.89122,0.05673
1089.83105,0.05850
1087.77088,0.06056
1085.71071,0.06295
1083.65053,0.06518
1081.59036,0.06726
1079.53019,0.06931
1077.47002,0.07148
1075.40985,0.07407
1073.34967,0.07695
1071.28950,0.07942
1069.22933,0.08113
1067.16916,0.08252
1065.10898,0.08386
1063.04881,0.08532
1060.98864,0.08695
1058.92847,0.08849
1056.86830,0.09020
1054.80812,0.09235
1052.74795,0.09447
1050.68778,0.09638
1048.62761,0.09874
1046.56744,0.10172
1044.50726,0.10464
1042.44709,0.10723
1040.38692,0.10981
1038.32675,0.11216
1036.26657,0.11369
1034.20640,0.11447
1032.14623,0.11493
1030.08606,0.11523
1028.02589,0.11538
1025.96571,0.11523
1023.90554,0.11483
1021.84537,0.11425
1019.78520,0.11343
1017.72503,0.11303
1015.66485,0.11328
1013.60468,0.11338
1011.54451,0.11331
1009.48434,0.11337
1007.42417,0.11330
1005.36399,0.11299
1003.30382,0.11245
1001.24365,0.11169
999.18348,0.11050
997.12330,0.10903
995.06313,0.10755
993.00296,0.10561
990.94279,0.10355
988.88262,0.10192
986.82244,0.10028
984.76227,0.09829
982.70210,0.09639
980.64193,0.09475
978.58176,0.09305
976.52158,0.09136
974.46141,0.08984
972.40124,0.08835
970.34107,0.08663
968.28089,0.08473
966.22072,0.08292
964.16055,0.08097
962.10038,0.07896
960.04021,0.07721
957.98003,0.07532
955.91986,0.07311
953.85969,0.07111
951.79952,0.06955
949.73935,0.06816
947.67917,0.06680
945.61900,0.06520
943.55883,0.06291
941.49866,0.06000
939.43849,0.05663
937.37831,0.05292
935.31814,0.04916
933.25797,0.04547
931.19780,0.04225
929.13762,0.03963
927.07745,0.03706
925.01728,0.03452
922.95711,0.03216
920.89694,0.02975
918.83676,0.02766
916.77659,0.02624
914.71642,0.02490
912.65625,0.02315
910.59608,0.02122
908.53590,0.01951
906.47573,0.01853
904.41556,0.01795
902.35539,0.01698
900.29522,0.01620
898.23504,0.01643
896.17487,0.01688
894.11470,0.01667
892.05453,0.01648
889.99435,0.01657
887.93418,0.01638
885.87401,0.01585
883.81384,0.01506
881.75367,0.01409
879.69349,0.01283
877.63332,0.01163
875.57315,0.01100
873.51298,0.01051
871.45281,0.00939
869.39263,0.00789
867.33246,0.00728
865.27229,0.00780
863.21212,0.00830
861.15194,0.00793
859.09177,0.00674
857.03160,0.00546
854.97143,0.00524
852.91126,0.00594
850.85108,0.00669
848.79091,0.00745
846.73074,0.00789
844.67057,0.00757
842.61040,0.00687
840.55022,0.00631
838.49005,0.00604
836.42988,0.00578
834.36971,0.00541
832.30954,0.00552
830.24936,0.00620
828.18919,0.00612
826.12902,0.00485
824.06885,0.00377
822.00867,0.00350
819.94850,0.00367
817.88833,0.00407
815.82816,0.00454
813.76799,0.00440
811.70781,0.00318
809.64764,0.00230
807.58747,0.00273
805.52730,0.00341
803.46713,0.00347
801.40695,0.00320
799.34678,0.00284
797.28661,0.00170
795.22644,0.00033
793.16627,0.00000
791.10609,0.00017
789.04592,0.00060
786.98575,0.00135
784.92558,0.00195
782.86540,0.00206
780.80523,0.00155
778.74506,0.00149
776.68489,0.00244
774.62472,0.00301
772.56454,0.00269
770.50437,0.00217
768.44420,0.00185
766.38403,0.00166
764.32386,0.00107
762.26368,0.00029
760.20351,0.00031
758.14334,0.00066
756.08317,0.00026
754.02299,0.00026
751.96282,0.00127
749.90265,0.00150
747.84248,0.00055
745.78231,0.00000
743.72213,0.00049
741.66196,0.00090
739.60179,0.00006
737.54162,-0.00050
735.48145,-0.00063
733.42127,-0.00117
731.36110,-0.00086
729.30093,0.00099
727.24076,0.00271
725.18059,0.00294
723.12041,0.00279
721.06024,0.00288
719.00007,0.00308
716.93990,0.00344
714.87972,0.00410
712.81955,0.00488
710.75938,0.00541
708.69921,0.00542
706.63904,0.00531
704.57886,0.00600
702.51869,0.00728
700.45852,0.00805
698.39835,0.00828
696.33818,0.00885
694.27800,0.00914
692.21783,0.00768
690.15766,0.00508
688.09749,0.00357
686.03731,0.00471
683.97714,0.00723
681.91697,0.00813
679.85680,0.00676
677.79663,0.00505
675.73645,0.00448
673.67628,0.00470
671.61611,0.00380
669.55594,0.00073
667.49577,-0.00157
665.43559,0.00000
663.37542,0.00337
661.31525,0.00552
659.25508,0.00559
657.19491,0.00530
655.13473,0.00544
653.07456,0.00574
651.01439,0.00703
648.95422,0.00810
646.89404,0.00639
644.83387,0.00256
642.77370,0.00000
640.71353,0.00077
638.65336,0.00407
636.59318,0.00660
634.53301,0.00841
632.47284,0.00914
630.41267,0.00650
628.35250,0.00085
626.29232,-0.00462
624.23215,-0.00542
622.17198,-0.00211
620.11181,-0.00125
618.05164,-0.00389
615.99146,-0.00447
613.93129,-0.00176
611.87112,-0.00016
609.81095,-0.00181
607.75077,-0.00468
605.69060,-0.00633
603.63043,-0.00484
601.57026,-0.00010
599.51009,0.00000
