3996.73391,0.00117
3994.67373,0.00092
3992.61356,0.00105
3990.55339,0.00142
3988.49322,0.00131
3986.43305,0.00054
3984.37287,0.00000
3982.31270,0.00020
3980.25253,0.00047
3978.19236,0.00049
3976.13219,0.00073
3974.07201,0.00123
3972.01184,0.00148
3969.95167,0.00138
3967.89150,0.00124
3965.83133,0.00115
3963.77115,0.00093
3961.71098,0.00077
3959.65081,0.00099
3957.59064,0.00120
3955.53046,0.00114
3953.47029,0.00113
3951.41012,0.00135
3949.34995,0.00164
3947.28978,0.00176
3945.22960,0.00139
3943.16943,0.00055
3941.10926,0.00000
3939.04909,0.00023
3936.98892,0.00091
3934.92874,0.00142
3932.86857,0.00158
3930.80840,0.00167
3928.74823,0.00181
3926.68805,0.00209
3924.62788,0.00233
3922.56771,0.00207
3920.50754,0.00165
3918.44737,0.00164
3916.38719,0.00171
3914.32702,0.00170
3912.26685,0.00198
3910.20668,0.00210
3908.14651,0.00156
3906.08633,0.00099
3904.02616,0.00092
3901.96599,0.00070
3899.90582,0.00027
3897.84565,0.00043
3895.78547,0.00125
3893.72530,0.00221
3891.66513,0.00256
3889.60496,0.00213
3887.54478,0.00179
3885.48461,0.00180
3883.42444,0.00172
3881.36427,0.00168
3879.30410,0.00197
3877.24392,0.00246
3875.18375,0.00279
3873.12358,0.00271
3871.06341,0.00258
3869.00324,0.00266
3866.94306,0.00253
3864.88289,0.00247
3862.82272,0.00282
3860.76255,0.00292
3858.70237,0.00256
3856.64220,0.00255
3854.58203,0.00306
3852.52186,0.00287
3850.46169,0.00204
3848.40151,0.00158
3846.34134,0.00131
3844.28117,0.00107
3842.22100,0.00130
3840.16083,0.00202
3838.10065,0.00228
3836.04048,0.00210
3833.98031,0.00255
3831.92014,0.00327
3829.85997,0.00336
3827.79979,0.00294
3825.73962,0.00218
3823.67945,0.00128
3821.61928,0.00085
3819.55910,0.00107
3817.49893,0.00147
3815.43876,0.00164
3813.37859,0.00146
3811.31842,0.00109
3809.25824,0.00107
3807.19807,0.00166
3805.13790,0.00229
3803.07773,0.00263
3801.01756,0.00280
3798.95738,0.00253
3796.89721,0.00195
3794.83704,0.00163
3792.77687,0.00161
3790.71670,0.00168
3788.65652,0.00191
3786.59635,0.00243
3784.53618,0.00281
3782.47601,0.00264
3780.41583,0.00223
3778.35566,0.00173
3776.29549,0.00122
3774.23532,0.00107
3772.17515,0.00121
3770.11497,0.00164
3768.05480,0.00226
3765.99463,0.00235
3763.93446,0.00166
3761.87429,0.00119
3759.81411,0.00167
3757.75394,0.00239
3755.69377,0.00278
3753.63360,0.00314
3751.57342,0.00336
3749.51325,0.00301
3747.45308,0.00235
3745.39291,0.00231
3743.33274,0.00319
3741.27256,0.00342
3739.21239,0.00227
3737.15222,0.00133
3735.09205,0.00193
3733.03188,0.00275
3730.97170,0.00230
3728.91153,0.00129
3726.85136,0.00051
3724.79119,0.00033
3722.73102,0.00103
3720.67084,0.00207
3718.61067,0.00240
3716.55050,0.00221
3714.49033,0.00219
3712.43015,0.00214
3710.36998,0.00178
3708.30981,0.00146
3706.24964,0.00115
3704.18947,0.00065
3702.12929,0.00011
3700.06912,0.00000
3698.00895,0.00037
3695.94878,0.00063
3693.88861,0.00058
3691.82843,0.00102
3689.76826,0.00233
3687.70809,0.00310
3685.64792,0.00252
3683.58775,0.00173
3681.52757,0.00160
3679.46740,0.00195
3677.40723,0.00220
3675.34706,0.00258
3673.28688,0.00348
3671.22671,0.00428
3669.16654,0.00438
3667.10637,0.00386
3665.04620,0.00354
3662.98602,0.00358
3660.92585,0.00324
3658.86568,0.00261
3656.80551,0.00267
3654.74534,0.00333
3652.68516,0.00348
3650.62499,0.00303
3648.56482,0.00298
3646.50465,0.00376
3644.44447,0.00447
3642.38430,0.00464
3640.32413,0.00443
3638.26396,0.00389
3636.20379,0.00329
3634.14361,0.00338
3632.08344,0.00422
3630.02327,0.00500
3627.96310,0.00525
3625.90293,0.00529
3623.84275,0.00531
3621.78258,0.00537
3619.72241,0.00597
3617.66224,0.00740
3615.60207,0.00857
3613.54189,0.00844
3611.48172,0.00758
3609.42155,0.00703
3607.36138,0.00693
3605.30120,0.00724
3603.24103,0.00781
3601.18086,0.00805
3599.12069,0.00765
3597.06052,0.00738
3595.00034,0.00773
3592.94017,0.00802
3590.88000,0.00819
3588.81983,0.00877
3586.75966,0.00954
3584.69948,0.00980
3582.63931,0.00951
3580.57914,0.00907
3578.51897,0.00901
3576.45879,0.00967
3574.39862,0.01058
3572.33845,0.01137
3570.27828,0.01230
3568.21811,0.01347
3566.15793,0.01419
3564.09776,0.01383
3562.03759,0.01312
3559.97742,0.01284
3557.91725,0.01294
3555.85707,0.01315
3553.79690,0.01349
3551.73673,0.01397
3549.67656,0.01464
3547.61639,0.01566
3545.55621,0.01661
3543.49604,0.01689
3541.43587,0.01674
3539.37570,0.01670
3537.31552,0.01693
3535.25535,0.01745
3533.19518,0.01819
3531.13501,0.01894
3529.07484,0.01948
3527.01466,0.01957
3524.95449,0.01938
3522.89432,0.01954
3520.83415,0.02018
3518.77398,0.02092
3516.71380,0.02178
3514.65363,0.02279
3512.59346,0.02338
3510.53329,0.02319
3508.47312,0.02309
3506.41294,0.02373
3504.35277,0.02438
3502.29260,0.02451
3500.23243,0.02437
3498.17225,0.02434
3496.11208,0.02488
3494.05191,0.02590
3491.99174,0.02640
3489.93157,0.02631
3487.87139,0.02670
3485.81122,0.02766
3483.75105,0.02814
3481.69088,0.02825
3479.63071,0.02870
3477.57053,0.02930
3475.51036,0.02986
3473.45019,0.03012
3471.39002,0.02980
3469.32984,0.02941
3467.26967,0.02947
3465.20950,0.02996
3463.14933,0.03069
3461.08916,0.03109
3459.02898,0.03115
3456.96881,0.03172
3454.90864,0.03299
3452.84847,0.03414
3450.78830,0.03445
3448.72812,0.03442
3446.66795,0.03473
3444.60778,0.03495
3442.54761,0.03472
3440.48744,0.03454
3438.42726,0.03489
3436.36709,0.03556
3434.30692,0.03601
3432.24675,0.03629
3430.18657,0.03700
3428.12640,0.03776
3426.06623,0.03795
3424.00606,0.03811
3421.94589,0.03835
3419.88571,0.03819
3417.82554,0.03808
3415.76537,0.03843
3413.70520,0.03902
3411.64503,0.03961
3409.58485,0.04034
3407.52468,0.04105
3405.46451,0.04104
3403.40434,0.04097
3401.34416,0.04148
3399.28399,0.04176
3397.22382,0.04170
3395.16365,0.04166
3393.10348,0.04215
3391.04330,0.04324
3388.98313,0.04373
3386.92296,0.04317
3384.86279,0.04269
3382.80262,0.04279
3380.74244,0.04341
3378.68227,0.04433
3376.62210,0.04484
3374.56193,0.04485
3372.50176,0.04474
3370.44158,0.04464
3368.38141,0.04476
3366.32124,0.04536
3364.26107,0.04616
3362.20089,0.04661
3360.14072,0.04662
3358.08055,0.04630
3356.02038,0.04585
3353.96021,0.04574
3351.90003,0.04630
3349.83986,0.04714
3347.77969,0.04728
3345.71952,0.04685
3343.65935,0.04679
3341.59917,0.04712
3339.53900,0.04737
3337.47883,0.04754
3335.41866,0.04792
3333.35849,0.04833
3331.29831,0.04835
3329.23814,0.04829
3327.17797,0.04830
3325.11780,0.04798
3323.05762,0.04755
3320.99745,0.04760
3318.93728,0.04795
3316.87711,0.04817
3314.81694,0.04824
3312.75676,0.04837
3310.69659,0.04863
3308.63642,0.04868
3306.57625,0.04855
3304.51608,0.04843
3302.45590,0.04836
3300.39573,0.04839
3298.33556,0.04832
3296.27539,0.04806
3294.21521,0.04826
3292.15504,0.04892
3290.09487,0.04908
3288.03470,0.04870
3285.97453,0.04858
3283.91435,0.04876
3281.85418,0.04863
3279.79401,0.04841
3277.73384,0.04858
3275.67367,0.04872
3273.61349,0.04831
3271.55332,0.04782
3269.49315,0.04781
3267.43298,0.04796
3265.37281,0.04795
3263.31263,0.04787
3261.25246,0.04777
3259.19229,0.04773
3257.13212,0.04798
3255.07194,0.04852
3253.01177,0.04890
3250.95160,0.04898
3248.89143,0.04881
3246.83126,0.04841
3244.77108,0.04814
3242.71091,0.04804
3240.65074,0.04776
3238.59057,0.04716
3236.53040,0.04660
3234.47022,0.04661
3232.41005,0.04708
3230.34988,0.04755
3228.28971,0.04764
3226.22954,0.04735
3224.16936,0.04694
3222.10919,0.04669
3220.04902,0.04677
3217.98885,0.04659
3215.92867,0.04575
3213.86850,0.04509
3211.80833,0.04520
3209.74816,0.04568
3207.68799,0.04596
3205.62781,0.04572
3203.56764,0.04522
3201.50747,0.04487
3199.44730,0.04461
3197.38713,0.04411
3195.32695,0.04367
3193.26678,0.04375
3191.20661,0.04415
3189.14644,0.04429
3187.08626,0.04400
3185.02609,0.04361
3182.96592,0.04353
3180.90575,0.04367
3178.84558,0.04349
3176.78540,0.04286
3174.72523,0.04225
3172.66506,0.04225
3170.60489,0.04260
3168.54472,0.04245
3166.48454,0.04189
3164.42437,0.04146
3162.36420,0.04127
3160.30403,0.04106
3158.24386,0.04053
3156.18368,0.03992
3154.12351,0.03964
3152.06334,0.03958
3150.00317,0.03948
3147.94299,0.03928
3145.88282,0.03924
3143.82265,0.03921
3141.76248,0.03872
3139.70231,0.03792
3137.64213,0.03736
3135.58196,0.03726
3133.52179,0.03733
3131.46162,0.03717
3129.40145,0.03665
3127.34127,0.03607
3125.28110,0.03565
3123.22093,0.03524
3121.16076,0.03513
3119.10058,0.03541
3117.04041,0.03549
3114.98024,0.03518
3112.92007,0.03465
3110.85990,0.03417
3108.79972,0.03386
3106.73955,0.03361
3104.67938,0.03343
3102.61921,0.03340
3100.55904,0.03329
3098.49886,0.03300
3096.43869,0.03276
3094.37852,0.03262
3092.31835,0.03247
3090.25818,0.03222
3088.19800,0.03204
3086.13783,0.03209
3084.07766,0.03203
3082.01749,0.03143
3079.95731,0.03067
3077.89714,0.03015
3075.83697,0.02981
3073.77680,0.02974
3071.71663,0.02985
3069.65645,0.02969
3067.59628,0.02915
3065.53611,0.02856
3063.47594,0.02822
3061.41577,0.02792
3059.35559,0.02745
3057.29542,0.02722
3055.23525,0.02741
3053.17508,0.02763
3051.11491,0.02767
3049.05473,0.02751
3046.99456,0.02700
3044.93439,0.02635
3042.87422,0.02584
3040.81404,0.02549
3038.75387,0.02532
3036.69370,0.02518
3034.63353,0.02484
3032.57336,0.02456
3030.51318,0.02470
3028.45301,0.02497
3026.39284,0.02497
3024.33267,0.02482
3022.27250,0.02466
3020.21232,0.02447
3018.15215,0.02447
3016.09198,0.02464
3014.03181,0.02458
3011.97163,0.02418
3009.91146,0.02384
3007.85129,0.02375
3005.79112,0.02376
3003.73095,0.02358
3001.67077,0.02318
2999.61060,0.02291
2997.55043,0.02295
2995.49026,0.02296
2993.43009,0.02273
2991.36991,0.02242
2989.30974,0.02224
2987.24957,0.02227
2985.18940,0.02245
2983.12923,0.02280
2981.06905,0.02318
2979.00888,0.02344
2976.94871,0.02372
2974.88854,0.02431
2972.82836,0.02523
2970.76819,0.02580
2968.70802,0.02618
2966.64785,0.02719
2964.58768,0.02841
2962.52750,0.02953
2960.46733,0.03092
2958.40716,0.03253
2956.34699,0.03413
2954.28682,0.03560
2952.22664,0.03700
2950.16647,0.03866
2948.10630,0.04048
2946.04613,0.04198
2943.98596,0.04364
2941.92578,0.04619
2939.86561,0.04911
2937.80544,0.05155
2935.74527,0.05346
2933.68509,0.05521
2931.62492,0.05732
2929.56475,0.05956
2927.50458,0.06122
2925.44441,0.06239
2923.38423,0.06337
2921.32406,0.06403
2919.26389,0.06435
2917.20372,0.06398
2915.14355,0.06227
2913.08337,0.05959
2911.02320,0.05712
2908.96303,0.05525
2906.90286,0.05353
2904.84268,0.05183
2902.78251,0.04995
2900.72234,0.04781
2898.66217,0.04611
2896.60200,0.04516
2894.54182,0.04433
2892.48165,0.04332
2890.42148,0.04230
2888.36131,0.04133
2886.30114,0.04052
2884.24096,0.04007
2882.18079,0.03972
2880.12062,0.03912
2878.06045,0.03850
2876.00028,0.03832
2873.94010,0.03876
2871.87993,0.03947
2869.81976,0.03989
2867.75959,0.04007
2865.69941,0.04057
2863.63924,0.04170
2861.57907,0.04314
2859.51890,0.04476
2857.45873,0.04665
2855.39855,0.04840
2853.33838,0.04960
2851.27821,0.05015
2849.21804,0.04951
2847.15787,0.04711
2845.09769,0.04372
2843.03752,0.04064
2840.97735,0.03831
2838.91718,0.03642
2836.85700,0.03469
2834.79683,0.03323
2832.73666,0.03194
2830.67649,0.03075
2828.61632,0.02978
2826.55614,0.02901
2824.49597,0.02849
2822.43580,0.02837
2820.37563,0.02829
2818.31546,0.02776
2816.25528,0.02702
2814.19511,0.02644
2812.13494,0.02606
2810.07477,0.02580
2808.01460,0.02522
2805.95442,0.02440
2803.89425,0.02399
2801.83408,0.02409
2799.77391,0.02450
2797.71373,0.02466
2795.65356,0.02411
2793.59339,0.02344
2791.53322,0.02336
2789.47305,0.02369
2787.41287,0.02386
2785.35270,0.02378
2783.29253,0.02356
2781.23236,0.02318
2779.17219,0.02280
2777.11201,0.02249
2775.05184,0.02212
2772.99167,0.02178
2770.93150,0.02157
2768.87133,0.02162
2766.81115,0.02176
2764.75098,0.02169
2762.69081,0.02150
2760.63064,0.02142
2758.57046,0.02145
2756.51029,0.02144
2754.45012,0.02148
2752.38995,0.02159
2750.32978,0.02135
2748.26960,0.02073
2746.20943,0.02037
2744.14926,0.02059
2742.08909,0.02082
2740.02892,0.02055
2737.96874,0.02034
2735.90857,0.02054
2733.84840,0.02053
2731.78823,0.02028
2729.72805,0.02031
2727.66788,0.02048
2725.60771,0.02029
2723.54754,0.01996
2721.48737,0.01979
2719.42719,0.01958
2717.36702,0.01932
2715.30685,0.01927
2713.24668,0.01949
2711.18651,0.01978
2709.12633,0.01983
2707.06616,0.01974
2705.00599,0.01984
2702.94582,0.01982
2700.88565,0.01937
2698.82547,0.01898
2696.76530,0.01907
2694.70513,0.01924
2692.64496,0.01916
2690.58478,0.01907
2688.52461,0.01919
2686.46444,0.01943
2684.40427,0.01961
2682.34410,0.01939
2680.28392,0.01881
2678.22375,0.01827
2676.16358,0.01792
2674.10341,0.01797
2672.04324,0.01844
2669.98306,0.01878
2667.92289,0.01868
2665.86272,0.01845
2663.80255,0.01833
2661.74238,0.01805
2659.68220,0.01766
2657.62203,0.01767
2655.56186,0.01790
2653.50169,0.01760
2651.44151,0.01708
2649.38134,0.01700
2647.32117,0.01694
2645.26100,0.01683
2643.20083,0.01706
2641.14065,0.01740
2639.08048,0.01750
2637.02031,0.01735
2634.96014,0.01692
2632.89997,0.01634
2630.83979,0.01593
2628.77962,0.01593
2626.71945,0.01604
2624.65928,0.01602
2622.59910,0.01616
2620.53893,0.01608
2618.47876,0.01552
2616.41859,0.01523
2614.35842,0.01545
2612.29824,0.01582
2610.23807,0.01603
2608.17790,0.01626
2606.11773,0.01658
2604.05756,0.01626
2601.99738,0.01554
2599.93721,0.01544
2597.87704,0.01549
2595.81687,0.01531
2593.75670,0.01517
2591.69652,0.01512
2589.63635,0.01544
2587.57618,0.01553
2585.51601,0.01495
2583.45583,0.01453
2581.39566,0.01478
2579.33549,0.01540
2577.27532,0.01543
2575.21515,0.01468
2573.15497,0.01425
2571.09480,0.01457
2569.03463,0.01481
2566.97446,0.01448
2564.91429,0.01391
2562.85411,0.01366
2560.79394,0.01372
2558.73377,0.01368
2556.67360,0.01354
2554.61342,0.01355
2552.55325,0.01371
2550.49308,0.01392
2548.43291,0.01416
2546.37274,0.01408
2544.31256,0.01344
2542.25239,0.01298
2540.19222,0.01340
2538.13205,0.01397
2536.07188,0.01336
2534.01170,0.01191
2531.95153,0.01139
2529.89136,0.01254
2527.83119,0.01360
2525.77102,0.01313
2523.71084,0.01258
2521.65067,0.01285
2519.59050,0.01270
2517.53033,0.01209
2515.47015,0.01173
2513.40998,0.01153
2511.34981,0.01143
2509.28964,0.01141
2507.22947,0.01150
2505.16929,0.01150
2503.10912,0.01122
2501.04895,0.01125
2498.98878,0.01203
2496.92861,0.01288
2494.86843,0.01300
2492.80826,0.01257
2490.74809,0.01201
2488.68792,0.01152
2486.62775,0.01117
2484.56757,0.01070
2482.50740,0.01021
2480.44723,0.01030
2478.38706,0.01103
2476.32688,0.01152
2474.26671,0.01136
2472.20654,0.01129
2470.14637,0.01158
2468.08620,0.01204
2466.02602,0.01233
2463.96585,0.01168
2461.90568,0.01037
2459.84551,0.01005
2457.78534,0.01087
2455.72516,0.01142
2453.66499,0.01148
2451.60482,0.01153
2449.54465,0.01107
2447.48447,0.01052
2445.42430,0.01087
2443.36413,0.01153
2441.30396,0.01171
2439.24379,0.01127
2437.18361,0.01067
2435.12344,0.01031
2433.06327,0.01024
2431.00310,0.01065
2428.94293,0.01123
2426.88275,0.01127
2424.82258,0.01089
2422.76241,0.01058
2420.70224,0.01033
2418.64207,0.01008
2416.58189,0.01003
2414.52172,0.01023
2412.46155,0.01051
2410.40138,0.01061
2408.34120,0.01063
2406.28103,0.01085
2404.22086,0.01061
2402.16069,0.00937
2400.10052,0.00835
2398.04034,0.00841
2395.98017,0.00905
2393.92000,0.00974
2391.85983,0.01022
2389.79966,0.01029
2387.73948,0.01005
2385.67931,0.00991
2383.61914,0.01010
2381.55897,0.01052
2379.49880,0.01086
2377.43862,0.01085
2375.37845,0.01060
2373.31828,0.01025
2371.25811,0.00966
2369.19793,0.00894
2367.13776,0.00746
2365.07759,0.00382
2363.01742,0.00098
2360.95725,0.00458
2358.89707,0.01147
2356.83690,0.01299
2354.77673,0.01056
2352.71656,0.00941
2350.65639,0.00880
2348.59621,0.00753
2346.53604,0.00567
2344.47587,0.00340
2342.41570,0.00265
2340.35552,0.00483
2338.29535,0.00708
2336.23518,0.00691
2334.17501,0.00606
2332.11484,0.00653
2330.05466,0.00766
2327.99449,0.00846
2325.93432,0.00834
2323.87415,0.00711
2321.81398,0.00643
2319.75380,0.00750
2317.69363,0.00883
2315.63346,0.00923
2313.57329,0.00919
2311.51312,0.00962
2309.45294,0.01049
2307.39277,0.01086
2305.33260,0.01050
2303.27243,0.01010
2301.21225,0.01006
2299.15208,0.01002
2297.09191,0.00973
2295.03174,0.00919
2292.97157,0.00864
2290.91139,0.00842
2288.85122,0.00856
2286.79105,0.00888
2284.73088,0.00902
2282.67071,0.00887
2280.61053,0.00878
2278.55036,0.00905
2276.49019,0.00951
2274.43002,0.00947
2272.36984,0.00826
2270.30967,0.00656
2268.24950,0.00592
2266.18933,0.00649
2264.12916,0.00710
2262.06898,0.00758
2260.00881,0.00842
2257.94864,0.00899
2255.88847,0.00860
2253.82830,0.00783
2251.76812,0.00738
2249.70795,0.00718
2247.64778,0.00714
2245.58761,0.00749
2243.52744,0.00745
2241.46726,0.00633
2239.40709,0.00519
2237.34692,0.00544
2235.28675,0.00668
2233.22657,0.00752
2231.16640,0.00728
2229.10623,0.00642
2227.04606,0.00528
2224.98589,0.00423
2222.92571,0.00495
2220.86554,0.00714
2218.80537,0.00776
2216.74520,0.00587
2214.68503,0.00356
2212.62485,0.00302
2210.56468,0.00358
2208.50451,0.00460
2206.44434,0.00649
2204.38417,0.00722
2202.32399,0.00693
2200.26382,0.00727
2198.20365,0.00691
2196.14348,0.00607
2194.08330,0.00653
2192.02313,0.00685
2189.96296,0.00509
2187.90279,0.00264
2185.84262,0.00214
2183.78244,0.00313
2181.72227,0.00393
2179.66210,0.00447
2177.60193,0.00425
2175.54176,0.00469
2173.48158,0.00668
2171.42141,0.00716
2169.36124,0.00590
2167.30107,0.00715
2165.24089,0.01061
2163.18072,0.01136
2161.12055,0.00809
2159.06038,0.00312
2157.00021,0.00050
2154.94003,0.00012
2152.87986,0.00000
2150.81969,0.00086
2148.75952,0.00211
2146.69935,0.00284
2144.63917,0.00387
2142.57900,0.00496
2140.51883,0.00552
2138.45866,0.00582
2136.39849,0.00555
2134.33831,0.00490
2132.27814,0.00480
2130.21797,0.00563
2128.15780,0.00662
2126.09762,0.00689
2124.03745,0.00645
2121.97728,0.00583
2119.91711,0.00592
2117.85694,0.00643
2115.79676,0.00664
2113.73659,0.00661
2111.67642,0.00607
2109.61625,0.00523
2107.55608,0.00536
2105.49590,0.00625
2103.43573,0.00672
2101.37556,0.00658
2099.31539,0.00615
2097.25521,0.00531
2095.19504,0.00408
2093.13487,0.00341
2091.07470,0.00427
2089.01453,0.00630
2086.95435,0.00728
2084.89418,0.00653
2082.83401,0.00585
2080.77384,0.00573
2078.71367,0.00560
2076.65349,0.00587
2074.59332,0.00657
2072.53315,0.00698
2070.47298,0.00665
2068.41281,0.00620
2066.35263,0.00648
2064.29246,0.00689
2062.23229,0.00739
2060.17212,0.00802
2058.11194,0.00753
2056.05177,0.00673
2053.99160,0.00737
2051.93143,0.00793
2049.87126,0.00638
2047.81108,0.00377
2045.75091,0.00189
2043.69074,0.00123
2041.63057,0.00195
2039.57040,0.00435
2037.51022,0.00625
2035.45005,0.00432
2033.38988,0.00074
2031.32971,0.00000
2029.26954,0.00096
2027.20936,0.00141
2025.14919,0.00195
2023.08902,0.00225
2021.02885,0.00190
2018.96867,0.00177
2016.90850,0.00230
2014.84833,0.00247
2012.78816,0.00245
2010.72799,0.00245
2008.66781,0.00128
2006.60764,0.00039
2004.54747,0.00138
2002.48730,0.00222
2000.42713,0.00248
1998.36695,0.00444
1996.30678,0.00762
1994.24661,0.00928
1992.18644,0.00781
1990.12626,0.00474
1988.06609,0.00311
1986.00592,0.00384
1983.94575,0.00494
1981.88558,0.00367
1979.82540,0.00163
1977.76523,0.00125
1975.70506,0.00169
1973.64489,0.00226
1971.58472,0.00153
1969.52454,0.00001
1967.46437,0.00117
1965.40420,0.00354
1963.34403,0.00381
1961.28386,0.00314
1959.22368,0.00245
1957.16351,0.00186
1955.10334,0.00212
1953.04317,0.00296
1950.98299,0.00326
1948.92282,0.00276
1946.86265,0.00176
1944.80248,0.00090
1942.74231,0.00115
1940.68213,0.00154
1938.62196,0.00138
1936.56179,0.00155
1934.50162,0.00197
1932.44145,0.00246
1930.38127,0.00289
1928.32110,0.00309
1926.26093,0.00322
1924.20076,0.00338
1922.14059,0.00350
1920.08041,0.00340
1918.02024,0.00343
1915.96007,0.00387
1913.89990,0.00422
1911.83972,0.00374
1909.77955,0.00282
1907.71938,0.00254
1905.65921,0.00270
1903.59904,0.00245
1901.53886,0.00176
1899.47869,0.00146
1897.41852,0.00193
1895.35835,0.00216
1893.29818,0.00153
1891.23800,0.00074
1889.17783,0.00030
1887.11766,0.00044
1885.05749,0.00135
1882.99731,0.00220
1880.93714,0.00231
1878.87697,0.00203
1876.81680,0.00179
1874.75663,0.00173
1872.69645,0.00192
1870.63628,0.00255
1868.57611,0.00355
1866.51594,0.00416
1864.45577,0.00400
1862.39559,0.00363
1860.33542,0.00337
1858.27525,0.00289
1856.21508,0.00216
1854.15491,0.00176
1852.09473,0.00173
1850.03456,0.00153
1847.97439,0.00122
1845.91422,0.00134
1843.85404,0.00163
1841.79387,0.00146
1839.73370,0.00113
1837.67353,0.00102
1835.61336,0.00091
1833.55318,0.00073
1831.49301,0.00098
1829.43284,0.00169
1827.37267,0.00212
1825.31250,0.00220
1823.25232,0.00224
1821.19215,0.00200
1819.13198,0.00135
1817.07181,0.00063
1815.01163,0.00011
1812.95146,0.00000
1810.89129,0.00046
1808.83112,0.00100
1806.77095,0.00104
1804.71077,0.00085
1802.65060,0.00076
1800.59043,0.00076
1798.53026,0.00107
1796.47009,0.00157
1794.40991,0.00176
1792.34974,0.00154
1790.28957,0.00123
1788.22940,0.00108
1786.16923,0.00096
1784.10905,0.00084
1782.04888,0.00084
1779.98871,0.00078
1777.92854,0.00043
1775.86836,0.00005
1773.80819,0.00000
1771.74802,0.00024
1769.68785,0.00077
1767.62768,0.00120
1765.56750,0.00137
1763.50733,0.00188
1761.44716,0.00311
1759.38699,0.00458
1757.32682,0.00602
1755.26664,0.00734
1753.20647,0.00858
1751.14630,0.01025
1749.08613,0.01221
1747.02596,0.01371
1744.96578,0.01471
1742.90561,0.01528
1740.84544,0.01556
1738.78527,0.01586
1736.72509,0.01622
1734.66492,0.01653
1732.60475,0.01653
1730.54458,0.01616
1728.48441,0.01579
1726.42423,0.01575
1724.36406,0.01599
1722.30389,0.01639
1720.24372,0.01676
1718.18355,0.01683
1716.12337,0.01641
1714.06320,0.01583
1712.00303,0.01570
1709.94286,0.01592
1707.88268,0.01610
1705.82251,0.01618
1703.76234,0.01611
1701.70217,0.01574
1699.64200,0.01542
1697.58182,0.01565
1695.52165,0.01609
1693.46148,0.01670
1691.40131,0.01772
1689.34114,0.01909
1687.28096,0.02075
1685.22079,0.02310
1683.16062,0.02577
1681.10045,0.02737
1679.04028,0.02833
1676.98010,0.02962
1674.91993,0.03111
1672.85976,0.03197
1670.79959,0.03202
1668.73941,0.03143
1666.67924,0.03052
1664.61907,0.02954
1662.55890,0.02866
1660.49873,0.02827
1658.43855,0.02838
1656.37838,0.02831
1654.31821,0.02744
1652.25804,0.02624
1650.19787,0.02583
1648.13769,0.02592
1646.07752,0.02609
1644.01735,0.02627
1641.95718,0.02644
1639.89701,0.02689
1637.83683,0.02780
1635.77666,0.02891
1633.71649,0.02963
1631.65632,0.02993
1629.59614,0.03021
1627.53597,0.03049
1625.47580,0.03072
1623.41563,0.03115
1621.35546,0.03178
1619.29528,0.03227
1617.23511,0.03262
1615.17494,0.03306
1613.11477,0.03384
1611.05460,0.03518
1608.99442,0.03693
1606.93425,0.03843
1604.87408,0.03889
1602.81391,0.03815
1600.75373,0.03680
1598.69356,0.03538
1596.63339,0.03391
1594.57322,0.03247
1592.51305,0.03119
1590.45287,0.03012
1588.39270,0.02940
1586.33253,0.02883
1584.27236,0.02797
1582.21219,0.02684
1580.15201,0.02569
1578.09184,0.02469
1576.03167,0.02394
1573.97150,0.02355
1571.91133,0.02322
1569.85115,0.02262
1567.79098,0.02152
1565.73081,0.02013
1563.67064,0.01914
1561.61046,0.01881
1559.55029,0.01829
1557.49012,0.01727
1555.42995,0.01663
1553.36978,0.01612
1551.30960,0.01508
1549.24943,0.01357
1547.18926,0.01230
1545.12909,0.01161
1543.06892,0.01122
1541.00874,0.01073
1538.94857,0.01011
1536.88840,0.00973
1534.82823,0.00947
1532.76805,0.00890
1530.70788,0.00808
1528.64771,0.00758
1526.58754,0.00761
1524.52737,0.00808
1522.46719,0.00893
1520.40702,0.00991
1518.34685,0.01116
1516.28668,0.01267
1514.22651,0.01331
1512.16633,0.01271
1510.10616,0.01175
1508.04599,0.01055
1505.98582,0.00867
1503.92565,0.00688
1501.86547,0.00566
1499.80530,0.00476
1497.74513,0.00385
1495.68496,0.00301
1493.62478,0.00250
1491.56461,0.00220
1489.50444,0.00201
1487.44427,0.00197
1485.38410,0.00200
1483.32392,0.00192
1481.26375,0.00161
1479.20358,0.00154
1477.14341,0.00254
1475.08324,0.00468
1473.02306,0.00718
1470.96289,0.00909
1468.90272,0.01060
1466.84255,0.01252
1464.78238,0.01459
1462.72220,0.01584
1460.66203,0.01648
1458.60186,0.01740
1456.54169,0.01869
1454.48151,0.01964
1452.42134,0.02016
1450.36117,0.02062
1448.30100,0.02140
1446.24083,0.02243
1444.18065,0.02336
1442.12048,0.02421
1440.06031,0.02515
1438.00014,0.02618
1435.93997,0.02684
1433.87979,0.02675
1431.81962,0.02658
1429.75945,0.02683
1427.69928,0.02716
1425.63910,0.02716
1423.57893,0.02705
1421.51876,0.02736
1419.45859,0.02800
1417.39842,0.02834
1415.33824,0.02815
1413.27807,0.02774
1411.21790,0.02713
1409.15773,0.02632
1407.09756,0.02555
1405.03738,0.02482
1402.97721,0.02405
1400.91704,0.02345
1398.85687,0.02289
1396.79670,0.02197
1394.73652,0.02095
1392.67635,0.02055
1390.61618,0.02072
1388.55601,0.02102
1386.49583,0.02125
1384.43566,0.02154
1382.37549,0.02223
1380.31532,0.02327
1378.25515,0.02414
1376.19497,0.02456
1374.13480,0.02461
1372.07463,0.02453
1370.01446,0.02457
1367.95429,0.02484
1365.89411,0.02499
1363.83394,0.02456
1361.77377,0.02374
1359.71360,0.02317
1357.65343,0.02295
1355.59325,0.02273
1353.53308,0.02246
1351.47291,0.02225
1349.41274,0.02219
1347.35256,0.02230
1345.29239,0.02237
1343.23222,0.02238
1341.17205,0.02254
1339.11188,0.02271
1337.05170,0.02250
1334.99153,0.02201
1332.93136,0.02168
1330.87119,0.02167
1328.81102,0.02198
1326.75084,0.02245
1324.69067,0.02272
1322.63050,0.02264
1320.57033,0.02236
1318.51015,0.02212
1316.44998,0.02188
1314.38981,0.02167
1312.32964,0.02150
1310.26947,0.02120
1308.20929,0.02079
1306.14912,0.02026
1304.08895,0.01957
1302.02878,0.01893
1299.96861,0.01847
1297.90843,0.01792
1295.84826,0.01736
1293.78809,0.01718
1291.72792,0.01749
1289.66775,0.01803
1287.60757,0.01852
1285.54740,0.01874
1283.48723,0.01876
1281.42706,0.01883
1279.36688,0.01911
1277.30671,0.01944
1275.24654,0.01961
1273.18637,0.01970
1271.12620,0.02005
1269.06602,0.02066
1267.00585,0.02132
1264.94568,0.02201
1262.88551,0.02267
1260.82534,0.02327
1258.76516,0.02398
1256.70499,0.02489
1254.64482,0.02575
1252.58465,0.02638
1250.52447,0.02676
1248.46430,0.02688
1246.40413,0.02685
1244.34396,0.02693
1242.28379,0.02711
1240.22361,0.02714
1238.16344,0.02706
1236.10327,0.02682
1234.04310,0.02611
1231.98293,0.02513
1229.92275,0.02434
1227.86258,0.02364
1225.80241,0.02279
1223.74224,0.02166
1221.68207,0.02035
1219.62189,0.01925
1217.56172,0.01826
1215.50155,0.01699
1213.44138,0.01557
1211.38120,0.01432
1209.32103,0.01310
1207.26086,0.01170
1205.20069,0.01022
1203.14052,0.00880
1201.08034,0.00731
1199.02017,0.00563
1196.96000,0.00411
1194.89983,0.00295
1192.83966,0.00200
1190.77948,0.00141
1188.71931,0.00119
1186.65914,0.00085
1184.59897,0.00022
1182.53880,0.00000
1180.47862,0.00051
1178.41845,0.00134
1176.35828,0.00242
1174.29811,0.00435
1172.23793,0.00705
1170.17776,0.00975
1168.11759,0.01156
1166.05742,0.01241
1163.99725,0.01306
1161.93707,0.01376
1159.87690,0.01434
1157.81673,0.01502
1155.75656,0.01584
1153.69639,0.01656
1151.63621,0.01738
1149.57604,0.01857
1147.51587,0.01985
1145.45570,0.02081
1143.39552,0.02134
1141.33535,0.02190
1139.27518,0.02299
1137.21501,0.02418
1135.15484,0.02494
1133.09466,0.02531
1131.03449,0.02582
1128.97432,0.02670
1126.91415,0.02780
1124.85398,0.02909
1122.79380,0.03048
1120.73363,0.03192
1118.67346,0.03332
1116.61329,0.03445
1114.55312,0.03549
1112.49294,0.03664
1110.43277,0.03767
1108.37260,0.03854
1106.31243,0.03959
1104.25225,0.04088
1102.19208,0.04249
1100.13191,0.04446
1098.07174,0.04646
1096.01157,0.04837
1093.95139,0.05037
1091.89122,0.05232
1089.83105,0.05411
1087.77088,0.05595
1085.71071,0.05765
1083.65053,0.05929
1081.59036,0.06120
1079.53019,0.06324
1077.47002,0.06551
1075.40985,0.06794
1073.34967,0.07013
1071.28950,0.07213
1069.22933,0.07405
1067.16916,0.07578
1065.10898,0.07707
1063.04881,0.07808
1060.98864,0.07939
1058.92847,0.08109
1056.86830,0.08305
1054.80812,0.08523
1052.74795,0.08721
1050.68778,0.08902
1048.62761,0.09134
1046.56744,0.09409
1044.50726,0.09663
1042.44709,0.09877
1040.38692,0.10083
1038.32675,0.10281
1036.26657,0.10417
1034.20640,0.10477
1032.14623,0.10520
1030.08606,0.10598
1028.02589,0.10647
1025.96571,0.10606
1023.90554,0.10523
1021.84537,0.10453
1019.78520,0.10404
1017.72503,0.10373
1015.66485,0.10379
1013.60468,0.10422
1011.54451,0.10477
1009.48434,0.10507
1007.42417,0.10470
1005.36399,0.10372
1003.30382,0.10286
1001.24365,0.10233
999.18348,0.10121
997.12330,0.09944
995.06313,0.09785
993.00296,0.09616
990.94279,0.09430
988.88262,0.09286
986.82244,0.09160
984.76227,0.09010
982.70210,0.08847
980.64193,0.08684
978.58176,0.08524
976.52158,0.08395
974.46141,0.08281
972.40124,0.08107
970.34107,0.07909
968.28089,0.07748
966.22072,0.07593
964.16055,0.07417
962.10038,0.07243
960.04021,0.07073
957.98003,0.06898
955.91986,0.06735
953.85969,0.06568
951.79952,0.06393
949.73935,0.06259
947.67917,0.06123
945.61900,0.05902
943.55883,0.05653
941.49866,0.05452
939.43849,0.05245
937.37831,0.04937
935.31814,0.04531
933.25797,0.04131
931.19780,0.03815
929.13762,0.03595
927.07745,0.03413
925.01728,0.03195
922.95711,0.02959
920.89694,0.02755
918.83676,0.02596
916.77659,0.02462
914.71642,0.02313
912.65625,0.02120
910.59608,0.01938
908.53590,0.01803
906.47573,0.01695
904.41556,0.01631
902.35539,0.01579
900.29522,0.01535
898.23504,0.01532
896.17487,0.01522
894.11470,0.01490
892.05453,0.01511
889.99435,0.01548
887.93418,0.01543
885.87401,0.01512
883.81384,0.01407
881.75367,0.01272
879.69349,0.01168
877.63332,0.01080
875.57315,0.01012
873.51298,0.00942
871.45281,0.00846
869.39263,0.00699
867.33246,0.00600
865.27229,0.00633
863.21212,0.00693
861.15194,0.00699
859.09177,0.00623
857.03160,0.00533
854.97143,0.00591
852.91126,0.00748
850.85108,0.00799
848.79091,0.00707
846.73074,0.00620
844.67057,0.00637
842.61040,0.00694
840.55022,0.00730
838.49005,0.00714
836.42988,0.00658
834.36971,0.00616
832.30954,0.00595
830.24936,0.00593
828.18919,0.00567
826.12902,0.00477
824.06885,0.00381
822.00867,0.00358
819.94850,0.00390
817.88833,0.00394
815.82816,0.00365
813.76799,0.00306
811.70781,0.00194
809.64764,0.00143
807.58747,0.00198
805.52730,0.00255
803.46713,0.00308
801.40695,0.00378
799.34678,0.00381
797.28661,0.00204
795.22644,0.00000
793.16627,-0.00015
791.10609,0.00031
789.04592,-0.00006
786.98575,0.00005
784.92558,0.00110
782.86540,0.00116
780.80523,0.00042
778.74506,0.00106
776.68489,0.00275
774.62472,0.00338
772.56454,0.00227
770.50437,0.00084
768.44420,0.00015
766.38403,0.00020
764.32386,0.00055
762.26368,0.00062
760.20351,0.00093
758.14334,0.00200
756.08317,0.00276
754.02299,0.00203
751.96282,0.00064
749.90265,0.00000
747.84248,0.00003
745.78231,0.00035
743.72213,0.00121
741.66196,0.00181
739.60179,0.00059
737.54162,-0.00075
735.48145,-0.00119
733.42127,-0.00103
731.36110,0.00042
729.30093,0.00267
727.24076,0.00369
725.18059,0.00357
723.12041,0.00422
721.06024,0.00456
719.00007,0.00411
716.93990,0.00399
714.87972,0.00425
712.81955,0.00404
710.75938,0.00333
708.69921,0.00296
706.63904,0.00317
704.57886,0.00353
702.51869,0.00466
700.45852,0.00716
698.39835,0.00926
696.33818,0.00924
694.27800,0.00808
692.21783,0.00696
690.15766,0.00569
688.09749,0.00469
686.03731,0.00498
683.97714,0.00598
681.91697,0.00643
679.85680,0.00566
677.79663,0.00467
675.73645,0.00516
673.67628,0.00588
671.61611,0.00392
669.55594,0.00031
667.49577,-0.00043
665.43559,0.00101
663.37542,0.00173
661.31525,0.00235
659.25508,0.00286
657.19491,0.00298
655.13473,0.00320
653.07456,0.00316
651.01439,0.00373
648.95422,0.00523
646.89404,0.00533
644.83387,0.00279
642.77370,0.00000
640.71353,-0.00101
638.65336,0.00024
636.59318,0.00294
634.53301,0.00693
632.47284,0.01111
630.41267,0.01319
628.35250,0.01094
626.29232,0.00476
624.23215,-0.00024
622.17198,-0.00242
620.11181,-0.00414
618.05164,-0.00421
615.99146,-0.00265
613.93129,-0.00296
611.87112,-0.00323
609.81095,-0.00193
607.75077,-0.00333
605.69060,-0.00658
603.63043,-0.00712
601.57026,-0.00374
599.51009,0.00000
