3996.73391,0.00095
3994.67373,0.00097
3992.61356,0.00106
3990.55339,0.00124
3988.49322,0.00131
3986.43305,0.00092
3984.37287,0.00049
3982.31270,0.00065
3980.25253,0.00106
3978.19236,0.00119
3976.13219,0.00123
3974.07201,0.00129
3972.01184,0.00125
3969.95167,0.00112
3967.89150,0.00095
3965.83133,0.00073
3963.77115,0.00042
3961.71098,0.00011
3959.65081,0.00000
3957.59064,0.00015
3955.53046,0.00040
3953.47029,0.00058
3951.41012,0.00066
3949.34995,0.00076
3947.28978,0.00089
3945.22960,0.00067
3943.16943,0.00021
3941.10926,0.00013
3939.04909,0.00059
3936.98892,0.00123
3934.92874,0.00154
3932.86857,0.00140
3930.80840,0.00123
3928.74823,0.00117
3926.68805,0.00110
3924.62788,0.00116
3922.56771,0.00128
3920.50754,0.00127
3918.44737,0.00122
3916.38719,0.00121
3914.32702,0.00124
3912.26685,0.00135
3910.20668,0.00144
3908.14651,0.00134
3906.08633,0.00117
3904.02616,0.00110
3901.96599,0.00089
3899.90582,0.00042
3897.84565,0.00012
3895.78547,0.00046
3893.72530,0.00123
3891.66513,0.00174
3889.60496,0.00163
3887.54478,0.00133
3885.48461,0.00130
3883.42444,0.00154
3881.36427,0.00174
3879.30410,0.00161
3877.24392,0.00140
3875.18375,0.00149
3873.12358,0.00160
3871.06341,0.00145
3869.00324,0.00132
3866.94306,0.00137
3864.88289,0.00153
3862.82272,0.00175
3860.76255,0.00187
3858.70237,0.00194
3856.64220,0.00218
3854.58203,0.00244
3852.52186,0.00203
3850.46169,0.00126
3848.40151,0.00093
3846.34134,0.00066
3844.28117,0.00030
3842.22100,0.00063
3840.16083,0.00167
3838.10065,0.00209
3836.04048,0.00179
3833.98031,0.00185
3831.92014,0.00206
3829.85997,0.00195
3827.79979,0.00176
3825.73962,0.00138
3823.67945,0.00068
3821.61928,0.00009
3819.55910,0.00008
3817.49893,0.00046
3815.43876,0.00079
3813.37859,0.00098
3811.31842,0.00111
3809.25824,0.00128
3807.19807,0.00156
3805.13790,0.00176
3803.07773,0.00183
3801.01756,0.00173
3798.95738,0.00131
3796.89721,0.00103
3794.83704,0.00111
3792.77687,0.00127
3790.71670,0.00135
3788.65652,0.00127
3786.59635,0.00107
3784.53618,0.00102
3782.47601,0.00111
3780.41583,0.00109
3778.35566,0.00090
3776.29549,0.00075
3774.23532,0.00076
3772.17515,0.00077
3770.11497,0.00082
3768.05480,0.00111
3765.99463,0.00137
3763.93446,0.00130
3761.87429,0.00116
3759.81411,0.00119
3757.75394,0.00109
3755.69377,0.00082
3753.63360,0.00072
3751.57342,0.00080
3749.51325,0.00109
3747.45308,0.00170
3745.39291,0.00223
3743.33274,0.00206
3741.27256,0.00131
3739.21239,0.00065
3737.15222,0.00074
3735.09205,0.00180
3733.03188,0.00251
3730.97170,0.00195
3728.91153,0.00102
3726.85136,0.00040
3724.79119,0.00013
3722.73102,0.00058
3720.67084,0.00143
3718.61067,0.00149
3716.55050,0.00071
3714.49033,0.00007
3712.43015,0.00000
3710.36998,0.00042
3708.30981,0.00120
3706.24964,0.00173
3704.18947,0.00180
3702.12929,0.00166
3700.06912,0.00137
3698.00895,0.00099
3695.94878,0.00067
3693.88861,0.00055
3691.82843,0.00092
3689.76826,0.00185
3687.70809,0.00217
3685.64792,0.00141
3683.58775,0.00075
3681.52757,0.00070
3679.46740,0.00068
3677.40723,0.00025
3675.34706,0.00016
3673.28688,0.00126
3671.22671,0.00263
3669.16654,0.00308
3667.10637,0.00260
3665.04620,0.00216
3662.98602,0.00230
3660.92585,0.00263
3658.86568,0.00263
3656.80551,0.00254
3654.74534,0.00263
3652.68516,0.00259
3650.62499,0.00248
3648.56482,0.00284
3646.50465,0.00365
3644.44447,0.00414
3642.38430,0.00389
3640.32413,0.00334
3638.26396,0.00297
3636.20379,0.00298
3634.14361,0.00339
3632.08344,0.00389
3630.02327,0.00451
3627.96310,0.00539
3625.90293,0.00573
3623.84275,0.00512
3621.78258,0.00432
3619.72241,0.00444
3617.66224,0.00575
3615.60207,0.00698
3613.54189,0.00708
3611.48172,0.00683
3609.42155,0.00707
3607.36138,0.00723
3605.30120,0.00701
3603.24103,0.00686
3601.18086,0.00701
3599.12069,0.00736
3597.06052,0.00759
3595.00034,0.00747
3592.94017,0.00729
3590.88000,0.00748
3588.81983,0.00837
3586.75966,0.00953
3584.69948,0.01000
3582.63931,0.00977
3580.57914,0.00960
3578.51897,0.00991
3576.45879,0.01053
3574.39862,0.01118
3572.33845,0.01177
3570.27828,0.01248
3568.21811,0.01338
3566.15793,0.01415
3564.09776,0.01445
3562.03759,0.01454
3559.97742,0.01453
3557.91725,0.01430
3555.85707,0.01389
3553.79690,0.01369
3551.73673,0.01401
3549.67656,0.01462
3547.61639,0.01537
3545.55621,0.01644
3543.49604,0.01749
3541.43587,0.01805
3539.37570,0.01815
3537.31552,0.01830
3535.25535,0.01881
3533.19518,0.01942
3531.13501,0.01986
3529.07484,0.02014
3527.01466,0.02028
3524.95449,0.02044
3522.89432,0.02087
3520.83415,0.02156
3518.77398,0.02234
3516.71380,0.02306
3514.65363,0.02367
3512.59346,0.02402
3510.53329,0.02401
3508.47312,0.02423
3506.41294,0.02507
3504.35277,0.02592
3502.29260,0.02622
3500.23243,0.02606
3498.17225,0.02609
3496.11208,0.02674
3494.05191,0.02753
3491.99174,0.02788
3489.93157,0.02819
3487.87139,0.02902
3485.81122,0.02985
3483.75105,0.03004
3481.69088,0.03003
3479.63071,0.03038
3477.57053,0.03096
3475.51036,0.03171
3473.45019,0.03230
3471.39002,0.03223
3469.32984,0.03188
3467.26967,0.03200
3465.20950,0.03270
3463.14933,0.03356
3461.08916,0.03400
3459.02898,0.03409
3456.96881,0.03433
3454.90864,0.03496
3452.84847,0.03581
3450.78830,0.03634
3448.72812,0.03661
3446.66795,0.03711
3444.60778,0.03743
3442.54761,0.03731
3440.48744,0.03742
3438.42726,0.03810
3436.36709,0.03888
3434.30692,0.03910
3432.24675,0.03871
3430.18657,0.03874
3428.12640,0.03955
3426.06623,0.04026
3424.00606,0.04080
3421.94589,0.04148
3419.88571,0.04182
3417.82554,0.04181
3415.76537,0.04211
3413.70520,0.04260
3411.64503,0.04279
3409.58485,0.04328
3407.52468,0.04421
3405.46451,0.04457
3403.40434,0.04445
3401.34416,0.04448
3399.28399,0.04474
3397.22382,0.04506
3395.16365,0.04517
3393.10348,0.04536
3391.04330,0.04619
3388.98313,0.04705
3386.92296,0.04714
3384.86279,0.04675
3382.80262,0.04663
3380.74244,0.04701
3378.68227,0.04751
3376.62210,0.04780
3374.56193,0.04785
3372.50176,0.04773
3370.44158,0.04769
3368.38141,0.04803
3366.32124,0.04869
3364.26107,0.04938
3362.20089,0.05000
3360.14072,0.05037
3358.08055,0.05017
3356.02038,0.04961
3353.96021,0.04943
3351.90003,0.04983
3349.83986,0.05035
3347.77969,0.05061
3345.71952,0.05065
3343.65935,0.05074
3341.59917,0.05102
3339.53900,0.05120
3337.47883,0.05124
3335.41866,0.05153
3333.35849,0.05173
3331.29831,0.05157
3329.23814,0.05164
3327.17797,0.05193
3325.11780,0.05187
3323.05762,0.05160
3320.99745,0.05156
3318.93728,0.05165
3316.87711,0.05174
3314.81694,0.05179
3312.75676,0.05186
3310.69659,0.05213
3308.63642,0.05248
3306.57625,0.05278
3304.51608,0.05281
3302.45590,0.05247
3300.39573,0.05231
3298.33556,0.05250
3296.27539,0.05260
3294.21521,0.05271
3292.15504,0.05282
3290.09487,0.05267
3288.03470,0.05249
3285.97453,0.05253
3283.91435,0.05260
3281.85418,0.05253
3279.79401,0.05240
3277.73384,0.05251
3275.67367,0.05279
3273.61349,0.05273
3271.55332,0.05228
3269.49315,0.05193
3267.43298,0.05175
3265.37281,0.05144
3263.31263,0.05108
3261.25246,0.05102
3259.19229,0.05111
3257.13212,0.05115
3255.07194,0.05148
3253.01177,0.05207
3250.95160,0.05240
3248.89143,0.05225
3246.83126,0.05170
3244.77108,0.05092
3242.71091,0.05053
3240.65074,0.05068
3238.59057,0.05060
3236.53040,0.05012
3234.47022,0.04989
3232.41005,0.05009
3230.34988,0.05038
3228.28971,0.05033
3226.22954,0.04998
3224.16936,0.04966
3222.10919,0.04944
3220.04902,0.04937
3217.98885,0.04932
3215.92867,0.04904
3213.86850,0.04886
3211.80833,0.04891
3209.74816,0.04881
3207.68799,0.04861
3205.62781,0.04854
3203.56764,0.04826
3201.50747,0.04759
3199.44730,0.04700
3197.38713,0.04679
3195.32695,0.04672
3193.26678,0.04678
3191.20661,0.04704
3189.14644,0.04712
3187.08626,0.04682
3185.02609,0.04657
3182.96592,0.04661
3180.90575,0.04651
3178.84558,0.04586
3176.78540,0.04492
3174.72523,0.04442
3172.66506,0.04450
3170.60489,0.04451
3168.54472,0.04418
3166.48454,0.04388
3164.42437,0.04379
3162.36420,0.04384
3160.30403,0.04382
3158.24386,0.04354
3156.18368,0.04308
3154.12351,0.04266
3152.06334,0.04236
3150.00317,0.04206
3147.94299,0.04173
3145.88282,0.04149
3143.82265,0.04115
3141.76248,0.04057
3139.70231,0.04014
3137.64213,0.03989
3135.58196,0.03964
3133.52179,0.03932
3131.46162,0.03886
3129.40145,0.03831
3127.34127,0.03788
3125.28110,0.03763
3123.22093,0.03734
3121.16076,0.03712
3119.10058,0.03724
3117.04041,0.03728
3114.98024,0.03693
3112.92007,0.03645
3110.85990,0.03597
3108.79972,0.03557
3106.73955,0.03532
3104.67938,0.03512
3102.61921,0.03493
3100.55904,0.03477
3098.49886,0.03463
3096.43869,0.03448
3094.37852,0.03410
3092.31835,0.03343
3090.25818,0.03284
3088.19800,0.03256
3086.13783,0.03241
3084.07766,0.03220
3082.01749,0.03201
3079.95731,0.03191
3077.89714,0.03161
3075.83697,0.03098
3073.77680,0.03050
3071.71663,0.03036
3069.65645,0.03023
3067.59628,0.03006
3065.53611,0.02994
3063.47594,0.02969
3061.41577,0.02909
3059.35559,0.02842
3057.29542,0.02819
3055.23525,0.02828
3053.17508,0.02824
3051.11491,0.02811
3049.05473,0.02797
3046.99456,0.02770
3044.93439,0.02733
3042.87422,0.02694
3040.81404,0.02666
3038.75387,0.02656
3036.69370,0.02644
3034.63353,0.02609
3032.57336,0.02572
3030.51318,0.02567
3028.45301,0.02569
3026.39284,0.02549
3024.33267,0.02528
3022.27250,0.02510
3020.21232,0.02487
3018.15215,0.02463
3016.09198,0.02444
3014.03181,0.02432
3011.97163,0.02426
3009.91146,0.02418
3007.85129,0.02402
3005.79112,0.02383
3003.73095,0.02375
3001.67077,0.02374
2999.61060,0.02364
2997.55043,0.02351
2995.49026,0.02332
2993.43009,0.02298
2991.36991,0.02268
2989.30974,0.02261
2987.24957,0.02286
2985.18940,0.02324
2983.12923,0.02350
2981.06905,0.02373
2979.00888,0.02416
2976.94871,0.02474
2974.88854,0.02546
2972.82836,0.02633
2970.76819,0.02697
2968.70802,0.02754
2966.64785,0.02855
2964.58768,0.02983
2962.52750,0.03120
2960.46733,0.03280
2958.40716,0.03449
2956.34699,0.03609
2954.28682,0.03771
2952.22664,0.03937
2950.16647,0.04112
2948.10630,0.04308
2946.04613,0.04511
2943.98596,0.04724
2941.92578,0.04973
2939.86561,0.05230
2937.80544,0.05467
2935.74527,0.05700
2933.68509,0.05936
2931.62492,0.06172
2929.56475,0.06393
2927.50458,0.06577
2925.44441,0.06718
2923.38423,0.06814
2921.32406,0.06858
2919.26389,0.06858
2917.20372,0.06801
2915.14355,0.06632
2913.08337,0.06368
2911.02320,0.06097
2908.96303,0.05866
2906.90286,0.05673
2904.84268,0.05505
2902.78251,0.05331
2900.72234,0.05143
2898.66217,0.04959
2896.60200,0.04807
2894.54182,0.04703
2892.48165,0.04620
2890.42148,0.04526
2888.36131,0.04414
2886.30114,0.04312
2884.24096,0.04238
2882.18079,0.04168
2880.12062,0.04100
2878.06045,0.04060
2876.00028,0.04058
2873.94010,0.04093
2871.87993,0.04146
2869.81976,0.04195
2867.75959,0.04252
2865.69941,0.04337
2863.63924,0.04462
2861.57907,0.04618
2859.51890,0.04800
2857.45873,0.05010
2855.39855,0.05197
2853.33838,0.05313
2851.27821,0.05352
2849.21804,0.05272
2847.15787,0.05030
2845.09769,0.04679
2843.03752,0.04305
2840.97735,0.03996
2838.91718,0.03781
2836.85700,0.03607
2834.79683,0.03465
2832.73666,0.03351
2830.67649,0.03232
2828.61632,0.03126
2826.55614,0.03061
2824.49597,0.03014
2822.43580,0.02957
2820.37563,0.02904
2818.31546,0.02864
2816.25528,0.02831
2814.19511,0.02793
2812.13494,0.02743
2810.07477,0.02683
2808.01460,0.02604
2805.95442,0.02523
2803.89425,0.02482
2801.83408,0.02484
2799.77391,0.02501
2797.71373,0.02500
2795.65356,0.02470
2793.59339,0.02440
2791.53322,0.02437
2789.47305,0.02435
2787.41287,0.02409
2785.35270,0.02374
2783.29253,0.02345
2781.23236,0.02323
2779.17219,0.02305
2777.11201,0.02287
2775.05184,0.02263
2772.99167,0.02233
2770.93150,0.02212
2768.87133,0.02203
2766.81115,0.02188
2764.75098,0.02167
2762.69081,0.02161
2760.63064,0.02173
2758.57046,0.02187
2756.51029,0.02179
2754.45012,0.02163
2752.38995,0.02159
2750.32978,0.02139
2748.26960,0.02097
2746.20943,0.02060
2744.14926,0.02052
2742.08909,0.02071
2740.02892,0.02081
2737.96874,0.02076
2735.90857,0.02087
2733.84840,0.02092
2731.78823,0.02066
2729.72805,0.02053
2727.66788,0.02079
2725.60771,0.02085
2723.54754,0.02046
2721.48737,0.02009
2719.42719,0.01991
2717.36702,0.01970
2715.30685,0.01956
2713.24668,0.01974
2711.18651,0.01993
2709.12633,0.01986
2707.06616,0.01982
2705.00599,0.01996
2702.94582,0.02000
2700.88565,0.01972
2698.82547,0.01939
2696.76530,0.01940
2694.70513,0.01951
2692.64496,0.01938
2690.58478,0.01932
2688.52461,0.01950
2686.46444,0.01952
2684.40427,0.01929
2682.34410,0.01909
2680.28392,0.01905
2678.22375,0.01897
2676.16358,0.01863
2674.10341,0.01842
2672.04324,0.01862
2669.98306,0.01887
2667.92289,0.01888
2665.86272,0.01868
2663.80255,0.01847
2661.74238,0.01831
2659.68220,0.01822
2657.62203,0.01824
2655.56186,0.01820
2653.50169,0.01799
2651.44151,0.01769
2649.38134,0.01751
2647.32117,0.01746
2645.26100,0.01752
2643.20083,0.01781
2641.14065,0.01799
2639.08048,0.01784
2637.02031,0.01762
2634.96014,0.01740
2632.89997,0.01714
2630.83979,0.01695
2628.77962,0.01685
2626.71945,0.01675
2624.65928,0.01670
2622.59910,0.01677
2620.53893,0.01673
2618.47876,0.01638
2616.41859,0.01599
2614.35842,0.01592
2612.29824,0.01610
2610.23807,0.01635
2608.17790,0.01654
2606.11773,0.01637
2604.05756,0.01576
2601.99738,0.01527
2599.93721,0.01518
2597.87704,0.01514
2595.81687,0.01518
2593.75670,0.01524
2591.69652,0.01507
2589.63635,0.01516
2587.57618,0.01555
2585.51601,0.01558
2583.45583,0.01529
2581.39566,0.01497
2579.33549,0.01465
2577.27532,0.01441
2575.21515,0.01414
2573.15497,0.01391
2571.09480,0.01407
2569.03463,0.01442
2566.97446,0.01441
2564.91429,0.01410
2562.85411,0.01378
2560.79394,0.01356
2558.73377,0.01339
2556.67360,0.01327
2554.61342,0.01317
2552.55325,0.01312
2550.49308,0.01320
2548.43291,0.01331
2546.37274,0.01325
2544.31256,0.01300
2542.25239,0.01276
2540.19222,0.01286
2538.13205,0.01301
2536.07188,0.01282
2534.01170,0.01260
2531.95153,0.01259
2529.89136,0.01290
2527.83119,0.01327
2525.77102,0.01317
2523.71084,0.01316
2521.65067,0.01357
2519.59050,0.01343
2517.53033,0.01275
2515.47015,0.01244
2513.40998,0.01238
2511.34981,0.01216
2509.28964,0.01191
2507.22947,0.01179
2505.16929,0.01168
2503.10912,0.01151
2501.04895,0.01140
2498.98878,0.01171
2496.92861,0.01239
2494.86843,0.01254
2492.80826,0.01222
2490.74809,0.01216
2488.68792,0.01228
2486.62775,0.01199
2484.56757,0.01127
2482.50740,0.01076
2480.44723,0.01088
2478.38706,0.01138
2476.32688,0.01158
2474.26671,0.01149
2472.20654,0.01157
2470.14637,0.01162
2468.08620,0.01146
2466.02602,0.01148
2463.96585,0.01132
2461.90568,0.01078
2459.84551,0.01087
2457.78534,0.01144
2455.72516,0.01154
2453.66499,0.01144
2451.60482,0.01144
2449.54465,0.01121
2447.48447,0.01108
2445.42430,0.01134
2443.36413,0.01150
2441.30396,0.01117
2439.24379,0.01059
2437.18361,0.01034
2435.12344,0.01035
2433.06327,0.01041
2431.00310,0.01054
2428.94293,0.01046
2426.88275,0.01020
2424.82258,0.01005
2422.76241,0.01000
2420.70224,0.00974
2418.64207,0.00952
2416.58189,0.00988
2414.52172,0.01043
2412.46155,0.01046
2410.40138,0.01014
2408.34120,0.01018
2406.28103,0.01045
2404.22086,0.01030
2402.16069,0.00974
2400.10052,0.00926
2398.04034,0.00895
2395.98017,0.00893
2393.92000,0.00925
2391.85983,0.00978
2389.79966,0.01006
2387.73948,0.00987
2385.67931,0.00949
2383.61914,0.00941
2381.55897,0.00984
2379.49880,0.01048
2377.43862,0.01095
2375.37845,0.01132
2373.31828,0.01114
2371.25811,0.00982
2369.19793,0.00825
2367.13776,0.00706
2365.07759,0.00698
2363.01742,0.00964
2360.95725,0.01374
2358.89707,0.01727
2356.83690,0.01683
2354.77673,0.01399
2352.71656,0.01193
2350.65639,0.00952
2348.59621,0.00790
2346.53604,0.00827
2344.47587,0.00702
2342.41570,0.00646
2340.35552,0.00793
2338.29535,0.00903
2336.23518,0.00896
2334.17501,0.00827
2332.11484,0.00817
2330.05466,0.00905
2327.99449,0.01023
2325.93432,0.01013
2323.87415,0.00902
2321.81398,0.00793
2319.75380,0.00770
2317.69363,0.00752
2315.63346,0.00771
2313.57329,0.00840
2311.51312,0.00901
2309.45294,0.00930
2307.39277,0.00969
2305.33260,0.01017
2303.27243,0.01017
2301.21225,0.00987
2299.15208,0.00973
2297.09191,0.00996
2295.03174,0.01004
2292.97157,0.00953
2290.91139,0.00891
2288.85122,0.00886
2286.79105,0.00936
2284.73088,0.00961
2282.67071,0.00900
2280.61053,0.00818
2278.55036,0.00824
2276.49019,0.00887
2274.43002,0.00864
2272.36984,0.00735
2270.30967,0.00650
2268.24950,0.00684
2266.18933,0.00742
2264.12916,0.00770
2262.06898,0.00816
2260.00881,0.00863
2257.94864,0.00835
2255.88847,0.00773
2253.82830,0.00762
2251.76812,0.00776
2249.70795,0.00773
2247.64778,0.00790
2245.58761,0.00830
2243.52744,0.00845
2241.46726,0.00763
2239.40709,0.00638
2237.34692,0.00633
2235.28675,0.00734
2233.22657,0.00796
2231.16640,0.00770
2229.10623,0.00695
2227.04606,0.00604
2224.98589,0.00539
2222.92571,0.00538
2220.86554,0.00541
2218.80537,0.00510
2216.74520,0.00494
2214.68503,0.00473
2212.62485,0.00469
2210.56468,0.00508
2208.50451,0.00534
2206.44434,0.00552
2204.38417,0.00554
2202.32399,0.00597
2200.26382,0.00703
2198.20365,0.00733
2196.14348,0.00717
2194.08330,0.00710
2192.02313,0.00674
2189.96296,0.00592
2187.90279,0.00435
2185.84262,0.00362
2183.78244,0.00444
2181.72227,0.00468
2179.66210,0.00336
2177.60193,0.00212
2175.54176,0.00329
2173.48158,0.00564
2171.42141,0.00627
2169.36124,0.00541
2167.30107,0.00565
2165.24089,0.00735
2163.18072,0.00798
2161.12055,0.00563
2159.06038,0.00185
2157.00021,0.00051
2154.94003,0.00093
2152.87986,0.00062
2150.81969,0.00067
2148.75952,0.00271
2146.69935,0.00464
2144.63917,0.00431
2142.57900,0.00381
2140.51883,0.00490
2138.45866,0.00570
2136.39849,0.00474
2134.33831,0.00379
2132.27814,0.00447
2130.21797,0.00573
2128.15780,0.00624
2126.09762,0.00614
2124.03745,0.00590
2121.97728,0.00574
2119.91711,0.00597
2117.85694,0.00646
2115.79676,0.00695
2113.73659,0.00733
2111.67642,0.00689
2109.61625,0.00569
2107.55608,0.00559
2105.49590,0.00649
2103.43573,0.00667
2101.37556,0.00666
2099.31539,0.00692
2097.25521,0.00649
2095.19504,0.00541
2093.13487,0.00456
2091.07470,0.00500
2089.01453,0.00645
2086.95435,0.00706
2084.89418,0.00642
2082.83401,0.00593
2080.77384,0.00577
2078.71367,0.00542
2076.65349,0.00543
2074.59332,0.00570
2072.53315,0.00613
2070.47298,0.00672
2068.41281,0.00723
2066.35263,0.00791
2064.29246,0.00842
2062.23229,0.00836
2060.17212,0.00809
2058.11194,0.00727
2056.05177,0.00591
2053.99160,0.00571
2051.93143,0.00647
2049.87126,0.00592
2047.81108,0.00408
2045.75091,0.00284
2043.69074,0.00255
2041.63057,0.00264
2039.57040,0.00369
2037.51022,0.00530
2035.45005,0.00548
2033.38988,0.00443
2031.32971,0.00393
2029.26954,0.00366
2027.20936,0.00344
2025.14919,0.00345
2023.08902,0.00282
2021.02885,0.00138
2018.96867,0.00009
2016.90850,0.00036
2014.84833,0.00175
2012.78816,0.00316
2010.72799,0.00355
2008.66781,0.00187
2006.60764,0.00000
2004.54747,0.00025
2002.48730,0.00177
2000.42713,0.00311
1998.36695,0.00465
1996.30678,0.00683
1994.24661,0.00773
1992.18644,0.00649
1990.12626,0.00568
1988.06609,0.00586
1986.00592,0.00553
1983.94575,0.00455
1981.88558,0.00321
1979.82540,0.00208
1977.76523,0.00178
1975.70506,0.00175
1973.64489,0.00145
1971.58472,0.00068
1969.52454,0.00034
1967.46437,0.00237
1965.40420,0.00525
1963.34403,0.00550
1961.28386,0.00335
1959.22368,0.00179
1957.16351,0.00242
1955.10334,0.00427
1953.04317,0.00524
1950.98299,0.00446
1948.92282,0.00342
1946.86265,0.00318
1944.80248,0.00351
1942.74231,0.00408
1940.68213,0.00369
1938.62196,0.00247
1936.56179,0.00180
1934.50162,0.00172
1932.44145,0.00196
1930.38127,0.00213
1928.32110,0.00208
1926.26093,0.00222
1924.20076,0.00269
1922.14059,0.00317
1920.08041,0.00326
1918.02024,0.00297
1915.96007,0.00290
1913.89990,0.00324
1911.83972,0.00347
1909.77955,0.00332
1907.71938,0.00304
1905.65921,0.00283
1903.59904,0.00274
1901.53886,0.00273
1899.47869,0.00280
1897.41852,0.00293
1895.35835,0.00282
1893.29818,0.00240
1891.23800,0.00216
1889.17783,0.00236
1887.11766,0.00265
1885.05749,0.00288
1882.99731,0.00302
1880.93714,0.00285
1878.87697,0.00241
1876.81680,0.00205
1874.75663,0.00195
1872.69645,0.00197
1870.63628,0.00227
1868.57611,0.00299
1866.51594,0.00343
1864.45577,0.00315
1862.39559,0.00270
1860.33542,0.00242
1858.27525,0.00222
1856.21508,0.00210
1854.15491,0.00211
1852.09473,0.00207
1850.03456,0.00188
1847.97439,0.00172
1845.91422,0.00167
1843.85404,0.00155
1841.79387,0.00130
1839.73370,0.00117
1837.67353,0.00128
1835.61336,0.00144
1833.55318,0.00137
1831.49301,0.00115
1829.43284,0.00111
1827.37267,0.00140
1825.31250,0.00188
1823.25232,0.00222
1821.19215,0.00206
1819.13198,0.00153
1817.07181,0.00097
1815.01163,0.00053
1812.95146,0.00020
1810.89129,0.00014
1808.83112,0.00046
1806.77095,0.00079
1804.71077,0.00080
1802.65060,0.00067
1800.59043,0.00073
1798.53026,0.00110
1796.47009,0.00140
1794.40991,0.00126
1792.34974,0.00093
1790.28957,0.00082
1788.22940,0.00082
1786.16923,0.00074
1784.10905,0.00058
1782.04888,0.00046
1779.98871,0.00045
1777.92854,0.00035
1775.86836,0.00011
1773.80819,0.00000
1771.74802,0.00032
1769.68785,0.00107
1767.62768,0.00167
1765.56750,0.00198
1763.50733,0.00246
1761.44716,0.00346
1759.38699,0.00487
1757.32682,0.00634
1755.26664,0.00758
1753.20647,0.00862
1751.14630,0.01009
1749.08613,0.01218
1747.02596,0.01402
1744.96578,0.01508
1742.90561,0.01574
1740.84544,0.01647
1738.78527,0.01714
1736.72509,0.01737
1734.66492,0.01723
1732.60475,0.01719
1730.54458,0.01734
1728.48441,0.01746
1726.42423,0.01753
1724.36406,0.01770
1722.30389,0.01796
1720.24372,0.01809
1718.18355,0.01783
1716.12337,0.01736
1714.06320,0.01716
1712.00303,0.01721
1709.94286,0.01726
1707.88268,0.01737
1705.82251,0.01755
1703.76234,0.01749
1701.70217,0.01700
1699.64200,0.01647
1697.58182,0.01656
1695.52165,0.01735
1693.46148,0.01849
1691.40131,0.01986
1689.34114,0.02133
1687.28096,0.02263
1685.22079,0.02432
1683.16062,0.02702
1681.10045,0.02952
1679.04028,0.03118
1676.98010,0.03236
1674.91993,0.03320
1672.85976,0.03366
1670.79959,0.03376
1668.73941,0.03353
1666.67924,0.03317
1664.61907,0.03272
1662.55890,0.03195
1660.49873,0.03112
1658.43855,0.03061
1656.37838,0.03023
1654.31821,0.02943
1652.25804,0.02834
1650.19787,0.02788
1648.13769,0.02788
1646.07752,0.02817
1644.01735,0.02866
1641.95718,0.02904
1639.89701,0.02940
1637.83683,0.03007
1635.77666,0.03122
1633.71649,0.03226
1631.65632,0.03265
1629.59614,0.03281
1627.53597,0.03321
1625.47580,0.03379
1623.41563,0.03427
1621.35546,0.03461
1619.29528,0.03490
1617.23511,0.03526
1615.17494,0.03582
1613.11477,0.03671
1611.05460,0.03812
1608.99442,0.03990
1606.93425,0.04133
1604.87408,0.04175
1602.81391,0.04108
1600.75373,0.03964
1598.69356,0.03794
1596.63339,0.03623
1594.57322,0.03467
1592.51305,0.03341
1590.45287,0.03244
1588.39270,0.03154
1586.33253,0.03064
1584.27236,0.02976
1582.21219,0.02881
1580.15201,0.02769
1578.09184,0.02650
1576.03167,0.02556
1573.97150,0.02496
1571.91133,0.02429
1569.85115,0.02339
1567.79098,0.02244
1565.73081,0.02146
1563.67064,0.02057
1561.61046,0.01982
1559.55029,0.01868
1557.49012,0.01723
1555.42995,0.01658
1553.36978,0.01640
1551.30960,0.01584
1549.24943,0.01475
1547.18926,0.01368
1545.12909,0.01281
1543.06892,0.01195
1541.00874,0.01106
1538.94857,0.01025
1536.88840,0.00962
1534.82823,0.00900
1532.76805,0.00829
1530.70788,0.00776
1528.64771,0.00752
1526.58754,0.00729
1524.52737,0.00719
1522.46719,0.00782
1520.40702,0.00925
1518.34685,0.01101
1516.28668,0.01272
1514.22651,0.01350
1512.16633,0.01299
1510.10616,0.01178
1508.04599,0.01007
1505.98582,0.00796
1503.92565,0.00644
1501.86547,0.00561
1499.80530,0.00488
1497.74513,0.00396
1495.68496,0.00309
1493.62478,0.00253
1491.56461,0.00204
1489.50444,0.00153
1487.44427,0.00129
1485.38410,0.00130
1483.32392,0.00134
1481.26375,0.00135
1479.20358,0.00161
1477.14341,0.00242
1475.08324,0.00397
1473.02306,0.00636
1470.96289,0.00906
1468.90272,0.01131
1466.84255,0.01326
1464.78238,0.01519
1462.72220,0.01673
1460.66203,0.01772
1458.60186,0.01863
1456.54169,0.01985
1454.48151,0.02095
1452.42134,0.02168
1450.36117,0.02233
1448.30100,0.02324
1446.24083,0.02439
1444.18065,0.02548
1442.12048,0.02647
1440.06031,0.02738
1438.00014,0.02819
1435.93997,0.02887
1433.87979,0.02932
1431.81962,0.02964
1429.75945,0.02995
1427.69928,0.03011
1425.63910,0.03001
1423.57893,0.02990
1421.51876,0.03004
1419.45859,0.03032
1417.39842,0.03040
1415.33824,0.03013
1413.27807,0.02970
1411.21790,0.02917
1409.15773,0.02855
1407.09756,0.02785
1405.03738,0.02698
1402.97721,0.02595
1400.91704,0.02496
1398.85687,0.02404
1396.79670,0.02318
1394.73652,0.02252
1392.67635,0.02218
1390.61618,0.02221
1388.55601,0.02247
1386.49583,0.02286
1384.43566,0.02342
1382.37549,0.02426
1380.31532,0.02536
1378.25515,0.02635
1376.19497,0.02691
1374.13480,0.02704
1372.07463,0.02693
1370.01446,0.02683
1367.95429,0.02681
1365.89411,0.02665
1363.83394,0.02612
1361.77377,0.02531
1359.71360,0.02472
1357.65343,0.02451
1355.59325,0.02439
1353.53308,0.02422
1351.47291,0.02419
1349.41274,0.02434
1347.35256,0.02440
1345.29239,0.02414
1343.23222,0.02389
1341.17205,0.02395
1339.11188,0.02415
1337.05170,0.02413
1334.99153,0.02388
1332.93136,0.02369
1330.87119,0.02375
1328.81102,0.02407
1326.75084,0.02445
1324.69067,0.02460
1322.63050,0.02436
1320.57033,0.02407
1318.51015,0.02403
1316.44998,0.02401
1314.38981,0.02377
1312.32964,0.02341
1310.26947,0.02293
1308.20929,0.02237
1306.14912,0.02182
1304.08895,0.02121
1302.02878,0.02048
1299.96861,0.01975
1297.90843,0.01918
1295.84826,0.01895
1293.78809,0.01907
1291.72792,0.01934
1289.66775,0.01957
1287.60757,0.01981
1285.54740,0.02009
1283.48723,0.02032
1281.42706,0.02051
1279.36688,0.02073
1277.30671,0.02096
1275.24654,0.02108
1273.18637,0.02120
1271.12620,0.02160
1269.06602,0.02223
1267.00585,0.02301
1264.94568,0.02391
1262.88551,0.02477
1260.82534,0.02560
1258.76516,0.02642
1256.70499,0.02725
1254.64482,0.02806
1252.58465,0.02862
1250.52447,0.02888
1248.46430,0.02904
1246.40413,0.02934
1244.34396,0.02968
1242.28379,0.02978
1240.22361,0.02965
1238.16344,0.02948
1236.10327,0.02933
1234.04310,0.02890
1231.98293,0.02802
1229.92275,0.02694
1227.86258,0.02592
1225.80241,0.02489
1223.74224,0.02363
1221.68207,0.02216
1219.62189,0.02072
1217.56172,0.01938
1215.50155,0.01800
1213.44138,0.01653
1211.38120,0.01516
1209.32103,0.01380
1207.26086,0.01228
1205.20069,0.01082
1203.14052,0.00951
1201.08034,0.00802
1199.02017,0.00633
1196.96000,0.00486
1194.89983,0.00351
1192.83966,0.00210
1190.77948,0.00117
1188.71931,0.00086
1186.65914,0.00059
1184.59897,0.00016
1182.53880,0.00000
1180.47862,0.00035
1178.41845,0.00118
1176.35828,0.00267
1174.29811,0.00502
1172.23793,0.00780
1170.17776,0.01056
1168.11759,0.01274
1166.05742,0.01391
1163.99725,0.01465
1161.93707,0.01546
1159.87690,0.01620
1157.81673,0.01687
1155.75656,0.01754
1153.69639,0.01817
1151.63621,0.01907
1149.57604,0.02040
1147.51587,0.02182
1145.45570,0.02296
1143.39552,0.02377
1141.33535,0.02448
1139.27518,0.02529
1137.21501,0.02618
1135.15484,0.02701
1133.09466,0.02778
1131.03449,0.02873
1128.97432,0.02988
1126.91415,0.03127
1124.85398,0.03264
1122.79380,0.03371
1120.73363,0.03498
1118.67346,0.03657
1116.61329,0.03801
1114.55312,0.03923
1112.49294,0.04046
1110.43277,0.04182
1108.37260,0.04309
1106.31243,0.04415
1104.25225,0.04530
1102.19208,0.04684
1100.13191,0.04884
1098.07174,0.05101
1096.01157,0.05306
1093.95139,0.05502
1091.89122,0.05680
1089.83105,0.05862
1087.77088,0.06090
1085.71071,0.06326
1083.65053,0.06523
1081.59036,0.06716
1079.53019,0.06921
1077.47002,0.07149
1075.40985,0.07434
1073.34967,0.07745
1071.28950,0.08002
1069.22933,0.08171
1067.16916,0.08305
1065.10898,0.08442
1063.04881,0.08584
1060.98864,0.08738
1058.92847,0.08904
1056.86830,0.09086
1054.80812,0.09268
1052.74795,0.09459
1050.68778,0.09693
1048.62761,0.09965
1046.56744,0.10258
1044.50726,0.10553
1042.44709,0.10831
1040.38692,0.11090
1038.32675,0.11300
1036.26657,0.11436
1034.20640,0.11528
1032.14623,0.11580
1030.08606,0.11590
1028.02589,0.11581
1025.96571,0.11563
1023.90554,0.11531
1021.84537,0.11453
1019.78520,0.11348
1017.72503,0.11322
1015.66485,0.11378
1013.60468,0.11415
1011.54451,0.11423
1009.48434,0.11432
1007.42417,0.11422
1005.36399,0.11370
1003.30382,0.11301
1001.24365,0.11229
999.18348,0.11116
997.12330,0.10967
995.06313,0.10794
993.00296,0.10559
990.94279,0.10321
988.88262,0.10153
986.82244,0.10021
984.76227,0.09891
982.70210,0.09754
980.64193,0.09578
978.58176,0.09371
976.52158,0.09196
974.46141,0.09053
972.40124,0.08885
970.34107,0.08690
968.28089,0.08491
966.22072,0.08313
964.16055,0.08141
962.10038,0.07953
960.04021,0.07749
957.98003,0.07524
955.91986,0.07307
953.85969,0.07127
951.79952,0.06979
949.73935,0.06849
947.67917,0.06724
945.61900,0.06576
943.55883,0.06361
941.49866,0.06060
939.43849,0.05704
937.37831,0.05336
935.31814,0.04952
933.25797,0.04557
931.19780,0.04216
929.13762,0.03946
927.07745,0.03694
925.01728,0.03444
922.95711,0.03196
920.89694,0.02955
918.83676,0.02762
916.77659,0.02619
914.71642,0.02474
912.65625,0.02293
910.59608,0.02100
908.53590,0.01926
906.47573,0.01797
904.41556,0.01706
902.35539,0.01617
900.29522,0.01578
898.23504,0.01626
896.17487,0.01676
894.11470,0.01664
892.05453,0.01650
889.99435,0.01670
887.93418,0.01663
885.87401,0.01598
883.81384,0.01505
881.75367,0.01389
879.69349,0.01243
877.63332,0.01136
875.57315,0.01106
873.51298,0.01039
871.45281,0.00877
869.39263,0.00707
867.33246,0.00668
865.27229,0.00756
863.21212,0.00802
861.15194,0.00751
859.09177,0.00656
857.03160,0.00566
854.97143,0.00543
852.91126,0.00576
850.85108,0.00608
848.79091,0.00630
846.73074,0.00650
844.67057,0.00667
842.61040,0.00662
840.55022,0.00623
838.49005,0.00572
836.42988,0.00544
834.36971,0.00540
832.30954,0.00550
830.24936,0.00560
828.18919,0.00503
826.12902,0.00363
824.06885,0.00251
822.00867,0.00253
819.94850,0.00302
817.88833,0.00306
815.82816,0.00289
813.76799,0.00235
811.70781,0.00136
809.64764,0.00165
807.58747,0.00287
805.52730,0.00295
803.46713,0.00252
801.40695,0.00267
799.34678,0.00278
797.28661,0.00182
795.22644,0.00039
793.16627,0.00000
791.10609,0.00018
789.04592,0.00023
786.98575,0.00058
784.92558,0.00121
782.86540,0.00159
780.80523,0.00122
778.74506,0.00100
776.68489,0.00200
774.62472,0.00285
772.56454,0.00245
770.50437,0.00161
768.44420,0.00133
766.38403,0.00175
764.32386,0.00202
762.26368,0.00187
760.20351,0.00195
758.14334,0.00229
756.08317,0.00239
754.02299,0.00243
751.96282,0.00252
749.90265,0.00199
747.84248,0.00115
745.78231,0.00104
743.72213,0.00142
741.66196,0.00101
739.60179,0.00000
737.54162,0.00009
735.48145,0.00108
733.42127,0.00090
731.36110,0.00071
729.30093,0.00213
727.24076,0.00367
725.18059,0.00391
723.12041,0.00396
721.06024,0.00409
719.00007,0.00351
716.93990,0.00314
714.87972,0.00393
712.81955,0.00504
710.75938,0.00550
708.69921,0.00547
706.63904,0.00580
704.57886,0.00700
702.51869,0.00818
700.45852,0.00831
698.39835,0.00768
696.33818,0.00740
694.27800,0.00760
692.21783,0.00719
690.15766,0.00561
688.09749,0.00391
686.03731,0.00386
683.97714,0.00498
681.91697,0.00538
679.85680,0.00519
677.79663,0.00542
675.73645,0.00567
673.67628,0.00428
671.61611,0.00049
669.55594,-0.00176
667.49577,-0.00113
665.43559,-0.00128
663.37542,0.00201
661.31525,0.00411
659.25508,0.00365
657.19491,0.00298
655.13473,0.00336
653.07456,0.00399
651.01439,0.00467
648.95422,0.00442
646.89404,0.00210
644.83387,0.00000
642.77370,-0.00004
640.71353,0.00171
638.65336,0.00301
636.59318,0.00437
634.53301,0.00746
632.47284,0.00964
630.41267,0.00772
628.35250,0.00330
626.29232,-0.00029
624.23215,-0.00124
622.17198,-0.00169
620.11181,-0.00396
618.05164,-0.00490
615.99146,-0.00331
613.93129,-0.00150
611.87112,-0.00061
609.81095,-0.00133
607.75077,-0.00406
605.69060,-0.00686
603.63043,-0.00643
601.57026,-0.00252
599.51009,0.00000
