3996.73391,0.00025
3994.67373,0.00046
3992.61356,0.00080
3990.55339,0.00115
3988.49322,0.00148
3986.43305,0.00145
3984.37287,0.00095
3982.31270,0.00057
3980.25253,0.00075
3978.19236,0.00118
3976.13219,0.00132
3974.07201,0.00109
3972.01184,0.00075
3969.95167,0.00051
3967.89150,0.00045
3965.83133,0.00053
3963.77115,0.00039
3961.71098,0.00001
3959.65081,0.00000
3957.59064,0.00043
3955.53046,0.00066
3953.47029,0.00051
3951.41012,0.00041
3949.34995,0.00056
3947.28978,0.00074
3945.22960,0.00064
3943.16943,0.00028
3941.10926,0.00002
3939.04909,0.00015
3936.98892,0.00070
3934.92874,0.00129
3932.86857,0.00146
3930.80840,0.00125
3928.74823,0.00077
3926.68805,0.00045
3924.62788,0.00061
3922.56771,0.00075
3920.50754,0.00061
3918.44737,0.00066
3916.38719,0.00105
3914.32702,0.00143
3912.26685,0.00150
3910.20668,0.00117
3908.14651,0.00064
3906.08633,0.00032
3904.02616,0.00027
3901.96599,0.00020
3899.90582,0.00003
3897.84565,0.00000
3895.78547,0.00048
3893.72530,0.00142
3891.66513,0.00218
3889.60496,0.00206
3887.54478,0.00129
3885.48461,0.00075
3883.42444,0.00088
3881.36427,0.00120
3879.30410,0.00127
3877.24392,0.00127
3875.18375,0.00136
3873.12358,0.00129
3871.06341,0.00108
3869.00324,0.00101
3866.94306,0.00117
3864.88289,0.00162
3862.82272,0.00221
3860.76255,0.00257
3858.70237,0.00252
3856.64220,0.00241
3854.58203,0.00243
3852.52186,0.00187
3850.46169,0.00098
3848.40151,0.00066
3846.34134,0.00051
3844.28117,0.00029
3842.22100,0.00049
3840.16083,0.00093
3838.10065,0.00104
3836.04048,0.00129
3833.98031,0.00201
3831.92014,0.00253
3829.85997,0.00262
3827.79979,0.00251
3825.73962,0.00200
3823.67945,0.00102
3821.61928,0.00026
3819.55910,0.00041
3817.49893,0.00115
3815.43876,0.00148
3813.37859,0.00117
3811.31842,0.00092
3809.25824,0.00097
3807.19807,0.00104
3805.13790,0.00110
3803.07773,0.00138
3801.01756,0.00169
3798.95738,0.00145
3796.89721,0.00107
3794.83704,0.00112
3792.77687,0.00134
3790.71670,0.00137
3788.65652,0.00123
3786.59635,0.00107
3784.53618,0.00108
3782.47601,0.00128
3780.41583,0.00146
3778.35566,0.00144
3776.29549,0.00130
3774.23532,0.00113
3772.17515,0.00103
3770.11497,0.00114
3768.05480,0.00136
3765.99463,0.00141
3763.93446,0.00124
3761.87429,0.00111
3759.81411,0.00124
3757.75394,0.00141
3755.69377,0.00144
3753.63360,0.00167
3751.57342,0.00192
3749.51325,0.00165
3747.45308,0.00161
3745.39291,0.00240
3743.33274,0.00287
3741.27256,0.00213
3739.21239,0.00110
3737.15222,0.00102
3735.09205,0.00195
3733.03188,0.00246
3730.97170,0.00199
3728.91153,0.00134
3726.85136,0.00083
3724.79119,0.00066
3722.73102,0.00135
3720.67084,0.00233
3718.61067,0.00221
3716.55050,0.00106
3714.49033,0.00013
3712.43015,0.00000
3710.36998,0.00038
3708.30981,0.00097
3706.24964,0.00143
3704.18947,0.00149
3702.12929,0.00118
3700.06912,0.00072
3698.00895,0.00034
3695.94878,0.00019
3693.88861,0.00042
3691.82843,0.00124
3689.76826,0.00257
3687.70809,0.00317
3685.64792,0.00254
3683.58775,0.00173
3681.52757,0.00145
3679.46740,0.00151
3677.40723,0.00167
3675.34706,0.00214
3673.28688,0.00290
3671.22671,0.00345
3669.16654,0.00369
3667.10637,0.00357
3665.04620,0.00320
3662.98602,0.00293
3660.92585,0.00282
3658.86568,0.00262
3656.80551,0.00261
3654.74534,0.00282
3652.68516,0.00274
3650.62499,0.00244
3648.56482,0.00257
3646.50465,0.00346
3644.44447,0.00417
3642.38430,0.00413
3640.32413,0.00384
3638.26396,0.00367
3636.20379,0.00364
3634.14361,0.00382
3632.08344,0.00405
3630.02327,0.00424
3627.96310,0.00476
3625.90293,0.00532
3623.84275,0.00524
3621.78258,0.00507
3619.72241,0.00556
3617.66224,0.00652
3615.60207,0.00717
3613.54189,0.00728
3611.48172,0.00739
3609.42155,0.00758
3607.36138,0.00732
3605.30120,0.00697
3603.24103,0.00708
3601.18086,0.00744
3599.12069,0.00766
3597.06052,0.00780
3595.00034,0.00807
3592.94017,0.00825
3590.88000,0.00840
3588.81983,0.00918
3586.75966,0.01039
3584.69948,0.01082
3582.63931,0.01038
3580.57914,0.01011
3578.51897,0.01051
3576.45879,0.01102
3574.39862,0.01131
3572.33845,0.01174
3570.27828,0.01236
3568.21811,0.01288
3566.15793,0.01326
3564.09776,0.01362
3562.03759,0.01389
3559.97742,0.01400
3557.91725,0.01406
3555.85707,0.01409
3553.79690,0.01405
3551.73673,0.01411
3549.67656,0.01446
3547.61639,0.01523
3545.55621,0.01634
3543.49604,0.01732
3541.43587,0.01788
3539.37570,0.01809
3537.31552,0.01840
3535.25535,0.01905
3533.19518,0.01965
3531.13501,0.02003
3529.07484,0.02033
3527.01466,0.02052
3524.95449,0.02057
3522.89432,0.02085
3520.83415,0.02160
3518.77398,0.02247
3516.71380,0.02308
3514.65363,0.02364
3512.59346,0.02411
3510.53329,0.02412
3508.47312,0.02413
3506.41294,0.02470
3504.35277,0.02549
3502.29260,0.02596
3500.23243,0.02611
3498.17225,0.02637
3496.11208,0.02685
3494.05191,0.02743
3491.99174,0.02787
3489.93157,0.02818
3487.87139,0.02871
3485.81122,0.02928
3483.75105,0.02940
3481.69088,0.02946
3479.63071,0.03004
3477.57053,0.03100
3475.51036,0.03199
3473.45019,0.03260
3471.39002,0.03260
3469.32984,0.03244
3467.26967,0.03259
3465.20950,0.03301
3463.14933,0.03344
3461.08916,0.03348
3459.02898,0.03349
3456.96881,0.03402
3454.90864,0.03492
3452.84847,0.03582
3450.78830,0.03625
3448.72812,0.03630
3446.66795,0.03651
3444.60778,0.03665
3442.54761,0.03656
3440.48744,0.03678
3438.42726,0.03743
3436.36709,0.03804
3434.30692,0.03832
3432.24675,0.03840
3430.18657,0.03881
3428.12640,0.03940
3426.06623,0.03973
3424.00606,0.04019
3421.94589,0.04078
3419.88571,0.04094
3417.82554,0.04112
3415.76537,0.04175
3413.70520,0.04239
3411.64503,0.04263
3409.58485,0.04275
3407.52468,0.04304
3405.46451,0.04330
3403.40434,0.04351
3401.34416,0.04377
3399.28399,0.04392
3397.22382,0.04410
3395.16365,0.04456
3393.10348,0.04532
3391.04330,0.04620
3388.98313,0.04672
3386.92296,0.04645
3384.86279,0.04588
3382.80262,0.04588
3380.74244,0.04655
3378.68227,0.04739
3376.62210,0.04791
3374.56193,0.04789
3372.50176,0.04759
3370.44158,0.04757
3368.38141,0.04796
3366.32124,0.04845
3364.26107,0.04886
3362.20089,0.04923
3360.14072,0.04950
3358.08055,0.04937
3356.02038,0.04893
3353.96021,0.04880
3351.90003,0.04920
3349.83986,0.04975
3347.77969,0.05014
3345.71952,0.05026
3343.65935,0.05016
3341.59917,0.05011
3339.53900,0.05018
3337.47883,0.05046
3335.41866,0.05107
3333.35849,0.05160
3331.29831,0.05163
3329.23814,0.05152
3327.17797,0.05154
3325.11780,0.05130
3323.05762,0.05095
3320.99745,0.05094
3318.93728,0.05115
3316.87711,0.05146
3314.81694,0.05183
3312.75676,0.05211
3310.69659,0.05227
3308.63642,0.05249
3306.57625,0.05266
3304.51608,0.05233
3302.45590,0.05177
3300.39573,0.05165
3298.33556,0.05197
3296.27539,0.05222
3294.21521,0.05227
3292.15504,0.05215
3290.09487,0.05199
3288.03470,0.05201
3285.97453,0.05199
3283.91435,0.05181
3281.85418,0.05172
3279.79401,0.05172
3277.73384,0.05187
3275.67367,0.05211
3273.61349,0.05202
3271.55332,0.05163
3269.49315,0.05140
3267.43298,0.05143
3265.37281,0.05149
3263.31263,0.05147
3261.25246,0.05163
3259.19229,0.05187
3257.13212,0.05190
3255.07194,0.05213
3253.01177,0.05255
3250.95160,0.05258
3248.89143,0.05209
3246.83126,0.05134
3244.77108,0.05071
3242.71091,0.05052
3240.65074,0.05053
3238.59057,0.05014
3236.53040,0.04972
3234.47022,0.04989
3232.41005,0.05029
3230.34988,0.05047
3228.28971,0.05034
3226.22954,0.04988
3224.16936,0.04932
3222.10919,0.04900
3220.04902,0.04905
3217.98885,0.04905
3215.92867,0.04872
3213.86850,0.04849
3211.80833,0.04869
3209.74816,0.04902
3207.68799,0.04912
3205.62781,0.04905
3203.56764,0.04873
3201.50747,0.04814
3199.44730,0.04767
3197.38713,0.04736
3195.32695,0.04699
3193.26678,0.04682
3191.20661,0.04704
3189.14644,0.04713
3187.08626,0.04662
3185.02609,0.04598
3182.96592,0.04577
3180.90575,0.04573
3178.84558,0.04529
3176.78540,0.04473
3174.72523,0.04459
3172.66506,0.04482
3170.60489,0.04490
3168.54472,0.04451
3166.48454,0.04384
3164.42437,0.04343
3162.36420,0.04354
3160.30403,0.04368
3158.24386,0.04344
3156.18368,0.04300
3154.12351,0.04266
3152.06334,0.04260
3150.00317,0.04262
3147.94299,0.04250
3145.88282,0.04242
3143.82265,0.04211
3141.76248,0.04145
3139.70231,0.04096
3137.64213,0.04057
3135.58196,0.04000
3133.52179,0.03956
3131.46162,0.03932
3129.40145,0.03899
3127.34127,0.03854
3125.28110,0.03818
3123.22093,0.03782
3121.16076,0.03760
3119.10058,0.03796
3117.04041,0.03839
3114.98024,0.03815
3112.92007,0.03744
3110.85990,0.03666
3108.79972,0.03606
3106.73955,0.03588
3104.67938,0.03577
3102.61921,0.03540
3100.55904,0.03500
3098.49886,0.03478
3096.43869,0.03448
3094.37852,0.03403
3092.31835,0.03363
3090.25818,0.03337
3088.19800,0.03323
3086.13783,0.03311
3084.07766,0.03297
3082.01749,0.03275
3079.95731,0.03247
3077.89714,0.03203
3075.83697,0.03140
3073.77680,0.03108
3071.71663,0.03118
3069.65645,0.03105
3067.59628,0.03065
3065.53611,0.03032
3063.47594,0.02985
3061.41577,0.02921
3059.35559,0.02879
3057.29542,0.02882
3055.23525,0.02902
3053.17508,0.02904
3051.11491,0.02903
3049.05473,0.02905
3046.99456,0.02875
3044.93439,0.02808
3042.87422,0.02753
3040.81404,0.02747
3038.75387,0.02762
3036.69370,0.02754
3034.63353,0.02719
3032.57336,0.02687
3030.51318,0.02672
3028.45301,0.02660
3026.39284,0.02638
3024.33267,0.02608
3022.27250,0.02579
3020.21232,0.02567
3018.15215,0.02577
3016.09198,0.02591
3014.03181,0.02592
3011.97163,0.02565
3009.91146,0.02525
3007.85129,0.02498
3005.79112,0.02490
3003.73095,0.02497
3001.67077,0.02505
2999.61060,0.02494
2997.55043,0.02462
2995.49026,0.02431
2993.43009,0.02408
2991.36991,0.02382
2989.30974,0.02365
2987.24957,0.02371
2985.18940,0.02389
2983.12923,0.02419
2981.06905,0.02469
2979.00888,0.02524
2976.94871,0.02561
2974.88854,0.02607
2972.82836,0.02690
2970.76819,0.02759
2968.70802,0.02810
2966.64785,0.02918
2964.58768,0.03074
2962.52750,0.03231
2960.46733,0.03392
2958.40716,0.03547
2956.34699,0.03689
2954.28682,0.03831
2952.22664,0.03993
2950.16647,0.04184
2948.10630,0.04375
2946.04613,0.04552
2943.98596,0.04761
2941.92578,0.05022
2939.86561,0.05285
2937.80544,0.05523
2935.74527,0.05736
2933.68509,0.05936
2931.62492,0.06167
2929.56475,0.06396
2927.50458,0.06566
2925.44441,0.06702
2923.38423,0.06818
2921.32406,0.06881
2919.26389,0.06882
2917.20372,0.06797
2915.14355,0.06607
2913.08337,0.06356
2911.02320,0.06102
2908.96303,0.05888
2906.90286,0.05712
2904.84268,0.05547
2902.78251,0.05370
2900.72234,0.05169
2898.66217,0.04983
2896.60200,0.04852
2894.54182,0.04749
2892.48165,0.04654
2890.42148,0.04576
2888.36131,0.04498
2886.30114,0.04418
2884.24096,0.04338
2882.18079,0.04234
2880.12062,0.04127
2878.06045,0.04086
2876.00028,0.04122
2873.94010,0.04186
2871.87993,0.04241
2869.81976,0.04269
2867.75959,0.04291
2865.69941,0.04356
2863.63924,0.04476
2861.57907,0.04638
2859.51890,0.04836
2857.45873,0.05056
2855.39855,0.05252
2853.33838,0.05373
2851.27821,0.05404
2849.21804,0.05308
2847.15787,0.05057
2845.09769,0.04711
2843.03752,0.04364
2840.97735,0.04082
2838.91718,0.03860
2836.85700,0.03674
2834.79683,0.03541
2832.73666,0.03443
2830.67649,0.03342
2828.61632,0.03244
2826.55614,0.03164
2824.49597,0.03094
2822.43580,0.03034
2820.37563,0.02989
2818.31546,0.02951
2816.25528,0.02911
2814.19511,0.02874
2812.13494,0.02845
2810.07477,0.02803
2808.01460,0.02729
2805.95442,0.02655
2803.89425,0.02624
2801.83408,0.02630
2799.77391,0.02641
2797.71373,0.02627
2795.65356,0.02579
2793.59339,0.02533
2791.53322,0.02532
2789.47305,0.02551
2787.41287,0.02537
2785.35270,0.02494
2783.29253,0.02454
2781.23236,0.02429
2779.17219,0.02410
2777.11201,0.02397
2775.05184,0.02386
2772.99167,0.02369
2770.93150,0.02356
2768.87133,0.02352
2766.81115,0.02330
2764.75098,0.02302
2762.69081,0.02294
2760.63064,0.02294
2758.57046,0.02292
2756.51029,0.02296
2754.45012,0.02308
2752.38995,0.02314
2750.32978,0.02296
2748.26960,0.02247
2746.20943,0.02186
2744.14926,0.02166
2742.08909,0.02190
2740.02892,0.02201
2737.96874,0.02212
2735.90857,0.02242
2733.84840,0.02239
2731.78823,0.02206
2729.72805,0.02222
2727.66788,0.02265
2725.60771,0.02256
2723.54754,0.02204
2721.48737,0.02162
2719.42719,0.02131
2717.36702,0.02102
2715.30685,0.02091
2713.24668,0.02102
2711.18651,0.02114
2709.12633,0.02108
2707.06616,0.02103
2705.00599,0.02118
2702.94582,0.02132
2700.88565,0.02119
2698.82547,0.02095
2696.76530,0.02089
2694.70513,0.02090
2692.64496,0.02080
2690.58478,0.02078
2688.52461,0.02092
2686.46444,0.02091
2684.40427,0.02079
2682.34410,0.02080
2680.28392,0.02078
2678.22375,0.02047
2676.16358,0.01998
2674.10341,0.01975
2672.04324,0.01985
2669.98306,0.01998
2667.92289,0.01999
2665.86272,0.01987
2663.80255,0.01971
2661.74238,0.01953
2659.68220,0.01949
2657.62203,0.01957
2655.56186,0.01949
2653.50169,0.01918
2651.44151,0.01890
2649.38134,0.01887
2647.32117,0.01894
2645.26100,0.01907
2643.20083,0.01932
2641.14065,0.01947
2639.08048,0.01947
2637.02031,0.01936
2634.96014,0.01885
2632.89997,0.01830
2630.83979,0.01819
2628.77962,0.01818
2626.71945,0.01800
2624.65928,0.01797
2622.59910,0.01820
2620.53893,0.01826
2618.47876,0.01782
2616.41859,0.01724
2614.35842,0.01695
2612.29824,0.01708
2610.23807,0.01743
2608.17790,0.01772
2606.11773,0.01778
2604.05756,0.01751
2601.99738,0.01706
2599.93721,0.01695
2597.87704,0.01715
2595.81687,0.01735
2593.75670,0.01739
2591.69652,0.01717
2589.63635,0.01708
2587.57618,0.01718
2585.51601,0.01708
2583.45583,0.01665
2581.39566,0.01606
2579.33549,0.01569
2577.27532,0.01563
2575.21515,0.01565
2573.15497,0.01578
2571.09480,0.01614
2569.03463,0.01640
2566.97446,0.01629
2564.91429,0.01596
2562.85411,0.01560
2560.79394,0.01533
2558.73377,0.01537
2556.67360,0.01558
2554.61342,0.01548
2552.55325,0.01520
2550.49308,0.01494
2548.43291,0.01461
2546.37274,0.01437
2544.31256,0.01423
2542.25239,0.01413
2540.19222,0.01436
2538.13205,0.01476
2536.07188,0.01475
2534.01170,0.01455
2531.95153,0.01465
2529.89136,0.01517
2527.83119,0.01567
2525.77102,0.01531
2523.71084,0.01457
2521.65067,0.01448
2519.59050,0.01446
2517.53033,0.01400
2515.47015,0.01365
2513.40998,0.01361
2511.34981,0.01360
2509.28964,0.01373
2507.22947,0.01404
2505.16929,0.01388
2503.10912,0.01313
2501.04895,0.01262
2498.98878,0.01304
2496.92861,0.01387
2494.86843,0.01418
2492.80826,0.01412
2490.74809,0.01410
2488.68792,0.01406
2486.62775,0.01380
2484.56757,0.01314
2482.50740,0.01254
2480.44723,0.01262
2478.38706,0.01303
2476.32688,0.01316
2474.26671,0.01336
2472.20654,0.01368
2470.14637,0.01365
2468.08620,0.01345
2466.02602,0.01342
2463.96585,0.01321
2461.90568,0.01269
2459.84551,0.01245
2457.78534,0.01263
2455.72516,0.01323
2453.66499,0.01400
2451.60482,0.01418
2449.54465,0.01366
2447.48447,0.01321
2445.42430,0.01316
2443.36413,0.01311
2441.30396,0.01280
2439.24379,0.01250
2437.18361,0.01262
2435.12344,0.01281
2433.06327,0.01272
2431.00310,0.01270
2428.94293,0.01263
2426.88275,0.01222
2424.82258,0.01183
2422.76241,0.01166
2420.70224,0.01143
2418.64207,0.01130
2416.58189,0.01160
2414.52172,0.01222
2412.46155,0.01265
2410.40138,0.01244
2408.34120,0.01212
2406.28103,0.01232
2404.22086,0.01248
2402.16069,0.01221
2400.10052,0.01180
2398.04034,0.01137
2395.98017,0.01113
2393.92000,0.01117
2391.85983,0.01150
2389.79966,0.01188
2387.73948,0.01198
2385.67931,0.01180
2383.61914,0.01186
2381.55897,0.01250
2379.49880,0.01320
2377.43862,0.01321
2375.37845,0.01307
2373.31828,0.01319
2371.25811,0.01272
2369.19793,0.01177
2367.13776,0.01094
2365.07759,0.00993
2363.01742,0.00959
2360.95725,0.01106
2358.89707,0.01455
2356.83690,0.01592
2354.77673,0.01487
2352.71656,0.01338
2350.65639,0.01109
2348.59621,0.01025
2346.53604,0.01162
2344.47587,0.01057
2342.41570,0.00972
2340.35552,0.01121
2338.29535,0.01190
2336.23518,0.01113
2334.17501,0.01075
2332.11484,0.01171
2330.05466,0.01277
2327.99449,0.01287
2325.93432,0.01122
2323.87415,0.00899
2321.81398,0.00784
2319.75380,0.00828
2317.69363,0.00878
2315.63346,0.00942
2313.57329,0.01049
2311.51312,0.01137
2309.45294,0.01164
2307.39277,0.01187
2305.33260,0.01220
2303.27243,0.01206
2301.21225,0.01173
2299.15208,0.01170
2297.09191,0.01197
2295.03174,0.01183
2292.97157,0.01093
2290.91139,0.01006
2288.85122,0.01003
2286.79105,0.01100
2284.73088,0.01206
2282.67071,0.01202
2280.61053,0.01117
2278.55036,0.01073
2276.49019,0.01077
2274.43002,0.01024
2272.36984,0.00895
2270.30967,0.00816
2268.24950,0.00863
2266.18933,0.00955
2264.12916,0.01036
2262.06898,0.01111
2260.00881,0.01123
2257.94864,0.01050
2255.88847,0.00986
2253.82830,0.00947
2251.76812,0.00872
2249.70795,0.00820
2247.64778,0.00880
2245.58761,0.00989
2243.52744,0.01039
2241.46726,0.00953
2239.40709,0.00834
2237.34692,0.00881
2235.28675,0.01007
2233.22657,0.00990
2231.16640,0.00868
2229.10623,0.00772
2227.04606,0.00772
2224.98589,0.00876
2222.92571,0.00945
2220.86554,0.00923
2218.80537,0.00904
2216.74520,0.00847
2214.68503,0.00741
2212.62485,0.00727
2210.56468,0.00786
2208.50451,0.00814
2206.44434,0.00814
2204.38417,0.00749
2202.32399,0.00755
2200.26382,0.00917
2198.20365,0.00960
2196.14348,0.00855
2194.08330,0.00825
2192.02313,0.00815
2189.96296,0.00696
2187.90279,0.00566
2185.84262,0.00613
2183.78244,0.00752
2181.72227,0.00754
2179.66210,0.00604
2177.60193,0.00504
2175.54176,0.00632
2173.48158,0.00810
2171.42141,0.00847
2169.36124,0.00831
2167.30107,0.00858
2165.24089,0.01001
2163.18072,0.01175
2161.12055,0.00982
2159.06038,0.00494
2157.00021,0.00304
2154.94003,0.00384
2152.87986,0.00471
2150.81969,0.00547
2148.75952,0.00633
2146.69935,0.00663
2144.63917,0.00611
2142.57900,0.00580
2140.51883,0.00655
2138.45866,0.00783
2136.39849,0.00790
2134.33831,0.00695
2132.27814,0.00701
2130.21797,0.00843
2128.15780,0.00971
2126.09762,0.00949
2124.03745,0.00869
2121.97728,0.00910
2119.91711,0.00983
2117.85694,0.00977
2115.79676,0.00962
2113.73659,0.00990
2111.67642,0.01022
2109.61625,0.01009
2107.55608,0.00958
2105.49590,0.00874
2103.43573,0.00805
2101.37556,0.00820
2099.31539,0.00848
2097.25521,0.00838
2095.19504,0.00796
2093.13487,0.00696
2091.07470,0.00686
2089.01453,0.00876
2086.95435,0.00988
2084.89418,0.00868
2082.83401,0.00727
2080.77384,0.00676
2078.71367,0.00680
2076.65349,0.00739
2074.59332,0.00783
2072.53315,0.00790
2070.47298,0.00829
2068.41281,0.00909
2066.35263,0.01002
2064.29246,0.01048
2062.23229,0.01019
2060.17212,0.00968
2058.11194,0.00875
2056.05177,0.00737
2053.99160,0.00724
2051.93143,0.00798
2049.87126,0.00696
2047.81108,0.00475
2045.75091,0.00448
2043.69074,0.00601
2041.63057,0.00723
2039.57040,0.00850
2037.51022,0.00997
2035.45005,0.00984
2033.38988,0.00858
2031.32971,0.00772
2029.26954,0.00648
2027.20936,0.00560
2025.14919,0.00566
2023.08902,0.00514
2021.02885,0.00374
2018.96867,0.00178
2016.90850,0.00007
2014.84833,0.00000
2012.78816,0.00192
2010.72799,0.00370
2008.66781,0.00318
2006.60764,0.00257
2004.54747,0.00448
2002.48730,0.00679
2000.42713,0.00737
1998.36695,0.00784
1996.30678,0.00899
1994.24661,0.00878
1992.18644,0.00735
1990.12626,0.00721
1988.06609,0.00737
1986.00592,0.00677
1983.94575,0.00645
1981.88558,0.00545
1979.82540,0.00416
1977.76523,0.00416
1975.70506,0.00425
1973.64489,0.00407
1971.58472,0.00432
1969.52454,0.00435
1967.46437,0.00457
1965.40420,0.00502
1963.34403,0.00496
1961.28386,0.00483
1959.22368,0.00474
1957.16351,0.00456
1955.10334,0.00516
1953.04317,0.00591
1950.98299,0.00530
1948.92282,0.00436
1946.86265,0.00417
1944.80248,0.00435
1942.74231,0.00492
1940.68213,0.00513
1938.62196,0.00467
1936.56179,0.00451
1934.50162,0.00465
1932.44145,0.00465
1930.38127,0.00441
1928.32110,0.00428
1926.26093,0.00466
1924.20076,0.00540
1922.14059,0.00609
1920.08041,0.00601
1918.02024,0.00545
1915.96007,0.00547
1913.89990,0.00592
1911.83972,0.00574
1909.77955,0.00490
1907.71938,0.00445
1905.65921,0.00436
1903.59904,0.00384
1901.53886,0.00322
1899.47869,0.00327
1897.41852,0.00370
1895.35835,0.00380
1893.29818,0.00350
1891.23800,0.00331
1889.17783,0.00348
1887.11766,0.00372
1885.05749,0.00389
1882.99731,0.00385
1880.93714,0.00346
1878.87697,0.00296
1876.81680,0.00289
1874.75663,0.00335
1872.69645,0.00370
1870.63628,0.00365
1868.57611,0.00369
1866.51594,0.00412
1864.45577,0.00439
1862.39559,0.00418
1860.33542,0.00364
1858.27525,0.00301
1856.21508,0.00270
1854.15491,0.00284
1852.09473,0.00280
1850.03456,0.00228
1847.97439,0.00195
1845.91422,0.00223
1843.85404,0.00253
1841.79387,0.00223
1839.73370,0.00179
1837.67353,0.00174
1835.61336,0.00179
1833.55318,0.00157
1831.49301,0.00134
1829.43284,0.00133
1827.37267,0.00146
1825.31250,0.00183
1823.25232,0.00225
1821.19215,0.00216
1819.13198,0.00160
1817.07181,0.00105
1815.01163,0.00065
1812.95146,0.00031
1810.89129,0.00032
1808.83112,0.00074
1806.77095,0.00110
1804.71077,0.00113
1802.65060,0.00096
1800.59043,0.00084
1798.53026,0.00095
1796.47009,0.00116
1794.40991,0.00125
1792.34974,0.00105
1790.28957,0.00076
1788.22940,0.00074
1786.16923,0.00082
1784.10905,0.00070
1782.04888,0.00038
1779.98871,0.00020
1777.92854,0.00023
1775.86836,0.00019
1773.80819,0.00000
1771.74802,-0.00003
1769.68785,0.00042
1767.62768,0.00107
1765.56750,0.00164
1763.50733,0.00234
1761.44716,0.00341
1759.38699,0.00461
1757.32682,0.00568
1755.26664,0.00671
1753.20647,0.00796
1751.14630,0.00970
1749.08613,0.01175
1747.02596,0.01331
1744.96578,0.01418
1742.90561,0.01486
1740.84544,0.01578
1738.78527,0.01671
1736.72509,0.01718
1734.66492,0.01719
1732.60475,0.01702
1730.54458,0.01678
1728.48441,0.01659
1726.42423,0.01664
1724.36406,0.01700
1722.30389,0.01751
1720.24372,0.01779
1718.18355,0.01762
1716.12337,0.01711
1714.06320,0.01661
1712.00303,0.01641
1709.94286,0.01644
1707.88268,0.01658
1705.82251,0.01672
1703.76234,0.01667
1701.70217,0.01636
1699.64200,0.01607
1697.58182,0.01624
1695.52165,0.01683
1693.46148,0.01776
1691.40131,0.01902
1689.34114,0.02042
1687.28096,0.02177
1685.22079,0.02359
1683.16062,0.02621
1681.10045,0.02838
1679.04028,0.02979
1676.98010,0.03113
1674.91993,0.03241
1672.85976,0.03296
1670.79959,0.03277
1668.73941,0.03233
1666.67924,0.03188
1664.61907,0.03140
1662.55890,0.03090
1660.49873,0.03042
1658.43855,0.02981
1656.37838,0.02879
1654.31821,0.02737
1652.25804,0.02655
1650.19787,0.02686
1648.13769,0.02730
1646.07752,0.02761
1644.01735,0.02796
1641.95718,0.02834
1639.89701,0.02887
1637.83683,0.02975
1635.77666,0.03093
1633.71649,0.03179
1631.65632,0.03197
1629.59614,0.03186
1627.53597,0.03191
1625.47580,0.03228
1623.41563,0.03295
1621.35546,0.03368
1619.29528,0.03426
1617.23511,0.03470
1615.17494,0.03512
1613.11477,0.03585
1611.05460,0.03717
1608.99442,0.03884
1606.93425,0.04020
1604.87408,0.04062
1602.81391,0.03984
1600.75373,0.03827
1598.69356,0.03664
1596.63339,0.03517
1594.57322,0.03383
1592.51305,0.03264
1590.45287,0.03166
1588.39270,0.03093
1586.33253,0.03027
1584.27236,0.02934
1582.21219,0.02819
1580.15201,0.02698
1578.09184,0.02576
1576.03167,0.02474
1573.97150,0.02425
1571.91133,0.02388
1569.85115,0.02318
1567.79098,0.02209
1565.73081,0.02081
1563.67064,0.01974
1561.61046,0.01901
1559.55029,0.01807
1557.49012,0.01688
1555.42995,0.01624
1553.36978,0.01595
1551.30960,0.01533
1549.24943,0.01414
1547.18926,0.01296
1545.12909,0.01213
1543.06892,0.01135
1541.00874,0.01048
1538.94857,0.00978
1536.88840,0.00925
1534.82823,0.00861
1532.76805,0.00787
1530.70788,0.00742
1528.64771,0.00725
1526.58754,0.00713
1524.52737,0.00724
1522.46719,0.00790
1520.40702,0.00909
1518.34685,0.01069
1516.28668,0.01242
1514.22651,0.01316
1512.16633,0.01254
1510.10616,0.01123
1508.04599,0.00961
1505.98582,0.00778
1503.92565,0.00631
1501.86547,0.00528
1499.80530,0.00450
1497.74513,0.00373
1495.68496,0.00298
1493.62478,0.00244
1491.56461,0.00184
1489.50444,0.00112
1487.44427,0.00076
1485.38410,0.00084
1483.32392,0.00104
1481.26375,0.00116
1479.20358,0.00134
1477.14341,0.00199
1475.08324,0.00350
1473.02306,0.00596
1470.96289,0.00875
1468.90272,0.01111
1466.84255,0.01317
1464.78238,0.01502
1462.72220,0.01625
1460.66203,0.01693
1458.60186,0.01766
1456.54169,0.01881
1454.48151,0.01994
1452.42134,0.02064
1450.36117,0.02114
1448.30100,0.02195
1446.24083,0.02320
1444.18065,0.02454
1442.12048,0.02573
1440.06031,0.02663
1438.00014,0.02731
1435.93997,0.02793
1433.87979,0.02830
1431.81962,0.02848
1429.75945,0.02873
1427.69928,0.02892
1425.63910,0.02892
1423.57893,0.02895
1421.51876,0.02922
1419.45859,0.02965
1417.39842,0.02985
1415.33824,0.02955
1413.27807,0.02900
1411.21790,0.02837
1409.15773,0.02772
1407.09756,0.02712
1405.03738,0.02636
1402.97721,0.02534
1400.91704,0.02427
1398.85687,0.02329
1396.79670,0.02245
1394.73652,0.02179
1392.67635,0.02142
1390.61618,0.02137
1388.55601,0.02159
1386.49583,0.02206
1384.43566,0.02279
1382.37549,0.02376
1380.31532,0.02479
1378.25515,0.02568
1376.19497,0.02628
1374.13480,0.02649
1372.07463,0.02638
1370.01446,0.02616
1367.95429,0.02592
1365.89411,0.02563
1363.83394,0.02524
1361.77377,0.02472
1359.71360,0.02431
1357.65343,0.02404
1355.59325,0.02368
1353.53308,0.02332
1351.47291,0.02332
1349.41274,0.02370
1347.35256,0.02392
1345.29239,0.02369
1343.23222,0.02338
1341.17205,0.02343
1339.11188,0.02362
1337.05170,0.02348
1334.99153,0.02315
1332.93136,0.02304
1330.87119,0.02319
1328.81102,0.02350
1326.75084,0.02391
1324.69067,0.02422
1322.63050,0.02408
1320.57033,0.02368
1318.51015,0.02345
1316.44998,0.02335
1314.38981,0.02320
1312.32964,0.02291
1310.26947,0.02235
1308.20929,0.02165
1306.14912,0.02108
1304.08895,0.02054
1302.02878,0.01996
1299.96861,0.01936
1297.90843,0.01873
1295.84826,0.01827
1293.78809,0.01833
1291.72792,0.01875
1289.66775,0.01904
1287.60757,0.01922
1285.54740,0.01962
1283.48723,0.01999
1281.42706,0.02011
1279.36688,0.02026
1277.30671,0.02054
1275.24654,0.02066
1273.18637,0.02067
1271.12620,0.02096
1269.06602,0.02154
1267.00585,0.02229
1264.94568,0.02319
1262.88551,0.02422
1260.82534,0.02516
1258.76516,0.02592
1256.70499,0.02660
1254.64482,0.02727
1252.58465,0.02782
1250.52447,0.02817
1248.46430,0.02849
1246.40413,0.02889
1244.34396,0.02907
1242.28379,0.02896
1240.22361,0.02884
1238.16344,0.02875
1236.10327,0.02856
1234.04310,0.02807
1231.98293,0.02723
1229.92275,0.02632
1227.86258,0.02535
1225.80241,0.02411
1223.74224,0.02274
1221.68207,0.02163
1219.62189,0.02071
1217.56172,0.01940
1215.50155,0.01766
1213.44138,0.01608
1211.38120,0.01476
1209.32103,0.01336
1207.26086,0.01197
1205.20069,0.01067
1203.14052,0.00935
1201.08034,0.00786
1199.02017,0.00619
1196.96000,0.00458
1194.89983,0.00320
1192.83966,0.00201
1190.77948,0.00127
1188.71931,0.00090
1186.65914,0.00045
1184.59897,0.00000
1182.53880,-0.00004
1180.47862,0.00049
1178.41845,0.00134
1176.35828,0.00266
1174.29811,0.00484
1172.23793,0.00750
1170.17776,0.01011
1168.11759,0.01229
1166.05742,0.01365
1163.99725,0.01442
1161.93707,0.01510
1159.87690,0.01577
1157.81673,0.01637
1155.75656,0.01694
1153.69639,0.01752
1151.63621,0.01843
1149.57604,0.01980
1147.51587,0.02123
1145.45570,0.02250
1143.39552,0.02344
1141.33535,0.02407
1139.27518,0.02465
1137.21501,0.02533
1135.15484,0.02597
1133.09466,0.02647
1131.03449,0.02733
1128.97432,0.02870
1126.91415,0.03018
1124.85398,0.03159
1122.79380,0.03290
1120.73363,0.03441
1118.67346,0.03610
1116.61329,0.03731
1114.55312,0.03791
1112.49294,0.03870
1110.43277,0.04009
1108.37260,0.04138
1106.31243,0.04228
1104.25225,0.04333
1102.19208,0.04486
1100.13191,0.04696
1098.07174,0.04930
1096.01157,0.05140
1093.95139,0.05334
1091.89122,0.05519
1089.83105,0.05705
1087.77088,0.05931
1085.71071,0.06163
1083.65053,0.06349
1081.59036,0.06531
1079.53019,0.06751
1077.47002,0.06996
1075.40985,0.07255
1073.34967,0.07526
1071.28950,0.07774
1069.22933,0.07952
1067.16916,0.08090
1065.10898,0.08228
1063.04881,0.08365
1060.98864,0.08490
1058.92847,0.08620
1056.86830,0.08808
1054.80812,0.09044
1052.74795,0.09279
1050.68778,0.09509
1048.62761,0.09778
1046.56744,0.10047
1044.50726,0.10261
1042.44709,0.10469
1040.38692,0.10705
1038.32675,0.10924
1036.26657,0.11088
1034.20640,0.11190
1032.14623,0.11241
1030.08606,0.11255
1028.02589,0.11248
1025.96571,0.11231
1023.90554,0.11213
1021.84537,0.11166
1019.78520,0.11067
1017.72503,0.11003
1015.66485,0.11031
1013.60468,0.11107
1011.54451,0.11169
1009.48434,0.11160
1007.42417,0.11092
1005.36399,0.11030
1003.30382,0.10976
1001.24365,0.10890
999.18348,0.10778
997.12330,0.10657
995.06313,0.10500
993.00296,0.10281
990.94279,0.10054
988.88262,0.09883
986.82244,0.09745
984.76227,0.09584
982.70210,0.09391
980.64193,0.09213
978.58176,0.09062
976.52158,0.08905
974.46141,0.08732
972.40124,0.08566
970.34107,0.08384
968.28089,0.08177
966.22072,0.08012
964.16055,0.07857
962.10038,0.07673
960.04021,0.07500
957.98003,0.07311
955.91986,0.07083
953.85969,0.06883
951.79952,0.06751
949.73935,0.06638
947.67917,0.06498
945.61900,0.06328
943.55883,0.06118
941.49866,0.05839
939.43849,0.05496
937.37831,0.05137
935.31814,0.04763
933.25797,0.04378
931.19780,0.04079
929.13762,0.03873
927.07745,0.03644
925.01728,0.03357
922.95711,0.03065
920.89694,0.02822
918.83676,0.02626
916.77659,0.02445
914.71642,0.02273
912.65625,0.02108
910.59608,0.01954
908.53590,0.01823
906.47573,0.01716
904.41556,0.01637
902.35539,0.01574
900.29522,0.01551
898.23504,0.01597
896.17487,0.01660
894.11470,0.01652
892.05453,0.01614
889.99435,0.01598
887.93418,0.01572
885.87401,0.01516
883.81384,0.01404
881.75367,0.01258
879.69349,0.01135
877.63332,0.01072
875.57315,0.01041
873.51298,0.00970
871.45281,0.00836
869.39263,0.00675
867.33246,0.00616
865.27229,0.00703
863.21212,0.00795
861.15194,0.00779
859.09177,0.00673
857.03160,0.00571
854.97143,0.00542
852.91126,0.00575
850.85108,0.00629
848.79091,0.00679
846.73074,0.00686
844.67057,0.00625
842.61040,0.00514
840.55022,0.00420
838.49005,0.00404
836.42988,0.00465
834.36971,0.00507
832.30954,0.00479
830.24936,0.00500
828.18919,0.00546
826.12902,0.00441
824.06885,0.00306
822.00867,0.00320
819.94850,0.00368
817.88833,0.00348
815.82816,0.00284
813.76799,0.00229
811.70781,0.00210
809.64764,0.00241
807.58747,0.00278
805.52730,0.00247
803.46713,0.00178
801.40695,0.00146
799.34678,0.00169
797.28661,0.00122
795.22644,0.00000
793.16627,-0.00026
791.10609,0.00006
789.04592,-0.00035
786.98575,-0.00071
784.92558,-0.00048
782.86540,-0.00049
780.80523,-0.00103
778.74506,-0.00088
776.68489,0.00067
774.62472,0.00204
772.56454,0.00204
770.50437,0.00102
768.44420,0.00030
766.38403,0.00072
764.32386,0.00083
762.26368,-0.00006
760.20351,-0.00004
758.14334,0.00130
756.08317,0.00182
754.02299,0.00173
751.96282,0.00266
749.90265,0.00289
747.84248,0.00156
745.78231,0.00055
743.72213,0.00030
741.66196,0.00000
739.60179,-0.00032
737.54162,0.00032
735.48145,0.00028
733.42127,-0.00075
731.36110,-0.00039
729.30093,0.00140
727.24076,0.00283
725.18059,0.00297
723.12041,0.00274
721.06024,0.00336
719.00007,0.00429
716.93990,0.00514
714.87972,0.00587
712.81955,0.00604
710.75938,0.00556
708.69921,0.00498
706.63904,0.00487
704.57886,0.00574
702.51869,0.00745
700.45852,0.00882
698.39835,0.00892
696.33818,0.00835
694.27800,0.00801
692.21783,0.00743
690.15766,0.00553
688.09749,0.00306
686.03731,0.00304
683.97714,0.00622
681.91697,0.00904
679.85680,0.00859
677.79663,0.00656
675.73645,0.00566
673.67628,0.00500
671.61611,0.00311
669.55594,0.00258
667.49577,0.00179
665.43559,-0.00173
663.37542,0.00001
661.31525,0.00177
659.25508,0.00064
657.19491,0.00076
655.13473,0.00442
653.07456,0.00754
651.01439,0.00779
648.95422,0.00686
646.89404,0.00535
644.83387,0.00269
642.77370,0.00000
640.71353,-0.00024
638.65336,0.00264
636.59318,0.00572
634.53301,0.00800
632.47284,0.00970
630.41267,0.00967
628.35250,0.00761
626.29232,0.00543
624.23215,0.00524
622.17198,0.00508
620.11181,0.00204
618.05164,-0.00217
615.99146,-0.00311
613.93129,-0.00057
611.87112,0.00057
609.81095,-0.00102
607.75077,-0.00355
605.69060,-0.00594
603.63043,-0.00550
601.57026,-0.00174
599.51009,0.00000
