3996.73391,0.00076
3994.67373,0.00067
3992.61356,0.00062
3990.55339,0.00061
3988.49322,0.00053
3986.43305,0.00029
3984.37287,0.00003
3982.31270,-0.00001
3980.25253,0.00018
3978.19236,0.00043
3976.13219,0.00055
3974.07201,0.00049
3972.01184,0.00027
3969.95167,0.00003
3967.89150,0.00000
3965.83133,0.00028
3963.77115,0.00076
3961.71098,0.00117
3959.65081,0.00133
3957.59064,0.00124
3955.53046,0.00101
3953.47029,0.00083
3951.41012,0.00083
3949.34995,0.00102
3947.28978,0.00127
3945.22960,0.00143
3943.16943,0.00142
3941.10926,0.00123
3939.04909,0.00098
3936.98892,0.00076
3934.92874,0.00059
3932.86857,0.00047
3930.80840,0.00048
3928.74823,0.00061
3926.68805,0.00076
3924.62788,0.00077
3922.56771,0.00061
3920.50754,0.00042
3918.44737,0.00039
3916.38719,0.00056
3914.32702,0.00081
3912.26685,0.00102
3910.20668,0.00119
3908.14651,0.00139
3906.08633,0.00167
3904.02616,0.00197
3901.96599,0.00222
3899.90582,0.00228
3897.84565,0.00205
3895.78547,0.00164
3893.72530,0.00118
3891.66513,0.00071
3889.60496,0.00036
3887.54478,0.00033
3885.48461,0.00067
3883.42444,0.00115
3881.36427,0.00153
3879.30410,0.00178
3877.24392,0.00200
3875.18375,0.00219
3873.12358,0.00223
3871.06341,0.00202
3869.00324,0.00165
3866.94306,0.00132
3864.88289,0.00114
3862.82272,0.00115
3860.76255,0.00134
3858.70237,0.00157
3856.64220,0.00160
3854.58203,0.00130
3852.52186,0.00077
3850.46169,0.00035
3848.40151,0.00028
3846.34134,0.00060
3844.28117,0.00118
3842.22100,0.00171
3840.16083,0.00189
3838.10065,0.00185
3836.04048,0.00187
3833.98031,0.00197
3831.92014,0.00195
3829.85997,0.00177
3827.79979,0.00156
3825.73962,0.00144
3823.67945,0.00136
3821.61928,0.00109
3819.55910,0.00054
3817.49893,0.00007
3815.43876,0.00000
3813.37859,0.00026
3811.31842,0.00067
3809.25824,0.00113
3807.19807,0.00165
3805.13790,0.00224
3803.07773,0.00273
3801.01756,0.00288
3798.95738,0.00265
3796.89721,0.00225
3794.83704,0.00186
3792.77687,0.00153
3790.71670,0.00131
3788.65652,0.00126
3786.59635,0.00142
3784.53618,0.00170
3782.47601,0.00190
3780.41583,0.00190
3778.35566,0.00175
3776.29549,0.00161
3774.23532,0.00159
3772.17515,0.00162
3770.11497,0.00156
3768.05480,0.00141
3765.99463,0.00129
3763.93446,0.00124
3761.87429,0.00126
3759.81411,0.00140
3757.75394,0.00178
3755.69377,0.00233
3753.63360,0.00281
3751.57342,0.00288
3749.51325,0.00243
3747.45308,0.00174
3745.39291,0.00122
3743.33274,0.00104
3741.27256,0.00119
3739.21239,0.00164
3737.15222,0.00227
3735.09205,0.00278
3733.03188,0.00298
3730.97170,0.00294
3728.91153,0.00288
3726.85136,0.00280
3724.79119,0.00263
3722.73102,0.00240
3720.67084,0.00220
3718.61067,0.00206
3716.55050,0.00208
3714.49033,0.00235
3712.43015,0.00264
3710.36998,0.00256
3708.30981,0.00216
3706.24964,0.00184
3704.18947,0.00179
3702.12929,0.00181
3700.06912,0.00166
3698.00895,0.00142
3695.94878,0.00138
3693.88861,0.00172
3691.82843,0.00221
3689.76826,0.00246
3687.70809,0.00236
3685.64792,0.00212
3683.58775,0.00194
3681.52757,0.00190
3679.46740,0.00196
3677.40723,0.00213
3675.34706,0.00233
3673.28688,0.00249
3671.22671,0.00259
3669.16654,0.00259
3667.10637,0.00240
3665.04620,0.00204
3662.98602,0.00168
3660.92585,0.00159
3658.86568,0.00192
3656.80551,0.00263
3654.74534,0.00354
3652.68516,0.00452
3650.62499,0.00529
3648.56482,0.00550
3646.50465,0.00505
3644.44447,0.00432
3642.38430,0.00368
3640.32413,0.00332
3638.26396,0.00324
3636.20379,0.00330
3634.14361,0.00338
3632.08344,0.00349
3630.02327,0.00366
3627.96310,0.00386
3625.90293,0.00408
3623.84275,0.00438
3621.78258,0.00471
3619.72241,0.00497
3617.66224,0.00505
3615.60207,0.00494
3613.54189,0.00478
3611.48172,0.00480
3609.42155,0.00511
3607.36138,0.00555
3605.30120,0.00593
3603.24103,0.00626
3601.18086,0.00657
3599.12069,0.00677
3597.06052,0.00681
3595.00034,0.00667
3592.94017,0.00641
3590.88000,0.00618
3588.81983,0.00613
3586.75966,0.00627
3584.69948,0.00645
3582.63931,0.00658
3580.57914,0.00672
3578.51897,0.00700
3576.45879,0.00736
3574.39862,0.00763
3572.33845,0.00776
3570.27828,0.00786
3568.21811,0.00798
3566.15793,0.00808
3564.09776,0.00805
3562.03759,0.00795
3559.97742,0.00793
3557.91725,0.00810
3555.85707,0.00847
3553.79690,0.00890
3551.73673,0.00920
3549.67656,0.00927
3547.61639,0.00922
3545.55621,0.00917
3543.49604,0.00918
3541.43587,0.00929
3539.37570,0.00956
3537.31552,0.00989
3535.25535,0.01011
3533.19518,0.01005
3531.13501,0.00977
3529.07484,0.00947
3527.01466,0.00935
3524.95449,0.00950
3522.89432,0.00986
3520.83415,0.01033
3518.77398,0.01076
3516.71380,0.01101
3514.65363,0.01112
3512.59346,0.01121
3510.53329,0.01132
3508.47312,0.01141
3506.41294,0.01151
3504.35277,0.01171
3502.29260,0.01203
3500.23243,0.01238
3498.17225,0.01269
3496.11208,0.01291
3494.05191,0.01309
3491.99174,0.01325
3489.93157,0.01335
3487.87139,0.01336
3485.81122,0.01330
3483.75105,0.01332
3481.69088,0.01349
3479.63071,0.01374
3477.57053,0.01399
3475.51036,0.01417
3473.45019,0.01427
3471.39002,0.01429
3469.32984,0.01428
3467.26967,0.01433
3465.20950,0.01449
3463.14933,0.01475
3461.08916,0.01506
3459.02898,0.01532
3456.96881,0.01548
3454.90864,0.01555
3452.84847,0.01563
3450.78830,0.01576
3448.72812,0.01593
3446.66795,0.01610
3444.60778,0.01626
3442.54761,0.01634
3440.48744,0.01629
3438.42726,0.01616
3436.36709,0.01608
3434.30692,0.01615
3432.24675,0.01633
3430.18657,0.01645
3428.12640,0.01646
3426.06623,0.01647
3424.00606,0.01662
3421.94589,0.01685
3419.88571,0.01702
3417.82554,0.01713
3415.76537,0.01727
3413.70520,0.01743
3411.64503,0.01752
3409.58485,0.01756
3407.52468,0.01763
3405.46451,0.01768
3403.40434,0.01767
3401.34416,0.01771
3399.28399,0.01791
3397.22382,0.01821
3395.16365,0.01841
3393.10348,0.01839
3391.04330,0.01817
3388.98313,0.01790
3386.92296,0.01778
3384.86279,0.01790
3382.80262,0.01820
3380.74244,0.01857
3378.68227,0.01891
3376.62210,0.01912
3374.56193,0.01919
3372.50176,0.01914
3370.44158,0.01898
3368.38141,0.01879
3366.32124,0.01864
3364.26107,0.01859
3362.20089,0.01868
3360.14072,0.01895
3358.08055,0.01942
3356.02038,0.01993
3353.96021,0.02022
3351.90003,0.02018
3349.83986,0.01991
3347.77969,0.01965
3345.71952,0.01962
3343.65935,0.01979
3341.59917,0.01995
3339.53900,0.02000
3337.47883,0.02004
3335.41866,0.02019
3333.35849,0.02043
3331.29831,0.02060
3329.23814,0.02062
3327.17797,0.02058
3325.11780,0.02057
3323.05762,0.02059
3320.99745,0.02055
3318.93728,0.02044
3316.87711,0.02038
3314.81694,0.02047
3312.75676,0.02062
3310.69659,0.02065
3308.63642,0.02055
3306.57625,0.02044
3304.51608,0.02041
3302.45590,0.02042
3300.39573,0.02038
3298.33556,0.02033
3296.27539,0.02031
3294.21521,0.02032
3292.15504,0.02031
3290.09487,0.02030
3288.03470,0.02031
3285.97453,0.02033
3283.91435,0.02040
3281.85418,0.02056
3279.79401,0.02078
3277.73384,0.02093
3275.67367,0.02092
3273.61349,0.02078
3271.55332,0.02062
3269.49315,0.02052
3267.43298,0.02050
3265.37281,0.02057
3263.31263,0.02070
3261.25246,0.02081
3259.19229,0.02078
3257.13212,0.02061
3255.07194,0.02037
3253.01177,0.02018
3250.95160,0.02011
3248.89143,0.02011
3246.83126,0.02009
3244.77108,0.01995
3242.71091,0.01972
3240.65074,0.01953
3238.59057,0.01949
3236.53040,0.01961
3234.47022,0.01981
3232.41005,0.01994
3230.34988,0.01997
3228.28971,0.01997
3226.22954,0.01999
3224.16936,0.02000
3222.10919,0.01995
3220.04902,0.01988
3217.98885,0.01985
3215.92867,0.01979
3213.86850,0.01963
3211.80833,0.01941
3209.74816,0.01927
3207.68799,0.01928
3205.62781,0.01940
3203.56764,0.01956
3201.50747,0.01962
3199.44730,0.01947
3197.38713,0.01917
3195.32695,0.01882
3193.26678,0.01847
3191.20661,0.01812
3189.14644,0.01778
3187.08626,0.01752
3185.02609,0.01745
3182.96592,0.01759
3180.90575,0.01784
3178.84558,0.01805
3176.78540,0.01812
3174.72523,0.01800
3172.66506,0.01771
3170.60489,0.01737
3168.54472,0.01711
3166.48454,0.01695
3164.42437,0.01687
3162.36420,0.01683
3160.30403,0.01676
3158.24386,0.01665
3156.18368,0.01654
3154.12351,0.01644
3152.06334,0.01629
3150.00317,0.01603
3147.94299,0.01574
3145.88282,0.01556
3143.82265,0.01554
3141.76248,0.01556
3139.70231,0.01552
3137.64213,0.01538
3135.58196,0.01516
3133.52179,0.01489
3131.46162,0.01461
3129.40145,0.01442
3127.34127,0.01439
3125.28110,0.01442
3123.22093,0.01437
3121.16076,0.01413
3119.10058,0.01379
3117.04041,0.01350
3114.98024,0.01332
3112.92007,0.01325
3110.85990,0.01324
3108.79972,0.01320
3106.73955,0.01302
3104.67938,0.01272
3102.61921,0.01243
3100.55904,0.01222
3098.49886,0.01208
3096.43869,0.01197
3094.37852,0.01194
3092.31835,0.01199
3090.25818,0.01202
3088.19800,0.01196
3086.13783,0.01184
3084.07766,0.01172
3082.01749,0.01167
3079.95731,0.01169
3077.89714,0.01169
3075.83697,0.01159
3073.77680,0.01141
3071.71663,0.01119
3069.65645,0.01094
3067.59628,0.01068
3065.53611,0.01046
3063.47594,0.01032
3061.41577,0.01024
3059.35559,0.01015
3057.29542,0.01005
3055.23525,0.00999
3053.17508,0.01001
3051.11491,0.01009
3049.05473,0.01015
3046.99456,0.01012
3044.93439,0.01001
3042.87422,0.00986
3040.81404,0.00968
3038.75387,0.00943
3036.69370,0.00918
3034.63353,0.00900
3032.57336,0.00890
3030.51318,0.00879
3028.45301,0.00859
3026.39284,0.00834
3024.33267,0.00816
3022.27250,0.00808
3020.21232,0.00809
3018.15215,0.00816
3016.09198,0.00826
3014.03181,0.00838
3011.97163,0.00841
3009.91146,0.00830
3007.85129,0.00807
3005.79112,0.00781
3003.73095,0.00763
3001.67077,0.00755
2999.61060,0.00751
2997.55043,0.00742
2995.49026,0.00742
2993.43009,0.00764
2991.36991,0.00797
2989.30974,0.00811
2987.24957,0.00796
2985.18940,0.00780
2983.12923,0.00794
2981.06905,0.00821
2979.00888,0.00830
2976.94871,0.00828
2974.88854,0.00834
2972.82836,0.00847
2970.76819,0.00860
2968.70802,0.00874
2966.64785,0.00887
2964.58768,0.00897
2962.52750,0.00906
2960.46733,0.00916
2958.40716,0.00931
2956.34699,0.00947
2954.28682,0.00960
2952.22664,0.00970
2950.16647,0.00994
2948.10630,0.01042
2946.04613,0.01093
2943.98596,0.01119
2941.92578,0.01117
2939.86561,0.01093
2937.80544,0.01054
2935.74527,0.01029
2933.68509,0.01040
2931.62492,0.01069
2929.56475,0.01072
2927.50458,0.01042
2925.44441,0.01026
2923.38423,0.01055
2921.32406,0.01095
2919.26389,0.01093
2917.20372,0.01066
2915.14355,0.01058
2913.08337,0.01055
2911.02320,0.01032
2908.96303,0.01010
2906.90286,0.01009
2904.84268,0.01021
2902.78251,0.01040
2900.72234,0.01060
2898.66217,0.01067
2896.60200,0.01050
2894.54182,0.01026
2892.48165,0.01005
2890.42148,0.00986
2888.36131,0.00976
2886.30114,0.00976
2884.24096,0.00975
2882.18079,0.00965
2880.12062,0.00953
2878.06045,0.00934
2876.00028,0.00910
2873.94010,0.00902
2871.87993,0.00916
2869.81976,0.00933
2867.75959,0.00942
2865.69941,0.00938
2863.63924,0.00927
2861.57907,0.00909
2859.51890,0.00877
2857.45873,0.00832
2855.39855,0.00799
2853.33838,0.00798
2851.27821,0.00814
2849.21804,0.00818
2847.15787,0.00802
2845.09769,0.00778
2843.03752,0.00758
2840.97735,0.00745
2838.91718,0.00739
2836.85700,0.00734
2834.79683,0.00738
2832.73666,0.00749
2830.67649,0.00735
2828.61632,0.00696
2826.55614,0.00674
2824.49597,0.00686
2822.43580,0.00703
2820.37563,0.00699
2818.31546,0.00686
2816.25528,0.00684
2814.19511,0.00691
2812.13494,0.00696
2810.07477,0.00682
2808.01460,0.00655
2805.95442,0.00636
2803.89425,0.00641
2801.83408,0.00671
2799.77391,0.00704
2797.71373,0.00707
2795.65356,0.00675
2793.59339,0.00633
2791.53322,0.00607
2789.47305,0.00607
2787.41287,0.00619
2785.35270,0.00630
2783.29253,0.00635
2781.23236,0.00632
2779.17219,0.00620
2777.11201,0.00615
2775.05184,0.00625
2772.99167,0.00631
2770.93150,0.00618
2768.87133,0.00598
2766.81115,0.00588
2764.75098,0.00582
2762.69081,0.00568
2760.63064,0.00558
2758.57046,0.00572
2756.51029,0.00600
2754.45012,0.00614
2752.38995,0.00613
2750.32978,0.00605
2748.26960,0.00592
2746.20943,0.00579
2744.14926,0.00571
2742.08909,0.00570
2740.02892,0.00581
2737.96874,0.00603
2735.90857,0.00613
2733.84840,0.00591
2731.78823,0.00555
2729.72805,0.00533
2727.66788,0.00532
2725.60771,0.00542
2723.54754,0.00562
2721.48737,0.00586
2719.42719,0.00588
2717.36702,0.00571
2715.30685,0.00559
2713.24668,0.00560
2711.18651,0.00565
2709.12633,0.00567
2707.06616,0.00565
2705.00599,0.00571
2702.94582,0.00586
2700.88565,0.00585
2698.82547,0.00563
2696.76530,0.00547
2694.70513,0.00550
2692.64496,0.00555
2690.58478,0.00551
2688.52461,0.00541
2686.46444,0.00535
2684.40427,0.00538
2682.34410,0.00541
2680.28392,0.00543
2678.22375,0.00552
2676.16358,0.00568
2674.10341,0.00577
2672.04324,0.00560
2669.98306,0.00525
2667.92289,0.00503
2665.86272,0.00508
2663.80255,0.00524
2661.74238,0.00536
2659.68220,0.00548
2657.62203,0.00565
2655.56186,0.00584
2653.50169,0.00595
2651.44151,0.00595
2649.38134,0.00588
2647.32117,0.00574
2645.26100,0.00554
2643.20083,0.00540
2641.14065,0.00550
2639.08048,0.00584
2637.02031,0.00611
2634.96014,0.00593
2632.89997,0.00539
2630.83979,0.00504
2628.77962,0.00515
2626.71945,0.00539
2624.65928,0.00540
2622.59910,0.00522
2620.53893,0.00500
2618.47876,0.00477
2616.41859,0.00466
2614.35842,0.00468
2612.29824,0.00458
2610.23807,0.00441
2608.17790,0.00460
2606.11773,0.00508
2604.05756,0.00536
2601.99738,0.00539
2599.93721,0.00532
2597.87704,0.00521
2595.81687,0.00506
2593.75670,0.00480
2591.69652,0.00450
2589.63635,0.00442
2587.57618,0.00462
2585.51601,0.00490
2583.45583,0.00503
2581.39566,0.00494
2579.33549,0.00462
2577.27532,0.00435
2575.21515,0.00450
2573.15497,0.00494
2571.09480,0.00510
2569.03463,0.00486
2566.97446,0.00453
2564.91429,0.00439
2562.85411,0.00439
2560.79394,0.00444
2558.73377,0.00454
2556.67360,0.00458
2554.61342,0.00450
2552.55325,0.00431
2550.49308,0.00402
2548.43291,0.00382
2546.37274,0.00385
2544.31256,0.00384
2542.25239,0.00358
2540.19222,0.00340
2538.13205,0.00355
2536.07188,0.00379
2534.01170,0.00397
2531.95153,0.00404
2529.89136,0.00387
2527.83119,0.00357
2525.77102,0.00337
2523.71084,0.00326
2521.65067,0.00325
2519.59050,0.00348
2517.53033,0.00385
2515.47015,0.00417
2513.40998,0.00424
2511.34981,0.00393
2509.28964,0.00364
2507.22947,0.00379
2505.16929,0.00411
2503.10912,0.00424
2501.04895,0.00409
2498.98878,0.00360
2496.92861,0.00308
2494.86843,0.00307
2492.80826,0.00341
2490.74809,0.00356
2488.68792,0.00348
2486.62775,0.00345
2484.56757,0.00372
2482.50740,0.00420
2480.44723,0.00452
2478.38706,0.00446
2476.32688,0.00420
2474.26671,0.00398
2472.20654,0.00395
2470.14637,0.00414
2468.08620,0.00430
2466.02602,0.00420
2463.96585,0.00396
2461.90568,0.00375
2459.84551,0.00359
2457.78534,0.00352
2455.72516,0.00368
2453.66499,0.00412
2451.60482,0.00455
2449.54465,0.00467
2447.48447,0.00452
2445.42430,0.00420
2443.36413,0.00383
2441.30396,0.00364
2439.24379,0.00382
2437.18361,0.00423
2435.12344,0.00453
2433.06327,0.00461
2431.00310,0.00455
2428.94293,0.00428
2426.88275,0.00381
2424.82258,0.00359
2422.76241,0.00374
2420.70224,0.00379
2418.64207,0.00357
2416.58189,0.00333
2414.52172,0.00320
2412.46155,0.00313
2410.40138,0.00314
2408.34120,0.00335
2406.28103,0.00356
2404.22086,0.00356
2402.16069,0.00354
2400.10052,0.00363
2398.04034,0.00373
2395.98017,0.00380
2393.92000,0.00380
2391.85983,0.00367
2389.79966,0.00341
2387.73948,0.00307
2385.67931,0.00278
2383.61914,0.00267
2381.55897,0.00283
2379.49880,0.00310
2377.43862,0.00325
2375.37845,0.00319
2373.31828,0.00298
2371.25811,0.00260
2369.19793,0.00212
2367.13776,0.00197
2365.07759,0.00260
2363.01742,0.00369
2360.95725,0.00448
2358.89707,0.00448
2356.83690,0.00389
2354.77673,0.00332
2352.71656,0.00299
2350.65639,0.00277
2348.59621,0.00276
2346.53604,0.00335
2344.47587,0.00480
2342.41570,0.00670
2340.35552,0.00815
2338.29535,0.00848
2336.23518,0.00772
2334.17501,0.00652
2332.11484,0.00546
2330.05466,0.00473
2327.99449,0.00425
2325.93432,0.00386
2323.87415,0.00356
2321.81398,0.00359
2319.75380,0.00395
2317.69363,0.00438
2315.63346,0.00464
2313.57329,0.00473
2311.51312,0.00471
2309.45294,0.00458
2307.39277,0.00436
2305.33260,0.00417
2303.27243,0.00412
2301.21225,0.00426
2299.15208,0.00458
2297.09191,0.00496
2295.03174,0.00532
2292.97157,0.00564
2290.91139,0.00580
2288.85122,0.00560
2286.79105,0.00510
2284.73088,0.00465
2282.67071,0.00454
2280.61053,0.00479
2278.55036,0.00521
2276.49019,0.00556
2274.43002,0.00565
2272.36984,0.00545
2270.30967,0.00503
2268.24950,0.00441
2266.18933,0.00366
2264.12916,0.00313
2262.06898,0.00315
2260.00881,0.00364
2257.94864,0.00415
2255.88847,0.00438
2253.82830,0.00432
2251.76812,0.00406
2249.70795,0.00377
2247.64778,0.00376
2245.58761,0.00423
2243.52744,0.00478
2241.46726,0.00506
2239.40709,0.00521
2237.34692,0.00509
2235.28675,0.00457
2233.22657,0.00405
2231.16640,0.00366
2229.10623,0.00337
2227.04606,0.00355
2224.98589,0.00412
2222.92571,0.00443
2220.86554,0.00415
2218.80537,0.00362
2216.74520,0.00303
2214.68503,0.00245
2212.62485,0.00228
2210.56468,0.00282
2208.50451,0.00344
2206.44434,0.00317
2204.38417,0.00275
2202.32399,0.00374
2200.26382,0.00500
2198.20365,0.00466
2196.14348,0.00359
2194.08330,0.00286
2192.02313,0.00234
2189.96296,0.00265
2187.90279,0.00373
2185.84262,0.00388
2183.78244,0.00309
2181.72227,0.00331
2179.66210,0.00494
2177.60193,0.00637
2175.54176,0.00658
2173.48158,0.00633
2171.42141,0.00649
2169.36124,0.00681
2167.30107,0.00707
2165.24089,0.00701
2163.18072,0.00567
2161.12055,0.00300
2159.06038,0.00090
2157.00021,0.00077
2154.94003,0.00171
2152.87986,0.00246
2150.81969,0.00286
2148.75952,0.00286
2146.69935,0.00267
2144.63917,0.00286
2142.57900,0.00348
2140.51883,0.00383
2138.45866,0.00343
2136.39849,0.00277
2134.33831,0.00237
2132.27814,0.00220
2130.21797,0.00241
2128.15780,0.00338
2126.09762,0.00460
2124.03745,0.00506
2121.97728,0.00456
2119.91711,0.00390
2117.85694,0.00376
2115.79676,0.00411
2113.73659,0.00455
2111.67642,0.00465
2109.61625,0.00443
2107.55608,0.00437
2105.49590,0.00469
2103.43573,0.00500
2101.37556,0.00503
2099.31539,0.00477
2097.25521,0.00437
2095.19504,0.00411
2093.13487,0.00424
2091.07470,0.00471
2089.01453,0.00524
2086.95435,0.00559
2084.89418,0.00564
2082.83401,0.00537
2080.77384,0.00489
2078.71367,0.00440
2076.65349,0.00414
2074.59332,0.00415
2072.53315,0.00425
2070.47298,0.00425
2068.41281,0.00406
2066.35263,0.00365
2064.29246,0.00311
2062.23229,0.00281
2060.17212,0.00299
2058.11194,0.00354
2056.05177,0.00397
2053.99160,0.00383
2051.93143,0.00320
2049.87126,0.00269
2047.81108,0.00280
2045.75091,0.00340
2043.69074,0.00393
2041.63057,0.00399
2039.57040,0.00334
2037.51022,0.00197
2035.45005,0.00050
2033.38988,0.00000
2031.32971,0.00090
2029.26954,0.00257
2027.20936,0.00399
2025.14919,0.00454
2023.08902,0.00428
2021.02885,0.00395
2018.96867,0.00408
2016.90850,0.00447
2014.84833,0.00455
2012.78816,0.00406
2010.72799,0.00313
2008.66781,0.00210
2006.60764,0.00138
2004.54747,0.00117
2002.48730,0.00130
2000.42713,0.00152
1998.36695,0.00182
1996.30678,0.00238
1994.24661,0.00306
1992.18644,0.00346
1990.12626,0.00355
1988.06609,0.00349
1986.00592,0.00331
1983.94575,0.00311
1981.88558,0.00312
1979.82540,0.00325
1977.76523,0.00321
1975.70506,0.00297
1973.64489,0.00267
1971.58472,0.00222
1969.52454,0.00171
1967.46437,0.00163
1965.40420,0.00217
1963.34403,0.00273
1961.28386,0.00277
1959.22368,0.00238
1957.16351,0.00196
1955.10334,0.00178
1953.04317,0.00197
1950.98299,0.00241
1948.92282,0.00286
1946.86265,0.00316
1944.80248,0.00323
1942.74231,0.00313
1940.68213,0.00286
1938.62196,0.00229
1936.56179,0.00149
1934.50162,0.00090
1932.44145,0.00087
1930.38127,0.00122
1928.32110,0.00159
1926.26093,0.00187
1924.20076,0.00226
1922.14059,0.00277
1920.08041,0.00320
1918.02024,0.00332
1915.96007,0.00312
1913.89990,0.00276
1911.83972,0.00246
1909.77955,0.00229
1907.71938,0.00223
1905.65921,0.00231
1903.59904,0.00249
1901.53886,0.00263
1899.47869,0.00257
1897.41852,0.00231
1895.35835,0.00208
1893.29818,0.00210
1891.23800,0.00238
1889.17783,0.00266
1887.11766,0.00267
1885.05749,0.00236
1882.99731,0.00193
1880.93714,0.00163
1878.87697,0.00163
1876.81680,0.00194
1874.75663,0.00236
1872.69645,0.00253
1870.63628,0.00228
1868.57611,0.00176
1866.51594,0.00131
1864.45577,0.00113
1862.39559,0.00117
1860.33542,0.00129
1858.27525,0.00138
1856.21508,0.00139
1854.15491,0.00133
1852.09473,0.00127
1850.03456,0.00126
1847.97439,0.00131
1845.91422,0.00135
1843.85404,0.00135
1841.79387,0.00131
1839.73370,0.00122
1837.67353,0.00110
1835.61336,0.00097
1833.55318,0.00092
1831.49301,0.00105
1829.43284,0.00128
1827.37267,0.00143
1825.31250,0.00139
1823.25232,0.00114
1821.19215,0.00084
1819.13198,0.00066
1817.07181,0.00071
1815.01163,0.00094
1812.95146,0.00122
1810.89129,0.00141
1808.83112,0.00153
1806.77095,0.00166
1804.71077,0.00180
1802.65060,0.00183
1800.59043,0.00174
1798.53026,0.00169
1796.47009,0.00182
1794.40991,0.00206
1792.34974,0.00219
1790.28957,0.00208
1788.22940,0.00179
1786.16923,0.00149
1784.10905,0.00134
1782.04888,0.00131
1779.98871,0.00131
1777.92854,0.00128
1775.86836,0.00128
1773.80819,0.00135
1771.74802,0.00142
1769.68785,0.00138
1767.62768,0.00131
1765.56750,0.00132
1763.50733,0.00155
1761.44716,0.00195
1759.38699,0.00235
1757.32682,0.00263
1755.26664,0.00285
1753.20647,0.00313
1751.14630,0.00353
1749.08613,0.00396
1747.02596,0.00425
1744.96578,0.00437
1742.90561,0.00440
1740.84544,0.00439
1738.78527,0.00442
1736.72509,0.00455
1734.66492,0.00478
1732.60475,0.00494
1730.54458,0.00496
1728.48441,0.00484
1726.42423,0.00470
1724.36406,0.00466
1722.30389,0.00474
1720.24372,0.00480
1718.18355,0.00465
1716.12337,0.00419
1714.06320,0.00364
1712.00303,0.00325
1709.94286,0.00308
1707.88268,0.00298
1705.82251,0.00285
1703.76234,0.00278
1701.70217,0.00287
1699.64200,0.00306
1697.58182,0.00323
1695.52165,0.00327
1693.46148,0.00317
1691.40131,0.00307
1689.34114,0.00316
1687.28096,0.00345
1685.22079,0.00378
1683.16062,0.00395
1681.10045,0.00390
1679.04028,0.00378
1676.98010,0.00372
1674.91993,0.00379
1672.85976,0.00396
1670.79959,0.00422
1668.73941,0.00453
1666.67924,0.00481
1664.61907,0.00508
1662.55890,0.00539
1660.49873,0.00581
1658.43855,0.00636
1656.37838,0.00703
1654.31821,0.00768
1652.25804,0.00804
1650.19787,0.00805
1648.13769,0.00793
1646.07752,0.00782
1644.01735,0.00778
1641.95718,0.00789
1639.89701,0.00816
1637.83683,0.00851
1635.77666,0.00877
1633.71649,0.00876
1631.65632,0.00853
1629.59614,0.00830
1627.53597,0.00822
1625.47580,0.00833
1623.41563,0.00852
1621.35546,0.00866
1619.29528,0.00868
1617.23511,0.00861
1615.17494,0.00848
1613.11477,0.00839
1611.05460,0.00836
1608.99442,0.00832
1606.93425,0.00815
1604.87408,0.00782
1602.81391,0.00737
1600.75373,0.00689
1598.69356,0.00644
1596.63339,0.00603
1594.57322,0.00560
1592.51305,0.00512
1590.45287,0.00460
1588.39270,0.00410
1586.33253,0.00367
1584.27236,0.00329
1582.21219,0.00299
1580.15201,0.00284
1578.09184,0.00280
1576.03167,0.00275
1573.97150,0.00261
1571.91133,0.00246
1569.85115,0.00231
1567.79098,0.00211
1565.73081,0.00196
1563.67064,0.00197
1561.61046,0.00214
1559.55029,0.00228
1557.49012,0.00209
1555.42995,0.00156
1553.36978,0.00094
1551.30960,0.00050
1549.24943,0.00038
1547.18926,0.00054
1545.12909,0.00082
1543.06892,0.00101
1541.00874,0.00097
1538.94857,0.00074
1536.88840,0.00048
1534.82823,0.00041
1532.76805,0.00055
1530.70788,0.00083
1528.64771,0.00114
1526.58754,0.00134
1524.52737,0.00135
1522.46719,0.00123
1520.40702,0.00106
1518.34685,0.00093
1516.28668,0.00081
1514.22651,0.00065
1512.16633,0.00051
1510.10616,0.00047
1508.04599,0.00056
1505.98582,0.00065
1503.92565,0.00068
1501.86547,0.00070
1499.80530,0.00073
1497.74513,0.00075
1495.68496,0.00075
1493.62478,0.00078
1491.56461,0.00089
1489.50444,0.00101
1487.44427,0.00098
1485.38410,0.00083
1483.32392,0.00070
1481.26375,0.00076
1479.20358,0.00105
1477.14341,0.00152
1475.08324,0.00207
1473.02306,0.00255
1470.96289,0.00289
1468.90272,0.00313
1466.84255,0.00338
1464.78238,0.00365
1462.72220,0.00395
1460.66203,0.00431
1458.60186,0.00465
1456.54169,0.00481
1454.48151,0.00480
1452.42134,0.00476
1450.36117,0.00475
1448.30100,0.00477
1446.24083,0.00478
1444.18065,0.00484
1442.12048,0.00498
1440.06031,0.00523
1438.00014,0.00557
1435.93997,0.00588
1433.87979,0.00611
1431.81962,0.00627
1429.75945,0.00643
1427.69928,0.00662
1425.63910,0.00679
1423.57893,0.00695
1421.51876,0.00716
1419.45859,0.00739
1417.39842,0.00748
1415.33824,0.00740
1413.27807,0.00725
1411.21790,0.00717
1409.15773,0.00719
1407.09756,0.00725
1405.03738,0.00727
1402.97721,0.00719
1400.91704,0.00705
1398.85687,0.00688
1396.79670,0.00669
1394.73652,0.00649
1392.67635,0.00631
1390.61618,0.00622
1388.55601,0.00625
1386.49583,0.00633
1384.43566,0.00643
1382.37549,0.00657
1380.31532,0.00675
1378.25515,0.00697
1376.19497,0.00716
1374.13480,0.00724
1372.07463,0.00723
1370.01446,0.00717
1367.95429,0.00711
1365.89411,0.00706
1363.83394,0.00700
1361.77377,0.00690
1359.71360,0.00675
1357.65343,0.00658
1355.59325,0.00644
1353.53308,0.00631
1351.47291,0.00618
1349.41274,0.00608
1347.35256,0.00603
1345.29239,0.00601
1343.23222,0.00600
1341.17205,0.00597
1339.11188,0.00588
1337.05170,0.00573
1334.99153,0.00559
1332.93136,0.00555
1330.87119,0.00563
1328.81102,0.00573
1326.75084,0.00577
1324.69067,0.00578
1322.63050,0.00585
1320.57033,0.00597
1318.51015,0.00608
1316.44998,0.00609
1314.38981,0.00597
1312.32964,0.00578
1310.26947,0.00559
1308.20929,0.00545
1306.14912,0.00540
1304.08895,0.00541
1302.02878,0.00537
1299.96861,0.00522
1297.90843,0.00504
1295.84826,0.00494
1293.78809,0.00491
1291.72792,0.00489
1289.66775,0.00482
1287.60757,0.00473
1285.54740,0.00466
1283.48723,0.00464
1281.42706,0.00467
1279.36688,0.00475
1277.30671,0.00484
1275.24654,0.00491
1273.18637,0.00496
1271.12620,0.00503
1269.06602,0.00516
1267.00585,0.00533
1264.94568,0.00555
1262.88551,0.00581
1260.82534,0.00608
1258.76516,0.00633
1256.70499,0.00656
1254.64482,0.00672
1252.58465,0.00682
1250.52447,0.00690
1248.46430,0.00698
1246.40413,0.00706
1244.34396,0.00708
1242.28379,0.00698
1240.22361,0.00676
1238.16344,0.00648
1236.10327,0.00622
1234.04310,0.00600
1231.98293,0.00583
1229.92275,0.00568
1227.86258,0.00549
1225.80241,0.00525
1223.74224,0.00501
1221.68207,0.00474
1219.62189,0.00446
1217.56172,0.00426
1215.50155,0.00413
1213.44138,0.00400
1211.38120,0.00378
1209.32103,0.00344
1207.26086,0.00301
1205.20069,0.00250
1203.14052,0.00195
1201.08034,0.00138
1199.02017,0.00089
1196.96000,0.00056
1194.89983,0.00030
1192.83966,0.00008
1190.77948,0.00000
1188.71931,0.00004
1186.65914,0.00010
1184.59897,0.00009
1182.53880,0.00005
1180.47862,0.00016
1178.41845,0.00050
1176.35828,0.00096
1174.29811,0.00141
1172.23793,0.00190
1170.17776,0.00251
1168.11759,0.00319
1166.05742,0.00384
1163.99725,0.00434
1161.93707,0.00466
1159.87690,0.00490
1157.81673,0.00516
1155.75656,0.00543
1153.69639,0.00576
1151.63621,0.00626
1149.57604,0.00681
1147.51587,0.00718
1145.45570,0.00738
1143.39552,0.00749
1141.33535,0.00760
1139.27518,0.00770
1137.21501,0.00788
1135.15484,0.00824
1133.09466,0.00870
1131.03449,0.00906
1128.97432,0.00932
1126.91415,0.00970
1124.85398,0.01017
1122.79380,0.01050
1120.73363,0.01070
1118.67346,0.01096
1116.61329,0.01135
1114.55312,0.01187
1112.49294,0.01246
1110.43277,0.01295
1108.37260,0.01320
1106.31243,0.01338
1104.25225,0.01377
1102.19208,0.01447
1100.13191,0.01519
1098.07174,0.01562
1096.01157,0.01592
1093.95139,0.01658
1091.89122,0.01757
1089.83105,0.01840
1087.77088,0.01883
1085.71071,0.01899
1083.65053,0.01923
1081.59036,0.01971
1079.53019,0.02035
1077.47002,0.02107
1075.40985,0.02172
1073.34967,0.02224
1071.28950,0.02270
1069.22933,0.02306
1067.16916,0.02327
1065.10898,0.02341
1063.04881,0.02358
1060.98864,0.02386
1058.92847,0.02431
1056.86830,0.02481
1054.80812,0.02515
1052.74795,0.02533
1050.68778,0.02549
1048.62761,0.02575
1046.56744,0.02612
1044.50726,0.02653
1042.44709,0.02682
1040.38692,0.02694
1038.32675,0.02714
1036.26657,0.02752
1034.20640,0.02773
1032.14623,0.02766
1030.08606,0.02751
1028.02589,0.02748
1025.96571,0.02768
1023.90554,0.02814
1021.84537,0.02869
1019.78520,0.02908
1017.72503,0.02911
1015.66485,0.02880
1013.60468,0.02847
1011.54451,0.02833
1009.48434,0.02837
1007.42417,0.02840
1005.36399,0.02834
1003.30382,0.02829
1001.24365,0.02814
999.18348,0.02766
997.12330,0.02695
995.06313,0.02634
993.00296,0.02590
990.94279,0.02558
988.88262,0.02538
986.82244,0.02529
984.76227,0.02518
982.70210,0.02496
980.64193,0.02468
978.58176,0.02440
976.52158,0.02395
974.46141,0.02329
972.40124,0.02271
970.34107,0.02243
968.28089,0.02239
966.22072,0.02237
964.16055,0.02223
962.10038,0.02211
960.04021,0.02196
957.98003,0.02149
955.91986,0.02080
953.85969,0.02030
951.79952,0.02006
949.73935,0.01973
947.67917,0.01912
945.61900,0.01841
943.55883,0.01767
941.49866,0.01682
939.43849,0.01594
937.37831,0.01509
935.31814,0.01399
933.25797,0.01251
931.19780,0.01101
929.13762,0.00980
927.07745,0.00893
925.01728,0.00830
922.95711,0.00778
920.89694,0.00739
918.83676,0.00715
916.77659,0.00689
914.71642,0.00650
912.65625,0.00614
910.59608,0.00589
908.53590,0.00571
906.47573,0.00564
904.41556,0.00568
902.35539,0.00571
900.29522,0.00561
898.23504,0.00551
896.17487,0.00556
894.11470,0.00558
892.05453,0.00534
889.99435,0.00507
887.93418,0.00515
885.87401,0.00535
883.81384,0.00517
881.75367,0.00469
879.69349,0.00435
877.63332,0.00418
875.57315,0.00397
873.51298,0.00379
871.45281,0.00367
869.39263,0.00347
867.33246,0.00330
865.27229,0.00335
863.21212,0.00337
861.15194,0.00303
859.09177,0.00258
857.03160,0.00245
854.97143,0.00250
852.91126,0.00249
850.85108,0.00255
848.79091,0.00278
846.73074,0.00322
844.67057,0.00360
842.61040,0.00355
840.55022,0.00322
838.49005,0.00291
836.42988,0.00244
834.36971,0.00163
832.30954,0.00079
830.24936,0.00052
828.18919,0.00102
826.12902,0.00177
824.06885,0.00218
822.00867,0.00225
819.94850,0.00213
817.88833,0.00201
815.82816,0.00199
813.76799,0.00198
811.70781,0.00208
809.64764,0.00239
807.58747,0.00282
805.52730,0.00340
803.46713,0.00393
801.40695,0.00362
799.34678,0.00250
797.28661,0.00186
795.22644,0.00210
793.16627,0.00208
791.10609,0.00114
789.04592,0.00008
786.98575,0.00000
784.92558,0.00114
782.86540,0.00250
780.80523,0.00283
778.74506,0.00215
776.68489,0.00149
774.62472,0.00138
772.56454,0.00149
770.50437,0.00166
768.44420,0.00220
766.38403,0.00300
764.32386,0.00331
762.26368,0.00270
760.20351,0.00197
758.14334,0.00212
756.08317,0.00274
754.02299,0.00277
751.96282,0.00209
749.90265,0.00136
747.84248,0.00117
745.78231,0.00134
743.72213,0.00118
741.66196,0.00072
739.60179,0.00045
737.54162,0.00061
735.48145,0.00124
733.42127,0.00201
731.36110,0.00227
729.30093,0.00172
727.24076,0.00081
725.18059,0.00029
723.12041,0.00053
721.06024,0.00133
719.00007,0.00216
716.93990,0.00244
714.87972,0.00203
712.81955,0.00135
710.75938,0.00090
708.69921,0.00087
706.63904,0.00113
704.57886,0.00160
702.51869,0.00239
700.45852,0.00350
698.39835,0.00451
696.33818,0.00481
694.27800,0.00424
692.21783,0.00327
690.15766,0.00255
688.09749,0.00233
686.03731,0.00239
683.97714,0.00235
681.91697,0.00219
679.85680,0.00229
677.79663,0.00278
675.73645,0.00354
673.67628,0.00466
671.61611,0.00581
669.55594,0.00634
667.49577,0.00610
665.43559,0.00551
663.37542,0.00479
661.31525,0.00385
659.25508,0.00279
657.19491,0.00230
655.13473,0.00291
653.07456,0.00413
651.01439,0.00479
648.95422,0.00414
646.89404,0.00247
644.83387,0.00084
642.77370,0.00000
640.71353,-0.00014
638.65336,0.00029
636.59318,0.00139
634.53301,0.00303
632.47284,0.00465
630.41267,0.00565
628.35250,0.00547
626.29232,0.00449
624.23215,0.00483
622.17198,0.00630
620.11181,0.00784
618.05164,0.00910
615.99146,0.00922
613.93129,0.00852
611.87112,0.00909
609.81095,0.01134
607.75077,0.01232
605.69060,0.00963
603.63043,0.00475
601.57026,0.00115
599.51009,0.00000
