3996.73391,0.00008
3994.67373,0.00016
3992.61356,0.00026
3990.55339,0.00034
3988.49322,0.00035
3986.43305,0.00033
3984.37287,0.00033
3982.31270,0.00035
3980.25253,0.00031
3978.19236,0.00022
3976.13219,0.00015
3974.07201,0.00022
3972.01184,0.00044
3969.95167,0.00068
3967.89150,0.00085
3965.83133,0.00098
3963.77115,0.00115
3961.71098,0.00131
3959.65081,0.00140
3957.59064,0.00133
3955.53046,0.00104
3953.47029,0.00059
3951.41012,0.00017
3949.34995,0.00000
3947.28978,0.00015
3945.22960,0.00047
3943.16943,0.00076
3941.10926,0.00093
3939.04909,0.00104
3936.98892,0.00111
3934.92874,0.00114
3932.86857,0.00106
3930.80840,0.00088
3928.74823,0.00071
3926.68805,0.00065
3924.62788,0.00073
3922.56771,0.00094
3920.50754,0.00122
3918.44737,0.00141
3916.38719,0.00135
3914.32702,0.00104
3912.26685,0.00070
3910.20668,0.00048
3908.14651,0.00037
3906.08633,0.00039
3904.02616,0.00057
3901.96599,0.00088
3899.90582,0.00115
3897.84565,0.00126
3895.78547,0.00122
3893.72530,0.00109
3891.66513,0.00095
3889.60496,0.00088
3887.54478,0.00095
3885.48461,0.00113
3883.42444,0.00130
3881.36427,0.00134
3879.30410,0.00121
3877.24392,0.00101
3875.18375,0.00091
3873.12358,0.00098
3871.06341,0.00110
3869.00324,0.00120
3866.94306,0.00124
3864.88289,0.00114
3862.82272,0.00091
3860.76255,0.00073
3858.70237,0.00079
3856.64220,0.00101
3854.58203,0.00118
3852.52186,0.00114
3850.46169,0.00096
3848.40151,0.00083
3846.34134,0.00083
3844.28117,0.00097
3842.22100,0.00122
3840.16083,0.00154
3838.10065,0.00179
3836.04048,0.00182
3833.98031,0.00157
3831.92014,0.00107
3829.85997,0.00049
3827.79979,0.00007
3825.73962,0.00000
3823.67945,0.00026
3821.61928,0.00062
3819.55910,0.00077
3817.49893,0.00067
3815.43876,0.00050
3813.37859,0.00042
3811.31842,0.00046
3809.25824,0.00060
3807.19807,0.00083
3805.13790,0.00109
3803.07773,0.00127
3801.01756,0.00124
3798.95738,0.00102
3796.89721,0.00075
3794.83704,0.00057
3792.77687,0.00058
3790.71670,0.00074
3788.65652,0.00092
3786.59635,0.00102
3784.53618,0.00097
3782.47601,0.00077
3780.41583,0.00054
3778.35566,0.00049
3776.29549,0.00071
3774.23532,0.00113
3772.17515,0.00156
3770.11497,0.00178
3768.05480,0.00170
3765.99463,0.00150
3763.93446,0.00137
3761.87429,0.00141
3759.81411,0.00159
3757.75394,0.00182
3755.69377,0.00199
3753.63360,0.00203
3751.57342,0.00185
3749.51325,0.00152
3747.45308,0.00122
3745.39291,0.00109
3743.33274,0.00108
3741.27256,0.00124
3739.21239,0.00167
3737.15222,0.00226
3735.09205,0.00269
3733.03188,0.00266
3730.97170,0.00231
3728.91153,0.00195
3726.85136,0.00165
3724.79119,0.00130
3722.73102,0.00097
3720.67084,0.00081
3718.61067,0.00093
3716.55050,0.00129
3714.49033,0.00185
3712.43015,0.00244
3710.36998,0.00282
3708.30981,0.00280
3706.24964,0.00245
3704.18947,0.00197
3702.12929,0.00152
3700.06912,0.00120
3698.00895,0.00108
3695.94878,0.00117
3693.88861,0.00140
3691.82843,0.00158
3689.76826,0.00155
3687.70809,0.00130
3685.64792,0.00105
3683.58775,0.00094
3681.52757,0.00099
3679.46740,0.00112
3677.40723,0.00123
3675.34706,0.00122
3673.28688,0.00122
3671.22671,0.00139
3669.16654,0.00166
3667.10637,0.00187
3665.04620,0.00198
3662.98602,0.00201
3660.92585,0.00205
3658.86568,0.00214
3656.80551,0.00227
3654.74534,0.00244
3652.68516,0.00273
3650.62499,0.00314
3648.56482,0.00354
3646.50465,0.00375
3644.44447,0.00377
3642.38430,0.00369
3640.32413,0.00356
3638.26396,0.00352
3636.20379,0.00371
3634.14361,0.00420
3632.08344,0.00482
3630.02327,0.00530
3627.96310,0.00547
3625.90293,0.00536
3623.84275,0.00515
3621.78258,0.00502
3619.72241,0.00501
3617.66224,0.00512
3615.60207,0.00537
3613.54189,0.00573
3611.48172,0.00608
3609.42155,0.00628
3607.36138,0.00636
3605.30120,0.00651
3603.24103,0.00690
3601.18086,0.00748
3599.12069,0.00810
3597.06052,0.00856
3595.00034,0.00871
3592.94017,0.00858
3590.88000,0.00839
3588.81983,0.00833
3586.75966,0.00839
3584.69948,0.00857
3582.63931,0.00893
3580.57914,0.00945
3578.51897,0.00996
3576.45879,0.01033
3574.39862,0.01066
3572.33845,0.01104
3570.27828,0.01146
3568.21811,0.01186
3566.15793,0.01218
3564.09776,0.01238
3562.03759,0.01246
3559.97742,0.01249
3557.91725,0.01261
3555.85707,0.01295
3553.79690,0.01353
3551.73673,0.01428
3549.67656,0.01500
3547.61639,0.01549
3545.55621,0.01564
3543.49604,0.01549
3541.43587,0.01521
3539.37570,0.01500
3537.31552,0.01503
3535.25535,0.01531
3533.19518,0.01572
3531.13501,0.01607
3529.07484,0.01634
3527.01466,0.01657
3524.95449,0.01682
3522.89432,0.01701
3520.83415,0.01715
3518.77398,0.01730
3516.71380,0.01757
3514.65363,0.01800
3512.59346,0.01858
3510.53329,0.01917
3508.47312,0.01960
3506.41294,0.01980
3504.35277,0.01985
3502.29260,0.01989
3500.23243,0.01994
3498.17225,0.02003
3496.11208,0.02015
3494.05191,0.02035
3491.99174,0.02067
3489.93157,0.02099
3487.87139,0.02120
3485.81122,0.02128
3483.75105,0.02131
3481.69088,0.02135
3479.63071,0.02144
3477.57053,0.02163
3475.51036,0.02195
3473.45019,0.02238
3471.39002,0.02281
3469.32984,0.02317
3467.26967,0.02344
3465.20950,0.02367
3463.14933,0.02389
3461.08916,0.02408
3459.02898,0.02421
3456.96881,0.02434
3454.90864,0.02455
3452.84847,0.02486
3450.78830,0.02520
3448.72812,0.02550
3446.66795,0.02572
3444.60778,0.02585
3442.54761,0.02587
3440.48744,0.02582
3438.42726,0.02580
3436.36709,0.02592
3434.30692,0.02624
3432.24675,0.02667
3430.18657,0.02707
3428.12640,0.02740
3426.06623,0.02770
3424.00606,0.02799
3421.94589,0.02826
3419.88571,0.02850
3417.82554,0.02868
3415.76537,0.02878
3413.70520,0.02881
3411.64503,0.02885
3409.58485,0.02893
3407.52468,0.02901
3405.46451,0.02902
3403.40434,0.02898
3401.34416,0.02891
3399.28399,0.02884
3397.22382,0.02884
3395.16365,0.02899
3393.10348,0.02927
3391.04330,0.02964
3388.98313,0.03003
3386.92296,0.03037
3384.86279,0.03067
3382.80262,0.03094
3380.74244,0.03111
3378.68227,0.03115
3376.62210,0.03117
3374.56193,0.03127
3372.50176,0.03148
3370.44158,0.03176
3368.38141,0.03203
3366.32124,0.03217
3364.26107,0.03208
3362.20089,0.03181
3360.14072,0.03155
3358.08055,0.03150
3356.02038,0.03176
3353.96021,0.03220
3351.90003,0.03261
3349.83986,0.03284
3347.77969,0.03291
3345.71952,0.03292
3343.65935,0.03298
3341.59917,0.03308
3339.53900,0.03323
3337.47883,0.03335
3335.41866,0.03336
3333.35849,0.03323
3331.29831,0.03302
3329.23814,0.03280
3327.17797,0.03266
3325.11780,0.03259
3323.05762,0.03259
3320.99745,0.03265
3318.93728,0.03275
3316.87711,0.03286
3314.81694,0.03292
3312.75676,0.03291
3310.69659,0.03287
3308.63642,0.03292
3306.57625,0.03307
3304.51608,0.03325
3302.45590,0.03337
3300.39573,0.03344
3298.33556,0.03347
3296.27539,0.03348
3294.21521,0.03340
3292.15504,0.03327
3290.09487,0.03319
3288.03470,0.03324
3285.97453,0.03337
3283.91435,0.03340
3281.85418,0.03329
3279.79401,0.03317
3277.73384,0.03315
3275.67367,0.03328
3273.61349,0.03349
3271.55332,0.03363
3269.49315,0.03358
3267.43298,0.03341
3265.37281,0.03330
3263.31263,0.03332
3261.25246,0.03341
3259.19229,0.03345
3257.13212,0.03340
3255.07194,0.03326
3253.01177,0.03308
3250.95160,0.03289
3248.89143,0.03272
3246.83126,0.03265
3244.77108,0.03269
3242.71091,0.03278
3240.65074,0.03282
3238.59057,0.03277
3236.53040,0.03260
3234.47022,0.03233
3232.41005,0.03199
3230.34988,0.03170
3228.28971,0.03156
3226.22954,0.03158
3224.16936,0.03164
3222.10919,0.03163
3220.04902,0.03148
3217.98885,0.03123
3215.92867,0.03097
3213.86850,0.03076
3211.80833,0.03062
3209.74816,0.03050
3207.68799,0.03038
3205.62781,0.03025
3203.56764,0.03010
3201.50747,0.02990
3199.44730,0.02967
3197.38713,0.02950
3195.32695,0.02944
3193.26678,0.02943
3191.20661,0.02937
3189.14644,0.02924
3187.08626,0.02910
3185.02609,0.02895
3182.96592,0.02874
3180.90575,0.02852
3178.84558,0.02833
3176.78540,0.02815
3174.72523,0.02792
3172.66506,0.02770
3170.60489,0.02755
3168.54472,0.02741
3166.48454,0.02719
3164.42437,0.02686
3162.36420,0.02650
3160.30403,0.02620
3158.24386,0.02601
3156.18368,0.02585
3154.12351,0.02568
3152.06334,0.02552
3150.00317,0.02538
3147.94299,0.02525
3145.88282,0.02508
3143.82265,0.02487
3141.76248,0.02461
3139.70231,0.02429
3137.64213,0.02398
3135.58196,0.02375
3133.52179,0.02358
3131.46162,0.02341
3129.40145,0.02320
3127.34127,0.02291
3125.28110,0.02257
3123.22093,0.02221
3121.16076,0.02183
3119.10058,0.02147
3117.04041,0.02114
3114.98024,0.02090
3112.92007,0.02077
3110.85990,0.02071
3108.79972,0.02064
3106.73955,0.02048
3104.67938,0.02024
3102.61921,0.01992
3100.55904,0.01960
3098.49886,0.01933
3096.43869,0.01915
3094.37852,0.01905
3092.31835,0.01893
3090.25818,0.01875
3088.19800,0.01853
3086.13783,0.01831
3084.07766,0.01810
3082.01749,0.01786
3079.95731,0.01760
3077.89714,0.01732
3075.83697,0.01702
3073.77680,0.01670
3071.71663,0.01639
3069.65645,0.01617
3067.59628,0.01606
3065.53611,0.01592
3063.47594,0.01568
3061.41577,0.01541
3059.35559,0.01517
3057.29542,0.01500
3055.23525,0.01487
3053.17508,0.01473
3051.11491,0.01459
3049.05473,0.01447
3046.99456,0.01433
3044.93439,0.01414
3042.87422,0.01393
3040.81404,0.01373
3038.75387,0.01352
3036.69370,0.01327
3034.63353,0.01300
3032.57336,0.01279
3030.51318,0.01267
3028.45301,0.01264
3026.39284,0.01263
3024.33267,0.01258
3022.27250,0.01249
3020.21232,0.01245
3018.15215,0.01248
3016.09198,0.01253
3014.03181,0.01251
3011.97163,0.01244
3009.91146,0.01234
3007.85129,0.01225
3005.79112,0.01216
3003.73095,0.01199
3001.67077,0.01177
2999.61060,0.01162
2997.55043,0.01165
2995.49026,0.01180
2993.43009,0.01187
2991.36991,0.01182
2989.30974,0.01174
2987.24957,0.01172
2985.18940,0.01176
2983.12923,0.01188
2981.06905,0.01202
2979.00888,0.01209
2976.94871,0.01205
2974.88854,0.01202
2972.82836,0.01209
2970.76819,0.01225
2968.70802,0.01249
2966.64785,0.01282
2964.58768,0.01323
2962.52750,0.01363
2960.46733,0.01389
2958.40716,0.01414
2956.34699,0.01445
2954.28682,0.01480
2952.22664,0.01517
2950.16647,0.01557
2948.10630,0.01593
2946.04613,0.01622
2943.98596,0.01652
2941.92578,0.01676
2939.86561,0.01687
2937.80544,0.01692
2935.74527,0.01695
2933.68509,0.01697
2931.62492,0.01701
2929.56475,0.01706
2927.50458,0.01705
2925.44441,0.01696
2923.38423,0.01676
2921.32406,0.01650
2919.26389,0.01625
2917.20372,0.01607
2915.14355,0.01601
2913.08337,0.01599
2911.02320,0.01592
2908.96303,0.01585
2906.90286,0.01581
2904.84268,0.01561
2902.78251,0.01523
2900.72234,0.01492
2898.66217,0.01488
2896.60200,0.01504
2894.54182,0.01519
2892.48165,0.01516
2890.42148,0.01501
2888.36131,0.01482
2886.30114,0.01462
2884.24096,0.01449
2882.18079,0.01446
2880.12062,0.01439
2878.06045,0.01423
2876.00028,0.01400
2873.94010,0.01375
2871.87993,0.01356
2869.81976,0.01344
2867.75959,0.01326
2865.69941,0.01289
2863.63924,0.01244
2861.57907,0.01211
2859.51890,0.01200
2857.45873,0.01205
2855.39855,0.01212
2853.33838,0.01205
2851.27821,0.01187
2849.21804,0.01171
2847.15787,0.01162
2845.09769,0.01159
2843.03752,0.01149
2840.97735,0.01124
2838.91718,0.01100
2836.85700,0.01081
2834.79683,0.01060
2832.73666,0.01040
2830.67649,0.01031
2828.61632,0.01033
2826.55614,0.01034
2824.49597,0.01020
2822.43580,0.00991
2820.37563,0.00959
2818.31546,0.00932
2816.25528,0.00926
2814.19511,0.00935
2812.13494,0.00938
2810.07477,0.00944
2808.01460,0.00967
2805.95442,0.00978
2803.89425,0.00956
2801.83408,0.00924
2799.77391,0.00906
2797.71373,0.00900
2795.65356,0.00896
2793.59339,0.00889
2791.53322,0.00879
2789.47305,0.00875
2787.41287,0.00882
2785.35270,0.00891
2783.29253,0.00889
2781.23236,0.00867
2779.17219,0.00828
2777.11201,0.00793
2775.05184,0.00778
2772.99167,0.00784
2770.93150,0.00802
2768.87133,0.00818
2766.81115,0.00816
2764.75098,0.00806
2762.69081,0.00804
2760.63064,0.00807
2758.57046,0.00795
2756.51029,0.00772
2754.45012,0.00770
2752.38995,0.00787
2750.32978,0.00801
2748.26960,0.00803
2746.20943,0.00804
2744.14926,0.00802
2742.08909,0.00785
2740.02892,0.00753
2737.96874,0.00723
2735.90857,0.00711
2733.84840,0.00713
2731.78823,0.00720
2729.72805,0.00726
2727.66788,0.00739
2725.60771,0.00757
2723.54754,0.00771
2721.48737,0.00779
2719.42719,0.00778
2717.36702,0.00761
2715.30685,0.00741
2713.24668,0.00741
2711.18651,0.00760
2709.12633,0.00770
2707.06616,0.00759
2705.00599,0.00748
2702.94582,0.00750
2700.88565,0.00754
2698.82547,0.00750
2696.76530,0.00746
2694.70513,0.00752
2692.64496,0.00760
2690.58478,0.00754
2688.52461,0.00726
2686.46444,0.00695
2684.40427,0.00681
2682.34410,0.00679
2680.28392,0.00675
2678.22375,0.00676
2676.16358,0.00681
2674.10341,0.00682
2672.04324,0.00678
2669.98306,0.00679
2667.92289,0.00688
2665.86272,0.00691
2663.80255,0.00682
2661.74238,0.00670
2659.68220,0.00662
2657.62203,0.00658
2655.56186,0.00652
2653.50169,0.00641
2651.44151,0.00633
2649.38134,0.00632
2647.32117,0.00631
2645.26100,0.00629
2643.20083,0.00624
2641.14065,0.00610
2639.08048,0.00601
2637.02031,0.00612
2634.96014,0.00620
2632.89997,0.00610
2630.83979,0.00600
2628.77962,0.00598
2626.71945,0.00591
2624.65928,0.00576
2622.59910,0.00567
2620.53893,0.00576
2618.47876,0.00603
2616.41859,0.00633
2614.35842,0.00640
2612.29824,0.00614
2610.23807,0.00574
2608.17790,0.00546
2606.11773,0.00532
2604.05756,0.00518
2601.99738,0.00506
2599.93721,0.00497
2597.87704,0.00487
2595.81687,0.00482
2593.75670,0.00492
2591.69652,0.00505
2589.63635,0.00513
2587.57618,0.00523
2585.51601,0.00541
2583.45583,0.00561
2581.39566,0.00566
2579.33549,0.00547
2577.27532,0.00508
2575.21515,0.00462
2573.15497,0.00434
2571.09480,0.00436
2569.03463,0.00456
2566.97446,0.00487
2564.91429,0.00520
2562.85411,0.00538
2560.79394,0.00538
2558.73377,0.00525
2556.67360,0.00521
2554.61342,0.00536
2552.55325,0.00555
2550.49308,0.00549
2548.43291,0.00518
2546.37274,0.00480
2544.31256,0.00449
2542.25239,0.00420
2540.19222,0.00403
2538.13205,0.00414
2536.07188,0.00442
2534.01170,0.00453
2531.95153,0.00446
2529.89136,0.00451
2527.83119,0.00463
2525.77102,0.00458
2523.71084,0.00443
2521.65067,0.00442
2519.59050,0.00455
2517.53033,0.00469
2515.47015,0.00470
2513.40998,0.00459
2511.34981,0.00444
2509.28964,0.00439
2507.22947,0.00448
2505.16929,0.00461
2503.10912,0.00461
2501.04895,0.00457
2498.98878,0.00464
2496.92861,0.00467
2494.86843,0.00449
2492.80826,0.00429
2490.74809,0.00427
2488.68792,0.00431
2486.62775,0.00424
2484.56757,0.00405
2482.50740,0.00394
2480.44723,0.00399
2478.38706,0.00409
2476.32688,0.00417
2474.26671,0.00404
2472.20654,0.00367
2470.14637,0.00348
2468.08620,0.00375
2466.02602,0.00408
2463.96585,0.00414
2461.90568,0.00419
2459.84551,0.00436
2457.78534,0.00432
2455.72516,0.00386
2453.66499,0.00334
2451.60482,0.00337
2449.54465,0.00387
2447.48447,0.00420
2445.42430,0.00413
2443.36413,0.00400
2441.30396,0.00394
2439.24379,0.00387
2437.18361,0.00381
2435.12344,0.00385
2433.06327,0.00400
2431.00310,0.00421
2428.94293,0.00438
2426.88275,0.00442
2424.82258,0.00427
2422.76241,0.00397
2420.70224,0.00363
2418.64207,0.00333
2416.58189,0.00313
2414.52172,0.00316
2412.46155,0.00329
2410.40138,0.00321
2408.34120,0.00302
2406.28103,0.00301
2404.22086,0.00315
2402.16069,0.00325
2400.10052,0.00331
2398.04034,0.00344
2395.98017,0.00363
2393.92000,0.00378
2391.85983,0.00382
2389.79966,0.00378
2387.73948,0.00376
2385.67931,0.00381
2383.61914,0.00388
2381.55897,0.00392
2379.49880,0.00389
2377.43862,0.00371
2375.37845,0.00329
2373.31828,0.00270
2371.25811,0.00212
2369.19793,0.00176
2367.13776,0.00191
2365.07759,0.00287
2363.01742,0.00433
2360.95725,0.00543
2358.89707,0.00544
2356.83690,0.00455
2354.77673,0.00371
2352.71656,0.00357
2350.65639,0.00399
2348.59621,0.00452
2346.53604,0.00488
2344.47587,0.00492
2342.41570,0.00447
2340.35552,0.00359
2338.29535,0.00272
2336.23518,0.00233
2334.17501,0.00249
2332.11484,0.00297
2330.05466,0.00351
2327.99449,0.00390
2325.93432,0.00406
2323.87415,0.00403
2321.81398,0.00399
2319.75380,0.00408
2317.69363,0.00439
2315.63346,0.00475
2313.57329,0.00493
2311.51312,0.00485
2309.45294,0.00459
2307.39277,0.00426
2305.33260,0.00394
2303.27243,0.00369
2301.21225,0.00355
2299.15208,0.00352
2297.09191,0.00360
2295.03174,0.00383
2292.97157,0.00414
2290.91139,0.00447
2288.85122,0.00475
2286.79105,0.00491
2284.73088,0.00484
2282.67071,0.00456
2280.61053,0.00424
2278.55036,0.00404
2276.49019,0.00400
2274.43002,0.00399
2272.36984,0.00393
2270.30967,0.00379
2268.24950,0.00362
2266.18933,0.00349
2264.12916,0.00346
2262.06898,0.00352
2260.00881,0.00361
2257.94864,0.00359
2255.88847,0.00342
2253.82830,0.00316
2251.76812,0.00293
2249.70795,0.00279
2247.64778,0.00280
2245.58761,0.00298
2243.52744,0.00321
2241.46726,0.00326
2239.40709,0.00318
2237.34692,0.00322
2235.28675,0.00324
2233.22657,0.00311
2231.16640,0.00327
2229.10623,0.00403
2227.04606,0.00491
2224.98589,0.00496
2222.92571,0.00378
2220.86554,0.00235
2218.80537,0.00200
2216.74520,0.00263
2214.68503,0.00351
2212.62485,0.00417
2210.56468,0.00407
2208.50451,0.00335
2206.44434,0.00299
2204.38417,0.00328
2202.32399,0.00353
2200.26382,0.00323
2198.20365,0.00269
2196.14348,0.00236
2194.08330,0.00239
2192.02313,0.00267
2189.96296,0.00326
2187.90279,0.00426
2185.84262,0.00523
2183.78244,0.00569
2181.72227,0.00549
2179.66210,0.00473
2177.60193,0.00425
2175.54176,0.00455
2173.48158,0.00445
2171.42141,0.00320
2169.36124,0.00215
2167.30107,0.00259
2165.24089,0.00370
2163.18072,0.00387
2161.12055,0.00283
2159.06038,0.00141
2157.00021,0.00060
2154.94003,0.00119
2152.87986,0.00261
2150.81969,0.00329
2148.75952,0.00267
2146.69935,0.00186
2144.63917,0.00163
2142.57900,0.00188
2140.51883,0.00256
2138.45866,0.00325
2136.39849,0.00318
2134.33831,0.00232
2132.27814,0.00148
2130.21797,0.00147
2128.15780,0.00213
2126.09762,0.00249
2124.03745,0.00217
2121.97728,0.00203
2119.91711,0.00281
2117.85694,0.00375
2115.79676,0.00377
2113.73659,0.00307
2111.67642,0.00270
2109.61625,0.00296
2107.55608,0.00332
2105.49590,0.00360
2103.43573,0.00389
2101.37556,0.00402
2099.31539,0.00374
2097.25521,0.00331
2095.19504,0.00320
2093.13487,0.00360
2091.07470,0.00422
2089.01453,0.00461
2086.95435,0.00457
2084.89418,0.00429
2082.83401,0.00402
2080.77384,0.00384
2078.71367,0.00371
2076.65349,0.00358
2074.59332,0.00346
2072.53315,0.00331
2070.47298,0.00322
2068.41281,0.00336
2066.35263,0.00381
2064.29246,0.00451
2062.23229,0.00529
2060.17212,0.00590
2058.11194,0.00609
2056.05177,0.00586
2053.99160,0.00544
2051.93143,0.00511
2049.87126,0.00501
2047.81108,0.00505
2045.75091,0.00515
2043.69074,0.00516
2041.63057,0.00494
2039.57040,0.00451
2037.51022,0.00391
2035.45005,0.00315
2033.38988,0.00234
2031.32971,0.00170
2029.26954,0.00133
2027.20936,0.00119
2025.14919,0.00116
2023.08902,0.00119
2021.02885,0.00136
2018.96867,0.00171
2016.90850,0.00212
2014.84833,0.00236
2012.78816,0.00230
2010.72799,0.00196
2008.66781,0.00157
2006.60764,0.00147
2004.54747,0.00181
2002.48730,0.00223
2000.42713,0.00223
1998.36695,0.00167
1996.30678,0.00079
1994.24661,0.00006
1992.18644,0.00000
1990.12626,0.00073
1988.06609,0.00196
1986.00592,0.00325
1983.94575,0.00424
1981.88558,0.00470
1979.82540,0.00462
1977.76523,0.00418
1975.70506,0.00342
1973.64489,0.00241
1971.58472,0.00146
1969.52454,0.00090
1967.46437,0.00064
1965.40420,0.00042
1963.34403,0.00039
1961.28386,0.00092
1959.22368,0.00203
1957.16351,0.00310
1955.10334,0.00352
1953.04317,0.00322
1950.98299,0.00257
1948.92282,0.00202
1946.86265,0.00178
1944.80248,0.00180
1942.74231,0.00192
1940.68213,0.00207
1938.62196,0.00218
1936.56179,0.00221
1934.50162,0.00220
1932.44145,0.00216
1930.38127,0.00212
1928.32110,0.00215
1926.26093,0.00231
1924.20076,0.00264
1922.14059,0.00303
1920.08041,0.00331
1918.02024,0.00337
1915.96007,0.00322
1913.89990,0.00301
1911.83972,0.00286
1909.77955,0.00276
1907.71938,0.00270
1905.65921,0.00270
1903.59904,0.00271
1901.53886,0.00256
1899.47869,0.00223
1897.41852,0.00192
1895.35835,0.00174
1893.29818,0.00166
1891.23800,0.00161
1889.17783,0.00157
1887.11766,0.00152
1885.05749,0.00149
1882.99731,0.00158
1880.93714,0.00177
1878.87697,0.00190
1876.81680,0.00183
1874.75663,0.00162
1872.69645,0.00139
1870.63628,0.00123
1868.57611,0.00113
1866.51594,0.00104
1864.45577,0.00102
1862.39559,0.00108
1860.33542,0.00115
1858.27525,0.00119
1856.21508,0.00123
1854.15491,0.00131
1852.09473,0.00140
1850.03456,0.00138
1847.97439,0.00121
1845.91422,0.00095
1843.85404,0.00070
1841.79387,0.00057
1839.73370,0.00061
1837.67353,0.00078
1835.61336,0.00095
1833.55318,0.00107
1831.49301,0.00114
1829.43284,0.00115
1827.37267,0.00110
1825.31250,0.00102
1823.25232,0.00095
1821.19215,0.00089
1819.13198,0.00089
1817.07181,0.00093
1815.01163,0.00098
1812.95146,0.00104
1810.89129,0.00111
1808.83112,0.00119
1806.77095,0.00122
1804.71077,0.00115
1802.65060,0.00103
1800.59043,0.00089
1798.53026,0.00076
1796.47009,0.00067
1794.40991,0.00067
1792.34974,0.00068
1790.28957,0.00064
1788.22940,0.00061
1786.16923,0.00070
1784.10905,0.00088
1782.04888,0.00104
1779.98871,0.00105
1777.92854,0.00091
1775.86836,0.00078
1773.80819,0.00078
1771.74802,0.00090
1769.68785,0.00106
1767.62768,0.00121
1765.56750,0.00145
1763.50733,0.00181
1761.44716,0.00224
1759.38699,0.00262
1757.32682,0.00298
1755.26664,0.00341
1753.20647,0.00392
1751.14630,0.00442
1749.08613,0.00482
1747.02596,0.00514
1744.96578,0.00542
1742.90561,0.00568
1740.84544,0.00596
1738.78527,0.00629
1736.72509,0.00666
1734.66492,0.00695
1732.60475,0.00704
1730.54458,0.00695
1728.48441,0.00675
1726.42423,0.00653
1724.36406,0.00633
1722.30389,0.00621
1720.24372,0.00613
1718.18355,0.00602
1716.12337,0.00574
1714.06320,0.00526
1712.00303,0.00473
1709.94286,0.00425
1707.88268,0.00386
1705.82251,0.00355
1703.76234,0.00330
1701.70217,0.00315
1699.64200,0.00308
1697.58182,0.00298
1695.52165,0.00287
1693.46148,0.00284
1691.40131,0.00296
1689.34114,0.00323
1687.28096,0.00358
1685.22079,0.00397
1683.16062,0.00433
1681.10045,0.00462
1679.04028,0.00490
1676.98010,0.00520
1674.91993,0.00556
1672.85976,0.00600
1670.79959,0.00655
1668.73941,0.00717
1666.67924,0.00778
1664.61907,0.00836
1662.55890,0.00888
1660.49873,0.00937
1658.43855,0.00993
1656.37838,0.01064
1654.31821,0.01141
1652.25804,0.01192
1650.19787,0.01207
1648.13769,0.01204
1646.07752,0.01199
1644.01735,0.01202
1641.95718,0.01218
1639.89701,0.01246
1637.83683,0.01276
1635.77666,0.01295
1633.71649,0.01301
1631.65632,0.01299
1629.59614,0.01297
1627.53597,0.01298
1625.47580,0.01306
1623.41563,0.01317
1621.35546,0.01328
1619.29528,0.01338
1617.23511,0.01347
1615.17494,0.01351
1613.11477,0.01344
1611.05460,0.01329
1608.99442,0.01307
1606.93425,0.01277
1604.87408,0.01238
1602.81391,0.01187
1600.75373,0.01127
1598.69356,0.01056
1596.63339,0.00976
1594.57322,0.00890
1592.51305,0.00807
1590.45287,0.00728
1588.39270,0.00655
1586.33253,0.00587
1584.27236,0.00526
1582.21219,0.00473
1580.15201,0.00433
1578.09184,0.00404
1576.03167,0.00379
1573.97150,0.00349
1571.91133,0.00316
1569.85115,0.00282
1567.79098,0.00250
1565.73081,0.00228
1563.67064,0.00219
1561.61046,0.00221
1559.55029,0.00223
1557.49012,0.00209
1555.42995,0.00183
1553.36978,0.00154
1551.30960,0.00133
1549.24943,0.00129
1547.18926,0.00143
1545.12909,0.00164
1543.06892,0.00175
1541.00874,0.00164
1538.94857,0.00132
1536.88840,0.00103
1534.82823,0.00090
1532.76805,0.00089
1530.70788,0.00089
1528.64771,0.00087
1526.58754,0.00076
1524.52737,0.00057
1522.46719,0.00034
1520.40702,0.00012
1518.34685,0.00000
1516.28668,0.00006
1514.22651,0.00033
1512.16633,0.00075
1510.10616,0.00113
1508.04599,0.00123
1505.98582,0.00096
1503.92565,0.00057
1501.86547,0.00033
1499.80530,0.00030
1497.74513,0.00040
1495.68496,0.00059
1493.62478,0.00085
1491.56461,0.00112
1489.50444,0.00129
1487.44427,0.00132
1485.38410,0.00132
1483.32392,0.00139
1481.26375,0.00161
1479.20358,0.00201
1477.14341,0.00260
1475.08324,0.00329
1473.02306,0.00392
1470.96289,0.00435
1468.90272,0.00461
1466.84255,0.00484
1464.78238,0.00511
1462.72220,0.00541
1460.66203,0.00573
1458.60186,0.00601
1456.54169,0.00620
1454.48151,0.00636
1452.42134,0.00658
1450.36117,0.00690
1448.30100,0.00724
1446.24083,0.00753
1444.18065,0.00780
1442.12048,0.00807
1440.06031,0.00839
1438.00014,0.00872
1435.93997,0.00904
1433.87979,0.00932
1431.81962,0.00958
1429.75945,0.00987
1427.69928,0.01020
1425.63910,0.01061
1423.57893,0.01106
1421.51876,0.01149
1419.45859,0.01184
1417.39842,0.01203
1415.33824,0.01206
1413.27807,0.01198
1411.21790,0.01183
1409.15773,0.01160
1407.09756,0.01132
1405.03738,0.01103
1402.97721,0.01077
1400.91704,0.01052
1398.85687,0.01027
1396.79670,0.01005
1394.73652,0.00989
1392.67635,0.00983
1390.61618,0.00986
1388.55601,0.00996
1386.49583,0.01009
1384.43566,0.01025
1382.37549,0.01047
1380.31532,0.01075
1378.25515,0.01103
1376.19497,0.01123
1374.13480,0.01132
1372.07463,0.01131
1370.01446,0.01126
1367.95429,0.01119
1365.89411,0.01112
1363.83394,0.01102
1361.77377,0.01088
1359.71360,0.01073
1357.65343,0.01059
1355.59325,0.01045
1353.53308,0.01028
1351.47291,0.01007
1349.41274,0.00983
1347.35256,0.00964
1345.29239,0.00956
1343.23222,0.00957
1341.17205,0.00957
1339.11188,0.00951
1337.05170,0.00938
1334.99153,0.00923
1332.93136,0.00907
1330.87119,0.00896
1328.81102,0.00894
1326.75084,0.00902
1324.69067,0.00916
1322.63050,0.00933
1320.57033,0.00951
1318.51015,0.00965
1316.44998,0.00970
1314.38981,0.00963
1312.32964,0.00946
1310.26947,0.00925
1308.20929,0.00908
1306.14912,0.00897
1304.08895,0.00891
1302.02878,0.00882
1299.96861,0.00867
1297.90843,0.00841
1295.84826,0.00810
1293.78809,0.00782
1291.72792,0.00762
1289.66775,0.00752
1287.60757,0.00750
1285.54740,0.00750
1283.48723,0.00754
1281.42706,0.00762
1279.36688,0.00771
1277.30671,0.00777
1275.24654,0.00781
1273.18637,0.00792
1271.12620,0.00819
1269.06602,0.00860
1267.00585,0.00906
1264.94568,0.00948
1262.88551,0.00984
1260.82534,0.01022
1258.76516,0.01061
1256.70499,0.01094
1254.64482,0.01118
1252.58465,0.01137
1250.52447,0.01152
1248.46430,0.01165
1246.40413,0.01173
1244.34396,0.01171
1242.28379,0.01156
1240.22361,0.01129
1238.16344,0.01094
1236.10327,0.01055
1234.04310,0.01019
1231.98293,0.00987
1229.92275,0.00957
1227.86258,0.00924
1225.80241,0.00888
1223.74224,0.00852
1221.68207,0.00815
1219.62189,0.00773
1217.56172,0.00724
1215.50155,0.00671
1213.44138,0.00615
1211.38120,0.00556
1209.32103,0.00490
1207.26086,0.00419
1205.20069,0.00349
1203.14052,0.00284
1201.08034,0.00224
1199.02017,0.00166
1196.96000,0.00105
1194.89983,0.00048
1192.83966,0.00016
1190.77948,0.00005
1188.71931,0.00000
1186.65914,-0.00003
1184.59897,0.00012
1182.53880,0.00037
1180.47862,0.00067
1178.41845,0.00110
1176.35828,0.00174
1174.29811,0.00261
1172.23793,0.00358
1170.17776,0.00441
1168.11759,0.00505
1166.05742,0.00560
1163.99725,0.00619
1161.93707,0.00693
1159.87690,0.00784
1157.81673,0.00870
1155.75656,0.00932
1153.69639,0.00985
1151.63621,0.01041
1149.57604,0.01091
1147.51587,0.01130
1145.45570,0.01170
1143.39552,0.01214
1141.33535,0.01248
1139.27518,0.01266
1137.21501,0.01279
1135.15484,0.01298
1133.09466,0.01320
1131.03449,0.01343
1128.97432,0.01380
1126.91415,0.01441
1124.85398,0.01519
1122.79380,0.01607
1120.73363,0.01692
1118.67346,0.01755
1116.61329,0.01794
1114.55312,0.01827
1112.49294,0.01869
1110.43277,0.01926
1108.37260,0.02004
1106.31243,0.02094
1104.25225,0.02178
1102.19208,0.02251
1100.13191,0.02322
1098.07174,0.02401
1096.01157,0.02496
1093.95139,0.02594
1091.89122,0.02678
1089.83105,0.02753
1087.77088,0.02838
1085.71071,0.02923
1083.65053,0.03001
1081.59036,0.03078
1079.53019,0.03158
1077.47002,0.03235
1075.40985,0.03310
1073.34967,0.03386
1071.28950,0.03464
1069.22933,0.03531
1067.16916,0.03570
1065.10898,0.03587
1063.04881,0.03606
1060.98864,0.03644
1058.92847,0.03691
1056.86830,0.03725
1054.80812,0.03758
1052.74795,0.03805
1050.68778,0.03862
1048.62761,0.03930
1046.56744,0.04008
1044.50726,0.04074
1042.44709,0.04112
1040.38692,0.04141
1038.32675,0.04191
1036.26657,0.04258
1034.20640,0.04311
1032.14623,0.04337
1030.08606,0.04355
1028.02589,0.04371
1025.96571,0.04376
1023.90554,0.04370
1021.84537,0.04369
1019.78520,0.04389
1017.72503,0.04412
1015.66485,0.04412
1013.60468,0.04389
1011.54451,0.04367
1009.48434,0.04357
1007.42417,0.04347
1005.36399,0.04322
1003.30382,0.04277
1001.24365,0.04230
999.18348,0.04192
997.12330,0.04153
995.06313,0.04102
993.00296,0.04041
990.94279,0.03986
988.88262,0.03949
986.82244,0.03917
984.76227,0.03874
982.70210,0.03829
980.64193,0.03788
978.58176,0.03745
976.52158,0.03710
974.46141,0.03686
972.40124,0.03656
970.34107,0.03622
968.28089,0.03591
966.22072,0.03559
964.16055,0.03521
962.10038,0.03466
960.04021,0.03403
957.98003,0.03346
955.91986,0.03285
953.85969,0.03211
951.79952,0.03134
949.73935,0.03065
947.67917,0.03001
945.61900,0.02928
943.55883,0.02828
941.49866,0.02688
939.43849,0.02512
937.37831,0.02323
935.31814,0.02140
933.25797,0.01976
931.19780,0.01838
929.13762,0.01722
927.07745,0.01613
925.01728,0.01502
922.95711,0.01393
920.89694,0.01291
918.83676,0.01201
916.77659,0.01122
914.71642,0.01051
912.65625,0.00995
910.59608,0.00951
908.53590,0.00895
906.47573,0.00825
904.41556,0.00788
902.35539,0.00799
900.29522,0.00824
898.23504,0.00830
896.17487,0.00805
894.11470,0.00770
892.05453,0.00753
889.99435,0.00742
887.93418,0.00715
885.87401,0.00684
883.81384,0.00658
881.75367,0.00607
879.69349,0.00519
877.63332,0.00438
875.57315,0.00404
873.51298,0.00403
871.45281,0.00393
869.39263,0.00367
867.33246,0.00359
865.27229,0.00378
863.21212,0.00388
861.15194,0.00376
859.09177,0.00358
857.03160,0.00332
854.97143,0.00281
852.91126,0.00222
850.85108,0.00198
848.79091,0.00196
846.73074,0.00170
844.67057,0.00142
842.61040,0.00151
840.55022,0.00177
838.49005,0.00170
836.42988,0.00125
834.36971,0.00077
832.30954,0.00045
830.24936,0.00020
828.18919,0.00000
826.12902,-0.00006
824.06885,0.00015
822.00867,0.00057
819.94850,0.00106
817.88833,0.00146
815.82816,0.00170
813.76799,0.00183
811.70781,0.00199
809.64764,0.00226
807.58747,0.00268
805.52730,0.00299
803.46713,0.00277
801.40695,0.00219
799.34678,0.00164
797.28661,0.00112
795.22644,0.00071
793.16627,0.00051
791.10609,0.00057
789.04592,0.00104
786.98575,0.00156
784.92558,0.00154
782.86540,0.00111
780.80523,0.00077
778.74506,0.00062
776.68489,0.00052
774.62472,0.00049
772.56454,0.00054
770.50437,0.00049
768.44420,0.00041
766.38403,0.00042
764.32386,0.00057
762.26368,0.00096
760.20351,0.00146
758.14334,0.00178
756.08317,0.00195
754.02299,0.00197
751.96282,0.00181
749.90265,0.00160
747.84248,0.00141
745.78231,0.00102
743.72213,0.00040
741.66196,0.00000
739.60179,-0.00001
737.54162,0.00025
735.48145,0.00017
733.42127,-0.00034
731.36110,-0.00066
729.30093,-0.00024
727.24076,0.00061
725.18059,0.00116
723.12041,0.00115
721.06024,0.00101
719.00007,0.00101
716.93990,0.00110
714.87972,0.00119
712.81955,0.00132
710.75938,0.00151
708.69921,0.00172
706.63904,0.00195
704.57886,0.00226
702.51869,0.00250
700.45852,0.00237
698.39835,0.00182
696.33818,0.00120
694.27800,0.00099
692.21783,0.00131
690.15766,0.00186
688.09749,0.00235
686.03731,0.00263
683.97714,0.00263
681.91697,0.00233
679.85680,0.00186
677.79663,0.00135
675.73645,0.00088
673.67628,0.00049
671.61611,0.00018
669.55594,-0.00001
667.49577,-0.00007
665.43559,-0.00014
663.37542,-0.00029
661.31525,-0.00048
659.25508,-0.00077
657.19491,-0.00127
655.13473,-0.00169
653.07456,-0.00151
651.01439,-0.00073
648.95422,0.00000
646.89404,0.00003
644.83387,-0.00027
642.77370,-0.00061
640.71353,-0.00093
638.65336,-0.00128
636.59318,-0.00178
634.53301,-0.00245
632.47284,-0.00304
630.41267,-0.00329
628.35250,-0.00316
626.29232,-0.00292
624.23215,-0.00307
622.17198,-0.00366
620.11181,-0.00421
618.05164,-0.00482
615.99146,-0.00559
613.93129,-0.00520
611.87112,-0.00301
609.81095,-0.00104
607.75077,-0.00149
605.69060,-0.00328
603.63043,-0.00317
601.57026,-0.00122
599.51009,0.00000
