3996.73391,0.00019
3994.67373,0.00039
3992.61356,0.00062
3990.55339,0.00081
3988.49322,0.00090
3986.43305,0.00093
3984.37287,0.00093
3982.31270,0.00087
3980.25253,0.00075
3978.19236,0.00056
3976.13219,0.00039
3974.07201,0.00034
3972.01184,0.00043
3969.95167,0.00054
3967.89150,0.00058
3965.83133,0.00061
3963.77115,0.00072
3961.71098,0.00092
3959.65081,0.00115
3957.59064,0.00126
3955.53046,0.00109
3953.47029,0.00068
3951.41012,0.00024
3949.34995,0.00000
3947.28978,0.00006
3945.22960,0.00035
3943.16943,0.00074
3941.10926,0.00116
3939.04909,0.00148
3936.98892,0.00164
3934.92874,0.00166
3932.86857,0.00159
3930.80840,0.00147
3928.74823,0.00131
3926.68805,0.00108
3924.62788,0.00082
3922.56771,0.00063
3920.50754,0.00060
3918.44737,0.00070
3916.38719,0.00084
3914.32702,0.00093
3912.26685,0.00094
3910.20668,0.00084
3908.14651,0.00063
3906.08633,0.00048
3904.02616,0.00060
3901.96599,0.00096
3899.90582,0.00128
3897.84565,0.00141
3895.78547,0.00134
3893.72530,0.00112
3891.66513,0.00087
3889.60496,0.00070
3887.54478,0.00062
3885.48461,0.00066
3883.42444,0.00083
3881.36427,0.00103
3879.30410,0.00106
3877.24392,0.00084
3875.18375,0.00052
3873.12358,0.00039
3871.06341,0.00051
3869.00324,0.00070
3866.94306,0.00077
3864.88289,0.00067
3862.82272,0.00050
3860.76255,0.00033
3858.70237,0.00015
3856.64220,0.00000
3854.58203,0.00007
3852.52186,0.00055
3850.46169,0.00115
3848.40151,0.00144
3846.34134,0.00132
3844.28117,0.00099
3842.22100,0.00066
3840.16083,0.00041
3838.10065,0.00032
3836.04048,0.00042
3833.98031,0.00060
3831.92014,0.00068
3829.85997,0.00061
3827.79979,0.00054
3825.73962,0.00059
3823.67945,0.00077
3821.61928,0.00103
3819.55910,0.00127
3817.49893,0.00132
3815.43876,0.00122
3813.37859,0.00112
3811.31842,0.00105
3809.25824,0.00106
3807.19807,0.00117
3805.13790,0.00134
3803.07773,0.00142
3801.01756,0.00140
3798.95738,0.00134
3796.89721,0.00125
3794.83704,0.00114
3792.77687,0.00112
3790.71670,0.00123
3788.65652,0.00139
3786.59635,0.00148
3784.53618,0.00149
3782.47601,0.00145
3780.41583,0.00139
3778.35566,0.00133
3776.29549,0.00121
3774.23532,0.00105
3772.17515,0.00092
3770.11497,0.00098
3768.05480,0.00129
3765.99463,0.00171
3763.93446,0.00201
3761.87429,0.00207
3759.81411,0.00194
3757.75394,0.00176
3755.69377,0.00151
3753.63360,0.00109
3751.57342,0.00057
3749.51325,0.00021
3747.45308,0.00011
3745.39291,0.00028
3743.33274,0.00068
3741.27256,0.00121
3739.21239,0.00176
3737.15222,0.00220
3735.09205,0.00242
3733.03188,0.00232
3730.97170,0.00203
3728.91153,0.00181
3726.85136,0.00189
3724.79119,0.00220
3722.73102,0.00251
3720.67084,0.00265
3718.61067,0.00266
3716.55050,0.00264
3714.49033,0.00262
3712.43015,0.00258
3710.36998,0.00255
3708.30981,0.00251
3706.24964,0.00243
3704.18947,0.00239
3702.12929,0.00238
3700.06912,0.00237
3698.00895,0.00230
3695.94878,0.00230
3693.88861,0.00251
3691.82843,0.00288
3689.76826,0.00320
3687.70809,0.00321
3685.64792,0.00284
3683.58775,0.00225
3681.52757,0.00161
3679.46740,0.00098
3677.40723,0.00040
3675.34706,0.00002
3673.28688,0.00000
3671.22671,0.00039
3669.16654,0.00108
3667.10637,0.00179
3665.04620,0.00232
3662.98602,0.00262
3660.92585,0.00278
3658.86568,0.00290
3656.80551,0.00300
3654.74534,0.00305
3652.68516,0.00304
3650.62499,0.00304
3648.56482,0.00314
3646.50465,0.00328
3644.44447,0.00337
3642.38430,0.00335
3640.32413,0.00331
3638.26396,0.00340
3636.20379,0.00370
3634.14361,0.00416
3632.08344,0.00458
3630.02327,0.00484
3627.96310,0.00502
3625.90293,0.00516
3623.84275,0.00518
3621.78258,0.00506
3619.72241,0.00492
3617.66224,0.00487
3615.60207,0.00495
3613.54189,0.00512
3611.48172,0.00532
3609.42155,0.00545
3607.36138,0.00546
3605.30120,0.00545
3603.24103,0.00555
3601.18086,0.00584
3599.12069,0.00627
3597.06052,0.00674
3595.00034,0.00708
3592.94017,0.00720
3590.88000,0.00720
3588.81983,0.00721
3586.75966,0.00735
3584.69948,0.00759
3582.63931,0.00787
3580.57914,0.00816
3578.51897,0.00838
3576.45879,0.00847
3574.39862,0.00845
3572.33845,0.00839
3570.27828,0.00833
3568.21811,0.00831
3566.15793,0.00839
3564.09776,0.00864
3562.03759,0.00900
3559.97742,0.00936
3557.91725,0.00966
3555.85707,0.00993
3553.79690,0.01021
3551.73673,0.01050
3549.67656,0.01077
3547.61639,0.01098
3545.55621,0.01114
3543.49604,0.01132
3541.43587,0.01161
3539.37570,0.01191
3537.31552,0.01213
3535.25535,0.01229
3533.19518,0.01242
3531.13501,0.01248
3529.07484,0.01245
3527.01466,0.01245
3524.95449,0.01253
3522.89432,0.01263
3520.83415,0.01268
3518.77398,0.01271
3516.71380,0.01280
3514.65363,0.01299
3512.59346,0.01322
3510.53329,0.01340
3508.47312,0.01350
3506.41294,0.01353
3504.35277,0.01360
3502.29260,0.01380
3500.23243,0.01409
3498.17225,0.01438
3496.11208,0.01457
3494.05191,0.01469
3491.99174,0.01482
3489.93157,0.01499
3487.87139,0.01520
3485.81122,0.01544
3483.75105,0.01565
3481.69088,0.01580
3479.63071,0.01589
3477.57053,0.01591
3475.51036,0.01595
3473.45019,0.01610
3471.39002,0.01639
3469.32984,0.01677
3467.26967,0.01715
3465.20950,0.01744
3463.14933,0.01759
3461.08916,0.01764
3459.02898,0.01775
3456.96881,0.01800
3454.90864,0.01836
3452.84847,0.01868
3450.78830,0.01882
3448.72812,0.01875
3446.66795,0.01861
3444.60778,0.01851
3442.54761,0.01848
3440.48744,0.01852
3438.42726,0.01866
3436.36709,0.01887
3434.30692,0.01907
3432.24675,0.01920
3430.18657,0.01925
3428.12640,0.01928
3426.06623,0.01936
3424.00606,0.01953
3421.94589,0.01980
3419.88571,0.02012
3417.82554,0.02040
3415.76537,0.02057
3413.70520,0.02065
3411.64503,0.02072
3409.58485,0.02078
3407.52468,0.02078
3405.46451,0.02073
3403.40434,0.02070
3401.34416,0.02077
3399.28399,0.02085
3397.22382,0.02085
3395.16365,0.02078
3393.10348,0.02071
3391.04330,0.02072
3388.98313,0.02078
3386.92296,0.02089
3384.86279,0.02108
3382.80262,0.02142
3380.74244,0.02180
3378.68227,0.02210
3376.62210,0.02230
3374.56193,0.02251
3372.50176,0.02280
3370.44158,0.02313
3368.38141,0.02340
3366.32124,0.02350
3364.26107,0.02338
3362.20089,0.02309
3360.14072,0.02281
3358.08055,0.02269
3356.02038,0.02282
3353.96021,0.02313
3351.90003,0.02344
3349.83986,0.02361
3347.77969,0.02365
3345.71952,0.02365
3343.65935,0.02366
3341.59917,0.02368
3339.53900,0.02366
3337.47883,0.02358
3335.41866,0.02348
3333.35849,0.02341
3331.29831,0.02336
3329.23814,0.02331
3327.17797,0.02331
3325.11780,0.02342
3323.05762,0.02360
3320.99745,0.02375
3318.93728,0.02379
3316.87711,0.02371
3314.81694,0.02359
3312.75676,0.02349
3310.69659,0.02349
3308.63642,0.02363
3306.57625,0.02385
3304.51608,0.02402
3302.45590,0.02403
3300.39573,0.02393
3298.33556,0.02383
3296.27539,0.02379
3294.21521,0.02377
3292.15504,0.02375
3290.09487,0.02377
3288.03470,0.02389
3285.97453,0.02402
3283.91435,0.02408
3281.85418,0.02404
3279.79401,0.02393
3277.73384,0.02378
3275.67367,0.02366
3273.61349,0.02361
3271.55332,0.02362
3269.49315,0.02364
3267.43298,0.02373
3265.37281,0.02398
3263.31263,0.02428
3261.25246,0.02444
3259.19229,0.02442
3257.13212,0.02425
3255.07194,0.02401
3253.01177,0.02376
3250.95160,0.02356
3248.89143,0.02344
3246.83126,0.02337
3244.77108,0.02336
3242.71091,0.02334
3240.65074,0.02323
3238.59057,0.02304
3236.53040,0.02286
3234.47022,0.02274
3232.41005,0.02266
3230.34988,0.02257
3228.28971,0.02245
3226.22954,0.02230
3224.16936,0.02215
3222.10919,0.02209
3220.04902,0.02217
3217.98885,0.02233
3215.92867,0.02248
3213.86850,0.02252
3211.80833,0.02239
3209.74816,0.02208
3207.68799,0.02175
3205.62781,0.02157
3203.56764,0.02158
3201.50747,0.02167
3199.44730,0.02171
3197.38713,0.02162
3195.32695,0.02144
3193.26678,0.02122
3191.20661,0.02104
3189.14644,0.02095
3187.08626,0.02089
3185.02609,0.02080
3182.96592,0.02063
3180.90575,0.02044
3178.84558,0.02033
3176.78540,0.02025
3174.72523,0.02014
3172.66506,0.02003
3170.60489,0.01998
3168.54472,0.01992
3166.48454,0.01975
3164.42437,0.01947
3162.36420,0.01917
3160.30403,0.01894
3158.24386,0.01881
3156.18368,0.01876
3154.12351,0.01873
3152.06334,0.01867
3150.00317,0.01854
3147.94299,0.01836
3145.88282,0.01820
3143.82265,0.01810
3141.76248,0.01805
3139.70231,0.01801
3137.64213,0.01796
3135.58196,0.01786
3133.52179,0.01771
3131.46162,0.01752
3129.40145,0.01727
3127.34127,0.01700
3125.28110,0.01673
3123.22093,0.01646
3121.16076,0.01620
3119.10058,0.01596
3117.04041,0.01581
3114.98024,0.01577
3112.92007,0.01579
3110.85990,0.01579
3108.79972,0.01571
3106.73955,0.01556
3104.67938,0.01538
3102.61921,0.01519
3100.55904,0.01498
3098.49886,0.01477
3096.43869,0.01457
3094.37852,0.01442
3092.31835,0.01431
3090.25818,0.01421
3088.19800,0.01406
3086.13783,0.01386
3084.07766,0.01360
3082.01749,0.01332
3079.95731,0.01305
3077.89714,0.01285
3075.83697,0.01268
3073.77680,0.01256
3071.71663,0.01250
3069.65645,0.01252
3067.59628,0.01251
3065.53611,0.01236
3063.47594,0.01204
3061.41577,0.01166
3059.35559,0.01138
3057.29542,0.01128
3055.23525,0.01131
3053.17508,0.01134
3051.11491,0.01128
3049.05473,0.01114
3046.99456,0.01098
3044.93439,0.01084
3042.87422,0.01074
3040.81404,0.01070
3038.75387,0.01065
3036.69370,0.01051
3034.63353,0.01029
3032.57336,0.01008
3030.51318,0.00996
3028.45301,0.00994
3026.39284,0.01000
3024.33267,0.01004
3022.27250,0.00999
3020.21232,0.00988
3018.15215,0.00982
3016.09198,0.00988
3014.03181,0.00998
3011.97163,0.01002
3009.91146,0.00999
3007.85129,0.00987
3005.79112,0.00970
3003.73095,0.00948
3001.67077,0.00931
2999.61060,0.00927
2997.55043,0.00940
2995.49026,0.00954
2993.43009,0.00949
2991.36991,0.00925
2989.30974,0.00908
2987.24957,0.00911
2985.18940,0.00921
2983.12923,0.00929
2981.06905,0.00939
2979.00888,0.00954
2976.94871,0.00967
2974.88854,0.00966
2972.82836,0.00950
2970.76819,0.00940
2968.70802,0.00951
2966.64785,0.00974
2964.58768,0.01000
2962.52750,0.01028
2960.46733,0.01049
2958.40716,0.01070
2956.34699,0.01095
2954.28682,0.01119
2952.22664,0.01142
2950.16647,0.01167
2948.10630,0.01196
2946.04613,0.01229
2943.98596,0.01258
2941.92578,0.01272
2939.86561,0.01272
2937.80544,0.01277
2935.74527,0.01290
2933.68509,0.01299
2931.62492,0.01291
2929.56475,0.01269
2927.50458,0.01250
2925.44441,0.01246
2923.38423,0.01246
2921.32406,0.01239
2919.26389,0.01231
2917.20372,0.01230
2915.14355,0.01233
2913.08337,0.01232
2911.02320,0.01218
2908.96303,0.01194
2906.90286,0.01176
2904.84268,0.01175
2902.78251,0.01178
2900.72234,0.01174
2898.66217,0.01163
2896.60200,0.01156
2894.54182,0.01153
2892.48165,0.01145
2890.42148,0.01138
2888.36131,0.01133
2886.30114,0.01123
2884.24096,0.01112
2882.18079,0.01106
2880.12062,0.01097
2878.06045,0.01081
2876.00028,0.01066
2873.94010,0.01059
2871.87993,0.01059
2869.81976,0.01065
2867.75959,0.01068
2865.69941,0.01053
2863.63924,0.01017
2861.57907,0.00974
2859.51890,0.00945
2857.45873,0.00940
2855.39855,0.00949
2853.33838,0.00950
2851.27821,0.00936
2849.21804,0.00928
2847.15787,0.00940
2845.09769,0.00947
2843.03752,0.00921
2840.97735,0.00882
2838.91718,0.00856
2836.85700,0.00839
2834.79683,0.00824
2832.73666,0.00815
2830.67649,0.00818
2828.61632,0.00827
2826.55614,0.00832
2824.49597,0.00828
2822.43580,0.00818
2820.37563,0.00804
2818.31546,0.00782
2816.25528,0.00764
2814.19511,0.00760
2812.13494,0.00773
2810.07477,0.00790
2808.01460,0.00795
2805.95442,0.00777
2803.89425,0.00748
2801.83408,0.00732
2799.77391,0.00733
2797.71373,0.00749
2795.65356,0.00770
2793.59339,0.00784
2791.53322,0.00783
2789.47305,0.00774
2787.41287,0.00767
2785.35270,0.00760
2783.29253,0.00752
2781.23236,0.00744
2779.17219,0.00731
2777.11201,0.00709
2775.05184,0.00686
2772.99167,0.00676
2770.93150,0.00678
2768.87133,0.00687
2766.81115,0.00697
2764.75098,0.00701
2762.69081,0.00698
2760.63064,0.00699
2758.57046,0.00707
2756.51029,0.00707
2754.45012,0.00697
2752.38995,0.00681
2750.32978,0.00663
2748.26960,0.00659
2746.20943,0.00676
2744.14926,0.00692
2742.08909,0.00682
2740.02892,0.00646
2737.96874,0.00617
2735.90857,0.00615
2733.84840,0.00632
2731.78823,0.00649
2729.72805,0.00661
2727.66788,0.00663
2725.60771,0.00655
2723.54754,0.00644
2721.48737,0.00642
2719.42719,0.00652
2717.36702,0.00662
2715.30685,0.00669
2713.24668,0.00675
2711.18651,0.00675
2709.12633,0.00663
2707.06616,0.00643
2705.00599,0.00629
2702.94582,0.00627
2700.88565,0.00633
2698.82547,0.00637
2696.76530,0.00643
2694.70513,0.00655
2692.64496,0.00666
2690.58478,0.00667
2688.52461,0.00652
2686.46444,0.00636
2684.40427,0.00629
2682.34410,0.00624
2680.28392,0.00616
2678.22375,0.00616
2676.16358,0.00627
2674.10341,0.00637
2672.04324,0.00634
2669.98306,0.00624
2667.92289,0.00622
2665.86272,0.00623
2663.80255,0.00619
2661.74238,0.00617
2659.68220,0.00624
2657.62203,0.00633
2655.56186,0.00626
2653.50169,0.00600
2651.44151,0.00576
2649.38134,0.00573
2647.32117,0.00587
2645.26100,0.00607
2643.20083,0.00612
2641.14065,0.00588
2639.08048,0.00563
2637.02031,0.00572
2634.96014,0.00599
2632.89997,0.00613
2630.83979,0.00612
2628.77962,0.00605
2626.71945,0.00597
2624.65928,0.00592
2622.59910,0.00584
2620.53893,0.00572
2618.47876,0.00557
2616.41859,0.00542
2614.35842,0.00530
2612.29824,0.00520
2610.23807,0.00508
2608.17790,0.00499
2606.11773,0.00486
2604.05756,0.00471
2601.99738,0.00470
2599.93721,0.00475
2597.87704,0.00469
2595.81687,0.00463
2593.75670,0.00468
2591.69652,0.00472
2589.63635,0.00465
2587.57618,0.00465
2585.51601,0.00483
2583.45583,0.00500
2581.39566,0.00498
2579.33549,0.00492
2577.27532,0.00488
2575.21515,0.00482
2573.15497,0.00464
2571.09480,0.00442
2569.03463,0.00444
2566.97446,0.00477
2564.91429,0.00507
2562.85411,0.00512
2560.79394,0.00506
2558.73377,0.00506
2556.67360,0.00519
2554.61342,0.00539
2552.55325,0.00549
2550.49308,0.00539
2548.43291,0.00516
2546.37274,0.00488
2544.31256,0.00453
2542.25239,0.00410
2540.19222,0.00381
2538.13205,0.00394
2536.07188,0.00435
2534.01170,0.00455
2531.95153,0.00435
2529.89136,0.00405
2527.83119,0.00394
2525.77102,0.00391
2523.71084,0.00378
2521.65067,0.00375
2519.59050,0.00400
2517.53033,0.00440
2515.47015,0.00475
2513.40998,0.00481
2511.34981,0.00445
2509.28964,0.00393
2507.22947,0.00372
2505.16929,0.00389
2503.10912,0.00418
2501.04895,0.00440
2498.98878,0.00447
2496.92861,0.00439
2494.86843,0.00418
2492.80826,0.00395
2490.74809,0.00383
2488.68792,0.00383
2486.62775,0.00376
2484.56757,0.00360
2482.50740,0.00346
2480.44723,0.00338
2478.38706,0.00342
2476.32688,0.00356
2474.26671,0.00360
2472.20654,0.00355
2470.14637,0.00373
2468.08620,0.00408
2466.02602,0.00415
2463.96585,0.00387
2461.90568,0.00383
2459.84551,0.00429
2457.78534,0.00472
2455.72516,0.00456
2453.66499,0.00405
2451.60482,0.00377
2449.54465,0.00398
2447.48447,0.00437
2445.42430,0.00451
2443.36413,0.00433
2441.30396,0.00395
2439.24379,0.00357
2437.18361,0.00332
2435.12344,0.00321
2433.06327,0.00337
2431.00310,0.00380
2428.94293,0.00426
2426.88275,0.00450
2424.82258,0.00443
2422.76241,0.00417
2420.70224,0.00389
2418.64207,0.00358
2416.58189,0.00342
2414.52172,0.00366
2412.46155,0.00406
2410.40138,0.00425
2408.34120,0.00427
2406.28103,0.00419
2404.22086,0.00387
2402.16069,0.00344
2400.10052,0.00320
2398.04034,0.00331
2395.98017,0.00363
2393.92000,0.00391
2391.85983,0.00399
2389.79966,0.00390
2387.73948,0.00383
2385.67931,0.00388
2383.61914,0.00402
2381.55897,0.00409
2379.49880,0.00397
2377.43862,0.00357
2375.37845,0.00304
2373.31828,0.00288
2371.25811,0.00339
2369.19793,0.00434
2367.13776,0.00526
2365.07759,0.00595
2363.01742,0.00620
2360.95725,0.00584
2358.89707,0.00505
2356.83690,0.00432
2354.77673,0.00393
2352.71656,0.00378
2350.65639,0.00365
2348.59621,0.00343
2346.53604,0.00316
2344.47587,0.00292
2342.41570,0.00278
2340.35552,0.00271
2338.29535,0.00261
2336.23518,0.00250
2334.17501,0.00260
2332.11484,0.00312
2330.05466,0.00401
2327.99449,0.00492
2325.93432,0.00538
2323.87415,0.00513
2321.81398,0.00443
2319.75380,0.00388
2317.69363,0.00386
2315.63346,0.00424
2313.57329,0.00464
2311.51312,0.00481
2309.45294,0.00472
2307.39277,0.00455
2305.33260,0.00445
2303.27243,0.00453
2301.21225,0.00472
2299.15208,0.00487
2297.09191,0.00489
2295.03174,0.00489
2292.97157,0.00495
2290.91139,0.00501
2288.85122,0.00496
2286.79105,0.00477
2284.73088,0.00456
2282.67071,0.00436
2280.61053,0.00414
2278.55036,0.00389
2276.49019,0.00364
2274.43002,0.00346
2272.36984,0.00345
2270.30967,0.00364
2268.24950,0.00387
2266.18933,0.00400
2264.12916,0.00399
2262.06898,0.00397
2260.00881,0.00403
2257.94864,0.00408
2255.88847,0.00395
2253.82830,0.00366
2251.76812,0.00342
2249.70795,0.00352
2247.64778,0.00403
2245.58761,0.00435
2243.52744,0.00408
2241.46726,0.00373
2239.40709,0.00392
2237.34692,0.00423
2235.28675,0.00401
2233.22657,0.00355
2231.16640,0.00324
2229.10623,0.00318
2227.04606,0.00338
2224.98589,0.00348
2222.92571,0.00312
2220.86554,0.00272
2218.80537,0.00281
2216.74520,0.00326
2214.68503,0.00360
2212.62485,0.00332
2210.56468,0.00250
2208.50451,0.00180
2206.44434,0.00157
2204.38417,0.00154
2202.32399,0.00153
2200.26382,0.00166
2198.20365,0.00216
2196.14348,0.00298
2194.08330,0.00342
2192.02313,0.00322
2189.96296,0.00316
2187.90279,0.00376
2185.84262,0.00474
2183.78244,0.00544
2181.72227,0.00510
2179.66210,0.00370
2177.60193,0.00244
2175.54176,0.00213
2173.48158,0.00214
2171.42141,0.00187
2169.36124,0.00195
2167.30107,0.00293
2165.24089,0.00411
2163.18072,0.00440
2161.12055,0.00321
2159.06038,0.00121
2157.00021,0.00000
2154.94003,0.00063
2152.87986,0.00250
2150.81969,0.00367
2148.75952,0.00298
2146.69935,0.00160
2144.63917,0.00114
2142.57900,0.00152
2140.51883,0.00191
2138.45866,0.00198
2136.39849,0.00181
2134.33831,0.00152
2132.27814,0.00142
2130.21797,0.00201
2128.15780,0.00298
2126.09762,0.00335
2124.03745,0.00298
2121.97728,0.00275
2119.91711,0.00315
2117.85694,0.00367
2115.79676,0.00369
2113.73659,0.00312
2111.67642,0.00253
2109.61625,0.00244
2107.55608,0.00278
2105.49590,0.00321
2103.43573,0.00362
2101.37556,0.00395
2099.31539,0.00404
2097.25521,0.00392
2095.19504,0.00378
2093.13487,0.00376
2091.07470,0.00385
2089.01453,0.00389
2086.95435,0.00380
2084.89418,0.00363
2082.83401,0.00347
2080.77384,0.00333
2078.71367,0.00328
2076.65349,0.00343
2074.59332,0.00364
2072.53315,0.00362
2070.47298,0.00333
2068.41281,0.00303
2066.35263,0.00295
2064.29246,0.00315
2062.23229,0.00353
2060.17212,0.00396
2058.11194,0.00434
2056.05177,0.00462
2053.99160,0.00493
2051.93143,0.00545
2049.87126,0.00595
2047.81108,0.00596
2045.75091,0.00545
2043.69074,0.00480
2041.63057,0.00430
2039.57040,0.00407
2037.51022,0.00400
2035.45005,0.00366
2033.38988,0.00277
2031.32971,0.00170
2029.26954,0.00105
2027.20936,0.00109
2025.14919,0.00171
2023.08902,0.00253
2021.02885,0.00309
2018.96867,0.00324
2016.90850,0.00314
2014.84833,0.00295
2012.78816,0.00269
2010.72799,0.00229
2008.66781,0.00179
2006.60764,0.00149
2004.54747,0.00167
2002.48730,0.00212
2000.42713,0.00241
1998.36695,0.00244
1996.30678,0.00231
1994.24661,0.00207
1992.18644,0.00185
1990.12626,0.00192
1988.06609,0.00244
1986.00592,0.00311
1983.94575,0.00342
1981.88558,0.00321
1979.82540,0.00259
1977.76523,0.00170
1975.70506,0.00076
1973.64489,0.00014
1971.58472,0.00000
1969.52454,0.00021
1967.46437,0.00064
1965.40420,0.00119
1963.34403,0.00178
1961.28386,0.00246
1959.22368,0.00326
1957.16351,0.00382
1955.10334,0.00371
1953.04317,0.00302
1950.98299,0.00231
1948.92282,0.00199
1946.86265,0.00207
1944.80248,0.00222
1942.74231,0.00220
1940.68213,0.00198
1938.62196,0.00165
1936.56179,0.00132
1934.50162,0.00110
1932.44145,0.00108
1930.38127,0.00123
1928.32110,0.00148
1926.26093,0.00178
1924.20076,0.00218
1922.14059,0.00267
1920.08041,0.00309
1918.02024,0.00328
1915.96007,0.00316
1913.89990,0.00286
1911.83972,0.00257
1909.77955,0.00238
1907.71938,0.00221
1905.65921,0.00201
1903.59904,0.00179
1901.53886,0.00155
1899.47869,0.00132
1897.41852,0.00120
1895.35835,0.00126
1893.29818,0.00144
1891.23800,0.00167
1889.17783,0.00192
1887.11766,0.00208
1885.05749,0.00201
1882.99731,0.00174
1880.93714,0.00142
1878.87697,0.00119
1876.81680,0.00107
1874.75663,0.00109
1872.69645,0.00124
1870.63628,0.00155
1868.57611,0.00191
1866.51594,0.00213
1864.45577,0.00209
1862.39559,0.00193
1860.33542,0.00183
1858.27525,0.00179
1856.21508,0.00178
1854.15491,0.00179
1852.09473,0.00182
1850.03456,0.00182
1847.97439,0.00175
1845.91422,0.00158
1843.85404,0.00139
1841.79387,0.00134
1839.73370,0.00149
1837.67353,0.00170
1835.61336,0.00178
1833.55318,0.00165
1831.49301,0.00141
1829.43284,0.00117
1827.37267,0.00102
1825.31250,0.00100
1823.25232,0.00107
1821.19215,0.00119
1819.13198,0.00133
1817.07181,0.00147
1815.01163,0.00155
1812.95146,0.00152
1810.89129,0.00143
1808.83112,0.00141
1806.77095,0.00149
1804.71077,0.00158
1802.65060,0.00162
1800.59043,0.00158
1798.53026,0.00146
1796.47009,0.00130
1794.40991,0.00116
1792.34974,0.00109
1790.28957,0.00111
1788.22940,0.00118
1786.16923,0.00126
1784.10905,0.00136
1782.04888,0.00144
1779.98871,0.00145
1777.92854,0.00135
1775.86836,0.00121
1773.80819,0.00113
1771.74802,0.00121
1769.68785,0.00141
1767.62768,0.00165
1765.56750,0.00188
1763.50733,0.00211
1761.44716,0.00236
1759.38699,0.00263
1757.32682,0.00290
1755.26664,0.00312
1753.20647,0.00328
1751.14630,0.00344
1749.08613,0.00363
1747.02596,0.00386
1744.96578,0.00408
1742.90561,0.00428
1740.84544,0.00452
1738.78527,0.00482
1736.72509,0.00511
1734.66492,0.00526
1732.60475,0.00526
1730.54458,0.00524
1728.48441,0.00526
1726.42423,0.00526
1724.36406,0.00517
1722.30389,0.00500
1720.24372,0.00473
1718.18355,0.00438
1716.12337,0.00403
1714.06320,0.00376
1712.00303,0.00357
1709.94286,0.00335
1707.88268,0.00304
1705.82251,0.00267
1703.76234,0.00236
1701.70217,0.00220
1699.64200,0.00221
1697.58182,0.00231
1695.52165,0.00251
1693.46148,0.00281
1691.40131,0.00305
1689.34114,0.00313
1687.28096,0.00305
1685.22079,0.00296
1683.16062,0.00303
1681.10045,0.00331
1679.04028,0.00367
1676.98010,0.00395
1674.91993,0.00415
1672.85976,0.00436
1670.79959,0.00472
1668.73941,0.00529
1666.67924,0.00597
1664.61907,0.00659
1662.55890,0.00704
1660.49873,0.00730
1658.43855,0.00738
1656.37838,0.00733
1654.31821,0.00728
1652.25804,0.00737
1650.19787,0.00765
1648.13769,0.00801
1646.07752,0.00835
1644.01735,0.00860
1641.95718,0.00872
1639.89701,0.00871
1637.83683,0.00866
1635.77666,0.00870
1633.71649,0.00891
1631.65632,0.00919
1629.59614,0.00937
1627.53597,0.00942
1625.47580,0.00943
1623.41563,0.00946
1621.35546,0.00959
1619.29528,0.00974
1617.23511,0.00982
1615.17494,0.00980
1613.11477,0.00973
1611.05460,0.00960
1608.99442,0.00942
1606.93425,0.00922
1604.87408,0.00898
1602.81391,0.00871
1600.75373,0.00841
1598.69356,0.00802
1596.63339,0.00751
1594.57322,0.00695
1592.51305,0.00644
1590.45287,0.00600
1588.39270,0.00562
1586.33253,0.00523
1584.27236,0.00485
1582.21219,0.00447
1580.15201,0.00406
1578.09184,0.00358
1576.03167,0.00312
1573.97150,0.00281
1571.91133,0.00261
1569.85115,0.00244
1567.79098,0.00229
1565.73081,0.00216
1563.67064,0.00197
1561.61046,0.00164
1559.55029,0.00127
1557.49012,0.00108
1555.42995,0.00114
1553.36978,0.00132
1551.30960,0.00152
1549.24943,0.00165
1547.18926,0.00167
1545.12909,0.00151
1543.06892,0.00118
1541.00874,0.00079
1538.94857,0.00059
1536.88840,0.00065
1534.82823,0.00087
1532.76805,0.00113
1530.70788,0.00131
1528.64771,0.00125
1526.58754,0.00093
1524.52737,0.00049
1522.46719,0.00013
1520.40702,0.00000
1518.34685,0.00010
1516.28668,0.00031
1514.22651,0.00052
1512.16633,0.00060
1510.10616,0.00053
1508.04599,0.00042
1505.98582,0.00047
1503.92565,0.00073
1501.86547,0.00100
1499.80530,0.00114
1497.74513,0.00119
1495.68496,0.00126
1493.62478,0.00134
1491.56461,0.00133
1489.50444,0.00129
1487.44427,0.00134
1485.38410,0.00155
1483.32392,0.00184
1481.26375,0.00213
1479.20358,0.00237
1477.14341,0.00255
1475.08324,0.00270
1473.02306,0.00291
1470.96289,0.00323
1468.90272,0.00358
1466.84255,0.00387
1464.78238,0.00406
1462.72220,0.00414
1460.66203,0.00411
1458.60186,0.00404
1456.54169,0.00412
1454.48151,0.00439
1452.42134,0.00476
1450.36117,0.00512
1448.30100,0.00545
1446.24083,0.00575
1444.18065,0.00601
1442.12048,0.00624
1440.06031,0.00643
1438.00014,0.00656
1435.93997,0.00667
1433.87979,0.00681
1431.81962,0.00700
1429.75945,0.00724
1427.69928,0.00750
1425.63910,0.00775
1423.57893,0.00796
1421.51876,0.00808
1419.45859,0.00811
1417.39842,0.00813
1415.33824,0.00821
1413.27807,0.00832
1411.21790,0.00837
1409.15773,0.00830
1407.09756,0.00814
1405.03738,0.00794
1402.97721,0.00774
1400.91704,0.00753
1398.85687,0.00734
1396.79670,0.00722
1394.73652,0.00715
1392.67635,0.00709
1390.61618,0.00701
1388.55601,0.00696
1386.49583,0.00701
1384.43566,0.00717
1382.37549,0.00739
1380.31532,0.00759
1378.25515,0.00774
1376.19497,0.00783
1374.13480,0.00789
1372.07463,0.00791
1370.01446,0.00788
1367.95429,0.00777
1365.89411,0.00762
1363.83394,0.00744
1361.77377,0.00730
1359.71360,0.00724
1357.65343,0.00721
1355.59325,0.00716
1353.53308,0.00707
1351.47291,0.00697
1349.41274,0.00687
1347.35256,0.00683
1345.29239,0.00680
1343.23222,0.00673
1341.17205,0.00656
1339.11188,0.00637
1337.05170,0.00627
1334.99153,0.00628
1332.93136,0.00633
1330.87119,0.00636
1328.81102,0.00640
1326.75084,0.00646
1324.69067,0.00652
1322.63050,0.00655
1320.57033,0.00655
1318.51015,0.00656
1316.44998,0.00657
1314.38981,0.00658
1312.32964,0.00657
1310.26947,0.00654
1308.20929,0.00647
1306.14912,0.00639
1304.08895,0.00629
1302.02878,0.00617
1299.96861,0.00602
1297.90843,0.00583
1295.84826,0.00562
1293.78809,0.00546
1291.72792,0.00540
1289.66775,0.00540
1287.60757,0.00541
1285.54740,0.00538
1283.48723,0.00535
1281.42706,0.00535
1279.36688,0.00538
1277.30671,0.00542
1275.24654,0.00546
1273.18637,0.00553
1271.12620,0.00565
1269.06602,0.00580
1267.00585,0.00597
1264.94568,0.00616
1262.88551,0.00641
1260.82534,0.00674
1258.76516,0.00708
1256.70499,0.00734
1254.64482,0.00749
1252.58465,0.00758
1250.52447,0.00764
1248.46430,0.00770
1246.40413,0.00774
1244.34396,0.00772
1242.28379,0.00761
1240.22361,0.00744
1238.16344,0.00721
1236.10327,0.00698
1234.04310,0.00676
1231.98293,0.00654
1229.92275,0.00628
1227.86258,0.00599
1225.80241,0.00568
1223.74224,0.00540
1221.68207,0.00518
1219.62189,0.00504
1217.56172,0.00492
1215.50155,0.00472
1213.44138,0.00439
1211.38120,0.00392
1209.32103,0.00339
1207.26086,0.00289
1205.20069,0.00245
1203.14052,0.00200
1201.08034,0.00155
1199.02017,0.00110
1196.96000,0.00073
1194.89983,0.00043
1192.83966,0.00020
1190.77948,0.00004
1188.71931,0.00000
1186.65914,0.00007
1184.59897,0.00019
1182.53880,0.00031
1180.47862,0.00049
1178.41845,0.00080
1176.35828,0.00123
1174.29811,0.00173
1172.23793,0.00224
1170.17776,0.00276
1168.11759,0.00332
1166.05742,0.00381
1163.99725,0.00412
1161.93707,0.00441
1159.87690,0.00491
1157.81673,0.00550
1155.75656,0.00592
1153.69639,0.00621
1151.63621,0.00657
1149.57604,0.00699
1147.51587,0.00733
1145.45570,0.00759
1143.39552,0.00786
1141.33535,0.00808
1139.27518,0.00817
1137.21501,0.00821
1135.15484,0.00828
1133.09466,0.00836
1131.03449,0.00851
1128.97432,0.00881
1126.91415,0.00926
1124.85398,0.00984
1122.79380,0.01048
1120.73363,0.01104
1118.67346,0.01142
1116.61329,0.01161
1114.55312,0.01178
1112.49294,0.01207
1110.43277,0.01249
1108.37260,0.01299
1106.31243,0.01350
1104.25225,0.01394
1102.19208,0.01432
1100.13191,0.01481
1098.07174,0.01548
1096.01157,0.01623
1093.95139,0.01688
1091.89122,0.01731
1089.83105,0.01764
1087.77088,0.01815
1085.71071,0.01880
1083.65053,0.01940
1081.59036,0.01989
1079.53019,0.02034
1077.47002,0.02070
1075.40985,0.02102
1073.34967,0.02147
1071.28950,0.02205
1069.22933,0.02251
1067.16916,0.02279
1065.10898,0.02301
1063.04881,0.02329
1060.98864,0.02361
1058.92847,0.02389
1056.86830,0.02405
1054.80812,0.02409
1052.74795,0.02414
1050.68778,0.02434
1048.62761,0.02480
1046.56744,0.02549
1044.50726,0.02606
1042.44709,0.02634
1040.38692,0.02651
1038.32675,0.02677
1036.26657,0.02709
1034.20640,0.02730
1032.14623,0.02729
1030.08606,0.02713
1028.02589,0.02709
1025.96571,0.02730
1023.90554,0.02755
1021.84537,0.02759
1019.78520,0.02757
1017.72503,0.02776
1015.66485,0.02798
1013.60468,0.02799
1011.54451,0.02786
1009.48434,0.02771
1007.42417,0.02755
1005.36399,0.02727
1003.30382,0.02686
1001.24365,0.02649
999.18348,0.02621
997.12330,0.02593
995.06313,0.02558
993.00296,0.02515
990.94279,0.02475
988.88262,0.02448
986.82244,0.02426
984.76227,0.02407
982.70210,0.02394
980.64193,0.02377
978.58176,0.02354
976.52158,0.02332
974.46141,0.02305
972.40124,0.02271
970.34107,0.02255
968.28089,0.02256
966.22072,0.02242
964.16055,0.02203
962.10038,0.02153
960.04021,0.02105
957.98003,0.02066
955.91986,0.02039
953.85969,0.02014
951.79952,0.01978
949.73935,0.01937
947.67917,0.01887
945.61900,0.01820
943.55883,0.01747
941.49866,0.01674
939.43849,0.01573
937.37831,0.01450
935.31814,0.01340
933.25797,0.01252
931.19780,0.01180
929.13762,0.01116
927.07745,0.01036
925.01728,0.00934
922.95711,0.00834
920.89694,0.00761
918.83676,0.00712
916.77659,0.00663
914.71642,0.00610
912.65625,0.00567
910.59608,0.00542
908.53590,0.00519
906.47573,0.00485
904.41556,0.00462
902.35539,0.00470
900.29522,0.00492
898.23504,0.00506
896.17487,0.00485
894.11470,0.00435
892.05453,0.00400
889.99435,0.00402
887.93418,0.00417
885.87401,0.00415
883.81384,0.00391
881.75367,0.00348
879.69349,0.00298
877.63332,0.00268
875.57315,0.00262
873.51298,0.00256
871.45281,0.00243
869.39263,0.00228
867.33246,0.00213
865.27229,0.00205
863.21212,0.00207
861.15194,0.00211
859.09177,0.00207
857.03160,0.00193
854.97143,0.00169
852.91126,0.00143
850.85108,0.00119
848.79091,0.00091
846.73074,0.00062
844.67057,0.00047
842.61040,0.00048
840.55022,0.00041
838.49005,0.00012
836.42988,0.00000
834.36971,0.00031
832.30954,0.00064
830.24936,0.00064
828.18919,0.00042
826.12902,0.00024
824.06885,0.00019
822.00867,0.00024
819.94850,0.00019
817.88833,0.00009
815.82816,0.00016
813.76799,0.00045
811.70781,0.00077
809.64764,0.00107
807.58747,0.00137
805.52730,0.00154
803.46713,0.00147
801.40695,0.00117
799.34678,0.00064
797.28661,0.00020
795.22644,0.00030
793.16627,0.00079
791.10609,0.00121
789.04592,0.00149
786.98575,0.00166
784.92558,0.00168
782.86540,0.00142
780.80523,0.00088
778.74506,0.00033
776.68489,0.00009
774.62472,0.00019
772.56454,0.00039
770.50437,0.00037
768.44420,0.00028
766.38403,0.00048
764.32386,0.00093
762.26368,0.00129
760.20351,0.00142
758.14334,0.00133
756.08317,0.00101
754.02299,0.00067
751.96282,0.00064
749.90265,0.00075
747.84248,0.00062
745.78231,0.00024
743.72213,0.00000
741.66196,0.00001
739.60179,0.00018
737.54162,0.00047
735.48145,0.00071
733.42127,0.00048
731.36110,-0.00009
729.30093,-0.00043
727.24076,-0.00033
725.18059,-0.00000
723.12041,0.00027
721.06024,0.00044
719.00007,0.00061
716.93990,0.00095
714.87972,0.00153
712.81955,0.00222
710.75938,0.00275
708.69921,0.00301
706.63904,0.00318
704.57886,0.00340
702.51869,0.00357
700.45852,0.00347
698.39835,0.00312
696.33818,0.00277
694.27800,0.00268
692.21783,0.00286
690.15766,0.00311
688.09749,0.00334
686.03731,0.00358
683.97714,0.00378
681.91697,0.00373
679.85680,0.00326
677.79663,0.00244
675.73645,0.00168
673.67628,0.00139
671.61611,0.00153
669.55594,0.00173
667.49577,0.00168
665.43559,0.00131
663.37542,0.00081
661.31525,0.00045
659.25508,0.00038
657.19491,0.00050
655.13473,0.00069
653.07456,0.00105
651.01439,0.00172
648.95422,0.00272
646.89404,0.00375
644.83387,0.00437
642.77370,0.00433
640.71353,0.00365
638.65336,0.00254
636.59318,0.00156
634.53301,0.00123
632.47284,0.00146
630.41267,0.00181
628.35250,0.00199
626.29232,0.00179
624.23215,0.00093
622.17198,0.00000
620.11181,-0.00042
618.05164,-0.00008
615.99146,0.00011
613.93129,0.00023
611.87112,0.00094
609.81095,0.00148
607.75077,0.00069
605.69060,-0.00038
603.63043,-0.00023
601.57026,0.00024
599.51009,0.00000
