3996.73391,0.00000
3994.67373,0.00018
3992.61356,0.00036
3990.55339,0.00048
3988.49322,0.00050
3986.43305,0.00047
3984.37287,0.00045
3982.31270,0.00046
3980.25253,0.00044
3978.19236,0.00036
3976.13219,0.00028
3974.07201,0.00028
3972.01184,0.00038
3969.95167,0.00050
3967.89150,0.00055
3965.83133,0.00060
3963.77115,0.00070
3961.71098,0.00084
3959.65081,0.00093
3957.59064,0.00092
3955.53046,0.00083
3953.47029,0.00069
3951.41012,0.00054
3949.34995,0.00043
3947.28978,0.00046
3945.22960,0.00066
3943.16943,0.00099
3941.10926,0.00131
3939.04909,0.00151
3936.98892,0.00154
3934.92874,0.00142
3932.86857,0.00123
3930.80840,0.00104
3928.74823,0.00085
3926.68805,0.00065
3924.62788,0.00050
3922.56771,0.00047
3920.50754,0.00061
3918.44737,0.00078
3916.38719,0.00086
3914.32702,0.00083
3912.26685,0.00078
3910.20668,0.00070
3908.14651,0.00051
3906.08633,0.00028
3904.02616,0.00025
3901.96599,0.00055
3899.90582,0.00099
3897.84565,0.00125
3895.78547,0.00123
3893.72530,0.00105
3891.66513,0.00090
3889.60496,0.00093
3887.54478,0.00110
3885.48461,0.00125
3883.42444,0.00123
3881.36427,0.00109
3879.30410,0.00094
3877.24392,0.00081
3875.18375,0.00071
3873.12358,0.00076
3871.06341,0.00102
3869.00324,0.00138
3866.94306,0.00164
3864.88289,0.00160
3862.82272,0.00130
3860.76255,0.00101
3858.70237,0.00096
3856.64220,0.00107
3854.58203,0.00115
3852.52186,0.00108
3850.46169,0.00089
3848.40151,0.00065
3846.34134,0.00040
3844.28117,0.00022
3842.22100,0.00018
3840.16083,0.00024
3838.10065,0.00038
3836.04048,0.00061
3833.98031,0.00088
3831.92014,0.00100
3829.85997,0.00087
3827.79979,0.00061
3825.73962,0.00042
3823.67945,0.00037
3821.61928,0.00043
3819.55910,0.00053
3817.49893,0.00062
3815.43876,0.00071
3813.37859,0.00081
3811.31842,0.00096
3809.25824,0.00117
3807.19807,0.00137
3805.13790,0.00144
3803.07773,0.00129
3801.01756,0.00101
3798.95738,0.00079
3796.89721,0.00073
3794.83704,0.00079
3792.77687,0.00093
3790.71670,0.00108
3788.65652,0.00110
3786.59635,0.00099
3784.53618,0.00085
3782.47601,0.00077
3780.41583,0.00076
3778.35566,0.00085
3776.29549,0.00104
3774.23532,0.00124
3772.17515,0.00132
3770.11497,0.00121
3768.05480,0.00098
3765.99463,0.00081
3763.93446,0.00090
3761.87429,0.00132
3759.81411,0.00192
3757.75394,0.00247
3755.69377,0.00280
3753.63360,0.00280
3751.57342,0.00241
3749.51325,0.00169
3747.45308,0.00088
3745.39291,0.00023
3743.33274,0.00000
3741.27256,0.00027
3739.21239,0.00086
3737.15222,0.00149
3735.09205,0.00194
3733.03188,0.00210
3730.97170,0.00195
3728.91153,0.00162
3726.85136,0.00129
3724.79119,0.00108
3722.73102,0.00109
3720.67084,0.00131
3718.61067,0.00165
3716.55050,0.00202
3714.49033,0.00234
3712.43015,0.00251
3710.36998,0.00242
3708.30981,0.00217
3706.24964,0.00194
3704.18947,0.00178
3702.12929,0.00158
3700.06912,0.00135
3698.00895,0.00123
3695.94878,0.00134
3693.88861,0.00162
3691.82843,0.00191
3689.76826,0.00199
3687.70809,0.00182
3685.64792,0.00160
3683.58775,0.00150
3681.52757,0.00155
3679.46740,0.00164
3677.40723,0.00159
3675.34706,0.00132
3673.28688,0.00098
3671.22671,0.00091
3669.16654,0.00125
3667.10637,0.00177
3665.04620,0.00214
3662.98602,0.00225
3660.92585,0.00224
3658.86568,0.00237
3656.80551,0.00274
3654.74534,0.00327
3652.68516,0.00376
3650.62499,0.00396
3648.56482,0.00384
3646.50465,0.00364
3644.44447,0.00359
3642.38430,0.00371
3640.32413,0.00395
3638.26396,0.00428
3636.20379,0.00465
3634.14361,0.00501
3632.08344,0.00531
3630.02327,0.00554
3627.96310,0.00570
3625.90293,0.00578
3623.84275,0.00580
3621.78258,0.00579
3619.72241,0.00583
3617.66224,0.00591
3615.60207,0.00605
3613.54189,0.00623
3611.48172,0.00644
3609.42155,0.00661
3607.36138,0.00677
3605.30120,0.00703
3603.24103,0.00749
3601.18086,0.00811
3599.12069,0.00872
3597.06052,0.00911
3595.00034,0.00921
3592.94017,0.00912
3590.88000,0.00897
3588.81983,0.00892
3586.75966,0.00908
3584.69948,0.00948
3582.63931,0.01004
3580.57914,0.01062
3578.51897,0.01109
3576.45879,0.01143
3574.39862,0.01168
3572.33845,0.01185
3570.27828,0.01197
3568.21811,0.01210
3566.15793,0.01226
3564.09776,0.01244
3562.03759,0.01264
3559.97742,0.01287
3557.91725,0.01315
3555.85707,0.01349
3553.79690,0.01389
3551.73673,0.01427
3549.67656,0.01461
3547.61639,0.01489
3545.55621,0.01516
3543.49604,0.01552
3541.43587,0.01600
3539.37570,0.01652
3537.31552,0.01691
3535.25535,0.01714
3533.19518,0.01733
3531.13501,0.01753
3529.07484,0.01772
3527.01466,0.01789
3524.95449,0.01806
3522.89432,0.01820
3520.83415,0.01833
3518.77398,0.01853
3516.71380,0.01886
3514.65363,0.01932
3512.59346,0.01985
3510.53329,0.02032
3508.47312,0.02065
3506.41294,0.02083
3504.35277,0.02093
3502.29260,0.02107
3500.23243,0.02131
3498.17225,0.02160
3496.11208,0.02185
3494.05191,0.02200
3491.99174,0.02211
3489.93157,0.02221
3487.87139,0.02229
3485.81122,0.02239
3483.75105,0.02255
3481.69088,0.02279
3479.63071,0.02302
3477.57053,0.02322
3475.51036,0.02345
3473.45019,0.02377
3471.39002,0.02417
3469.32984,0.02459
3467.26967,0.02498
3465.20950,0.02532
3463.14933,0.02564
3461.08916,0.02596
3459.02898,0.02624
3456.96881,0.02644
3454.90864,0.02660
3452.84847,0.02674
3450.78830,0.02688
3448.72812,0.02704
3446.66795,0.02730
3444.60778,0.02762
3442.54761,0.02787
3440.48744,0.02798
3438.42726,0.02797
3436.36709,0.02793
3434.30692,0.02795
3432.24675,0.02809
3430.18657,0.02831
3428.12640,0.02854
3426.06623,0.02879
3424.00606,0.02906
3421.94589,0.02933
3419.88571,0.02960
3417.82554,0.02986
3415.76537,0.03008
3413.70520,0.03027
3411.64503,0.03044
3409.58485,0.03059
3407.52468,0.03067
3405.46451,0.03064
3403.40434,0.03060
3401.34416,0.03063
3399.28399,0.03073
3397.22382,0.03082
3395.16365,0.03085
3393.10348,0.03088
3391.04330,0.03101
3388.98313,0.03124
3386.92296,0.03150
3384.86279,0.03176
3382.80262,0.03209
3380.74244,0.03247
3378.68227,0.03278
3376.62210,0.03299
3374.56193,0.03317
3372.50176,0.03339
3370.44158,0.03362
3368.38141,0.03381
3366.32124,0.03390
3364.26107,0.03386
3362.20089,0.03370
3360.14072,0.03347
3358.08055,0.03331
3356.02038,0.03340
3353.96021,0.03376
3351.90003,0.03424
3349.83986,0.03459
3347.77969,0.03473
3345.71952,0.03472
3343.65935,0.03467
3341.59917,0.03465
3339.53900,0.03472
3337.47883,0.03482
3335.41866,0.03486
3333.35849,0.03478
3331.29831,0.03464
3329.23814,0.03452
3327.17797,0.03445
3325.11780,0.03442
3323.05762,0.03440
3320.99745,0.03438
3318.93728,0.03438
3316.87711,0.03447
3314.81694,0.03460
3312.75676,0.03470
3310.69659,0.03477
3308.63642,0.03490
3306.57625,0.03508
3304.51608,0.03520
3302.45590,0.03522
3300.39573,0.03523
3298.33556,0.03530
3296.27539,0.03544
3294.21521,0.03551
3292.15504,0.03547
3290.09487,0.03536
3288.03470,0.03531
3285.97453,0.03531
3283.91435,0.03531
3281.85418,0.03531
3279.79401,0.03530
3277.73384,0.03526
3275.67367,0.03518
3273.61349,0.03509
3271.55332,0.03500
3269.49315,0.03486
3267.43298,0.03472
3265.37281,0.03467
3263.31263,0.03472
3261.25246,0.03478
3259.19229,0.03478
3257.13212,0.03471
3255.07194,0.03462
3253.01177,0.03455
3250.95160,0.03452
3248.89143,0.03450
3246.83126,0.03446
3244.77108,0.03438
3242.71091,0.03427
3240.65074,0.03412
3238.59057,0.03395
3236.53040,0.03384
3234.47022,0.03382
3232.41005,0.03385
3230.34988,0.03387
3228.28971,0.03381
3226.22954,0.03365
3224.16936,0.03338
3222.10919,0.03310
3220.04902,0.03283
3217.98885,0.03254
3215.92867,0.03227
3213.86850,0.03208
3211.80833,0.03199
3209.74816,0.03197
3207.68799,0.03197
3205.62781,0.03192
3203.56764,0.03182
3201.50747,0.03166
3199.44730,0.03148
3197.38713,0.03131
3195.32695,0.03120
3193.26678,0.03112
3191.20661,0.03103
3189.14644,0.03093
3187.08626,0.03084
3185.02609,0.03071
3182.96592,0.03046
3180.90575,0.03013
3178.84558,0.02980
3176.78540,0.02945
3174.72523,0.02909
3172.66506,0.02881
3170.60489,0.02867
3168.54472,0.02858
3166.48454,0.02842
3164.42437,0.02815
3162.36420,0.02779
3160.30403,0.02741
3158.24386,0.02712
3156.18368,0.02693
3154.12351,0.02679
3152.06334,0.02665
3150.00317,0.02649
3147.94299,0.02630
3145.88282,0.02605
3143.82265,0.02574
3141.76248,0.02537
3139.70231,0.02497
3137.64213,0.02461
3135.58196,0.02435
3133.52179,0.02418
3131.46162,0.02407
3129.40145,0.02395
3127.34127,0.02378
3125.28110,0.02352
3123.22093,0.02318
3121.16076,0.02278
3119.10058,0.02234
3117.04041,0.02188
3114.98024,0.02150
3112.92007,0.02131
3110.85990,0.02130
3108.79972,0.02135
3106.73955,0.02130
3104.67938,0.02114
3102.61921,0.02087
3100.55904,0.02054
3098.49886,0.02020
3096.43869,0.01994
3094.37852,0.01980
3092.31835,0.01974
3090.25818,0.01968
3088.19800,0.01952
3086.13783,0.01923
3084.07766,0.01885
3082.01749,0.01849
3079.95731,0.01821
3077.89714,0.01797
3075.83697,0.01772
3073.77680,0.01744
3071.71663,0.01717
3069.65645,0.01694
3067.59628,0.01672
3065.53611,0.01645
3063.47594,0.01612
3061.41577,0.01580
3059.35559,0.01553
3057.29542,0.01530
3055.23525,0.01510
3053.17508,0.01495
3051.11491,0.01487
3049.05473,0.01483
3046.99456,0.01478
3044.93439,0.01464
3042.87422,0.01444
3040.81404,0.01420
3038.75387,0.01394
3036.69370,0.01367
3034.63353,0.01345
3032.57336,0.01329
3030.51318,0.01320
3028.45301,0.01315
3026.39284,0.01313
3024.33267,0.01313
3022.27250,0.01312
3020.21232,0.01311
3018.15215,0.01310
3016.09198,0.01302
3014.03181,0.01284
3011.97163,0.01257
3009.91146,0.01231
3007.85129,0.01215
3005.79112,0.01209
3003.73095,0.01206
3001.67077,0.01203
2999.61060,0.01205
2997.55043,0.01215
2995.49026,0.01227
2993.43009,0.01233
2991.36991,0.01227
2989.30974,0.01219
2987.24957,0.01221
2985.18940,0.01234
2983.12923,0.01251
2981.06905,0.01260
2979.00888,0.01260
2976.94871,0.01264
2974.88854,0.01270
2972.82836,0.01274
2970.76819,0.01284
2968.70802,0.01306
2966.64785,0.01333
2964.58768,0.01356
2962.52750,0.01378
2960.46733,0.01398
2958.40716,0.01426
2956.34699,0.01470
2954.28682,0.01521
2952.22664,0.01564
2950.16647,0.01597
2948.10630,0.01629
2946.04613,0.01671
2943.98596,0.01705
2941.92578,0.01710
2939.86561,0.01702
2937.80544,0.01715
2935.74527,0.01739
2933.68509,0.01750
2931.62492,0.01752
2929.56475,0.01754
2927.50458,0.01754
2925.44441,0.01748
2923.38423,0.01728
2921.32406,0.01703
2919.26389,0.01682
2917.20372,0.01662
2915.14355,0.01636
2913.08337,0.01613
2911.02320,0.01604
2908.96303,0.01605
2906.90286,0.01597
2904.84268,0.01572
2902.78251,0.01546
2900.72234,0.01538
2898.66217,0.01544
2896.60200,0.01550
2894.54182,0.01547
2892.48165,0.01534
2890.42148,0.01528
2888.36131,0.01531
2886.30114,0.01522
2884.24096,0.01497
2882.18079,0.01474
2880.12062,0.01456
2878.06045,0.01433
2876.00028,0.01404
2873.94010,0.01387
2871.87993,0.01383
2869.81976,0.01375
2867.75959,0.01354
2865.69941,0.01326
2863.63924,0.01301
2861.57907,0.01283
2859.51890,0.01270
2857.45873,0.01269
2855.39855,0.01279
2853.33838,0.01280
2851.27821,0.01257
2849.21804,0.01218
2847.15787,0.01176
2845.09769,0.01140
2843.03752,0.01116
2840.97735,0.01101
2838.91718,0.01089
2836.85700,0.01075
2834.79683,0.01052
2832.73666,0.01037
2830.67649,0.01043
2828.61632,0.01048
2826.55614,0.01032
2824.49597,0.01006
2822.43580,0.00989
2820.37563,0.00987
2818.31546,0.00982
2816.25528,0.00967
2814.19511,0.00950
2812.13494,0.00945
2810.07477,0.00962
2808.01460,0.00994
2805.95442,0.01014
2803.89425,0.01006
2801.83408,0.00983
2799.77391,0.00967
2797.71373,0.00964
2795.65356,0.00964
2793.59339,0.00960
2791.53322,0.00953
2789.47305,0.00946
2787.41287,0.00938
2785.35270,0.00931
2783.29253,0.00926
2781.23236,0.00915
2779.17219,0.00899
2777.11201,0.00881
2775.05184,0.00862
2772.99167,0.00843
2770.93150,0.00836
2768.87133,0.00835
2766.81115,0.00825
2764.75098,0.00811
2762.69081,0.00809
2760.63064,0.00823
2758.57046,0.00838
2756.51029,0.00841
2754.45012,0.00839
2752.38995,0.00842
2750.32978,0.00846
2748.26960,0.00844
2746.20943,0.00845
2744.14926,0.00845
2742.08909,0.00830
2740.02892,0.00801
2737.96874,0.00777
2735.90857,0.00773
2733.84840,0.00790
2731.78823,0.00814
2729.72805,0.00821
2727.66788,0.00800
2725.60771,0.00767
2723.54754,0.00751
2721.48737,0.00764
2719.42719,0.00785
2717.36702,0.00788
2715.30685,0.00773
2713.24668,0.00758
2711.18651,0.00754
2709.12633,0.00758
2707.06616,0.00760
2705.00599,0.00758
2702.94582,0.00750
2700.88565,0.00738
2698.82547,0.00736
2696.76530,0.00749
2694.70513,0.00766
2692.64496,0.00772
2690.58478,0.00757
2688.52461,0.00725
2686.46444,0.00700
2684.40427,0.00698
2682.34410,0.00705
2680.28392,0.00706
2678.22375,0.00700
2676.16358,0.00693
2674.10341,0.00688
2672.04324,0.00690
2669.98306,0.00698
2667.92289,0.00702
2665.86272,0.00690
2663.80255,0.00676
2661.74238,0.00679
2659.68220,0.00691
2657.62203,0.00693
2655.56186,0.00678
2653.50169,0.00658
2651.44151,0.00647
2649.38134,0.00654
2647.32117,0.00675
2645.26100,0.00696
2643.20083,0.00697
2641.14065,0.00675
2639.08048,0.00653
2637.02031,0.00656
2634.96014,0.00672
2632.89997,0.00674
2630.83979,0.00662
2628.77962,0.00651
2626.71945,0.00642
2624.65928,0.00630
2622.59910,0.00610
2620.53893,0.00596
2618.47876,0.00610
2616.41859,0.00643
2614.35842,0.00663
2612.29824,0.00647
2610.23807,0.00604
2608.17790,0.00567
2606.11773,0.00545
2604.05756,0.00528
2601.99738,0.00511
2599.93721,0.00499
2597.87704,0.00500
2595.81687,0.00509
2593.75670,0.00507
2591.69652,0.00489
2589.63635,0.00475
2587.57618,0.00480
2585.51601,0.00501
2583.45583,0.00523
2581.39566,0.00538
2579.33549,0.00538
2577.27532,0.00523
2575.21515,0.00500
2573.15497,0.00487
2571.09480,0.00488
2569.03463,0.00501
2566.97446,0.00531
2564.91429,0.00567
2562.85411,0.00579
2560.79394,0.00567
2558.73377,0.00547
2556.67360,0.00530
2554.61342,0.00531
2552.55325,0.00539
2550.49308,0.00527
2548.43291,0.00503
2546.37274,0.00499
2544.31256,0.00509
2542.25239,0.00503
2540.19222,0.00479
2538.13205,0.00468
2536.07188,0.00474
2534.01170,0.00470
2531.95153,0.00439
2529.89136,0.00409
2527.83119,0.00423
2525.77102,0.00479
2523.71084,0.00524
2521.65067,0.00526
2519.59050,0.00513
2517.53033,0.00531
2515.47015,0.00565
2513.40998,0.00564
2511.34981,0.00523
2509.28964,0.00488
2507.22947,0.00492
2505.16929,0.00501
2503.10912,0.00479
2501.04895,0.00448
2498.98878,0.00440
2496.92861,0.00455
2494.86843,0.00473
2492.80826,0.00471
2490.74809,0.00447
2488.68792,0.00427
2486.62775,0.00427
2484.56757,0.00434
2482.50740,0.00431
2480.44723,0.00421
2478.38706,0.00422
2476.32688,0.00450
2474.26671,0.00479
2472.20654,0.00480
2470.14637,0.00470
2468.08620,0.00476
2466.02602,0.00479
2463.96585,0.00464
2461.90568,0.00450
2459.84551,0.00451
2457.78534,0.00446
2455.72516,0.00427
2453.66499,0.00408
2451.60482,0.00406
2449.54465,0.00427
2447.48447,0.00451
2445.42430,0.00448
2443.36413,0.00419
2441.30396,0.00389
2439.24379,0.00377
2437.18361,0.00384
2435.12344,0.00400
2433.06327,0.00414
2431.00310,0.00425
2428.94293,0.00439
2426.88275,0.00454
2424.82258,0.00459
2422.76241,0.00448
2420.70224,0.00420
2418.64207,0.00381
2416.58189,0.00369
2414.52172,0.00402
2412.46155,0.00438
2410.40138,0.00430
2408.34120,0.00403
2406.28103,0.00396
2404.22086,0.00392
2402.16069,0.00379
2400.10052,0.00372
2398.04034,0.00380
2395.98017,0.00392
2393.92000,0.00399
2391.85983,0.00400
2389.79966,0.00396
2387.73948,0.00398
2385.67931,0.00410
2383.61914,0.00430
2381.55897,0.00454
2379.49880,0.00474
2377.43862,0.00480
2375.37845,0.00477
2373.31828,0.00488
2371.25811,0.00510
2369.19793,0.00507
2367.13776,0.00470
2365.07759,0.00434
2363.01742,0.00420
2360.95725,0.00412
2358.89707,0.00388
2356.83690,0.00353
2354.77673,0.00335
2352.71656,0.00357
2350.65639,0.00412
2348.59621,0.00473
2346.53604,0.00508
2344.47587,0.00492
2342.41570,0.00420
2340.35552,0.00322
2338.29535,0.00256
2336.23518,0.00265
2334.17501,0.00341
2332.11484,0.00440
2330.05466,0.00510
2327.99449,0.00522
2325.93432,0.00477
2323.87415,0.00412
2321.81398,0.00373
2319.75380,0.00379
2317.69363,0.00413
2315.63346,0.00454
2313.57329,0.00487
2311.51312,0.00507
2309.45294,0.00511
2307.39277,0.00500
2305.33260,0.00475
2303.27243,0.00449
2301.21225,0.00434
2299.15208,0.00430
2297.09191,0.00430
2295.03174,0.00430
2292.97157,0.00430
2290.91139,0.00431
2288.85122,0.00438
2286.79105,0.00451
2284.73088,0.00465
2282.67071,0.00471
2280.61053,0.00465
2278.55036,0.00456
2276.49019,0.00444
2274.43002,0.00425
2272.36984,0.00406
2270.30967,0.00397
2268.24950,0.00395
2266.18933,0.00395
2264.12916,0.00399
2262.06898,0.00403
2260.00881,0.00399
2257.94864,0.00379
2255.88847,0.00347
2253.82830,0.00326
2251.76812,0.00334
2249.70795,0.00374
2247.64778,0.00431
2245.58761,0.00465
2243.52744,0.00424
2241.46726,0.00345
2239.40709,0.00321
2237.34692,0.00344
2235.28675,0.00328
2233.22657,0.00286
2231.16640,0.00293
2229.10623,0.00343
2227.04606,0.00403
2224.98589,0.00456
2222.92571,0.00465
2220.86554,0.00441
2218.80537,0.00453
2216.74520,0.00485
2214.68503,0.00483
2212.62485,0.00441
2210.56468,0.00377
2208.50451,0.00344
2206.44434,0.00383
2204.38417,0.00431
2202.32399,0.00381
2200.26382,0.00239
2198.20365,0.00135
2196.14348,0.00165
2194.08330,0.00287
2192.02313,0.00396
2189.96296,0.00454
2187.90279,0.00494
2185.84262,0.00511
2183.78244,0.00476
2181.72227,0.00422
2179.66210,0.00401
2177.60193,0.00408
2175.54176,0.00373
2173.48158,0.00279
2171.42141,0.00216
2169.36124,0.00252
2167.30107,0.00364
2165.24089,0.00484
2163.18072,0.00508
2161.12055,0.00392
2159.06038,0.00228
2157.00021,0.00140
2154.94003,0.00198
2152.87986,0.00324
2150.81969,0.00321
2148.75952,0.00164
2146.69935,0.00076
2144.63917,0.00166
2142.57900,0.00283
2140.51883,0.00306
2138.45866,0.00265
2136.39849,0.00213
2134.33831,0.00184
2132.27814,0.00200
2130.21797,0.00273
2128.15780,0.00365
2126.09762,0.00391
2124.03745,0.00339
2121.97728,0.00322
2119.91711,0.00400
2117.85694,0.00493
2115.79676,0.00520
2113.73659,0.00479
2111.67642,0.00421
2109.61625,0.00406
2107.55608,0.00449
2105.49590,0.00518
2103.43573,0.00563
2101.37556,0.00556
2099.31539,0.00517
2097.25521,0.00478
2095.19504,0.00466
2093.13487,0.00483
2091.07470,0.00506
2089.01453,0.00510
2086.95435,0.00484
2084.89418,0.00444
2082.83401,0.00409
2080.77384,0.00383
2078.71367,0.00366
2076.65349,0.00368
2074.59332,0.00388
2072.53315,0.00402
2070.47298,0.00409
2068.41281,0.00423
2066.35263,0.00450
2064.29246,0.00494
2062.23229,0.00554
2060.17212,0.00618
2058.11194,0.00659
2056.05177,0.00652
2053.99160,0.00608
2051.93143,0.00570
2049.87126,0.00565
2047.81108,0.00572
2045.75091,0.00562
2043.69074,0.00524
2041.63057,0.00490
2039.57040,0.00509
2037.51022,0.00571
2035.45005,0.00592
2033.38988,0.00508
2031.32971,0.00363
2029.26954,0.00257
2027.20936,0.00234
2025.14919,0.00251
2023.08902,0.00246
2021.02885,0.00193
2018.96867,0.00104
2016.90850,0.00024
2014.84833,0.00000
2012.78816,0.00043
2010.72799,0.00124
2008.66781,0.00203
2006.60764,0.00264
2004.54747,0.00312
2002.48730,0.00345
2000.42713,0.00363
1998.36695,0.00366
1996.30678,0.00343
1994.24661,0.00297
1992.18644,0.00261
1990.12626,0.00269
1988.06609,0.00322
1986.00592,0.00395
1983.94575,0.00456
1981.88558,0.00481
1979.82540,0.00452
1977.76523,0.00368
1975.70506,0.00256
1973.64489,0.00149
1971.58472,0.00068
1969.52454,0.00033
1967.46437,0.00049
1965.40420,0.00106
1963.34403,0.00180
1961.28386,0.00250
1959.22368,0.00308
1957.16351,0.00334
1955.10334,0.00313
1953.04317,0.00259
1950.98299,0.00213
1948.92282,0.00203
1946.86265,0.00216
1944.80248,0.00217
1942.74231,0.00191
1940.68213,0.00161
1938.62196,0.00149
1936.56179,0.00163
1934.50162,0.00194
1932.44145,0.00223
1930.38127,0.00230
1928.32110,0.00209
1926.26093,0.00179
1924.20076,0.00173
1922.14059,0.00199
1920.08041,0.00240
1918.02024,0.00269
1915.96007,0.00273
1913.89990,0.00265
1911.83972,0.00259
1909.77955,0.00258
1907.71938,0.00255
1905.65921,0.00241
1903.59904,0.00217
1901.53886,0.00190
1899.47869,0.00166
1897.41852,0.00150
1895.35835,0.00139
1893.29818,0.00127
1891.23800,0.00114
1889.17783,0.00110
1887.11766,0.00121
1885.05749,0.00142
1882.99731,0.00163
1880.93714,0.00171
1878.87697,0.00160
1876.81680,0.00141
1874.75663,0.00130
1872.69645,0.00134
1870.63628,0.00146
1868.57611,0.00157
1866.51594,0.00162
1864.45577,0.00164
1862.39559,0.00161
1860.33542,0.00147
1858.27525,0.00120
1856.21508,0.00089
1854.15491,0.00070
1852.09473,0.00069
1850.03456,0.00076
1847.97439,0.00080
1845.91422,0.00078
1843.85404,0.00075
1841.79387,0.00078
1839.73370,0.00087
1837.67353,0.00097
1835.61336,0.00103
1833.55318,0.00110
1831.49301,0.00115
1829.43284,0.00111
1827.37267,0.00102
1825.31250,0.00100
1823.25232,0.00105
1821.19215,0.00109
1819.13198,0.00111
1817.07181,0.00113
1815.01163,0.00113
1812.95146,0.00104
1810.89129,0.00089
1808.83112,0.00076
1806.77095,0.00076
1804.71077,0.00090
1802.65060,0.00105
1800.59043,0.00107
1798.53026,0.00093
1796.47009,0.00076
1794.40991,0.00065
1792.34974,0.00062
1790.28957,0.00066
1788.22940,0.00078
1786.16923,0.00098
1784.10905,0.00116
1782.04888,0.00120
1779.98871,0.00107
1777.92854,0.00081
1775.86836,0.00056
1773.80819,0.00041
1771.74802,0.00045
1769.68785,0.00066
1767.62768,0.00098
1765.56750,0.00134
1763.50733,0.00173
1761.44716,0.00215
1759.38699,0.00260
1757.32682,0.00308
1755.26664,0.00359
1753.20647,0.00410
1751.14630,0.00459
1749.08613,0.00501
1747.02596,0.00531
1744.96578,0.00546
1742.90561,0.00552
1740.84544,0.00562
1738.78527,0.00589
1736.72509,0.00631
1734.66492,0.00670
1732.60475,0.00691
1730.54458,0.00694
1728.48441,0.00689
1726.42423,0.00681
1724.36406,0.00669
1722.30389,0.00649
1720.24372,0.00619
1718.18355,0.00579
1716.12337,0.00537
1714.06320,0.00495
1712.00303,0.00457
1709.94286,0.00420
1707.88268,0.00383
1705.82251,0.00347
1703.76234,0.00311
1701.70217,0.00284
1699.64200,0.00276
1697.58182,0.00283
1695.52165,0.00301
1693.46148,0.00329
1691.40131,0.00359
1689.34114,0.00381
1687.28096,0.00395
1685.22079,0.00412
1683.16062,0.00439
1681.10045,0.00470
1679.04028,0.00499
1676.98010,0.00526
1674.91993,0.00556
1672.85976,0.00599
1670.79959,0.00658
1668.73941,0.00729
1666.67924,0.00804
1664.61907,0.00874
1662.55890,0.00935
1660.49873,0.00987
1658.43855,0.01034
1656.37838,0.01080
1654.31821,0.01131
1652.25804,0.01179
1650.19787,0.01211
1648.13769,0.01227
1646.07752,0.01240
1644.01735,0.01258
1641.95718,0.01280
1639.89701,0.01302
1637.83683,0.01321
1635.77666,0.01338
1633.71649,0.01353
1631.65632,0.01365
1629.59614,0.01374
1627.53597,0.01386
1625.47580,0.01400
1623.41563,0.01414
1621.35546,0.01427
1619.29528,0.01439
1617.23511,0.01446
1615.17494,0.01444
1613.11477,0.01437
1611.05460,0.01424
1608.99442,0.01405
1606.93425,0.01374
1604.87408,0.01331
1602.81391,0.01276
1600.75373,0.01215
1598.69356,0.01149
1596.63339,0.01074
1594.57322,0.00990
1592.51305,0.00905
1590.45287,0.00825
1588.39270,0.00752
1586.33253,0.00683
1584.27236,0.00618
1582.21219,0.00559
1580.15201,0.00509
1578.09184,0.00465
1576.03167,0.00427
1573.97150,0.00394
1571.91133,0.00363
1569.85115,0.00332
1567.79098,0.00303
1565.73081,0.00282
1563.67064,0.00267
1561.61046,0.00249
1559.55029,0.00219
1557.49012,0.00181
1555.42995,0.00149
1553.36978,0.00129
1551.30960,0.00124
1549.24943,0.00133
1547.18926,0.00152
1545.12909,0.00166
1543.06892,0.00160
1541.00874,0.00130
1538.94857,0.00092
1536.88840,0.00068
1534.82823,0.00064
1532.76805,0.00074
1530.70788,0.00086
1528.64771,0.00088
1526.58754,0.00072
1524.52737,0.00044
1522.46719,0.00016
1520.40702,0.00000
1518.34685,-0.00003
1516.28668,0.00005
1514.22651,0.00023
1512.16633,0.00048
1510.10616,0.00073
1508.04599,0.00087
1505.98582,0.00088
1503.92565,0.00080
1501.86547,0.00070
1499.80530,0.00061
1497.74513,0.00059
1495.68496,0.00067
1493.62478,0.00080
1491.56461,0.00095
1489.50444,0.00110
1487.44427,0.00128
1485.38410,0.00150
1483.32392,0.00174
1481.26375,0.00203
1479.20358,0.00240
1477.14341,0.00283
1475.08324,0.00333
1473.02306,0.00387
1470.96289,0.00438
1468.90272,0.00480
1466.84255,0.00514
1464.78238,0.00545
1462.72220,0.00575
1460.66203,0.00601
1458.60186,0.00622
1456.54169,0.00641
1454.48151,0.00668
1452.42134,0.00701
1450.36117,0.00737
1448.30100,0.00773
1446.24083,0.00808
1444.18065,0.00845
1442.12048,0.00882
1440.06031,0.00919
1438.00014,0.00952
1435.93997,0.00981
1433.87979,0.01008
1431.81962,0.01035
1429.75945,0.01065
1427.69928,0.01096
1425.63910,0.01130
1423.57893,0.01168
1421.51876,0.01206
1419.45859,0.01237
1417.39842,0.01253
1415.33824,0.01255
1413.27807,0.01250
1411.21790,0.01243
1409.15773,0.01234
1407.09756,0.01220
1405.03738,0.01198
1402.97721,0.01171
1400.91704,0.01139
1398.85687,0.01105
1396.79670,0.01070
1394.73652,0.01041
1392.67635,0.01024
1390.61618,0.01022
1388.55601,0.01033
1386.49583,0.01055
1384.43566,0.01083
1382.37549,0.01113
1380.31532,0.01140
1378.25515,0.01162
1376.19497,0.01179
1374.13480,0.01187
1372.07463,0.01187
1370.01446,0.01179
1367.95429,0.01167
1365.89411,0.01154
1363.83394,0.01140
1361.77377,0.01127
1359.71360,0.01117
1357.65343,0.01110
1355.59325,0.01100
1353.53308,0.01086
1351.47291,0.01066
1349.41274,0.01044
1347.35256,0.01024
1345.29239,0.01008
1343.23222,0.00995
1341.17205,0.00980
1339.11188,0.00968
1337.05170,0.00965
1334.99153,0.00972
1332.93136,0.00980
1330.87119,0.00985
1328.81102,0.00986
1326.75084,0.00985
1324.69067,0.00983
1322.63050,0.00984
1320.57033,0.00987
1318.51015,0.00993
1316.44998,0.00998
1314.38981,0.01000
1312.32964,0.00996
1310.26947,0.00988
1308.20929,0.00978
1306.14912,0.00966
1304.08895,0.00950
1302.02878,0.00930
1299.96861,0.00907
1297.90843,0.00885
1295.84826,0.00863
1293.78809,0.00845
1291.72792,0.00833
1289.66775,0.00825
1287.60757,0.00816
1285.54740,0.00803
1283.48723,0.00794
1281.42706,0.00793
1279.36688,0.00800
1277.30671,0.00810
1275.24654,0.00823
1273.18637,0.00842
1271.12620,0.00870
1269.06602,0.00906
1267.00585,0.00945
1264.94568,0.00985
1262.88551,0.01026
1260.82534,0.01068
1258.76516,0.01110
1256.70499,0.01150
1254.64482,0.01183
1252.58465,0.01208
1250.52447,0.01225
1248.46430,0.01232
1246.40413,0.01231
1244.34396,0.01219
1242.28379,0.01197
1240.22361,0.01169
1238.16344,0.01141
1236.10327,0.01114
1234.04310,0.01086
1231.98293,0.01053
1229.92275,0.01015
1227.86258,0.00975
1225.80241,0.00935
1223.74224,0.00899
1221.68207,0.00864
1219.62189,0.00830
1217.56172,0.00791
1215.50155,0.00745
1213.44138,0.00690
1211.38120,0.00627
1209.32103,0.00561
1207.26086,0.00491
1205.20069,0.00417
1203.14052,0.00337
1201.08034,0.00257
1199.02017,0.00189
1196.96000,0.00137
1194.89983,0.00086
1192.83966,0.00039
1190.77948,0.00008
1188.71931,0.00000
1186.65914,0.00003
1184.59897,0.00015
1182.53880,0.00036
1180.47862,0.00065
1178.41845,0.00102
1176.35828,0.00162
1174.29811,0.00249
1172.23793,0.00349
1170.17776,0.00451
1168.11759,0.00545
1166.05742,0.00617
1163.99725,0.00672
1161.93707,0.00736
1159.87690,0.00820
1157.81673,0.00897
1155.75656,0.00950
1153.69639,0.00998
1151.63621,0.01059
1149.57604,0.01124
1147.51587,0.01173
1145.45570,0.01203
1143.39552,0.01232
1141.33535,0.01265
1139.27518,0.01293
1137.21501,0.01314
1135.15484,0.01341
1133.09466,0.01378
1131.03449,0.01416
1128.97432,0.01456
1126.91415,0.01507
1124.85398,0.01574
1122.79380,0.01651
1120.73363,0.01728
1118.67346,0.01804
1116.61329,0.01874
1114.55312,0.01927
1112.49294,0.01967
1110.43277,0.02014
1108.37260,0.02075
1106.31243,0.02142
1104.25225,0.02205
1102.19208,0.02272
1100.13191,0.02358
1098.07174,0.02463
1096.01157,0.02575
1093.95139,0.02677
1091.89122,0.02762
1089.83105,0.02839
1087.77088,0.02928
1085.71071,0.03021
1083.65053,0.03101
1081.59036,0.03179
1079.53019,0.03267
1077.47002,0.03353
1075.40985,0.03431
1073.34967,0.03503
1071.28950,0.03578
1069.22933,0.03644
1067.16916,0.03681
1065.10898,0.03700
1063.04881,0.03735
1060.98864,0.03789
1058.92847,0.03841
1056.86830,0.03876
1054.80812,0.03899
1052.74795,0.03922
1050.68778,0.03957
1048.62761,0.04015
1046.56744,0.04090
1044.50726,0.04166
1042.44709,0.04227
1040.38692,0.04280
1038.32675,0.04338
1036.26657,0.04392
1034.20640,0.04426
1032.14623,0.04452
1030.08606,0.04475
1028.02589,0.04484
1025.96571,0.04479
1023.90554,0.04485
1021.84537,0.04505
1019.78520,0.04523
1017.72503,0.04536
1015.66485,0.04548
1013.60468,0.04562
1011.54451,0.04572
1009.48434,0.04567
1007.42417,0.04544
1005.36399,0.04498
1003.30382,0.04430
1001.24365,0.04352
999.18348,0.04275
997.12330,0.04208
995.06313,0.04159
993.00296,0.04123
990.94279,0.04085
988.88262,0.04038
986.82244,0.03985
984.76227,0.03939
982.70210,0.03921
980.64193,0.03912
978.58176,0.03879
976.52158,0.03824
974.46141,0.03765
972.40124,0.03710
970.34107,0.03668
968.28089,0.03637
966.22072,0.03601
964.16055,0.03555
962.10038,0.03503
960.04021,0.03453
957.98003,0.03414
955.91986,0.03383
953.85969,0.03328
951.79952,0.03243
949.73935,0.03152
947.67917,0.03075
945.61900,0.03007
943.55883,0.02928
941.49866,0.02803
939.43849,0.02618
937.37831,0.02410
935.31814,0.02227
933.25797,0.02065
931.19780,0.01904
929.13762,0.01744
927.07745,0.01591
925.01728,0.01463
922.95711,0.01369
920.89694,0.01294
918.83676,0.01222
916.77659,0.01145
914.71642,0.01069
912.65625,0.01002
910.59608,0.00949
908.53590,0.00903
906.47573,0.00861
904.41556,0.00837
902.35539,0.00841
900.29522,0.00862
898.23504,0.00885
896.17487,0.00877
894.11470,0.00828
892.05453,0.00768
889.99435,0.00728
887.93418,0.00709
885.87401,0.00690
883.81384,0.00652
881.75367,0.00595
879.69349,0.00546
877.63332,0.00513
875.57315,0.00478
873.51298,0.00447
871.45281,0.00430
869.39263,0.00410
867.33246,0.00380
865.27229,0.00352
863.21212,0.00326
861.15194,0.00313
859.09177,0.00320
857.03160,0.00324
854.97143,0.00304
852.91126,0.00281
850.85108,0.00262
848.79091,0.00231
846.73074,0.00193
844.67057,0.00172
842.61040,0.00179
840.55022,0.00185
838.49005,0.00161
836.42988,0.00127
834.36971,0.00113
832.30954,0.00104
830.24936,0.00087
828.18919,0.00053
826.12902,0.00010
824.06885,0.00000
822.00867,0.00026
819.94850,0.00045
817.88833,0.00036
815.82816,0.00041
813.76799,0.00088
811.70781,0.00140
809.64764,0.00161
807.58747,0.00171
805.52730,0.00182
803.46713,0.00188
801.40695,0.00187
799.34678,0.00167
797.28661,0.00132
795.22644,0.00095
793.16627,0.00053
791.10609,0.00036
789.04592,0.00079
786.98575,0.00149
784.92558,0.00173
782.86540,0.00126
780.80523,0.00053
778.74506,0.00021
776.68489,0.00043
774.62472,0.00078
772.56454,0.00095
770.50437,0.00092
768.44420,0.00089
766.38403,0.00103
764.32386,0.00132
762.26368,0.00163
760.20351,0.00171
758.14334,0.00154
756.08317,0.00146
754.02299,0.00167
751.96282,0.00184
749.90265,0.00155
747.84248,0.00090
745.78231,0.00028
743.72213,0.00000
741.66196,0.00003
739.60179,0.00017
737.54162,0.00003
735.48145,-0.00022
733.42127,-0.00036
731.36110,-0.00040
729.30093,-0.00035
727.24076,-0.00014
725.18059,0.00020
723.12041,0.00049
721.06024,0.00068
719.00007,0.00083
716.93990,0.00102
714.87972,0.00128
712.81955,0.00144
710.75938,0.00140
708.69921,0.00119
706.63904,0.00102
704.57886,0.00113
702.51869,0.00155
700.45852,0.00201
698.39835,0.00221
696.33818,0.00221
694.27800,0.00224
692.21783,0.00231
690.15766,0.00225
688.09749,0.00194
686.03731,0.00146
683.97714,0.00097
681.91697,0.00058
679.85680,0.00024
677.79663,-0.00004
675.73645,-0.00024
673.67628,-0.00043
671.61611,-0.00056
669.55594,-0.00041
667.49577,0.00008
665.43559,0.00028
663.37542,-0.00027
661.31525,-0.00127
659.25508,-0.00193
657.19491,-0.00180
655.13473,-0.00097
653.07456,0.00009
651.01439,0.00080
648.95422,0.00086
646.89404,0.00045
644.83387,0.00000
642.77370,-0.00023
640.71353,-0.00016
638.65336,-0.00002
636.59318,0.00015
634.53301,0.00040
632.47284,0.00056
630.41267,0.00031
628.35250,-0.00047
626.29232,-0.00141
624.23215,-0.00149
622.17198,-0.00058
620.11181,0.00024
618.05164,-0.00076
615.99146,-0.00325
613.93129,-0.00390
611.87112,-0.00156
609.81095,0.00075
607.75077,0.00031
605.69060,-0.00147
603.63043,-0.00172
601.57026,-0.00070
599.51009,0.00000
