3996.73391,0.00017
3994.67373,0.00004
3992.61356,0.00000
3990.55339,0.00012
3988.49322,0.00032
3986.43305,0.00048
3984.37287,0.00056
3982.31270,0.00067
3980.25253,0.00082
3978.19236,0.00094
3976.13219,0.00107
3974.07201,0.00125
3972.01184,0.00141
3969.95167,0.00140
3967.89150,0.00120
3965.83133,0.00094
3963.77115,0.00076
3961.71098,0.00078
3959.65081,0.00093
3957.59064,0.00110
3955.53046,0.00124
3953.47029,0.00131
3951.41012,0.00121
3949.34995,0.00090
3947.28978,0.00047
3945.22960,0.00010
3943.16943,-0.00005
3941.10926,0.00005
3939.04909,0.00029
3936.98892,0.00052
3934.92874,0.00064
3932.86857,0.00061
3930.80840,0.00058
3928.74823,0.00068
3926.68805,0.00089
3924.62788,0.00108
3922.56771,0.00115
3920.50754,0.00110
3918.44737,0.00100
3916.38719,0.00089
3914.32702,0.00081
3912.26685,0.00080
3910.20668,0.00084
3908.14651,0.00085
3906.08633,0.00074
3904.02616,0.00048
3901.96599,0.00022
3899.90582,0.00014
3897.84565,0.00032
3895.78547,0.00070
3893.72530,0.00111
3891.66513,0.00134
3889.60496,0.00136
3887.54478,0.00126
3885.48461,0.00112
3883.42444,0.00098
3881.36427,0.00088
3879.30410,0.00090
3877.24392,0.00100
3875.18375,0.00108
3873.12358,0.00109
3871.06341,0.00107
3869.00324,0.00112
3866.94306,0.00120
3864.88289,0.00123
3862.82272,0.00125
3860.76255,0.00139
3858.70237,0.00173
3856.64220,0.00224
3854.58203,0.00271
3852.52186,0.00279
3850.46169,0.00235
3848.40151,0.00171
3846.34134,0.00123
3844.28117,0.00106
3842.22100,0.00108
3840.16083,0.00107
3838.10065,0.00087
3836.04048,0.00055
3833.98031,0.00022
3831.92014,0.00002
3829.85997,0.00000
3827.79979,0.00007
3825.73962,0.00016
3823.67945,0.00028
3821.61928,0.00052
3819.55910,0.00088
3817.49893,0.00122
3815.43876,0.00135
3813.37859,0.00126
3811.31842,0.00108
3809.25824,0.00102
3807.19807,0.00119
3805.13790,0.00152
3803.07773,0.00174
3801.01756,0.00170
3798.95738,0.00147
3796.89721,0.00122
3794.83704,0.00105
3792.77687,0.00098
3790.71670,0.00099
3788.65652,0.00105
3786.59635,0.00112
3784.53618,0.00115
3782.47601,0.00117
3780.41583,0.00129
3778.35566,0.00158
3776.29549,0.00196
3774.23532,0.00219
3772.17515,0.00214
3770.11497,0.00189
3768.05480,0.00163
3765.99463,0.00148
3763.93446,0.00149
3761.87429,0.00166
3759.81411,0.00194
3757.75394,0.00209
3755.69377,0.00181
3753.63360,0.00110
3751.57342,0.00037
3749.51325,0.00002
3747.45308,0.00000
3745.39291,0.00007
3743.33274,0.00023
3741.27256,0.00052
3739.21239,0.00092
3737.15222,0.00136
3735.09205,0.00178
3733.03188,0.00212
3730.97170,0.00233
3728.91153,0.00234
3726.85136,0.00220
3724.79119,0.00199
3722.73102,0.00171
3720.67084,0.00146
3718.61067,0.00135
3716.55050,0.00136
3714.49033,0.00130
3712.43015,0.00116
3710.36998,0.00111
3708.30981,0.00124
3706.24964,0.00141
3704.18947,0.00161
3702.12929,0.00191
3700.06912,0.00223
3698.00895,0.00244
3695.94878,0.00253
3693.88861,0.00252
3691.82843,0.00233
3689.76826,0.00196
3687.70809,0.00169
3685.64792,0.00174
3683.58775,0.00209
3681.52757,0.00252
3679.46740,0.00276
3677.40723,0.00264
3675.34706,0.00230
3673.28688,0.00203
3671.22671,0.00201
3669.16654,0.00226
3667.10637,0.00267
3665.04620,0.00299
3662.98602,0.00310
3660.92585,0.00305
3658.86568,0.00297
3656.80551,0.00287
3654.74534,0.00264
3652.68516,0.00227
3650.62499,0.00195
3648.56482,0.00211
3646.50465,0.00289
3644.44447,0.00388
3642.38430,0.00465
3640.32413,0.00505
3638.26396,0.00516
3636.20379,0.00505
3634.14361,0.00490
3632.08344,0.00485
3630.02327,0.00496
3627.96310,0.00523
3625.90293,0.00564
3623.84275,0.00611
3621.78258,0.00646
3619.72241,0.00662
3617.66224,0.00670
3615.60207,0.00674
3613.54189,0.00669
3611.48172,0.00673
3609.42155,0.00706
3607.36138,0.00756
3605.30120,0.00798
3603.24103,0.00830
3601.18086,0.00869
3599.12069,0.00921
3597.06052,0.00972
3595.00034,0.01004
3592.94017,0.01009
3590.88000,0.00994
3588.81983,0.00985
3586.75966,0.01010
3584.69948,0.01065
3582.63931,0.01122
3580.57914,0.01161
3578.51897,0.01185
3576.45879,0.01203
3574.39862,0.01223
3572.33845,0.01247
3570.27828,0.01267
3568.21811,0.01279
3566.15793,0.01296
3564.09776,0.01337
3562.03759,0.01398
3559.97742,0.01462
3557.91725,0.01518
3555.85707,0.01569
3553.79690,0.01612
3551.73673,0.01641
3549.67656,0.01655
3547.61639,0.01663
3545.55621,0.01674
3543.49604,0.01692
3541.43587,0.01715
3539.37570,0.01738
3537.31552,0.01761
3535.25535,0.01780
3533.19518,0.01791
3531.13501,0.01795
3529.07484,0.01810
3527.01466,0.01851
3524.95449,0.01912
3522.89432,0.01972
3520.83415,0.02027
3518.77398,0.02080
3516.71380,0.02130
3514.65363,0.02163
3512.59346,0.02178
3510.53329,0.02191
3508.47312,0.02216
3506.41294,0.02249
3504.35277,0.02277
3502.29260,0.02294
3500.23243,0.02303
3498.17225,0.02305
3496.11208,0.02301
3494.05191,0.02304
3491.99174,0.02328
3489.93157,0.02373
3487.87139,0.02431
3485.81122,0.02489
3483.75105,0.02533
3481.69088,0.02557
3479.63071,0.02567
3477.57053,0.02565
3475.51036,0.02559
3473.45019,0.02568
3471.39002,0.02600
3469.32984,0.02642
3467.26967,0.02678
3465.20950,0.02702
3463.14933,0.02716
3461.08916,0.02725
3459.02898,0.02738
3456.96881,0.02762
3454.90864,0.02797
3452.84847,0.02837
3450.78830,0.02869
3448.72812,0.02891
3446.66795,0.02915
3444.60778,0.02946
3442.54761,0.02973
3440.48744,0.02982
3438.42726,0.02977
3436.36709,0.02974
3434.30692,0.02987
3432.24675,0.03021
3430.18657,0.03071
3428.12640,0.03125
3426.06623,0.03174
3424.00606,0.03212
3421.94589,0.03236
3419.88571,0.03251
3417.82554,0.03258
3415.76537,0.03263
3413.70520,0.03277
3411.64503,0.03304
3409.58485,0.03334
3407.52468,0.03356
3405.46451,0.03364
3403.40434,0.03370
3401.34416,0.03388
3399.28399,0.03428
3397.22382,0.03483
3395.16365,0.03536
3393.10348,0.03572
3391.04330,0.03592
3388.98313,0.03605
3386.92296,0.03613
3384.86279,0.03608
3382.80262,0.03591
3380.74244,0.03575
3378.68227,0.03569
3376.62210,0.03576
3374.56193,0.03591
3372.50176,0.03610
3370.44158,0.03632
3368.38141,0.03658
3366.32124,0.03683
3364.26107,0.03699
3362.20089,0.03707
3360.14072,0.03715
3358.08055,0.03732
3356.02038,0.03753
3353.96021,0.03766
3351.90003,0.03769
3349.83986,0.03766
3347.77969,0.03762
3345.71952,0.03756
3343.65935,0.03753
3341.59917,0.03760
3339.53900,0.03776
3337.47883,0.03801
3335.41866,0.03833
3333.35849,0.03865
3331.29831,0.03880
3329.23814,0.03871
3327.17797,0.03850
3325.11780,0.03828
3323.05762,0.03810
3320.99745,0.03802
3318.93728,0.03805
3316.87711,0.03820
3314.81694,0.03838
3312.75676,0.03852
3310.69659,0.03860
3308.63642,0.03866
3306.57625,0.03870
3304.51608,0.03871
3302.45590,0.03870
3300.39573,0.03875
3298.33556,0.03889
3296.27539,0.03909
3294.21521,0.03924
3292.15504,0.03931
3290.09487,0.03936
3288.03470,0.03944
3285.97453,0.03952
3283.91435,0.03949
3281.85418,0.03930
3279.79401,0.03902
3277.73384,0.03877
3275.67367,0.03869
3273.61349,0.03875
3271.55332,0.03885
3269.49315,0.03891
3267.43298,0.03896
3265.37281,0.03906
3263.31263,0.03922
3261.25246,0.03934
3259.19229,0.03941
3257.13212,0.03942
3255.07194,0.03940
3253.01177,0.03937
3250.95160,0.03940
3248.89143,0.03948
3246.83126,0.03955
3244.77108,0.03956
3242.71091,0.03948
3240.65074,0.03928
3238.59057,0.03901
3236.53040,0.03872
3234.47022,0.03845
3232.41005,0.03820
3230.34988,0.03796
3228.28971,0.03769
3226.22954,0.03741
3224.16936,0.03723
3222.10919,0.03726
3220.04902,0.03748
3217.98885,0.03771
3215.92867,0.03775
3213.86850,0.03753
3211.80833,0.03710
3209.74816,0.03665
3207.68799,0.03630
3205.62781,0.03606
3203.56764,0.03592
3201.50747,0.03586
3199.44730,0.03587
3197.38713,0.03587
3195.32695,0.03579
3193.26678,0.03565
3191.20661,0.03554
3189.14644,0.03542
3187.08626,0.03524
3185.02609,0.03496
3182.96592,0.03464
3180.90575,0.03436
3178.84558,0.03419
3176.78540,0.03414
3174.72523,0.03407
3172.66506,0.03382
3170.60489,0.03340
3168.54472,0.03297
3166.48454,0.03265
3164.42437,0.03247
3162.36420,0.03236
3160.30403,0.03219
3158.24386,0.03189
3156.18368,0.03149
3154.12351,0.03113
3152.06334,0.03090
3150.00317,0.03078
3147.94299,0.03066
3145.88282,0.03051
3143.82265,0.03038
3141.76248,0.03031
3139.70231,0.03024
3137.64213,0.03007
3135.58196,0.02978
3133.52179,0.02940
3131.46162,0.02903
3129.40145,0.02869
3127.34127,0.02837
3125.28110,0.02805
3123.22093,0.02776
3121.16076,0.02753
3119.10058,0.02738
3117.04041,0.02724
3114.98024,0.02701
3112.92007,0.02663
3110.85990,0.02614
3108.79972,0.02563
3106.73955,0.02519
3104.67938,0.02483
3102.61921,0.02460
3100.55904,0.02449
3098.49886,0.02442
3096.43869,0.02428
3094.37852,0.02408
3092.31835,0.02386
3090.25818,0.02363
3088.19800,0.02333
3086.13783,0.02294
3084.07766,0.02251
3082.01749,0.02215
3079.95731,0.02186
3077.89714,0.02155
3075.83697,0.02121
3073.77680,0.02100
3071.71663,0.02097
3069.65645,0.02103
3067.59628,0.02095
3065.53611,0.02063
3063.47594,0.02016
3061.41577,0.01972
3059.35559,0.01941
3057.29542,0.01921
3055.23525,0.01905
3053.17508,0.01890
3051.11491,0.01875
3049.05473,0.01859
3046.99456,0.01841
3044.93439,0.01826
3042.87422,0.01818
3040.81404,0.01817
3038.75387,0.01813
3036.69370,0.01797
3034.63353,0.01766
3032.57336,0.01726
3030.51318,0.01689
3028.45301,0.01667
3026.39284,0.01662
3024.33267,0.01662
3022.27250,0.01659
3020.21232,0.01653
3018.15215,0.01637
3016.09198,0.01607
3014.03181,0.01571
3011.97163,0.01548
3009.91146,0.01544
3007.85129,0.01554
3005.79112,0.01568
3003.73095,0.01578
3001.67077,0.01582
2999.61060,0.01577
2997.55043,0.01567
2995.49026,0.01563
2993.43009,0.01559
2991.36991,0.01540
2989.30974,0.01515
2987.24957,0.01514
2985.18940,0.01542
2983.12923,0.01571
2981.06905,0.01576
2979.00888,0.01573
2976.94871,0.01592
2974.88854,0.01628
2972.82836,0.01655
2970.76819,0.01658
2968.70802,0.01640
2966.64785,0.01631
2964.58768,0.01664
2962.52750,0.01737
2960.46733,0.01805
2958.40716,0.01833
2956.34699,0.01833
2954.28682,0.01847
2952.22664,0.01898
2950.16647,0.01964
2948.10630,0.02015
2946.04613,0.02044
2943.98596,0.02061
2941.92578,0.02078
2939.86561,0.02105
2937.80544,0.02137
2935.74527,0.02148
2933.68509,0.02149
2931.62492,0.02161
2929.56475,0.02170
2927.50458,0.02160
2925.44441,0.02149
2923.38423,0.02155
2921.32406,0.02164
2919.26389,0.02151
2917.20372,0.02118
2915.14355,0.02088
2913.08337,0.02075
2911.02320,0.02075
2908.96303,0.02060
2906.90286,0.02019
2904.84268,0.01979
2902.78251,0.01954
2900.72234,0.01948
2898.66217,0.01961
2896.60200,0.01978
2894.54182,0.01989
2892.48165,0.01990
2890.42148,0.01974
2888.36131,0.01944
2886.30114,0.01919
2884.24096,0.01904
2882.18079,0.01895
2880.12062,0.01892
2878.06045,0.01891
2876.00028,0.01877
2873.94010,0.01838
2871.87993,0.01785
2869.81976,0.01753
2867.75959,0.01755
2865.69941,0.01761
2863.63924,0.01731
2861.57907,0.01672
2859.51890,0.01627
2857.45873,0.01621
2855.39855,0.01634
2853.33838,0.01635
2851.27821,0.01613
2849.21804,0.01580
2847.15787,0.01551
2845.09769,0.01530
2843.03752,0.01510
2840.97735,0.01494
2838.91718,0.01492
2836.85700,0.01494
2834.79683,0.01483
2832.73666,0.01459
2830.67649,0.01430
2828.61632,0.01402
2826.55614,0.01378
2824.49597,0.01354
2822.43580,0.01323
2820.37563,0.01298
2818.31546,0.01292
2816.25528,0.01300
2814.19511,0.01303
2812.13494,0.01289
2810.07477,0.01260
2808.01460,0.01234
2805.95442,0.01220
2803.89425,0.01207
2801.83408,0.01194
2799.77391,0.01187
2797.71373,0.01186
2795.65356,0.01198
2793.59339,0.01225
2791.53322,0.01248
2789.47305,0.01252
2787.41287,0.01237
2785.35270,0.01205
2783.29253,0.01164
2781.23236,0.01142
2779.17219,0.01153
2777.11201,0.01173
2775.05184,0.01182
2772.99167,0.01173
2770.93150,0.01152
2768.87133,0.01138
2766.81115,0.01127
2764.75098,0.01108
2762.69081,0.01096
2760.63064,0.01101
2758.57046,0.01120
2756.51029,0.01138
2754.45012,0.01137
2752.38995,0.01127
2750.32978,0.01130
2748.26960,0.01128
2746.20943,0.01107
2744.14926,0.01082
2742.08909,0.01069
2740.02892,0.01063
2737.96874,0.01066
2735.90857,0.01082
2733.84840,0.01096
2731.78823,0.01095
2729.72805,0.01081
2727.66788,0.01067
2725.60771,0.01060
2723.54754,0.01060
2721.48737,0.01064
2719.42719,0.01065
2717.36702,0.01052
2715.30685,0.01030
2713.24668,0.01016
2711.18651,0.01021
2709.12633,0.01039
2707.06616,0.01043
2705.00599,0.01032
2702.94582,0.01025
2700.88565,0.01028
2698.82547,0.01017
2696.76530,0.00987
2694.70513,0.00966
2692.64496,0.00971
2690.58478,0.00994
2688.52461,0.01006
2686.46444,0.00997
2684.40427,0.00979
2682.34410,0.00961
2680.28392,0.00945
2678.22375,0.00928
2676.16358,0.00914
2674.10341,0.00908
2672.04324,0.00914
2669.98306,0.00934
2667.92289,0.00953
2665.86272,0.00950
2663.80255,0.00931
2661.74238,0.00916
2659.68220,0.00910
2657.62203,0.00914
2655.56186,0.00922
2653.50169,0.00921
2651.44151,0.00908
2649.38134,0.00897
2647.32117,0.00898
2645.26100,0.00897
2643.20083,0.00880
2641.14065,0.00863
2639.08048,0.00873
2637.02031,0.00893
2634.96014,0.00888
2632.89997,0.00856
2630.83979,0.00834
2628.77962,0.00846
2626.71945,0.00863
2624.65928,0.00843
2622.59910,0.00809
2620.53893,0.00796
2618.47876,0.00801
2616.41859,0.00811
2614.35842,0.00805
2612.29824,0.00780
2610.23807,0.00756
2608.17790,0.00750
2606.11773,0.00751
2604.05756,0.00740
2601.99738,0.00724
2599.93721,0.00736
2597.87704,0.00782
2595.81687,0.00818
2593.75670,0.00804
2591.69652,0.00764
2589.63635,0.00751
2587.57618,0.00779
2585.51601,0.00821
2583.45583,0.00843
2581.39566,0.00827
2579.33549,0.00787
2577.27532,0.00745
2575.21515,0.00692
2573.15497,0.00638
2571.09480,0.00614
2569.03463,0.00619
2566.97446,0.00620
2564.91429,0.00622
2562.85411,0.00640
2560.79394,0.00668
2558.73377,0.00693
2556.67360,0.00711
2554.61342,0.00711
2552.55325,0.00674
2550.49308,0.00607
2548.43291,0.00543
2546.37274,0.00516
2544.31256,0.00531
2542.25239,0.00563
2540.19222,0.00588
2538.13205,0.00611
2536.07188,0.00638
2534.01170,0.00654
2531.95153,0.00660
2529.89136,0.00661
2527.83119,0.00648
2525.77102,0.00631
2523.71084,0.00616
2521.65067,0.00587
2519.59050,0.00552
2517.53033,0.00536
2515.47015,0.00538
2513.40998,0.00560
2511.34981,0.00589
2509.28964,0.00595
2507.22947,0.00595
2505.16929,0.00618
2503.10912,0.00626
2501.04895,0.00594
2498.98878,0.00579
2496.92861,0.00629
2494.86843,0.00689
2492.80826,0.00680
2490.74809,0.00624
2488.68792,0.00613
2486.62775,0.00676
2484.56757,0.00735
2482.50740,0.00710
2480.44723,0.00621
2478.38706,0.00559
2476.32688,0.00566
2474.26671,0.00597
2472.20654,0.00596
2470.14637,0.00568
2468.08620,0.00560
2466.02602,0.00578
2463.96585,0.00596
2461.90568,0.00605
2459.84551,0.00600
2457.78534,0.00575
2455.72516,0.00541
2453.66499,0.00521
2451.60482,0.00520
2449.54465,0.00535
2447.48447,0.00552
2445.42430,0.00550
2443.36413,0.00543
2441.30396,0.00557
2439.24379,0.00599
2437.18361,0.00645
2435.12344,0.00654
2433.06327,0.00632
2431.00310,0.00616
2428.94293,0.00610
2426.88275,0.00595
2424.82258,0.00566
2422.76241,0.00537
2420.70224,0.00516
2418.64207,0.00511
2416.58189,0.00520
2414.52172,0.00533
2412.46155,0.00546
2410.40138,0.00545
2408.34120,0.00529
2406.28103,0.00527
2404.22086,0.00543
2402.16069,0.00560
2400.10052,0.00572
2398.04034,0.00573
2395.98017,0.00562
2393.92000,0.00547
2391.85983,0.00540
2389.79966,0.00549
2387.73948,0.00571
2385.67931,0.00593
2383.61914,0.00605
2381.55897,0.00612
2379.49880,0.00618
2377.43862,0.00624
2375.37845,0.00629
2373.31828,0.00634
2371.25811,0.00626
2369.19793,0.00576
2367.13776,0.00483
2365.07759,0.00394
2363.01742,0.00351
2360.95725,0.00353
2358.89707,0.00386
2356.83690,0.00446
2354.77673,0.00517
2352.71656,0.00577
2350.65639,0.00612
2348.59621,0.00622
2346.53604,0.00626
2344.47587,0.00640
2342.41570,0.00663
2340.35552,0.00687
2338.29535,0.00702
2336.23518,0.00716
2334.17501,0.00755
2332.11484,0.00805
2330.05466,0.00816
2327.99449,0.00761
2325.93432,0.00666
2323.87415,0.00592
2321.81398,0.00575
2319.75380,0.00599
2317.69363,0.00624
2315.63346,0.00633
2313.57329,0.00638
2311.51312,0.00653
2309.45294,0.00673
2307.39277,0.00680
2305.33260,0.00665
2303.27243,0.00639
2301.21225,0.00621
2299.15208,0.00614
2297.09191,0.00611
2295.03174,0.00601
2292.97157,0.00588
2290.91139,0.00585
2288.85122,0.00604
2286.79105,0.00641
2284.73088,0.00677
2282.67071,0.00690
2280.61053,0.00672
2278.55036,0.00628
2276.49019,0.00573
2274.43002,0.00524
2272.36984,0.00490
2270.30967,0.00474
2268.24950,0.00482
2266.18933,0.00510
2264.12916,0.00551
2262.06898,0.00586
2260.00881,0.00594
2257.94864,0.00569
2255.88847,0.00538
2253.82830,0.00527
2251.76812,0.00534
2249.70795,0.00532
2247.64778,0.00511
2245.58761,0.00544
2243.52744,0.00655
2241.46726,0.00741
2239.40709,0.00740
2237.34692,0.00709
2235.28675,0.00712
2233.22657,0.00712
2231.16640,0.00634
2229.10623,0.00519
2227.04606,0.00463
2224.98589,0.00502
2222.92571,0.00617
2220.86554,0.00711
2218.80537,0.00697
2216.74520,0.00617
2214.68503,0.00513
2212.62485,0.00406
2210.56468,0.00388
2208.50451,0.00462
2206.44434,0.00522
2204.38417,0.00526
2202.32399,0.00511
2200.26382,0.00478
2198.20365,0.00409
2196.14348,0.00337
2194.08330,0.00346
2192.02313,0.00462
2189.96296,0.00604
2187.90279,0.00679
2185.84262,0.00663
2183.78244,0.00577
2181.72227,0.00493
2179.66210,0.00496
2177.60193,0.00545
2175.54176,0.00568
2173.48158,0.00565
2171.42141,0.00532
2169.36124,0.00476
2167.30107,0.00472
2165.24089,0.00564
2163.18072,0.00667
2161.12055,0.00644
2159.06038,0.00440
2157.00021,0.00149
2154.94003,0.00000
2152.87986,0.00096
2150.81969,0.00258
2148.75952,0.00336
2146.69935,0.00375
2144.63917,0.00423
2142.57900,0.00424
2140.51883,0.00321
2138.45866,0.00181
2136.39849,0.00145
2134.33831,0.00239
2132.27814,0.00368
2130.21797,0.00448
2128.15780,0.00471
2126.09762,0.00443
2124.03745,0.00370
2121.97728,0.00317
2119.91711,0.00370
2117.85694,0.00500
2115.79676,0.00580
2113.73659,0.00559
2111.67642,0.00520
2109.61625,0.00526
2107.55608,0.00545
2105.49590,0.00539
2103.43573,0.00542
2101.37556,0.00576
2099.31539,0.00589
2097.25521,0.00574
2095.19504,0.00554
2093.13487,0.00542
2091.07470,0.00534
2089.01453,0.00523
2086.95435,0.00521
2084.89418,0.00558
2082.83401,0.00634
2080.77384,0.00698
2078.71367,0.00696
2076.65349,0.00639
2074.59332,0.00571
2072.53315,0.00516
2070.47298,0.00473
2068.41281,0.00451
2066.35263,0.00460
2064.29246,0.00491
2062.23229,0.00521
2060.17212,0.00526
2058.11194,0.00513
2056.05177,0.00520
2053.99160,0.00556
2051.93143,0.00598
2049.87126,0.00630
2047.81108,0.00666
2045.75091,0.00703
2043.69074,0.00712
2041.63057,0.00668
2039.57040,0.00578
2037.51022,0.00488
2035.45005,0.00448
2033.38988,0.00464
2031.32971,0.00503
2029.26954,0.00534
2027.20936,0.00540
2025.14919,0.00518
2023.08902,0.00478
2021.02885,0.00425
2018.96867,0.00353
2016.90850,0.00250
2014.84833,0.00124
2012.78816,0.00027
2010.72799,0.00000
2008.66781,0.00035
2006.60764,0.00109
2004.54747,0.00195
2002.48730,0.00255
2000.42713,0.00250
1998.36695,0.00188
1996.30678,0.00121
1994.24661,0.00106
1992.18644,0.00169
1990.12626,0.00307
1988.06609,0.00470
1986.00592,0.00600
1983.94575,0.00671
1981.88558,0.00684
1979.82540,0.00634
1977.76523,0.00510
1975.70506,0.00329
1973.64489,0.00163
1971.58472,0.00099
1969.52454,0.00154
1967.46437,0.00274
1965.40420,0.00386
1963.34403,0.00431
1961.28386,0.00394
1959.22368,0.00298
1957.16351,0.00197
1955.10334,0.00146
1953.04317,0.00168
1950.98299,0.00246
1948.92282,0.00336
1946.86265,0.00392
1944.80248,0.00397
1942.74231,0.00353
1940.68213,0.00276
1938.62196,0.00195
1936.56179,0.00144
1934.50162,0.00141
1932.44145,0.00168
1930.38127,0.00192
1928.32110,0.00204
1926.26093,0.00218
1924.20076,0.00237
1922.14059,0.00252
1920.08041,0.00253
1918.02024,0.00236
1915.96007,0.00205
1913.89990,0.00176
1911.83972,0.00169
1909.77955,0.00191
1907.71938,0.00224
1905.65921,0.00247
1903.59904,0.00254
1901.53886,0.00256
1899.47869,0.00262
1897.41852,0.00257
1895.35835,0.00220
1893.29818,0.00161
1891.23800,0.00112
1889.17783,0.00097
1887.11766,0.00116
1885.05749,0.00156
1882.99731,0.00202
1880.93714,0.00227
1878.87697,0.00214
1876.81680,0.00180
1874.75663,0.00162
1872.69645,0.00177
1870.63628,0.00212
1868.57611,0.00252
1866.51594,0.00283
1864.45577,0.00281
1862.39559,0.00232
1860.33542,0.00159
1858.27525,0.00109
1856.21508,0.00100
1854.15491,0.00115
1852.09473,0.00130
1850.03456,0.00138
1847.97439,0.00141
1845.91422,0.00144
1843.85404,0.00150
1841.79387,0.00164
1839.73370,0.00182
1837.67353,0.00194
1835.61336,0.00191
1833.55318,0.00172
1831.49301,0.00143
1829.43284,0.00114
1827.37267,0.00095
1825.31250,0.00094
1823.25232,0.00112
1821.19215,0.00139
1819.13198,0.00161
1817.07181,0.00171
1815.01163,0.00170
1812.95146,0.00162
1810.89129,0.00152
1808.83112,0.00145
1806.77095,0.00145
1804.71077,0.00149
1802.65060,0.00151
1800.59043,0.00146
1798.53026,0.00132
1796.47009,0.00109
1794.40991,0.00084
1792.34974,0.00073
1790.28957,0.00081
1788.22940,0.00100
1786.16923,0.00111
1784.10905,0.00106
1782.04888,0.00090
1779.98871,0.00077
1777.92854,0.00076
1775.86836,0.00086
1773.80819,0.00102
1771.74802,0.00122
1769.68785,0.00140
1767.62768,0.00152
1765.56750,0.00165
1763.50733,0.00191
1761.44716,0.00238
1759.38699,0.00305
1757.32682,0.00375
1755.26664,0.00431
1753.20647,0.00468
1751.14630,0.00491
1749.08613,0.00511
1747.02596,0.00540
1744.96578,0.00581
1742.90561,0.00635
1740.84544,0.00691
1738.78527,0.00737
1736.72509,0.00764
1734.66492,0.00775
1732.60475,0.00780
1730.54458,0.00783
1728.48441,0.00785
1726.42423,0.00783
1724.36406,0.00767
1722.30389,0.00732
1720.24372,0.00677
1718.18355,0.00610
1716.12337,0.00555
1714.06320,0.00526
1712.00303,0.00512
1709.94286,0.00491
1707.88268,0.00456
1705.82251,0.00415
1703.76234,0.00378
1701.70217,0.00348
1699.64200,0.00330
1697.58182,0.00329
1695.52165,0.00344
1693.46148,0.00365
1691.40131,0.00377
1689.34114,0.00378
1687.28096,0.00378
1685.22079,0.00392
1683.16062,0.00433
1681.10045,0.00489
1679.04028,0.00538
1676.98010,0.00572
1674.91993,0.00607
1672.85976,0.00653
1670.79959,0.00709
1668.73941,0.00773
1666.67924,0.00844
1664.61907,0.00918
1662.55890,0.00989
1660.49873,0.01051
1658.43855,0.01102
1656.37838,0.01146
1654.31821,0.01191
1652.25804,0.01244
1650.19787,0.01296
1648.13769,0.01341
1646.07752,0.01388
1644.01735,0.01434
1641.95718,0.01465
1639.89701,0.01471
1637.83683,0.01463
1635.77666,0.01457
1633.71649,0.01463
1631.65632,0.01474
1629.59614,0.01484
1627.53597,0.01496
1625.47580,0.01506
1623.41563,0.01507
1621.35546,0.01502
1619.29528,0.01500
1617.23511,0.01505
1615.17494,0.01521
1613.11477,0.01538
1611.05460,0.01545
1608.99442,0.01534
1606.93425,0.01506
1604.87408,0.01459
1602.81391,0.01398
1600.75373,0.01330
1598.69356,0.01258
1596.63339,0.01184
1594.57322,0.01109
1592.51305,0.01035
1590.45287,0.00960
1588.39270,0.00883
1586.33253,0.00809
1584.27236,0.00739
1582.21219,0.00666
1580.15201,0.00587
1578.09184,0.00512
1576.03167,0.00453
1573.97150,0.00413
1571.91133,0.00379
1569.85115,0.00346
1567.79098,0.00321
1565.73081,0.00304
1563.67064,0.00288
1561.61046,0.00262
1559.55029,0.00235
1557.49012,0.00225
1555.42995,0.00232
1553.36978,0.00239
1551.30960,0.00232
1549.24943,0.00212
1547.18926,0.00187
1545.12909,0.00163
1543.06892,0.00141
1541.00874,0.00119
1538.94857,0.00098
1536.88840,0.00081
1534.82823,0.00069
1532.76805,0.00065
1530.70788,0.00068
1528.64771,0.00069
1526.58754,0.00059
1524.52737,0.00039
1522.46719,0.00015
1520.40702,0.00000
1518.34685,0.00002
1516.28668,0.00021
1514.22651,0.00049
1512.16633,0.00072
1510.10616,0.00079
1508.04599,0.00072
1505.98582,0.00067
1503.92565,0.00078
1501.86547,0.00097
1499.80530,0.00112
1497.74513,0.00122
1495.68496,0.00129
1493.62478,0.00131
1491.56461,0.00129
1489.50444,0.00130
1487.44427,0.00139
1485.38410,0.00159
1483.32392,0.00191
1481.26375,0.00229
1479.20358,0.00262
1477.14341,0.00286
1475.08324,0.00311
1473.02306,0.00353
1470.96289,0.00419
1468.90272,0.00493
1466.84255,0.00561
1464.78238,0.00621
1462.72220,0.00668
1460.66203,0.00698
1458.60186,0.00718
1456.54169,0.00748
1454.48151,0.00793
1452.42134,0.00840
1450.36117,0.00881
1448.30100,0.00919
1446.24083,0.00960
1444.18065,0.01007
1442.12048,0.01054
1440.06031,0.01088
1438.00014,0.01108
1435.93997,0.01126
1433.87979,0.01153
1431.81962,0.01195
1429.75945,0.01246
1427.69928,0.01300
1425.63910,0.01344
1423.57893,0.01374
1421.51876,0.01394
1419.45859,0.01406
1417.39842,0.01415
1415.33824,0.01426
1413.27807,0.01433
1411.21790,0.01435
1409.15773,0.01432
1407.09756,0.01420
1405.03738,0.01395
1402.97721,0.01357
1400.91704,0.01318
1398.85687,0.01285
1396.79670,0.01257
1394.73652,0.01234
1392.67635,0.01217
1390.61618,0.01205
1388.55601,0.01202
1386.49583,0.01211
1384.43566,0.01236
1382.37549,0.01272
1380.31532,0.01308
1378.25515,0.01334
1376.19497,0.01352
1374.13480,0.01372
1372.07463,0.01394
1370.01446,0.01409
1367.95429,0.01408
1365.89411,0.01392
1363.83394,0.01365
1361.77377,0.01337
1359.71360,0.01312
1357.65343,0.01287
1355.59325,0.01261
1353.53308,0.01243
1351.47291,0.01239
1349.41274,0.01244
1347.35256,0.01250
1345.29239,0.01246
1343.23222,0.01234
1341.17205,0.01212
1339.11188,0.01187
1337.05170,0.01163
1334.99153,0.01146
1332.93136,0.01138
1330.87119,0.01138
1328.81102,0.01144
1326.75084,0.01149
1324.69067,0.01149
1322.63050,0.01147
1320.57033,0.01148
1318.51015,0.01157
1316.44998,0.01168
1314.38981,0.01174
1312.32964,0.01170
1310.26947,0.01161
1308.20929,0.01148
1306.14912,0.01134
1304.08895,0.01114
1302.02878,0.01089
1299.96861,0.01066
1297.90843,0.01048
1295.84826,0.01032
1293.78809,0.01015
1291.72792,0.01000
1289.66775,0.00986
1287.60757,0.00969
1285.54740,0.00949
1283.48723,0.00929
1281.42706,0.00914
1279.36688,0.00912
1277.30671,0.00924
1275.24654,0.00950
1273.18637,0.00989
1271.12620,0.01034
1269.06602,0.01079
1267.00585,0.01122
1264.94568,0.01162
1262.88551,0.01202
1260.82534,0.01240
1258.76516,0.01277
1256.70499,0.01316
1254.64482,0.01355
1252.58465,0.01385
1250.52447,0.01403
1248.46430,0.01408
1246.40413,0.01404
1244.34396,0.01395
1242.28379,0.01382
1240.22361,0.01365
1238.16344,0.01341
1236.10327,0.01308
1234.04310,0.01272
1231.98293,0.01235
1229.92275,0.01195
1227.86258,0.01146
1225.80241,0.01092
1223.74224,0.01042
1221.68207,0.00998
1219.62189,0.00950
1217.56172,0.00893
1215.50155,0.00829
1213.44138,0.00762
1211.38120,0.00697
1209.32103,0.00630
1207.26086,0.00556
1205.20069,0.00470
1203.14052,0.00373
1201.08034,0.00272
1199.02017,0.00180
1196.96000,0.00104
1194.89983,0.00047
1192.83966,0.00014
1190.77948,0.00000
1188.71931,-0.00011
1186.65914,-0.00008
1184.59897,0.00007
1182.53880,0.00025
1180.47862,0.00052
1178.41845,0.00101
1176.35828,0.00170
1174.29811,0.00260
1172.23793,0.00376
1170.17776,0.00508
1168.11759,0.00638
1166.05742,0.00746
1163.99725,0.00830
1161.93707,0.00910
1159.87690,0.00993
1157.81673,0.01077
1155.75656,0.01165
1153.69639,0.01257
1151.63621,0.01341
1149.57604,0.01408
1147.51587,0.01450
1145.45570,0.01472
1143.39552,0.01489
1141.33535,0.01509
1139.27518,0.01534
1137.21501,0.01565
1135.15484,0.01598
1133.09466,0.01628
1131.03449,0.01668
1128.97432,0.01722
1126.91415,0.01792
1124.85398,0.01880
1122.79380,0.01983
1120.73363,0.02089
1118.67346,0.02181
1116.61329,0.02252
1114.55312,0.02318
1112.49294,0.02393
1110.43277,0.02474
1108.37260,0.02554
1106.31243,0.02636
1104.25225,0.02732
1102.19208,0.02852
1100.13191,0.02990
1098.07174,0.03123
1096.01157,0.03234
1093.95139,0.03333
1091.89122,0.03438
1089.83105,0.03546
1087.77088,0.03643
1085.71071,0.03736
1083.65053,0.03833
1081.59036,0.03937
1079.53019,0.04046
1077.47002,0.04154
1075.40985,0.04260
1073.34967,0.04371
1071.28950,0.04478
1069.22933,0.04551
1067.16916,0.04596
1065.10898,0.04644
1063.04881,0.04690
1060.98864,0.04718
1058.92847,0.04734
1056.86830,0.04754
1054.80812,0.04799
1052.74795,0.04874
1050.68778,0.04963
1048.62761,0.05051
1046.56744,0.05136
1044.50726,0.05221
1042.44709,0.05300
1040.38692,0.05363
1038.32675,0.05413
1036.26657,0.05463
1034.20640,0.05518
1032.14623,0.05570
1030.08606,0.05609
1028.02589,0.05636
1025.96571,0.05664
1023.90554,0.05695
1021.84537,0.05715
1019.78520,0.05702
1017.72503,0.05649
1015.66485,0.05590
1013.60468,0.05575
1011.54451,0.05609
1009.48434,0.05637
1007.42417,0.05613
1005.36399,0.05543
1003.30382,0.05473
1001.24365,0.05436
999.18348,0.05405
997.12330,0.05335
995.06313,0.05230
993.00296,0.05133
990.94279,0.05066
988.88262,0.05013
986.82244,0.04958
984.76227,0.04900
982.70210,0.04838
980.64193,0.04770
978.58176,0.04711
976.52158,0.04672
974.46141,0.04639
972.40124,0.04589
970.34107,0.04528
968.28089,0.04466
966.22072,0.04409
964.16055,0.04365
962.10038,0.04317
960.04021,0.04242
957.98003,0.04163
955.91986,0.04102
953.85969,0.04034
951.79952,0.03940
949.73935,0.03843
947.67917,0.03754
945.61900,0.03646
943.55883,0.03502
941.49866,0.03331
939.43849,0.03139
937.37831,0.02923
935.31814,0.02694
933.25797,0.02468
931.19780,0.02263
929.13762,0.02084
927.07745,0.01924
925.01728,0.01772
922.95711,0.01638
920.89694,0.01534
918.83676,0.01456
916.77659,0.01366
914.71642,0.01224
912.65625,0.01064
910.59608,0.00958
908.53590,0.00917
906.47573,0.00902
904.41556,0.00888
902.35539,0.00877
900.29522,0.00881
898.23504,0.00899
896.17487,0.00913
894.11470,0.00908
892.05453,0.00884
889.99435,0.00841
887.93418,0.00806
885.87401,0.00792
883.81384,0.00766
881.75367,0.00724
879.69349,0.00677
877.63332,0.00601
875.57315,0.00516
873.51298,0.00476
871.45281,0.00461
869.39263,0.00418
867.33246,0.00362
865.27229,0.00341
863.21212,0.00339
861.15194,0.00303
859.09177,0.00237
857.03160,0.00200
854.97143,0.00217
852.91126,0.00256
850.85108,0.00279
848.79091,0.00287
846.73074,0.00291
844.67057,0.00270
842.61040,0.00210
840.55022,0.00144
838.49005,0.00111
836.42988,0.00093
834.36971,0.00050
832.30954,0.00000
830.24936,-0.00008
828.18919,0.00023
826.12902,0.00047
824.06885,0.00062
822.00867,0.00082
819.94850,0.00097
817.88833,0.00102
815.82816,0.00116
813.76799,0.00156
811.70781,0.00227
809.64764,0.00312
807.58747,0.00373
805.52730,0.00390
803.46713,0.00374
801.40695,0.00338
799.34678,0.00287
797.28661,0.00199
795.22644,0.00094
793.16627,0.00054
791.10609,0.00095
789.04592,0.00142
786.98575,0.00146
784.92558,0.00117
782.86540,0.00075
780.80523,0.00060
778.74506,0.00100
776.68489,0.00137
774.62472,0.00131
772.56454,0.00136
770.50437,0.00176
768.44420,0.00206
766.38403,0.00205
764.32386,0.00190
762.26368,0.00190
760.20351,0.00218
758.14334,0.00253
756.08317,0.00272
754.02299,0.00267
751.96282,0.00225
749.90265,0.00151
747.84248,0.00119
745.78231,0.00163
743.72213,0.00166
741.66196,0.00073
739.60179,0.00000
737.54162,0.00011
735.48145,0.00081
733.42127,0.00191
731.36110,0.00330
729.30093,0.00409
727.24076,0.00380
725.18059,0.00303
723.12041,0.00244
721.06024,0.00212
719.00007,0.00214
716.93990,0.00257
714.87972,0.00326
712.81955,0.00384
710.75938,0.00388
708.69921,0.00338
706.63904,0.00285
704.57886,0.00275
702.51869,0.00317
700.45852,0.00398
698.39835,0.00479
696.33818,0.00506
694.27800,0.00456
692.21783,0.00345
690.15766,0.00200
688.09749,0.00066
686.03731,0.00000
683.97714,0.00032
681.91697,0.00135
679.85680,0.00251
677.79663,0.00326
675.73645,0.00333
673.67628,0.00297
671.61611,0.00271
669.55594,0.00266
667.49577,0.00227
665.43559,0.00126
663.37542,0.00032
661.31525,0.00016
659.25508,0.00089
657.19491,0.00211
655.13473,0.00313
653.07456,0.00328
651.01439,0.00239
648.95422,0.00101
646.89404,0.00000
644.83387,-0.00006
642.77370,0.00091
640.71353,0.00232
638.65336,0.00323
636.59318,0.00304
634.53301,0.00193
632.47284,0.00053
630.41267,-0.00050
628.35250,-0.00079
626.29232,-0.00030
624.23215,0.00070
622.17198,0.00199
620.11181,0.00226
618.05164,0.00063
615.99146,-0.00040
613.93129,0.00157
611.87112,0.00441
609.81095,0.00498
607.75077,0.00343
605.69060,0.00169
603.63043,0.00061
601.57026,0.00021
599.51009,0.00000
