3996.73391,0.00041
3994.67373,0.00056
3992.61356,0.00065
3990.55339,0.00046
3988.49322,0.00014
3986.43305,0.00000
3984.37287,0.00012
3982.31270,0.00034
3980.25253,0.00042
3978.19236,0.00036
3976.13219,0.00045
3974.07201,0.00070
3972.01184,0.00084
3969.95167,0.00082
3967.89150,0.00073
3965.83133,0.00061
3963.77115,0.00045
3961.71098,0.00040
3959.65081,0.00057
3957.59064,0.00076
3955.53046,0.00075
3953.47029,0.00059
3951.41012,0.00039
3949.34995,0.00027
3947.28978,0.00039
3945.22960,0.00075
3943.16943,0.00113
3941.10926,0.00125
3939.04909,0.00106
3936.98892,0.00073
3934.92874,0.00047
3932.86857,0.00044
3930.80840,0.00065
3928.74823,0.00084
3926.68805,0.00081
3924.62788,0.00056
3922.56771,0.00037
3920.50754,0.00035
3918.44737,0.00032
3916.38719,0.00032
3914.32702,0.00047
3912.26685,0.00069
3910.20668,0.00079
3908.14651,0.00074
3906.08633,0.00064
3904.02616,0.00057
3901.96599,0.00053
3899.90582,0.00051
3897.84565,0.00049
3895.78547,0.00053
3893.72530,0.00068
3891.66513,0.00072
3889.60496,0.00046
3887.54478,0.00015
3885.48461,0.00015
3883.42444,0.00035
3881.36427,0.00039
3879.30410,0.00041
3877.24392,0.00045
3875.18375,0.00041
3873.12358,0.00044
3871.06341,0.00061
3869.00324,0.00061
3866.94306,0.00030
3864.88289,0.00004
3862.82272,0.00003
3860.76255,0.00010
3858.70237,0.00011
3856.64220,0.00007
3854.58203,0.00017
3852.52186,0.00048
3850.46169,0.00078
3848.40151,0.00081
3846.34134,0.00068
3844.28117,0.00065
3842.22100,0.00067
3840.16083,0.00052
3838.10065,0.00037
3836.04048,0.00051
3833.98031,0.00067
3831.92014,0.00073
3829.85997,0.00078
3827.79979,0.00068
3825.73962,0.00033
3823.67945,0.00004
3821.61928,0.00030
3819.55910,0.00086
3817.49893,0.00103
3815.43876,0.00090
3813.37859,0.00080
3811.31842,0.00086
3809.25824,0.00111
3807.19807,0.00137
3805.13790,0.00129
3803.07773,0.00105
3801.01756,0.00101
3798.95738,0.00110
3796.89721,0.00111
3794.83704,0.00106
3792.77687,0.00098
3790.71670,0.00096
3788.65652,0.00111
3786.59635,0.00133
3784.53618,0.00149
3782.47601,0.00150
3780.41583,0.00140
3778.35566,0.00143
3776.29549,0.00161
3774.23532,0.00162
3772.17515,0.00133
3770.11497,0.00098
3768.05480,0.00078
3765.99463,0.00072
3763.93446,0.00062
3761.87429,0.00055
3759.81411,0.00066
3757.75394,0.00061
3755.69377,0.00027
3753.63360,0.00005
3751.57342,0.00008
3749.51325,0.00009
3747.45308,0.00010
3745.39291,0.00028
3743.33274,0.00057
3741.27256,0.00048
3739.21239,0.00017
3737.15222,0.00021
3735.09205,0.00060
3733.03188,0.00078
3730.97170,0.00082
3728.91153,0.00101
3726.85136,0.00134
3724.79119,0.00157
3722.73102,0.00153
3720.67084,0.00137
3718.61067,0.00115
3716.55050,0.00100
3714.49033,0.00101
3712.43015,0.00114
3710.36998,0.00122
3708.30981,0.00108
3706.24964,0.00095
3704.18947,0.00092
3702.12929,0.00103
3700.06912,0.00119
3698.00895,0.00127
3695.94878,0.00117
3693.88861,0.00083
3691.82843,0.00066
3689.76826,0.00104
3687.70809,0.00162
3685.64792,0.00189
3683.58775,0.00190
3681.52757,0.00175
3679.46740,0.00144
3677.40723,0.00104
3675.34706,0.00081
3673.28688,0.00078
3671.22671,0.00087
3669.16654,0.00119
3667.10637,0.00160
3665.04620,0.00190
3662.98602,0.00201
3660.92585,0.00190
3658.86568,0.00168
3656.80551,0.00155
3654.74534,0.00163
3652.68516,0.00188
3650.62499,0.00202
3648.56482,0.00189
3646.50465,0.00190
3644.44447,0.00206
3642.38430,0.00230
3640.32413,0.00253
3638.26396,0.00259
3636.20379,0.00252
3634.14361,0.00241
3632.08344,0.00250
3630.02327,0.00304
3627.96310,0.00371
3625.90293,0.00391
3623.84275,0.00384
3621.78258,0.00376
3619.72241,0.00367
3617.66224,0.00366
3615.60207,0.00378
3613.54189,0.00392
3611.48172,0.00387
3609.42155,0.00395
3607.36138,0.00436
3605.30120,0.00468
3603.24103,0.00480
3601.18086,0.00480
3599.12069,0.00478
3597.06052,0.00478
3595.00034,0.00483
3592.94017,0.00488
3590.88000,0.00507
3588.81983,0.00538
3586.75966,0.00565
3584.69948,0.00581
3582.63931,0.00595
3580.57914,0.00621
3578.51897,0.00658
3576.45879,0.00694
3574.39862,0.00724
3572.33845,0.00747
3570.27828,0.00754
3568.21811,0.00755
3566.15793,0.00755
3564.09776,0.00762
3562.03759,0.00787
3559.97742,0.00814
3557.91725,0.00824
3555.85707,0.00834
3553.79690,0.00855
3551.73673,0.00874
3549.67656,0.00883
3547.61639,0.00896
3545.55621,0.00926
3543.49604,0.00954
3541.43587,0.00969
3539.37570,0.00982
3537.31552,0.01005
3535.25535,0.01039
3533.19518,0.01063
3531.13501,0.01076
3529.07484,0.01090
3527.01466,0.01102
3524.95449,0.01101
3522.89432,0.01094
3520.83415,0.01095
3518.77398,0.01119
3516.71380,0.01159
3514.65363,0.01193
3512.59346,0.01214
3510.53329,0.01223
3508.47312,0.01226
3506.41294,0.01229
3504.35277,0.01242
3502.29260,0.01263
3500.23243,0.01284
3498.17225,0.01298
3496.11208,0.01309
3494.05191,0.01325
3491.99174,0.01335
3489.93157,0.01342
3487.87139,0.01372
3485.81122,0.01417
3483.75105,0.01436
3481.69088,0.01424
3479.63071,0.01423
3477.57053,0.01446
3475.51036,0.01464
3473.45019,0.01481
3471.39002,0.01513
3469.32984,0.01539
3467.26967,0.01545
3465.20950,0.01552
3463.14933,0.01565
3461.08916,0.01582
3459.02898,0.01606
3456.96881,0.01621
3454.90864,0.01615
3452.84847,0.01604
3450.78830,0.01612
3448.72812,0.01644
3446.66795,0.01677
3444.60778,0.01694
3442.54761,0.01693
3440.48744,0.01689
3438.42726,0.01702
3436.36709,0.01718
3434.30692,0.01720
3432.24675,0.01726
3430.18657,0.01746
3428.12640,0.01759
3426.06623,0.01761
3424.00606,0.01764
3421.94589,0.01776
3419.88571,0.01785
3417.82554,0.01790
3415.76537,0.01799
3413.70520,0.01817
3411.64503,0.01844
3409.58485,0.01866
3407.52468,0.01884
3405.46451,0.01906
3403.40434,0.01924
3401.34416,0.01932
3399.28399,0.01908
3397.22382,0.01902
3395.16365,0.01911
3393.10348,0.01920
3391.04330,0.01929
3388.98313,0.01941
3386.92296,0.01952
3384.86279,0.01965
3382.80262,0.01974
3380.74244,0.01991
3378.68227,0.02030
3376.62210,0.02058
3374.56193,0.02052
3372.50176,0.02036
3370.44158,0.02029
3368.38141,0.02031
3366.32124,0.02033
3364.26107,0.02037
3362.20089,0.02047
3360.14072,0.02057
3358.08055,0.02061
3356.02038,0.02071
3353.96021,0.02089
3351.90003,0.02098
3349.83986,0.02092
3347.77969,0.02085
3345.71952,0.02103
3343.65935,0.02136
3341.59917,0.02143
3339.53900,0.02129
3337.47883,0.02124
3335.41866,0.02131
3333.35849,0.02146
3331.29831,0.02163
3329.23814,0.02173
3327.17797,0.02173
3325.11780,0.02170
3323.05762,0.02166
3320.99745,0.02160
3318.93728,0.02154
3316.87711,0.02144
3314.81694,0.02135
3312.75676,0.02145
3310.69659,0.02178
3308.63642,0.02208
3306.57625,0.02210
3304.51608,0.02190
3302.45590,0.02173
3300.39573,0.02164
3298.33556,0.02167
3296.27539,0.02190
3294.21521,0.02204
3292.15504,0.02190
3290.09487,0.02169
3288.03470,0.02158
3285.97453,0.02161
3283.91435,0.02171
3281.85418,0.02177
3279.79401,0.02175
3277.73384,0.02172
3275.67367,0.02169
3273.61349,0.02159
3271.55332,0.02149
3269.49315,0.02155
3267.43298,0.02171
3265.37281,0.02179
3263.31263,0.02177
3261.25246,0.02183
3259.19229,0.02197
3257.13212,0.02199
3255.07194,0.02173
3253.01177,0.02136
3250.95160,0.02119
3248.89143,0.02123
3246.83126,0.02131
3244.77108,0.02137
3242.71091,0.02143
3240.65074,0.02138
3238.59057,0.02121
3236.53040,0.02106
3234.47022,0.02111
3232.41005,0.02118
3230.34988,0.02101
3228.28971,0.02087
3226.22954,0.02088
3224.16936,0.02081
3222.10919,0.02062
3220.04902,0.02045
3217.98885,0.02035
3215.92867,0.02034
3213.86850,0.02039
3211.80833,0.02045
3209.74816,0.02044
3207.68799,0.02032
3205.62781,0.02017
3203.56764,0.02005
3201.50747,0.01994
3199.44730,0.01974
3197.38713,0.01960
3195.32695,0.01963
3193.26678,0.01955
3191.20661,0.01934
3189.14644,0.01929
3187.08626,0.01935
3185.02609,0.01926
3182.96592,0.01903
3180.90575,0.01886
3178.84558,0.01883
3176.78540,0.01882
3174.72523,0.01872
3172.66506,0.01853
3170.60489,0.01834
3168.54472,0.01819
3166.48454,0.01800
3164.42437,0.01778
3162.36420,0.01766
3160.30403,0.01761
3158.24386,0.01757
3156.18368,0.01761
3154.12351,0.01761
3152.06334,0.01749
3150.00317,0.01728
3147.94299,0.01710
3145.88282,0.01703
3143.82265,0.01696
3141.76248,0.01682
3139.70231,0.01659
3137.64213,0.01631
3135.58196,0.01606
3133.52179,0.01589
3131.46162,0.01584
3129.40145,0.01584
3127.34127,0.01578
3125.28110,0.01554
3123.22093,0.01519
3121.16076,0.01506
3119.10058,0.01501
3117.04041,0.01475
3114.98024,0.01449
3112.92007,0.01440
3110.85990,0.01435
3108.79972,0.01431
3106.73955,0.01425
3104.67938,0.01405
3102.61921,0.01385
3100.55904,0.01375
3098.49886,0.01362
3096.43869,0.01337
3094.37852,0.01321
3092.31835,0.01323
3090.25818,0.01327
3088.19800,0.01320
3086.13783,0.01301
3084.07766,0.01264
3082.01749,0.01221
3079.95731,0.01198
3077.89714,0.01207
3075.83697,0.01234
3073.77680,0.01252
3071.71663,0.01237
3069.65645,0.01194
3067.59628,0.01158
3065.53611,0.01154
3063.47594,0.01159
3061.41577,0.01144
3059.35559,0.01115
3057.29542,0.01092
3055.23525,0.01089
3053.17508,0.01101
3051.11491,0.01107
3049.05473,0.01101
3046.99456,0.01095
3044.93439,0.01092
3042.87422,0.01078
3040.81404,0.01047
3038.75387,0.01012
3036.69370,0.00986
3034.63353,0.00974
3032.57336,0.00975
3030.51318,0.00984
3028.45301,0.00985
3026.39284,0.00975
3024.33267,0.00962
3022.27250,0.00946
3020.21232,0.00935
3018.15215,0.00926
3016.09198,0.00911
3014.03181,0.00905
3011.97163,0.00919
3009.91146,0.00922
3007.85129,0.00900
3005.79112,0.00885
3003.73095,0.00893
3001.67077,0.00912
2999.61060,0.00921
2997.55043,0.00903
2995.49026,0.00886
2993.43009,0.00893
2991.36991,0.00906
2989.30974,0.00897
2987.24957,0.00875
2985.18940,0.00860
2983.12923,0.00867
2981.06905,0.00890
2979.00888,0.00905
2976.94871,0.00913
2974.88854,0.00929
2972.82836,0.00944
2970.76819,0.00947
2968.70802,0.00957
2966.64785,0.00983
2964.58768,0.01015
2962.52750,0.01043
2960.46733,0.01058
2958.40716,0.01057
2956.34699,0.01060
2954.28682,0.01082
2952.22664,0.01099
2950.16647,0.01108
2948.10630,0.01128
2946.04613,0.01157
2943.98596,0.01179
2941.92578,0.01192
2939.86561,0.01201
2937.80544,0.01206
2935.74527,0.01217
2933.68509,0.01242
2931.62492,0.01254
2929.56475,0.01231
2927.50458,0.01204
2925.44441,0.01205
2923.38423,0.01218
2921.32406,0.01215
2919.26389,0.01199
2917.20372,0.01184
2915.14355,0.01175
2913.08337,0.01168
2911.02320,0.01157
2908.96303,0.01151
2906.90286,0.01140
2904.84268,0.01121
2902.78251,0.01111
2900.72234,0.01116
2898.66217,0.01129
2896.60200,0.01139
2894.54182,0.01141
2892.48165,0.01138
2890.42148,0.01129
2888.36131,0.01118
2886.30114,0.01108
2884.24096,0.01100
2882.18079,0.01100
2880.12062,0.01108
2878.06045,0.01104
2876.00028,0.01081
2873.94010,0.01057
2871.87993,0.01040
2869.81976,0.01014
2867.75959,0.00997
2865.69941,0.01004
2863.63924,0.01012
2861.57907,0.01009
2859.51890,0.00987
2857.45873,0.00960
2855.39855,0.00950
2853.33838,0.00938
2851.27821,0.00916
2849.21804,0.00905
2847.15787,0.00909
2845.09769,0.00907
2843.03752,0.00890
2840.97735,0.00871
2838.91718,0.00861
2836.85700,0.00850
2834.79683,0.00829
2832.73666,0.00812
2830.67649,0.00805
2828.61632,0.00810
2826.55614,0.00820
2824.49597,0.00822
2822.43580,0.00807
2820.37563,0.00787
2818.31546,0.00778
2816.25528,0.00775
2814.19511,0.00770
2812.13494,0.00771
2810.07477,0.00774
2808.01460,0.00769
2805.95442,0.00765
2803.89425,0.00765
2801.83408,0.00767
2799.77391,0.00772
2797.71373,0.00770
2795.65356,0.00757
2793.59339,0.00751
2791.53322,0.00749
2789.47305,0.00735
2787.41287,0.00717
2785.35270,0.00710
2783.29253,0.00707
2781.23236,0.00707
2779.17219,0.00711
2777.11201,0.00706
2775.05184,0.00692
2772.99167,0.00692
2770.93150,0.00702
2768.87133,0.00708
2766.81115,0.00702
2764.75098,0.00688
2762.69081,0.00679
2760.63064,0.00670
2758.57046,0.00665
2756.51029,0.00666
2754.45012,0.00672
2752.38995,0.00681
2750.32978,0.00688
2748.26960,0.00685
2746.20943,0.00669
2744.14926,0.00658
2742.08909,0.00659
2740.02892,0.00656
2737.96874,0.00646
2735.90857,0.00643
2733.84840,0.00657
2731.78823,0.00674
2729.72805,0.00670
2727.66788,0.00654
2725.60771,0.00649
2723.54754,0.00659
2721.48737,0.00668
2719.42719,0.00662
2717.36702,0.00655
2715.30685,0.00654
2713.24668,0.00653
2711.18651,0.00656
2709.12633,0.00665
2707.06616,0.00664
2705.00599,0.00647
2702.94582,0.00637
2700.88565,0.00643
2698.82547,0.00643
2696.76530,0.00627
2694.70513,0.00608
2692.64496,0.00602
2690.58478,0.00603
2688.52461,0.00609
2686.46444,0.00618
2684.40427,0.00619
2682.34410,0.00616
2680.28392,0.00616
2678.22375,0.00619
2676.16358,0.00620
2674.10341,0.00608
2672.04324,0.00595
2669.98306,0.00593
2667.92289,0.00592
2665.86272,0.00594
2663.80255,0.00598
2661.74238,0.00602
2659.68220,0.00610
2657.62203,0.00612
2655.56186,0.00598
2653.50169,0.00583
2651.44151,0.00588
2649.38134,0.00600
2647.32117,0.00600
2645.26100,0.00601
2643.20083,0.00608
2641.14065,0.00604
2639.08048,0.00592
2637.02031,0.00580
2634.96014,0.00572
2632.89997,0.00566
2630.83979,0.00562
2628.77962,0.00571
2626.71945,0.00574
2624.65928,0.00550
2622.59910,0.00515
2620.53893,0.00499
2618.47876,0.00506
2616.41859,0.00533
2614.35842,0.00557
2612.29824,0.00552
2610.23807,0.00525
2608.17790,0.00507
2606.11773,0.00505
2604.05756,0.00498
2601.99738,0.00480
2599.93721,0.00465
2597.87704,0.00464
2595.81687,0.00458
2593.75670,0.00450
2591.69652,0.00457
2589.63635,0.00460
2587.57618,0.00461
2585.51601,0.00473
2583.45583,0.00484
2581.39566,0.00493
2579.33549,0.00492
2577.27532,0.00477
2575.21515,0.00461
2573.15497,0.00445
2571.09480,0.00439
2569.03463,0.00451
2566.97446,0.00459
2564.91429,0.00454
2562.85411,0.00457
2560.79394,0.00468
2558.73377,0.00466
2556.67360,0.00460
2554.61342,0.00448
2552.55325,0.00435
2550.49308,0.00435
2548.43291,0.00438
2546.37274,0.00447
2544.31256,0.00468
2542.25239,0.00475
2540.19222,0.00464
2538.13205,0.00454
2536.07188,0.00435
2534.01170,0.00405
2531.95153,0.00398
2529.89136,0.00410
2527.83119,0.00401
2525.77102,0.00383
2523.71084,0.00394
2521.65067,0.00418
2519.59050,0.00415
2517.53033,0.00397
2515.47015,0.00388
2513.40998,0.00390
2511.34981,0.00400
2509.28964,0.00407
2507.22947,0.00407
2505.16929,0.00402
2503.10912,0.00404
2501.04895,0.00408
2498.98878,0.00396
2496.92861,0.00383
2494.86843,0.00376
2492.80826,0.00364
2490.74809,0.00363
2488.68792,0.00376
2486.62775,0.00370
2484.56757,0.00363
2482.50740,0.00379
2480.44723,0.00382
2478.38706,0.00370
2476.32688,0.00376
2474.26671,0.00387
2472.20654,0.00391
2470.14637,0.00392
2468.08620,0.00384
2466.02602,0.00376
2463.96585,0.00381
2461.90568,0.00385
2459.84551,0.00375
2457.78534,0.00374
2455.72516,0.00373
2453.66499,0.00356
2451.60482,0.00353
2449.54465,0.00380
2447.48447,0.00416
2445.42430,0.00420
2443.36413,0.00397
2441.30396,0.00406
2439.24379,0.00436
2437.18361,0.00429
2435.12344,0.00393
2433.06327,0.00374
2431.00310,0.00386
2428.94293,0.00402
2426.88275,0.00396
2424.82258,0.00390
2422.76241,0.00398
2420.70224,0.00396
2418.64207,0.00377
2416.58189,0.00357
2414.52172,0.00356
2412.46155,0.00374
2410.40138,0.00389
2408.34120,0.00391
2406.28103,0.00384
2404.22086,0.00362
2402.16069,0.00340
2400.10052,0.00347
2398.04034,0.00351
2395.98017,0.00340
2393.92000,0.00329
2391.85983,0.00331
2389.79966,0.00347
2387.73948,0.00367
2385.67931,0.00390
2383.61914,0.00406
2381.55897,0.00412
2379.49880,0.00429
2377.43862,0.00460
2375.37845,0.00457
2373.31828,0.00454
2371.25811,0.00475
2369.19793,0.00490
2367.13776,0.00583
2365.07759,0.00735
2363.01742,0.00698
2360.95725,0.00621
2358.89707,0.00456
2356.83690,0.00393
2354.77673,0.00409
2352.71656,0.00468
2350.65639,0.00730
2348.59621,0.00870
2346.53604,0.00525
2344.47587,0.00470
2342.41570,0.00567
2340.35552,0.00645
2338.29535,0.00726
2336.23518,0.00702
2334.17501,0.00616
2332.11484,0.00546
2330.05466,0.00564
2327.99449,0.00598
2325.93432,0.00701
2323.87415,0.00709
2321.81398,0.00665
2319.75380,0.00553
2317.69363,0.00521
2315.63346,0.00498
2313.57329,0.00489
2311.51312,0.00489
2309.45294,0.00459
2307.39277,0.00437
2305.33260,0.00437
2303.27243,0.00442
2301.21225,0.00429
2299.15208,0.00429
2297.09191,0.00424
2295.03174,0.00398
2292.97157,0.00383
2290.91139,0.00393
2288.85122,0.00408
2286.79105,0.00420
2284.73088,0.00426
2282.67071,0.00428
2280.61053,0.00428
2278.55036,0.00424
2276.49019,0.00392
2274.43002,0.00335
2272.36984,0.00300
2270.30967,0.00321
2268.24950,0.00366
2266.18933,0.00380
2264.12916,0.00356
2262.06898,0.00344
2260.00881,0.00353
2257.94864,0.00338
2255.88847,0.00292
2253.82830,0.00278
2251.76812,0.00308
2249.70795,0.00321
2247.64778,0.00296
2245.58761,0.00297
2243.52744,0.00337
2241.46726,0.00346
2239.40709,0.00324
2237.34692,0.00315
2235.28675,0.00306
2233.22657,0.00289
2231.16640,0.00297
2229.10623,0.00359
2227.04606,0.00402
2224.98589,0.00379
2222.92571,0.00346
2220.86554,0.00296
2218.80537,0.00237
2216.74520,0.00226
2214.68503,0.00253
2212.62485,0.00289
2210.56468,0.00317
2208.50451,0.00313
2206.44434,0.00288
2204.38417,0.00294
2202.32399,0.00352
2200.26382,0.00399
2198.20365,0.00371
2196.14348,0.00333
2194.08330,0.00351
2192.02313,0.00389
2189.96296,0.00425
2187.90279,0.00441
2185.84262,0.00417
2183.78244,0.00376
2181.72227,0.00361
2179.66210,0.00373
2177.60193,0.00352
2175.54176,0.00325
2173.48158,0.00384
2171.42141,0.00479
2169.36124,0.00492
2167.30107,0.00443
2165.24089,0.00432
2163.18072,0.00390
2161.12055,0.00201
2159.06038,0.00040
2157.00021,0.00076
2154.94003,0.00161
2152.87986,0.00219
2150.81969,0.00258
2148.75952,0.00224
2146.69935,0.00138
2144.63917,0.00106
2142.57900,0.00174
2140.51883,0.00266
2138.45866,0.00255
2136.39849,0.00162
2134.33831,0.00140
2132.27814,0.00187
2130.21797,0.00192
2128.15780,0.00163
2126.09762,0.00166
2124.03745,0.00210
2121.97728,0.00267
2119.91711,0.00306
2117.85694,0.00311
2115.79676,0.00290
2113.73659,0.00255
2111.67642,0.00235
2109.61625,0.00261
2107.55608,0.00313
2105.49590,0.00328
2103.43573,0.00287
2101.37556,0.00241
2099.31539,0.00244
2097.25521,0.00240
2095.19504,0.00241
2093.13487,0.00284
2091.07470,0.00325
2089.01453,0.00314
2086.95435,0.00285
2084.89418,0.00287
2082.83401,0.00293
2080.77384,0.00278
2078.71367,0.00269
2076.65349,0.00284
2074.59332,0.00319
2072.53315,0.00319
2070.47298,0.00292
2068.41281,0.00307
2066.35263,0.00325
2064.29246,0.00289
2062.23229,0.00263
2060.17212,0.00258
2058.11194,0.00203
2056.05177,0.00168
2053.99160,0.00240
2051.93143,0.00325
2049.87126,0.00318
2047.81108,0.00243
2045.75091,0.00170
2043.69074,0.00134
2041.63057,0.00166
2039.57040,0.00234
2037.51022,0.00234
2035.45005,0.00143
2033.38988,0.00073
2031.32971,0.00092
2029.26954,0.00130
2027.20936,0.00119
2025.14919,0.00103
2023.08902,0.00132
2021.02885,0.00166
2018.96867,0.00171
2016.90850,0.00152
2014.84833,0.00140
2012.78816,0.00166
2010.72799,0.00239
2008.66781,0.00312
2006.60764,0.00302
2004.54747,0.00242
2002.48730,0.00220
2000.42713,0.00205
1998.36695,0.00173
1996.30678,0.00152
1994.24661,0.00144
1992.18644,0.00145
1990.12626,0.00209
1988.06609,0.00328
1986.00592,0.00406
1983.94575,0.00408
1981.88558,0.00365
1979.82540,0.00329
1977.76523,0.00312
1975.70506,0.00270
1973.64489,0.00214
1971.58472,0.00144
1969.52454,0.00070
1967.46437,0.00070
1965.40420,0.00141
1963.34403,0.00179
1961.28386,0.00141
1959.22368,0.00108
1957.16351,0.00136
1955.10334,0.00154
1953.04317,0.00120
1950.98299,0.00075
1948.92282,0.00055
1946.86265,0.00062
1944.80248,0.00079
1942.74231,0.00119
1940.68213,0.00175
1938.62196,0.00195
1936.56179,0.00179
1934.50162,0.00166
1932.44145,0.00157
1930.38127,0.00128
1928.32110,0.00089
1926.26093,0.00073
1924.20076,0.00094
1922.14059,0.00114
1920.08041,0.00101
1918.02024,0.00097
1915.96007,0.00114
1913.89990,0.00125
1911.83972,0.00140
1909.77955,0.00156
1907.71938,0.00161
1905.65921,0.00173
1903.59904,0.00189
1901.53886,0.00183
1899.47869,0.00162
1897.41852,0.00148
1895.35835,0.00148
1893.29818,0.00156
1891.23800,0.00162
1889.17783,0.00150
1887.11766,0.00136
1885.05749,0.00138
1882.99731,0.00140
1880.93714,0.00126
1878.87697,0.00103
1876.81680,0.00093
1874.75663,0.00108
1872.69645,0.00131
1870.63628,0.00149
1868.57611,0.00159
1866.51594,0.00166
1864.45577,0.00158
1862.39559,0.00119
1860.33542,0.00080
1858.27525,0.00078
1856.21508,0.00105
1854.15491,0.00126
1852.09473,0.00131
1850.03456,0.00126
1847.97439,0.00116
1845.91422,0.00103
1843.85404,0.00090
1841.79387,0.00072
1839.73370,0.00056
1837.67353,0.00047
1835.61336,0.00048
1833.55318,0.00060
1831.49301,0.00078
1829.43284,0.00097
1827.37267,0.00109
1825.31250,0.00109
1823.25232,0.00098
1821.19215,0.00095
1819.13198,0.00104
1817.07181,0.00114
1815.01163,0.00115
1812.95146,0.00103
1810.89129,0.00082
1808.83112,0.00072
1806.77095,0.00079
1804.71077,0.00084
1802.65060,0.00080
1800.59043,0.00071
1798.53026,0.00067
1796.47009,0.00069
1794.40991,0.00083
1792.34974,0.00105
1790.28957,0.00113
1788.22940,0.00100
1786.16923,0.00086
1784.10905,0.00089
1782.04888,0.00104
1779.98871,0.00103
1777.92854,0.00081
1775.86836,0.00066
1773.80819,0.00076
1771.74802,0.00099
1769.68785,0.00116
1767.62768,0.00124
1765.56750,0.00127
1763.50733,0.00137
1761.44716,0.00160
1759.38699,0.00185
1757.32682,0.00208
1755.26664,0.00236
1753.20647,0.00271
1751.14630,0.00308
1749.08613,0.00344
1747.02596,0.00372
1744.96578,0.00394
1742.90561,0.00411
1740.84544,0.00420
1738.78527,0.00419
1736.72509,0.00421
1734.66492,0.00442
1732.60475,0.00470
1730.54458,0.00480
1728.48441,0.00474
1726.42423,0.00467
1724.36406,0.00455
1722.30389,0.00433
1720.24372,0.00414
1718.18355,0.00396
1716.12337,0.00363
1714.06320,0.00335
1712.00303,0.00314
1709.94286,0.00295
1707.88268,0.00280
1705.82251,0.00261
1703.76234,0.00245
1701.70217,0.00242
1699.64200,0.00236
1697.58182,0.00221
1695.52165,0.00214
1693.46148,0.00209
1691.40131,0.00207
1689.34114,0.00217
1687.28096,0.00248
1685.22079,0.00294
1683.16062,0.00312
1681.10045,0.00308
1679.04028,0.00324
1676.98010,0.00361
1674.91993,0.00403
1672.85976,0.00442
1670.79959,0.00484
1668.73941,0.00525
1666.67924,0.00548
1664.61907,0.00566
1662.55890,0.00589
1660.49873,0.00606
1658.43855,0.00621
1656.37838,0.00655
1654.31821,0.00712
1652.25804,0.00757
1650.19787,0.00773
1648.13769,0.00786
1646.07752,0.00810
1644.01735,0.00813
1641.95718,0.00813
1639.89701,0.00836
1637.83683,0.00879
1635.77666,0.00910
1633.71649,0.00910
1631.65632,0.00901
1629.59614,0.00906
1627.53597,0.00923
1625.47580,0.00943
1623.41563,0.00964
1621.35546,0.00981
1619.29528,0.01003
1617.23511,0.01026
1615.17494,0.01027
1613.11477,0.01011
1611.05460,0.01001
1608.99442,0.00994
1606.93425,0.00973
1604.87408,0.00941
1602.81391,0.00907
1600.75373,0.00871
1598.69356,0.00830
1596.63339,0.00781
1594.57322,0.00728
1592.51305,0.00681
1590.45287,0.00639
1588.39270,0.00595
1586.33253,0.00545
1584.27236,0.00493
1582.21219,0.00452
1580.15201,0.00428
1578.09184,0.00405
1576.03167,0.00365
1573.97150,0.00321
1571.91133,0.00290
1569.85115,0.00263
1567.79098,0.00229
1565.73081,0.00200
1563.67064,0.00195
1561.61046,0.00224
1559.55029,0.00254
1557.49012,0.00226
1555.42995,0.00170
1553.36978,0.00130
1551.30960,0.00110
1549.24943,0.00102
1547.18926,0.00108
1545.12909,0.00129
1543.06892,0.00149
1541.00874,0.00145
1538.94857,0.00112
1536.88840,0.00079
1534.82823,0.00067
1532.76805,0.00068
1530.70788,0.00064
1528.64771,0.00066
1526.58754,0.00077
1524.52737,0.00086
1522.46719,0.00086
1520.40702,0.00068
1518.34685,0.00054
1516.28668,0.00054
1514.22651,0.00060
1512.16633,0.00078
1510.10616,0.00107
1508.04599,0.00131
1505.98582,0.00129
1503.92565,0.00105
1501.86547,0.00079
1499.80530,0.00076
1497.74513,0.00094
1495.68496,0.00118
1493.62478,0.00133
1491.56461,0.00144
1489.50444,0.00155
1487.44427,0.00159
1485.38410,0.00158
1483.32392,0.00167
1481.26375,0.00193
1479.20358,0.00225
1477.14341,0.00266
1475.08324,0.00320
1473.02306,0.00364
1470.96289,0.00376
1468.90272,0.00376
1466.84255,0.00393
1464.78238,0.00424
1462.72220,0.00451
1460.66203,0.00478
1458.60186,0.00515
1456.54169,0.00552
1454.48151,0.00566
1452.42134,0.00566
1450.36117,0.00579
1448.30100,0.00604
1446.24083,0.00622
1444.18065,0.00637
1442.12048,0.00660
1440.06031,0.00689
1438.00014,0.00723
1435.93997,0.00748
1433.87979,0.00760
1431.81962,0.00773
1429.75945,0.00795
1427.69928,0.00813
1425.63910,0.00824
1423.57893,0.00833
1421.51876,0.00847
1419.45859,0.00870
1417.39842,0.00890
1415.33824,0.00893
1413.27807,0.00891
1411.21790,0.00891
1409.15773,0.00886
1407.09756,0.00878
1405.03738,0.00871
1402.97721,0.00862
1400.91704,0.00849
1398.85687,0.00829
1396.79670,0.00804
1394.73652,0.00784
1392.67635,0.00772
1390.61618,0.00766
1388.55601,0.00768
1386.49583,0.00778
1384.43566,0.00789
1382.37549,0.00800
1380.31532,0.00813
1378.25515,0.00831
1376.19497,0.00852
1374.13480,0.00867
1372.07463,0.00877
1370.01446,0.00885
1367.95429,0.00885
1365.89411,0.00878
1363.83394,0.00865
1361.77377,0.00845
1359.71360,0.00827
1357.65343,0.00816
1355.59325,0.00810
1353.53308,0.00800
1351.47291,0.00787
1349.41274,0.00772
1347.35256,0.00756
1345.29239,0.00743
1343.23222,0.00731
1341.17205,0.00722
1339.11188,0.00717
1337.05170,0.00718
1334.99153,0.00727
1332.93136,0.00738
1330.87119,0.00740
1328.81102,0.00735
1326.75084,0.00727
1324.69067,0.00725
1322.63050,0.00733
1320.57033,0.00745
1318.51015,0.00755
1316.44998,0.00757
1314.38981,0.00750
1312.32964,0.00743
1310.26947,0.00739
1308.20929,0.00735
1306.14912,0.00726
1304.08895,0.00707
1302.02878,0.00683
1299.96861,0.00669
1297.90843,0.00666
1295.84826,0.00661
1293.78809,0.00645
1291.72792,0.00632
1289.66775,0.00630
1287.60757,0.00632
1285.54740,0.00627
1283.48723,0.00618
1281.42706,0.00609
1279.36688,0.00602
1277.30671,0.00603
1275.24654,0.00620
1273.18637,0.00645
1271.12620,0.00663
1269.06602,0.00676
1267.00585,0.00693
1264.94568,0.00718
1262.88551,0.00750
1260.82534,0.00782
1258.76516,0.00809
1256.70499,0.00825
1254.64482,0.00840
1252.58465,0.00855
1250.52447,0.00860
1248.46430,0.00856
1246.40413,0.00849
1244.34396,0.00842
1242.28379,0.00844
1240.22361,0.00844
1238.16344,0.00835
1236.10327,0.00818
1234.04310,0.00793
1231.98293,0.00765
1229.92275,0.00733
1227.86258,0.00696
1225.80241,0.00666
1223.74224,0.00641
1221.68207,0.00618
1219.62189,0.00596
1217.56172,0.00565
1215.50155,0.00525
1213.44138,0.00490
1211.38120,0.00458
1209.32103,0.00419
1207.26086,0.00372
1205.20069,0.00326
1203.14052,0.00282
1201.08034,0.00234
1199.02017,0.00184
1196.96000,0.00137
1194.89983,0.00097
1192.83966,0.00070
1190.77948,0.00061
1188.71931,0.00061
1186.65914,0.00060
1184.59897,0.00064
1182.53880,0.00079
1180.47862,0.00104
1178.41845,0.00140
1176.35828,0.00185
1174.29811,0.00236
1172.23793,0.00293
1170.17776,0.00343
1168.11759,0.00389
1166.05742,0.00444
1163.99725,0.00509
1161.93707,0.00573
1159.87690,0.00616
1157.81673,0.00645
1155.75656,0.00686
1153.69639,0.00733
1151.63621,0.00774
1149.57604,0.00813
1147.51587,0.00850
1145.45570,0.00874
1143.39552,0.00891
1141.33535,0.00908
1139.27518,0.00916
1137.21501,0.00917
1135.15484,0.00935
1133.09466,0.00969
1131.03449,0.01005
1128.97432,0.01044
1126.91415,0.01080
1124.85398,0.01109
1122.79380,0.01153
1120.73363,0.01211
1118.67346,0.01257
1116.61329,0.01298
1114.55312,0.01343
1112.49294,0.01375
1110.43277,0.01401
1108.37260,0.01443
1106.31243,0.01498
1104.25225,0.01555
1102.19208,0.01602
1100.13191,0.01642
1098.07174,0.01698
1096.01157,0.01778
1093.95139,0.01874
1091.89122,0.01955
1089.83105,0.02006
1087.77088,0.02052
1085.71071,0.02111
1083.65053,0.02174
1081.59036,0.02233
1079.53019,0.02294
1077.47002,0.02354
1075.40985,0.02400
1073.34967,0.02437
1071.28950,0.02490
1069.22933,0.02549
1067.16916,0.02589
1065.10898,0.02605
1063.04881,0.02610
1060.98864,0.02627
1058.92847,0.02660
1056.86830,0.02699
1054.80812,0.02731
1052.74795,0.02761
1050.68778,0.02801
1048.62761,0.02843
1046.56744,0.02883
1044.50726,0.02928
1042.44709,0.02974
1040.38692,0.03008
1038.32675,0.03032
1036.26657,0.03059
1034.20640,0.03077
1032.14623,0.03086
1030.08606,0.03097
1028.02589,0.03110
1025.96571,0.03117
1023.90554,0.03115
1021.84537,0.03109
1019.78520,0.03101
1017.72503,0.03107
1015.66485,0.03129
1013.60468,0.03139
1011.54451,0.03136
1009.48434,0.03139
1007.42417,0.03142
1005.36399,0.03127
1003.30382,0.03086
1001.24365,0.03034
999.18348,0.02994
997.12330,0.02975
995.06313,0.02959
993.00296,0.02920
990.94279,0.02873
988.88262,0.02835
986.82244,0.02803
984.76227,0.02776
982.70210,0.02755
980.64193,0.02733
978.58176,0.02718
976.52158,0.02717
974.46141,0.02702
972.40124,0.02660
970.34107,0.02605
968.28089,0.02560
966.22072,0.02526
964.16055,0.02497
962.10038,0.02467
960.04021,0.02421
957.98003,0.02362
955.91986,0.02318
953.85969,0.02292
951.79952,0.02267
949.73935,0.02227
947.67917,0.02168
945.61900,0.02094
943.55883,0.02011
941.49866,0.01919
939.43849,0.01810
937.37831,0.01685
935.31814,0.01541
933.25797,0.01396
931.19780,0.01285
929.13762,0.01199
927.07745,0.01115
925.01728,0.01037
922.95711,0.00974
920.89694,0.00927
918.83676,0.00881
916.77659,0.00824
914.71642,0.00772
912.65625,0.00737
910.59608,0.00713
908.53590,0.00684
906.47573,0.00655
904.41556,0.00647
902.35539,0.00658
900.29522,0.00657
898.23504,0.00641
896.17487,0.00633
894.11470,0.00647
892.05453,0.00671
889.99435,0.00669
887.93418,0.00627
885.87401,0.00579
883.81384,0.00555
881.75367,0.00540
879.69349,0.00514
877.63332,0.00487
875.57315,0.00468
873.51298,0.00457
871.45281,0.00446
869.39263,0.00423
867.33246,0.00398
865.27229,0.00380
863.21212,0.00368
861.15194,0.00361
859.09177,0.00359
857.03160,0.00359
854.97143,0.00359
852.91126,0.00349
850.85108,0.00319
848.79091,0.00282
846.73074,0.00267
844.67057,0.00278
842.61040,0.00271
840.55022,0.00228
838.49005,0.00193
836.42988,0.00193
834.36971,0.00184
832.30954,0.00136
830.24936,0.00094
828.18919,0.00079
826.12902,0.00069
824.06885,0.00071
822.00867,0.00106
819.94850,0.00145
817.88833,0.00154
815.82816,0.00153
813.76799,0.00162
811.70781,0.00175
809.64764,0.00185
807.58747,0.00203
805.52730,0.00219
803.46713,0.00207
801.40695,0.00168
799.34678,0.00112
797.28661,0.00070
795.22644,0.00075
793.16627,0.00101
791.10609,0.00107
789.04592,0.00110
786.98575,0.00116
784.92558,0.00108
782.86540,0.00094
780.80523,0.00087
778.74506,0.00093
776.68489,0.00101
774.62472,0.00088
772.56454,0.00056
770.50437,0.00038
768.44420,0.00039
766.38403,0.00045
764.32386,0.00055
762.26368,0.00077
760.20351,0.00109
758.14334,0.00145
756.08317,0.00169
754.02299,0.00152
751.96282,0.00102
749.90265,0.00071
747.84248,0.00072
745.78231,0.00084
743.72213,0.00111
741.66196,0.00133
739.60179,0.00109
737.54162,0.00082
735.48145,0.00098
733.42127,0.00101
731.36110,0.00061
729.30093,0.00038
727.24076,0.00077
725.18059,0.00116
723.12041,0.00123
721.06024,0.00049
719.00007,0.00045
716.93990,0.00072
714.87972,0.00104
712.81955,0.00149
710.75938,0.00181
708.69921,0.00194
706.63904,0.00214
704.57886,0.00248
702.51869,0.00277
700.45852,0.00310
698.39835,0.00353
696.33818,0.00391
694.27800,0.00406
692.21783,0.00395
690.15766,0.00382
688.09749,0.00385
686.03731,0.00405
683.97714,0.00424
681.91697,0.00431
679.85680,0.00452
677.79663,0.00494
675.73645,0.00525
673.67628,0.00627
671.61611,0.00861
669.55594,0.00569
667.49577,0.00073
665.43559,0.00729
663.37542,0.00565
661.31525,0.00348
659.25508,0.00337
657.19491,0.00360
655.13473,0.00340
653.07456,0.00312
651.01439,0.00343
648.95422,0.00425
646.89404,0.00465
644.83387,0.00325
642.77370,0.00147
640.71353,0.00128
638.65336,0.00261
636.59318,0.00365
634.53301,0.00308
632.47284,0.00159
630.41267,0.00057
628.35250,0.00044
626.29232,0.00118
624.23215,0.00241
622.17198,0.00266
620.11181,0.00188
618.05164,0.00173
615.99146,0.00194
613.93129,0.00242
611.87112,0.00291
609.81095,0.00282
607.75077,0.00293
605.69060,0.00240
603.63043,0.00089
601.57026,0.00000
599.51009,0.00000
