3996.73391,0.00038
3994.67373,0.00018
3992.61356,0.00005
3990.55339,0.00009
3988.49322,0.00024
3986.43305,0.00038
3984.37287,0.00035
3982.31270,0.00016
3980.25253,0.00000
3978.19236,0.00007
3976.13219,0.00040
3974.07201,0.00082
3972.01184,0.00114
3969.95167,0.00126
3967.89150,0.00122
3965.83133,0.00113
3963.77115,0.00110
3961.71098,0.00112
3959.65081,0.00116
3957.59064,0.00119
3955.53046,0.00123
3953.47029,0.00129
3951.41012,0.00136
3949.34995,0.00141
3947.28978,0.00138
3945.22960,0.00116
3943.16943,0.00073
3941.10926,0.00028
3939.04909,0.00010
3936.98892,0.00029
3934.92874,0.00062
3932.86857,0.00079
3930.80840,0.00070
3928.74823,0.00055
3926.68805,0.00051
3924.62788,0.00059
3922.56771,0.00068
3920.50754,0.00069
3918.44737,0.00056
3916.38719,0.00037
3914.32702,0.00025
3912.26685,0.00032
3910.20668,0.00057
3908.14651,0.00097
3906.08633,0.00141
3904.02616,0.00166
3901.96599,0.00164
3899.90582,0.00157
3897.84565,0.00168
3895.78547,0.00193
3893.72530,0.00202
3891.66513,0.00178
3889.60496,0.00130
3887.54478,0.00085
3885.48461,0.00067
3883.42444,0.00080
3881.36427,0.00102
3879.30410,0.00106
3877.24392,0.00100
3875.18375,0.00098
3873.12358,0.00102
3871.06341,0.00098
3869.00324,0.00083
3866.94306,0.00066
3864.88289,0.00056
3862.82272,0.00050
3860.76255,0.00044
3858.70237,0.00043
3856.64220,0.00046
3854.58203,0.00047
3852.52186,0.00045
3850.46169,0.00046
3848.40151,0.00054
3846.34134,0.00075
3844.28117,0.00106
3842.22100,0.00132
3840.16083,0.00138
3838.10065,0.00124
3836.04048,0.00103
3833.98031,0.00087
3831.92014,0.00074
3829.85997,0.00070
3827.79979,0.00086
3825.73962,0.00130
3823.67945,0.00194
3821.61928,0.00251
3819.55910,0.00273
3817.49893,0.00260
3815.43876,0.00221
3813.37859,0.00173
3811.31842,0.00145
3809.25824,0.00147
3807.19807,0.00158
3805.13790,0.00154
3803.07773,0.00123
3801.01756,0.00069
3798.95738,0.00018
3796.89721,0.00000
3794.83704,0.00013
3792.77687,0.00040
3790.71670,0.00071
3788.65652,0.00097
3786.59635,0.00118
3784.53618,0.00138
3782.47601,0.00160
3780.41583,0.00172
3778.35566,0.00158
3776.29549,0.00123
3774.23532,0.00088
3772.17515,0.00069
3770.11497,0.00067
3768.05480,0.00083
3765.99463,0.00116
3763.93446,0.00163
3761.87429,0.00209
3759.81411,0.00232
3757.75394,0.00218
3755.69377,0.00183
3753.63360,0.00153
3751.57342,0.00127
3749.51325,0.00091
3747.45308,0.00062
3745.39291,0.00056
3743.33274,0.00076
3741.27256,0.00125
3739.21239,0.00196
3737.15222,0.00275
3735.09205,0.00326
3733.03188,0.00314
3730.97170,0.00248
3728.91153,0.00175
3726.85136,0.00125
3724.79119,0.00098
3722.73102,0.00085
3720.67084,0.00085
3718.61067,0.00095
3716.55050,0.00114
3714.49033,0.00145
3712.43015,0.00183
3710.36998,0.00198
3708.30981,0.00176
3706.24964,0.00144
3704.18947,0.00133
3702.12929,0.00148
3700.06912,0.00175
3698.00895,0.00197
3695.94878,0.00212
3693.88861,0.00221
3691.82843,0.00217
3689.76826,0.00194
3687.70809,0.00163
3685.64792,0.00142
3683.58775,0.00138
3681.52757,0.00150
3679.46740,0.00178
3677.40723,0.00218
3675.34706,0.00255
3673.28688,0.00279
3671.22671,0.00285
3669.16654,0.00261
3667.10637,0.00214
3665.04620,0.00179
3662.98602,0.00176
3660.92585,0.00199
3658.86568,0.00227
3656.80551,0.00245
3654.74534,0.00255
3652.68516,0.00268
3650.62499,0.00283
3648.56482,0.00283
3646.50465,0.00261
3644.44447,0.00240
3642.38430,0.00239
3640.32413,0.00257
3638.26396,0.00285
3636.20379,0.00318
3634.14361,0.00348
3632.08344,0.00368
3630.02327,0.00375
3627.96310,0.00370
3625.90293,0.00365
3623.84275,0.00371
3621.78258,0.00387
3619.72241,0.00411
3617.66224,0.00445
3615.60207,0.00496
3613.54189,0.00563
3611.48172,0.00631
3609.42155,0.00683
3607.36138,0.00705
3605.30120,0.00692
3603.24103,0.00665
3601.18086,0.00644
3599.12069,0.00637
3597.06052,0.00649
3595.00034,0.00680
3592.94017,0.00721
3590.88000,0.00758
3588.81983,0.00779
3586.75966,0.00779
3584.69948,0.00772
3582.63931,0.00771
3580.57914,0.00775
3578.51897,0.00778
3576.45879,0.00784
3574.39862,0.00799
3572.33845,0.00823
3570.27828,0.00855
3568.21811,0.00890
3566.15793,0.00925
3564.09776,0.00959
3562.03759,0.00985
3559.97742,0.00996
3557.91725,0.00999
3555.85707,0.01002
3553.79690,0.01009
3551.73673,0.01016
3549.67656,0.01030
3547.61639,0.01062
3545.55621,0.01104
3543.49604,0.01134
3541.43587,0.01140
3539.37570,0.01129
3537.31552,0.01115
3535.25535,0.01110
3533.19518,0.01128
3531.13501,0.01174
3529.07484,0.01233
3527.01466,0.01279
3524.95449,0.01306
3522.89432,0.01319
3520.83415,0.01329
3518.77398,0.01341
3516.71380,0.01352
3514.65363,0.01360
3512.59346,0.01364
3510.53329,0.01363
3508.47312,0.01359
3506.41294,0.01358
3504.35277,0.01369
3502.29260,0.01407
3500.23243,0.01478
3498.17225,0.01557
3496.11208,0.01606
3494.05191,0.01614
3491.99174,0.01599
3489.93157,0.01578
3487.87139,0.01557
3485.81122,0.01545
3483.75105,0.01557
3481.69088,0.01594
3479.63071,0.01643
3477.57053,0.01684
3475.51036,0.01707
3473.45019,0.01715
3471.39002,0.01718
3469.32984,0.01721
3467.26967,0.01726
3465.20950,0.01734
3463.14933,0.01746
3461.08916,0.01768
3459.02898,0.01801
3456.96881,0.01834
3454.90864,0.01859
3452.84847,0.01878
3450.78830,0.01894
3448.72812,0.01903
3446.66795,0.01901
3444.60778,0.01891
3442.54761,0.01881
3440.48744,0.01882
3438.42726,0.01902
3436.36709,0.01935
3434.30692,0.01964
3432.24675,0.01979
3430.18657,0.01987
3428.12640,0.01995
3426.06623,0.02004
3424.00606,0.02018
3421.94589,0.02040
3419.88571,0.02068
3417.82554,0.02097
3415.76537,0.02127
3413.70520,0.02158
3411.64503,0.02189
3409.58485,0.02215
3407.52468,0.02230
3405.46451,0.02239
3403.40434,0.02253
3401.34416,0.02276
3399.28399,0.02299
3397.22382,0.02312
3395.16365,0.02317
3393.10348,0.02325
3391.04330,0.02340
3388.98313,0.02349
3386.92296,0.02337
3384.86279,0.02304
3382.80262,0.02269
3380.74244,0.02251
3378.68227,0.02255
3376.62210,0.02281
3374.56193,0.02325
3372.50176,0.02373
3370.44158,0.02409
3368.38141,0.02428
3366.32124,0.02435
3364.26107,0.02444
3362.20089,0.02463
3360.14072,0.02486
3358.08055,0.02494
3356.02038,0.02484
3353.96021,0.02464
3351.90003,0.02446
3349.83986,0.02432
3347.77969,0.02425
3345.71952,0.02427
3343.65935,0.02435
3341.59917,0.02443
3339.53900,0.02443
3337.47883,0.02442
3335.41866,0.02453
3333.35849,0.02478
3331.29831,0.02511
3329.23814,0.02534
3327.17797,0.02540
3325.11780,0.02529
3323.05762,0.02507
3320.99745,0.02479
3318.93728,0.02459
3316.87711,0.02456
3314.81694,0.02474
3312.75676,0.02503
3310.69659,0.02529
3308.63642,0.02543
3306.57625,0.02547
3304.51608,0.02551
3302.45590,0.02559
3300.39573,0.02574
3298.33556,0.02593
3296.27539,0.02609
3294.21521,0.02614
3292.15504,0.02609
3290.09487,0.02599
3288.03470,0.02584
3285.97453,0.02566
3283.91435,0.02551
3281.85418,0.02547
3279.79401,0.02551
3277.73384,0.02552
3275.67367,0.02540
3273.61349,0.02527
3271.55332,0.02527
3269.49315,0.02539
3267.43298,0.02549
3265.37281,0.02545
3263.31263,0.02525
3261.25246,0.02500
3259.19229,0.02485
3257.13212,0.02491
3255.07194,0.02511
3253.01177,0.02531
3250.95160,0.02541
3248.89143,0.02541
3246.83126,0.02534
3244.77108,0.02523
3242.71091,0.02511
3240.65074,0.02503
3238.59057,0.02503
3236.53040,0.02512
3234.47022,0.02524
3232.41005,0.02530
3230.34988,0.02525
3228.28971,0.02516
3226.22954,0.02514
3224.16936,0.02518
3222.10919,0.02520
3220.04902,0.02511
3217.98885,0.02494
3215.92867,0.02480
3213.86850,0.02473
3211.80833,0.02465
3209.74816,0.02447
3207.68799,0.02424
3205.62781,0.02400
3203.56764,0.02377
3201.50747,0.02353
3199.44730,0.02328
3197.38713,0.02302
3195.32695,0.02283
3193.26678,0.02278
3191.20661,0.02288
3189.14644,0.02305
3187.08626,0.02314
3185.02609,0.02306
3182.96592,0.02282
3180.90575,0.02256
3178.84558,0.02238
3176.78540,0.02228
3174.72523,0.02215
3172.66506,0.02188
3170.60489,0.02149
3168.54472,0.02114
3166.48454,0.02098
3164.42437,0.02098
3162.36420,0.02103
3160.30403,0.02103
3158.24386,0.02092
3156.18368,0.02066
3154.12351,0.02029
3152.06334,0.01993
3150.00317,0.01970
3147.94299,0.01958
3145.88282,0.01949
3143.82265,0.01940
3141.76248,0.01939
3139.70231,0.01944
3137.64213,0.01942
3135.58196,0.01927
3133.52179,0.01905
3131.46162,0.01882
3129.40145,0.01858
3127.34127,0.01833
3125.28110,0.01810
3123.22093,0.01791
3121.16076,0.01767
3119.10058,0.01736
3117.04041,0.01706
3114.98024,0.01685
3112.92007,0.01673
3110.85990,0.01664
3108.79972,0.01658
3106.73955,0.01655
3104.67938,0.01650
3102.61921,0.01637
3100.55904,0.01618
3098.49886,0.01596
3096.43869,0.01574
3094.37852,0.01560
3092.31835,0.01551
3090.25818,0.01538
3088.19800,0.01513
3086.13783,0.01487
3084.07766,0.01471
3082.01749,0.01464
3079.95731,0.01454
3077.89714,0.01439
3075.83697,0.01424
3073.77680,0.01412
3071.71663,0.01402
3069.65645,0.01392
3067.59628,0.01376
3065.53611,0.01349
3063.47594,0.01310
3061.41577,0.01272
3059.35559,0.01248
3057.29542,0.01251
3055.23525,0.01272
3053.17508,0.01294
3051.11491,0.01306
3049.05473,0.01311
3046.99456,0.01309
3044.93439,0.01293
3042.87422,0.01263
3040.81404,0.01235
3038.75387,0.01224
3036.69370,0.01227
3034.63353,0.01229
3032.57336,0.01216
3030.51318,0.01183
3028.45301,0.01141
3026.39284,0.01105
3024.33267,0.01087
3022.27250,0.01090
3020.21232,0.01105
3018.15215,0.01121
3016.09198,0.01133
3014.03181,0.01138
3011.97163,0.01136
3009.91146,0.01126
3007.85129,0.01108
3005.79112,0.01086
3003.73095,0.01062
3001.67077,0.01040
2999.61060,0.01029
2997.55043,0.01039
2995.49026,0.01050
2993.43009,0.01050
2991.36991,0.01064
2989.30974,0.01089
2987.24957,0.01101
2985.18940,0.01100
2983.12923,0.01092
2981.06905,0.01075
2979.00888,0.01065
2976.94871,0.01082
2974.88854,0.01123
2972.82836,0.01160
2970.76819,0.01179
2968.70802,0.01179
2966.64785,0.01183
2964.58768,0.01215
2962.52750,0.01251
2960.46733,0.01253
2958.40716,0.01244
2956.34699,0.01269
2954.28682,0.01316
2952.22664,0.01356
2950.16647,0.01389
2948.10630,0.01408
2946.04613,0.01410
2943.98596,0.01413
2941.92578,0.01425
2939.86561,0.01434
2937.80544,0.01430
2935.74527,0.01430
2933.68509,0.01458
2931.62492,0.01492
2929.56475,0.01490
2927.50458,0.01449
2925.44441,0.01406
2923.38423,0.01397
2921.32406,0.01423
2919.26389,0.01445
2917.20372,0.01436
2915.14355,0.01407
2913.08337,0.01376
2911.02320,0.01356
2908.96303,0.01351
2906.90286,0.01351
2904.84268,0.01341
2902.78251,0.01325
2900.72234,0.01322
2898.66217,0.01329
2896.60200,0.01321
2894.54182,0.01310
2892.48165,0.01323
2890.42148,0.01361
2888.36131,0.01396
2886.30114,0.01404
2884.24096,0.01380
2882.18079,0.01340
2880.12062,0.01317
2878.06045,0.01317
2876.00028,0.01310
2873.94010,0.01277
2871.87993,0.01238
2869.81976,0.01210
2867.75959,0.01193
2865.69941,0.01178
2863.63924,0.01160
2861.57907,0.01149
2859.51890,0.01149
2857.45873,0.01148
2855.39855,0.01141
2853.33838,0.01146
2851.27821,0.01158
2849.21804,0.01151
2847.15787,0.01118
2845.09769,0.01081
2843.03752,0.01058
2840.97735,0.01046
2838.91718,0.01030
2836.85700,0.01018
2834.79683,0.01024
2832.73666,0.01032
2830.67649,0.01025
2828.61632,0.01009
2826.55614,0.00992
2824.49597,0.00977
2822.43580,0.00967
2820.37563,0.00957
2818.31546,0.00949
2816.25528,0.00941
2814.19511,0.00932
2812.13494,0.00930
2810.07477,0.00941
2808.01460,0.00937
2805.95442,0.00912
2803.89425,0.00896
2801.83408,0.00918
2799.77391,0.00956
2797.71373,0.00970
2795.65356,0.00961
2793.59339,0.00945
2791.53322,0.00926
2789.47305,0.00906
2787.41287,0.00905
2785.35270,0.00924
2783.29253,0.00937
2781.23236,0.00927
2779.17219,0.00903
2777.11201,0.00876
2775.05184,0.00856
2772.99167,0.00852
2770.93150,0.00866
2768.87133,0.00881
2766.81115,0.00881
2764.75098,0.00865
2762.69081,0.00849
2760.63064,0.00840
2758.57046,0.00842
2756.51029,0.00854
2754.45012,0.00866
2752.38995,0.00869
2750.32978,0.00860
2748.26960,0.00842
2746.20943,0.00829
2744.14926,0.00828
2742.08909,0.00836
2740.02892,0.00851
2737.96874,0.00873
2735.90857,0.00887
2733.84840,0.00877
2731.78823,0.00851
2729.72805,0.00838
2727.66788,0.00849
2725.60771,0.00860
2723.54754,0.00858
2721.48737,0.00866
2719.42719,0.00877
2717.36702,0.00863
2715.30685,0.00828
2713.24668,0.00809
2711.18651,0.00822
2709.12633,0.00839
2707.06616,0.00821
2705.00599,0.00787
2702.94582,0.00779
2700.88565,0.00808
2698.82547,0.00844
2696.76530,0.00847
2694.70513,0.00817
2692.64496,0.00789
2690.58478,0.00778
2688.52461,0.00771
2686.46444,0.00765
2684.40427,0.00767
2682.34410,0.00774
2680.28392,0.00782
2678.22375,0.00788
2676.16358,0.00797
2674.10341,0.00802
2672.04324,0.00798
2669.98306,0.00790
2667.92289,0.00786
2665.86272,0.00781
2663.80255,0.00773
2661.74238,0.00774
2659.68220,0.00790
2657.62203,0.00809
2655.56186,0.00821
2653.50169,0.00823
2651.44151,0.00814
2649.38134,0.00797
2647.32117,0.00772
2645.26100,0.00747
2643.20083,0.00738
2641.14065,0.00749
2639.08048,0.00765
2637.02031,0.00773
2634.96014,0.00769
2632.89997,0.00756
2630.83979,0.00744
2628.77962,0.00751
2626.71945,0.00770
2624.65928,0.00780
2622.59910,0.00774
2620.53893,0.00758
2618.47876,0.00739
2616.41859,0.00731
2614.35842,0.00739
2612.29824,0.00740
2610.23807,0.00727
2608.17790,0.00713
2606.11773,0.00706
2604.05756,0.00715
2601.99738,0.00737
2599.93721,0.00741
2597.87704,0.00714
2595.81687,0.00673
2593.75670,0.00642
2591.69652,0.00635
2589.63635,0.00642
2587.57618,0.00645
2585.51601,0.00659
2583.45583,0.00683
2581.39566,0.00682
2579.33549,0.00647
2577.27532,0.00610
2575.21515,0.00610
2573.15497,0.00650
2571.09480,0.00695
2569.03463,0.00693
2566.97446,0.00647
2564.91429,0.00601
2562.85411,0.00591
2560.79394,0.00612
2558.73377,0.00639
2556.67360,0.00655
2554.61342,0.00651
2552.55325,0.00645
2550.49308,0.00659
2548.43291,0.00670
2546.37274,0.00660
2544.31256,0.00645
2542.25239,0.00641
2540.19222,0.00652
2538.13205,0.00671
2536.07188,0.00673
2534.01170,0.00649
2531.95153,0.00625
2529.89136,0.00619
2527.83119,0.00617
2525.77102,0.00621
2523.71084,0.00642
2521.65067,0.00663
2519.59050,0.00656
2517.53033,0.00614
2515.47015,0.00570
2513.40998,0.00561
2511.34981,0.00586
2509.28964,0.00619
2507.22947,0.00640
2505.16929,0.00653
2503.10912,0.00658
2501.04895,0.00655
2498.98878,0.00662
2496.92861,0.00667
2494.86843,0.00635
2492.80826,0.00588
2490.74809,0.00568
2488.68792,0.00564
2486.62775,0.00557
2484.56757,0.00546
2482.50740,0.00538
2480.44723,0.00548
2478.38706,0.00576
2476.32688,0.00615
2474.26671,0.00660
2472.20654,0.00693
2470.14637,0.00693
2468.08620,0.00658
2466.02602,0.00614
2463.96585,0.00598
2461.90568,0.00632
2459.84551,0.00687
2457.78534,0.00709
2455.72516,0.00679
2453.66499,0.00613
2451.60482,0.00547
2449.54465,0.00516
2447.48447,0.00520
2445.42430,0.00541
2443.36413,0.00561
2441.30396,0.00566
2439.24379,0.00559
2437.18361,0.00554
2435.12344,0.00563
2433.06327,0.00598
2431.00310,0.00640
2428.94293,0.00640
2426.88275,0.00591
2424.82258,0.00545
2422.76241,0.00531
2420.70224,0.00541
2418.64207,0.00563
2416.58189,0.00589
2414.52172,0.00599
2412.46155,0.00577
2410.40138,0.00531
2408.34120,0.00491
2406.28103,0.00486
2404.22086,0.00512
2402.16069,0.00536
2400.10052,0.00549
2398.04034,0.00567
2395.98017,0.00584
2393.92000,0.00587
2391.85983,0.00568
2389.79966,0.00539
2387.73948,0.00516
2385.67931,0.00509
2383.61914,0.00509
2381.55897,0.00503
2379.49880,0.00486
2377.43862,0.00467
2375.37845,0.00451
2373.31828,0.00447
2371.25811,0.00468
2369.19793,0.00529
2367.13776,0.00600
2365.07759,0.00627
2363.01742,0.00588
2360.95725,0.00519
2358.89707,0.00473
2356.83690,0.00473
2354.77673,0.00503
2352.71656,0.00554
2350.65639,0.00612
2348.59621,0.00625
2346.53604,0.00569
2344.47587,0.00484
2342.41570,0.00415
2340.35552,0.00374
2338.29535,0.00353
2336.23518,0.00361
2334.17501,0.00414
2332.11484,0.00503
2330.05466,0.00601
2327.99449,0.00686
2325.93432,0.00739
2323.87415,0.00741
2321.81398,0.00714
2319.75380,0.00694
2317.69363,0.00687
2315.63346,0.00668
2313.57329,0.00634
2311.51312,0.00604
2309.45294,0.00588
2307.39277,0.00580
2305.33260,0.00575
2303.27243,0.00583
2301.21225,0.00614
2299.15208,0.00662
2297.09191,0.00698
2295.03174,0.00699
2292.97157,0.00674
2290.91139,0.00652
2288.85122,0.00653
2286.79105,0.00678
2284.73088,0.00711
2282.67071,0.00729
2280.61053,0.00719
2278.55036,0.00677
2276.49019,0.00615
2274.43002,0.00552
2272.36984,0.00497
2270.30967,0.00454
2268.24950,0.00434
2266.18933,0.00442
2264.12916,0.00464
2262.06898,0.00489
2260.00881,0.00522
2257.94864,0.00569
2255.88847,0.00616
2253.82830,0.00645
2251.76812,0.00667
2249.70795,0.00713
2247.64778,0.00781
2245.58761,0.00800
2243.52744,0.00751
2241.46726,0.00687
2239.40709,0.00658
2237.34692,0.00659
2235.28675,0.00668
2233.22657,0.00677
2231.16640,0.00655
2229.10623,0.00576
2227.04606,0.00474
2224.98589,0.00400
2222.92571,0.00378
2220.86554,0.00391
2218.80537,0.00458
2216.74520,0.00607
2214.68503,0.00749
2212.62485,0.00792
2210.56468,0.00762
2208.50451,0.00695
2206.44434,0.00639
2204.38417,0.00672
2202.32399,0.00741
2200.26382,0.00708
2198.20365,0.00601
2196.14348,0.00576
2194.08330,0.00666
2192.02313,0.00739
2189.96296,0.00684
2187.90279,0.00572
2185.84262,0.00546
2183.78244,0.00597
2181.72227,0.00620
2179.66210,0.00600
2177.60193,0.00584
2175.54176,0.00591
2173.48158,0.00595
2171.42141,0.00563
2169.36124,0.00549
2167.30107,0.00643
2165.24089,0.00780
2163.18072,0.00816
2161.12055,0.00707
2159.06038,0.00472
2157.00021,0.00181
2154.94003,0.00000
2152.87986,0.00076
2150.81969,0.00363
2148.75952,0.00628
2146.69935,0.00698
2144.63917,0.00609
2142.57900,0.00502
2140.51883,0.00469
2138.45866,0.00512
2136.39849,0.00545
2134.33831,0.00494
2132.27814,0.00418
2130.21797,0.00433
2128.15780,0.00537
2126.09762,0.00622
2124.03745,0.00638
2121.97728,0.00631
2119.91711,0.00635
2117.85694,0.00617
2115.79676,0.00566
2113.73659,0.00537
2111.67642,0.00562
2109.61625,0.00596
2107.55608,0.00594
2105.49590,0.00563
2103.43573,0.00513
2101.37556,0.00440
2099.31539,0.00377
2097.25521,0.00371
2095.19504,0.00434
2093.13487,0.00520
2091.07470,0.00572
2089.01453,0.00571
2086.95435,0.00538
2084.89418,0.00507
2082.83401,0.00499
2080.77384,0.00514
2078.71367,0.00539
2076.65349,0.00555
2074.59332,0.00553
2072.53315,0.00532
2070.47298,0.00503
2068.41281,0.00482
2066.35263,0.00481
2064.29246,0.00501
2062.23229,0.00536
2060.17212,0.00573
2058.11194,0.00582
2056.05177,0.00552
2053.99160,0.00498
2051.93143,0.00441
2049.87126,0.00385
2047.81108,0.00320
2045.75091,0.00248
2043.69074,0.00197
2041.63057,0.00203
2039.57040,0.00258
2037.51022,0.00298
2035.45005,0.00266
2033.38988,0.00175
2031.32971,0.00083
2029.26954,0.00038
2027.20936,0.00053
2025.14919,0.00099
2023.08902,0.00134
2021.02885,0.00125
2018.96867,0.00069
2016.90850,0.00000
2014.84833,-0.00003
2012.78816,0.00105
2010.72799,0.00255
2008.66781,0.00333
2006.60764,0.00305
2004.54747,0.00217
2002.48730,0.00136
2000.42713,0.00115
1998.36695,0.00156
1996.30678,0.00221
1994.24661,0.00282
1992.18644,0.00338
1990.12626,0.00384
1988.06609,0.00421
1986.00592,0.00470
1983.94575,0.00528
1981.88558,0.00550
1979.82540,0.00501
1977.76523,0.00418
1975.70506,0.00356
1973.64489,0.00315
1971.58472,0.00265
1969.52454,0.00210
1967.46437,0.00205
1965.40420,0.00288
1963.34403,0.00421
1961.28386,0.00517
1959.22368,0.00517
1957.16351,0.00433
1955.10334,0.00337
1953.04317,0.00305
1950.98299,0.00357
1948.92282,0.00436
1946.86265,0.00478
1944.80248,0.00458
1942.74231,0.00391
1940.68213,0.00305
1938.62196,0.00234
1936.56179,0.00204
1934.50162,0.00213
1932.44145,0.00245
1930.38127,0.00282
1928.32110,0.00319
1926.26093,0.00350
1924.20076,0.00370
1922.14059,0.00371
1920.08041,0.00358
1918.02024,0.00339
1915.96007,0.00326
1913.89990,0.00321
1911.83972,0.00312
1909.77955,0.00271
1907.71938,0.00191
1905.65921,0.00116
1903.59904,0.00084
1901.53886,0.00091
1899.47869,0.00119
1897.41852,0.00159
1895.35835,0.00205
1893.29818,0.00246
1891.23800,0.00275
1889.17783,0.00279
1887.11766,0.00251
1885.05749,0.00205
1882.99731,0.00167
1880.93714,0.00155
1878.87697,0.00169
1876.81680,0.00194
1874.75663,0.00207
1872.69645,0.00197
1870.63628,0.00172
1868.57611,0.00147
1866.51594,0.00135
1864.45577,0.00136
1862.39559,0.00148
1860.33542,0.00170
1858.27525,0.00198
1856.21508,0.00225
1854.15491,0.00245
1852.09473,0.00261
1850.03456,0.00277
1847.97439,0.00286
1845.91422,0.00272
1843.85404,0.00228
1841.79387,0.00177
1839.73370,0.00153
1837.67353,0.00165
1835.61336,0.00186
1833.55318,0.00193
1831.49301,0.00185
1829.43284,0.00178
1827.37267,0.00180
1825.31250,0.00184
1823.25232,0.00178
1821.19215,0.00161
1819.13198,0.00140
1817.07181,0.00120
1815.01163,0.00112
1812.95146,0.00120
1810.89129,0.00140
1808.83112,0.00163
1806.77095,0.00183
1804.71077,0.00200
1802.65060,0.00207
1800.59043,0.00199
1798.53026,0.00178
1796.47009,0.00160
1794.40991,0.00151
1792.34974,0.00142
1790.28957,0.00128
1788.22940,0.00116
1786.16923,0.00115
1784.10905,0.00125
1782.04888,0.00145
1779.98871,0.00168
1777.92854,0.00191
1775.86836,0.00211
1773.80819,0.00229
1771.74802,0.00244
1769.68785,0.00258
1767.62768,0.00272
1765.56750,0.00283
1763.50733,0.00289
1761.44716,0.00295
1759.38699,0.00305
1757.32682,0.00321
1755.26664,0.00348
1753.20647,0.00387
1751.14630,0.00435
1749.08613,0.00480
1747.02596,0.00520
1744.96578,0.00550
1742.90561,0.00566
1740.84544,0.00565
1738.78527,0.00559
1736.72509,0.00567
1734.66492,0.00592
1732.60475,0.00613
1730.54458,0.00611
1728.48441,0.00593
1726.42423,0.00576
1724.36406,0.00574
1722.30389,0.00584
1720.24372,0.00599
1718.18355,0.00605
1716.12337,0.00582
1714.06320,0.00532
1712.00303,0.00475
1709.94286,0.00427
1707.88268,0.00396
1705.82251,0.00382
1703.76234,0.00383
1701.70217,0.00390
1699.64200,0.00385
1697.58182,0.00362
1695.52165,0.00333
1693.46148,0.00311
1691.40131,0.00308
1689.34114,0.00326
1687.28096,0.00358
1685.22079,0.00395
1683.16062,0.00428
1681.10045,0.00455
1679.04028,0.00488
1676.98010,0.00532
1674.91993,0.00583
1672.85976,0.00635
1670.79959,0.00683
1668.73941,0.00718
1666.67924,0.00740
1664.61907,0.00757
1662.55890,0.00773
1660.49873,0.00788
1658.43855,0.00814
1656.37838,0.00860
1654.31821,0.00923
1652.25804,0.00978
1650.19787,0.01010
1648.13769,0.01021
1646.07752,0.01018
1644.01735,0.01012
1641.95718,0.01023
1639.89701,0.01057
1637.83683,0.01098
1635.77666,0.01120
1633.71649,0.01120
1631.65632,0.01113
1629.59614,0.01110
1627.53597,0.01115
1625.47580,0.01128
1623.41563,0.01144
1621.35546,0.01156
1619.29528,0.01161
1617.23511,0.01159
1615.17494,0.01147
1613.11477,0.01128
1611.05460,0.01112
1608.99442,0.01096
1606.93425,0.01072
1604.87408,0.01027
1602.81391,0.00960
1600.75373,0.00875
1598.69356,0.00788
1596.63339,0.00712
1594.57322,0.00651
1592.51305,0.00598
1590.45287,0.00549
1588.39270,0.00500
1586.33253,0.00451
1584.27236,0.00408
1582.21219,0.00375
1580.15201,0.00353
1578.09184,0.00334
1576.03167,0.00307
1573.97150,0.00275
1571.91133,0.00256
1569.85115,0.00253
1567.79098,0.00255
1565.73081,0.00259
1563.67064,0.00271
1561.61046,0.00295
1559.55029,0.00310
1557.49012,0.00279
1555.42995,0.00206
1553.36978,0.00136
1551.30960,0.00098
1549.24943,0.00095
1547.18926,0.00120
1545.12909,0.00158
1543.06892,0.00192
1541.00874,0.00205
1538.94857,0.00188
1536.88840,0.00148
1534.82823,0.00108
1532.76805,0.00078
1530.70788,0.00062
1528.64771,0.00069
1526.58754,0.00094
1524.52737,0.00127
1522.46719,0.00150
1520.40702,0.00155
1518.34685,0.00143
1516.28668,0.00126
1514.22651,0.00113
1512.16633,0.00118
1510.10616,0.00139
1508.04599,0.00156
1505.98582,0.00140
1503.92565,0.00099
1501.86547,0.00067
1499.80530,0.00064
1497.74513,0.00089
1495.68496,0.00119
1493.62478,0.00142
1491.56461,0.00158
1489.50444,0.00166
1487.44427,0.00161
1485.38410,0.00152
1483.32392,0.00156
1481.26375,0.00180
1479.20358,0.00220
1477.14341,0.00268
1475.08324,0.00319
1473.02306,0.00362
1470.96289,0.00388
1468.90272,0.00403
1466.84255,0.00417
1464.78238,0.00435
1462.72220,0.00460
1460.66203,0.00494
1458.60186,0.00536
1456.54169,0.00578
1454.48151,0.00614
1452.42134,0.00639
1450.36117,0.00654
1448.30100,0.00660
1446.24083,0.00664
1444.18065,0.00672
1442.12048,0.00689
1440.06031,0.00714
1438.00014,0.00744
1435.93997,0.00774
1433.87979,0.00801
1431.81962,0.00829
1429.75945,0.00860
1427.69928,0.00890
1425.63910,0.00911
1423.57893,0.00914
1421.51876,0.00905
1419.45859,0.00902
1417.39842,0.00916
1415.33824,0.00939
1413.27807,0.00957
1411.21790,0.00961
1409.15773,0.00954
1407.09756,0.00945
1405.03738,0.00933
1402.97721,0.00918
1400.91704,0.00899
1398.85687,0.00883
1396.79670,0.00874
1394.73652,0.00869
1392.67635,0.00861
1390.61618,0.00853
1388.55601,0.00847
1386.49583,0.00843
1384.43566,0.00843
1382.37549,0.00854
1380.31532,0.00882
1378.25515,0.00922
1376.19497,0.00956
1374.13480,0.00966
1372.07463,0.00948
1370.01446,0.00916
1367.95429,0.00895
1365.89411,0.00893
1363.83394,0.00901
1361.77377,0.00906
1359.71360,0.00903
1357.65343,0.00896
1355.59325,0.00887
1353.53308,0.00873
1351.47291,0.00853
1349.41274,0.00827
1347.35256,0.00800
1345.29239,0.00782
1343.23222,0.00777
1341.17205,0.00776
1339.11188,0.00769
1337.05170,0.00755
1334.99153,0.00747
1332.93136,0.00757
1330.87119,0.00780
1328.81102,0.00801
1326.75084,0.00809
1324.69067,0.00807
1322.63050,0.00801
1320.57033,0.00800
1318.51015,0.00802
1316.44998,0.00801
1314.38981,0.00793
1312.32964,0.00781
1310.26947,0.00768
1308.20929,0.00759
1306.14912,0.00748
1304.08895,0.00729
1302.02878,0.00700
1299.96861,0.00669
1297.90843,0.00643
1295.84826,0.00628
1293.78809,0.00623
1291.72792,0.00624
1289.66775,0.00625
1287.60757,0.00624
1285.54740,0.00626
1283.48723,0.00633
1281.42706,0.00642
1279.36688,0.00650
1277.30671,0.00657
1275.24654,0.00664
1273.18637,0.00675
1271.12620,0.00695
1269.06602,0.00723
1267.00585,0.00754
1264.94568,0.00786
1262.88551,0.00817
1260.82534,0.00848
1258.76516,0.00876
1256.70499,0.00898
1254.64482,0.00913
1252.58465,0.00928
1250.52447,0.00945
1248.46430,0.00960
1246.40413,0.00970
1244.34396,0.00972
1242.28379,0.00961
1240.22361,0.00937
1238.16344,0.00908
1236.10327,0.00878
1234.04310,0.00848
1231.98293,0.00817
1229.92275,0.00784
1227.86258,0.00749
1225.80241,0.00713
1223.74224,0.00681
1221.68207,0.00651
1219.62189,0.00621
1217.56172,0.00593
1215.50155,0.00563
1213.44138,0.00523
1211.38120,0.00475
1209.32103,0.00425
1207.26086,0.00378
1205.20069,0.00333
1203.14052,0.00291
1201.08034,0.00247
1199.02017,0.00190
1196.96000,0.00117
1194.89983,0.00051
1192.83966,0.00016
1190.77948,0.00005
1188.71931,0.00000
1186.65914,-0.00003
1184.59897,0.00021
1182.53880,0.00074
1180.47862,0.00128
1178.41845,0.00156
1176.35828,0.00169
1174.29811,0.00195
1172.23793,0.00247
1170.17776,0.00312
1168.11759,0.00379
1166.05742,0.00455
1163.99725,0.00541
1161.93707,0.00617
1159.87690,0.00678
1157.81673,0.00730
1155.75656,0.00775
1153.69639,0.00819
1151.63621,0.00867
1149.57604,0.00918
1147.51587,0.00968
1145.45570,0.01008
1143.39552,0.01029
1141.33535,0.01047
1139.27518,0.01069
1137.21501,0.01087
1135.15484,0.01094
1133.09466,0.01105
1131.03449,0.01135
1128.97432,0.01184
1126.91415,0.01239
1124.85398,0.01305
1122.79380,0.01384
1120.73363,0.01442
1118.67346,0.01462
1116.61329,0.01462
1114.55312,0.01465
1112.49294,0.01492
1110.43277,0.01552
1108.37260,0.01630
1106.31243,0.01703
1104.25225,0.01768
1102.19208,0.01842
1100.13191,0.01922
1098.07174,0.01988
1096.01157,0.02039
1093.95139,0.02099
1091.89122,0.02185
1089.83105,0.02288
1087.77088,0.02383
1085.71071,0.02450
1083.65053,0.02490
1081.59036,0.02523
1079.53019,0.02564
1077.47002,0.02623
1075.40985,0.02695
1073.34967,0.02763
1071.28950,0.02828
1069.22933,0.02888
1067.16916,0.02928
1065.10898,0.02955
1063.04881,0.02990
1060.98864,0.03031
1058.92847,0.03065
1056.86830,0.03083
1054.80812,0.03091
1052.74795,0.03112
1050.68778,0.03158
1048.62761,0.03224
1046.56744,0.03299
1044.50726,0.03365
1042.44709,0.03419
1040.38692,0.03463
1038.32675,0.03491
1036.26657,0.03495
1034.20640,0.03491
1032.14623,0.03502
1030.08606,0.03525
1028.02589,0.03537
1025.96571,0.03528
1023.90554,0.03512
1021.84537,0.03508
1019.78520,0.03508
1017.72503,0.03515
1015.66485,0.03544
1013.60468,0.03578
1011.54451,0.03572
1009.48434,0.03536
1007.42417,0.03526
1005.36399,0.03550
1003.30382,0.03554
1001.24365,0.03511
999.18348,0.03446
997.12330,0.03388
995.06313,0.03349
993.00296,0.03326
990.94279,0.03303
988.88262,0.03266
986.82244,0.03223
984.76227,0.03193
982.70210,0.03177
980.64193,0.03150
978.58176,0.03108
976.52158,0.03077
974.46141,0.03061
972.40124,0.03038
970.34107,0.02996
968.28089,0.02936
966.22072,0.02870
964.16055,0.02816
962.10038,0.02773
960.04021,0.02734
957.98003,0.02703
955.91986,0.02684
953.85969,0.02676
951.79952,0.02672
949.73935,0.02659
947.67917,0.02611
945.61900,0.02511
943.55883,0.02387
941.49866,0.02267
939.43849,0.02145
937.37831,0.02000
935.31814,0.01845
933.25797,0.01713
931.19780,0.01609
929.13762,0.01498
927.07745,0.01369
925.01728,0.01252
922.95711,0.01158
920.89694,0.01067
918.83676,0.00978
916.77659,0.00916
914.71642,0.00898
912.65625,0.00887
910.59608,0.00831
908.53590,0.00748
906.47573,0.00707
904.41556,0.00733
902.35539,0.00785
900.29522,0.00791
898.23504,0.00736
896.17487,0.00683
894.11470,0.00670
892.05453,0.00658
889.99435,0.00626
887.93418,0.00612
885.87401,0.00629
883.81384,0.00637
881.75367,0.00613
879.69349,0.00569
877.63332,0.00519
875.57315,0.00455
873.51298,0.00378
871.45281,0.00342
869.39263,0.00377
867.33246,0.00426
865.27229,0.00435
863.21212,0.00408
861.15194,0.00362
859.09177,0.00321
857.03160,0.00304
854.97143,0.00306
852.91126,0.00316
850.85108,0.00329
848.79091,0.00335
846.73074,0.00302
844.67057,0.00217
842.61040,0.00122
840.55022,0.00072
838.49005,0.00083
836.42988,0.00119
834.36971,0.00136
832.30954,0.00109
830.24936,0.00046
828.18919,0.00000
826.12902,0.00019
824.06885,0.00072
822.00867,0.00101
819.94850,0.00115
817.88833,0.00137
815.82816,0.00148
813.76799,0.00148
811.70781,0.00161
809.64764,0.00179
807.58747,0.00182
805.52730,0.00165
803.46713,0.00144
801.40695,0.00123
799.34678,0.00113
797.28661,0.00129
795.22644,0.00153
793.16627,0.00147
791.10609,0.00103
789.04592,0.00062
786.98575,0.00067
784.92558,0.00098
782.86540,0.00111
780.80523,0.00101
778.74506,0.00091
776.68489,0.00096
774.62472,0.00119
772.56454,0.00120
770.50437,0.00063
768.44420,0.00009
766.38403,0.00034
764.32386,0.00114
762.26368,0.00174
760.20351,0.00202
758.14334,0.00225
756.08317,0.00223
754.02299,0.00184
751.96282,0.00156
749.90265,0.00155
747.84248,0.00161
745.78231,0.00163
743.72213,0.00123
741.66196,0.00039
739.60179,0.00000
737.54162,0.00022
735.48145,0.00040
733.42127,0.00045
731.36110,0.00076
729.30093,0.00124
727.24076,0.00164
725.18059,0.00180
723.12041,0.00158
721.06024,0.00125
719.00007,0.00114
716.93990,0.00122
714.87972,0.00129
712.81955,0.00130
710.75938,0.00135
708.69921,0.00141
706.63904,0.00136
704.57886,0.00124
702.51869,0.00127
700.45852,0.00161
698.39835,0.00214
696.33818,0.00254
694.27800,0.00247
692.21783,0.00191
690.15766,0.00128
688.09749,0.00101
686.03731,0.00112
683.97714,0.00131
681.91697,0.00146
679.85680,0.00167
677.79663,0.00199
675.73645,0.00223
673.67628,0.00216
671.61611,0.00177
669.55594,0.00116
667.49577,0.00048
665.43559,-0.00017
663.37542,-0.00055
661.31525,-0.00030
659.25508,0.00061
657.19491,0.00187
655.13473,0.00297
653.07456,0.00356
651.01439,0.00368
648.95422,0.00349
646.89404,0.00298
644.83387,0.00231
642.77370,0.00204
640.71353,0.00250
638.65336,0.00324
636.59318,0.00368
634.53301,0.00377
632.47284,0.00369
630.41267,0.00322
628.35250,0.00194
626.29232,0.00020
624.23215,0.00000
622.17198,0.00197
620.11181,0.00421
618.05164,0.00423
615.99146,0.00217
613.93129,-0.00024
611.87112,-0.00130
609.81095,0.00030
607.75077,0.00380
605.69060,0.00610
603.63043,0.00519
601.57026,0.00241
599.51009,0.00000
