3996.73391,0.00092
3994.67373,0.00075
3992.61356,0.00061
3990.55339,0.00055
3988.49322,0.00049
3986.43305,0.00033
3984.37287,0.00012
3982.31270,0.00000
3980.25253,0.00013
3978.19236,0.00047
3976.13219,0.00077
3974.07201,0.00085
3972.01184,0.00072
3969.95167,0.00060
3967.89150,0.00070
3965.83133,0.00103
3963.77115,0.00145
3961.71098,0.00175
3959.65081,0.00184
3957.59064,0.00169
3955.53046,0.00136
3953.47029,0.00099
3951.41012,0.00074
3949.34995,0.00066
3947.28978,0.00068
3945.22960,0.00070
3943.16943,0.00071
3941.10926,0.00081
3939.04909,0.00109
3936.98892,0.00148
3934.92874,0.00179
3932.86857,0.00184
3930.80840,0.00160
3928.74823,0.00130
3926.68805,0.00120
3924.62788,0.00134
3922.56771,0.00158
3920.50754,0.00177
3918.44737,0.00178
3916.38719,0.00157
3914.32702,0.00130
3912.26685,0.00114
3910.20668,0.00112
3908.14651,0.00107
3906.08633,0.00083
3904.02616,0.00039
3901.96599,0.00000
3899.90582,0.00004
3897.84565,0.00067
3895.78547,0.00157
3893.72530,0.00224
3891.66513,0.00236
3889.60496,0.00199
3887.54478,0.00143
3885.48461,0.00104
3883.42444,0.00102
3881.36427,0.00123
3879.30410,0.00143
3877.24392,0.00150
3875.18375,0.00144
3873.12358,0.00132
3871.06341,0.00116
3869.00324,0.00097
3866.94306,0.00081
3864.88289,0.00079
3862.82272,0.00094
3860.76255,0.00110
3858.70237,0.00107
3856.64220,0.00076
3854.58203,0.00030
3852.52186,0.00000
3850.46169,0.00005
3848.40151,0.00033
3846.34134,0.00061
3844.28117,0.00075
3842.22100,0.00070
3840.16083,0.00049
3838.10065,0.00030
3836.04048,0.00031
3833.98031,0.00052
3831.92014,0.00078
3829.85997,0.00096
3827.79979,0.00110
3825.73962,0.00132
3823.67945,0.00166
3821.61928,0.00202
3819.55910,0.00237
3817.49893,0.00270
3815.43876,0.00292
3813.37859,0.00286
3811.31842,0.00260
3809.25824,0.00229
3807.19807,0.00202
3805.13790,0.00176
3803.07773,0.00139
3801.01756,0.00101
3798.95738,0.00088
3796.89721,0.00103
3794.83704,0.00126
3792.77687,0.00149
3790.71670,0.00175
3788.65652,0.00191
3786.59635,0.00190
3784.53618,0.00182
3782.47601,0.00178
3780.41583,0.00176
3778.35566,0.00174
3776.29549,0.00175
3774.23532,0.00176
3772.17515,0.00170
3770.11497,0.00165
3768.05480,0.00173
3765.99463,0.00193
3763.93446,0.00210
3761.87429,0.00222
3759.81411,0.00229
3757.75394,0.00224
3755.69377,0.00204
3753.63360,0.00168
3751.57342,0.00109
3749.51325,0.00042
3747.45308,0.00000
3745.39291,0.00003
3743.33274,0.00047
3741.27256,0.00108
3739.21239,0.00152
3737.15222,0.00163
3735.09205,0.00156
3733.03188,0.00150
3730.97170,0.00148
3728.91153,0.00146
3726.85136,0.00134
3724.79119,0.00109
3722.73102,0.00083
3720.67084,0.00073
3718.61067,0.00081
3716.55050,0.00104
3714.49033,0.00142
3712.43015,0.00191
3710.36998,0.00232
3708.30981,0.00244
3706.24964,0.00229
3704.18947,0.00207
3702.12929,0.00195
3700.06912,0.00197
3698.00895,0.00205
3695.94878,0.00208
3693.88861,0.00193
3691.82843,0.00161
3689.76826,0.00128
3687.70809,0.00119
3685.64792,0.00138
3683.58775,0.00164
3681.52757,0.00169
3679.46740,0.00140
3677.40723,0.00088
3675.34706,0.00047
3673.28688,0.00044
3671.22671,0.00069
3669.16654,0.00090
3667.10637,0.00095
3665.04620,0.00098
3662.98602,0.00115
3660.92585,0.00150
3658.86568,0.00189
3656.80551,0.00217
3654.74534,0.00230
3652.68516,0.00233
3650.62499,0.00230
3648.56482,0.00225
3646.50465,0.00224
3644.44447,0.00223
3642.38430,0.00211
3640.32413,0.00186
3638.26396,0.00164
3636.20379,0.00166
3634.14361,0.00184
3632.08344,0.00186
3630.02327,0.00147
3627.96310,0.00094
3625.90293,0.00080
3623.84275,0.00118
3621.78258,0.00172
3619.72241,0.00202
3617.66224,0.00204
3615.60207,0.00202
3613.54189,0.00220
3611.48172,0.00261
3609.42155,0.00320
3607.36138,0.00381
3605.30120,0.00429
3603.24103,0.00446
3601.18086,0.00425
3599.12069,0.00382
3597.06052,0.00343
3595.00034,0.00324
3592.94017,0.00328
3590.88000,0.00345
3588.81983,0.00360
3586.75966,0.00360
3584.69948,0.00350
3582.63931,0.00342
3580.57914,0.00339
3578.51897,0.00338
3576.45879,0.00335
3574.39862,0.00332
3572.33845,0.00339
3570.27828,0.00358
3568.21811,0.00381
3566.15793,0.00400
3564.09776,0.00414
3562.03759,0.00422
3559.97742,0.00423
3557.91725,0.00423
3555.85707,0.00430
3553.79690,0.00440
3551.73673,0.00445
3549.67656,0.00443
3547.61639,0.00439
3545.55621,0.00441
3543.49604,0.00454
3541.43587,0.00479
3539.37570,0.00506
3537.31552,0.00517
3535.25535,0.00504
3533.19518,0.00478
3531.13501,0.00462
3529.07484,0.00459
3527.01466,0.00463
3524.95449,0.00473
3522.89432,0.00495
3520.83415,0.00531
3518.77398,0.00576
3516.71380,0.00620
3514.65363,0.00653
3512.59346,0.00666
3510.53329,0.00651
3508.47312,0.00615
3506.41294,0.00577
3504.35277,0.00556
3502.29260,0.00562
3500.23243,0.00592
3498.17225,0.00626
3496.11208,0.00641
3494.05191,0.00636
3491.99174,0.00626
3489.93157,0.00623
3487.87139,0.00626
3485.81122,0.00633
3483.75105,0.00644
3481.69088,0.00654
3479.63071,0.00656
3477.57053,0.00659
3475.51036,0.00676
3473.45019,0.00700
3471.39002,0.00717
3469.32984,0.00723
3467.26967,0.00721
3465.20950,0.00721
3463.14933,0.00730
3461.08916,0.00754
3459.02898,0.00789
3456.96881,0.00817
3454.90864,0.00823
3452.84847,0.00811
3450.78830,0.00796
3448.72812,0.00789
3446.66795,0.00790
3444.60778,0.00794
3442.54761,0.00799
3440.48744,0.00803
3438.42726,0.00809
3436.36709,0.00806
3434.30692,0.00780
3432.24675,0.00742
3430.18657,0.00720
3428.12640,0.00730
3426.06623,0.00760
3424.00606,0.00793
3421.94589,0.00820
3419.88571,0.00840
3417.82554,0.00856
3415.76537,0.00877
3413.70520,0.00907
3411.64503,0.00939
3409.58485,0.00955
3407.52468,0.00942
3405.46451,0.00912
3403.40434,0.00888
3401.34416,0.00881
3399.28399,0.00885
3397.22382,0.00894
3395.16365,0.00906
3393.10348,0.00922
3391.04330,0.00937
3388.98313,0.00944
3386.92296,0.00936
3384.86279,0.00918
3382.80262,0.00899
3380.74244,0.00884
3378.68227,0.00877
3376.62210,0.00878
3374.56193,0.00889
3372.50176,0.00917
3370.44158,0.00959
3368.38141,0.00994
3366.32124,0.00998
3364.26107,0.00969
3362.20089,0.00933
3360.14072,0.00914
3358.08055,0.00916
3356.02038,0.00924
3353.96021,0.00929
3351.90003,0.00927
3349.83986,0.00919
3347.77969,0.00915
3345.71952,0.00924
3343.65935,0.00946
3341.59917,0.00969
3339.53900,0.00981
3337.47883,0.00982
3335.41866,0.00975
3333.35849,0.00970
3331.29831,0.00967
3329.23814,0.00966
3327.17797,0.00972
3325.11780,0.00987
3323.05762,0.01007
3320.99745,0.01021
3318.93728,0.01020
3316.87711,0.01004
3314.81694,0.00985
3312.75676,0.00972
3310.69659,0.00964
3308.63642,0.00961
3306.57625,0.00964
3304.51608,0.00977
3302.45590,0.00999
3300.39573,0.01018
3298.33556,0.01024
3296.27539,0.01024
3294.21521,0.01032
3292.15504,0.01045
3290.09487,0.01052
3288.03470,0.01045
3285.97453,0.01027
3283.91435,0.01010
3281.85418,0.00998
3279.79401,0.00986
3277.73384,0.00965
3275.67367,0.00934
3273.61349,0.00907
3271.55332,0.00903
3269.49315,0.00922
3267.43298,0.00946
3265.37281,0.00959
3263.31263,0.00956
3261.25246,0.00940
3259.19229,0.00928
3257.13212,0.00936
3255.07194,0.00964
3253.01177,0.00997
3250.95160,0.01019
3248.89143,0.01027
3246.83126,0.01024
3244.77108,0.01012
3242.71091,0.00993
3240.65074,0.00980
3238.59057,0.00984
3236.53040,0.01005
3234.47022,0.01029
3232.41005,0.01040
3230.34988,0.01030
3228.28971,0.01009
3226.22954,0.00989
3224.16936,0.00972
3222.10919,0.00955
3220.04902,0.00937
3217.98885,0.00924
3215.92867,0.00922
3213.86850,0.00924
3211.80833,0.00918
3209.74816,0.00908
3207.68799,0.00906
3205.62781,0.00916
3203.56764,0.00931
3201.50747,0.00944
3199.44730,0.00948
3197.38713,0.00946
3195.32695,0.00941
3193.26678,0.00939
3191.20661,0.00943
3189.14644,0.00953
3187.08626,0.00952
3185.02609,0.00930
3182.96592,0.00896
3180.90575,0.00869
3178.84558,0.00858
3176.78540,0.00864
3174.72523,0.00880
3172.66506,0.00890
3170.60489,0.00883
3168.54472,0.00862
3166.48454,0.00845
3164.42437,0.00845
3162.36420,0.00857
3160.30403,0.00869
3158.24386,0.00872
3156.18368,0.00864
3154.12351,0.00847
3152.06334,0.00830
3150.00317,0.00815
3147.94299,0.00801
3145.88282,0.00782
3143.82265,0.00764
3141.76248,0.00755
3139.70231,0.00757
3137.64213,0.00761
3135.58196,0.00760
3133.52179,0.00756
3131.46162,0.00753
3129.40145,0.00751
3127.34127,0.00749
3125.28110,0.00750
3123.22093,0.00751
3121.16076,0.00741
3119.10058,0.00718
3117.04041,0.00691
3114.98024,0.00671
3112.92007,0.00664
3110.85990,0.00666
3108.79972,0.00674
3106.73955,0.00688
3104.67938,0.00698
3102.61921,0.00699
3100.55904,0.00695
3098.49886,0.00691
3096.43869,0.00686
3094.37852,0.00680
3092.31835,0.00672
3090.25818,0.00661
3088.19800,0.00645
3086.13783,0.00630
3084.07766,0.00621
3082.01749,0.00615
3079.95731,0.00605
3077.89714,0.00597
3075.83697,0.00595
3073.77680,0.00600
3071.71663,0.00606
3069.65645,0.00610
3067.59628,0.00611
3065.53611,0.00606
3063.47594,0.00592
3061.41577,0.00570
3059.35559,0.00547
3057.29542,0.00537
3055.23525,0.00544
3053.17508,0.00561
3051.11491,0.00582
3049.05473,0.00602
3046.99456,0.00612
3044.93439,0.00610
3042.87422,0.00600
3040.81404,0.00590
3038.75387,0.00580
3036.69370,0.00572
3034.63353,0.00568
3032.57336,0.00566
3030.51318,0.00559
3028.45301,0.00543
3026.39284,0.00524
3024.33267,0.00508
3022.27250,0.00500
3020.21232,0.00506
3018.15215,0.00520
3016.09198,0.00532
3014.03181,0.00533
3011.97163,0.00524
3009.91146,0.00510
3007.85129,0.00493
3005.79112,0.00480
3003.73095,0.00475
3001.67077,0.00478
2999.61060,0.00489
2997.55043,0.00501
2995.49026,0.00502
2993.43009,0.00492
2991.36991,0.00494
2989.30974,0.00510
2987.24957,0.00510
2985.18940,0.00487
2983.12923,0.00458
2981.06905,0.00438
2979.00888,0.00438
2976.94871,0.00469
2974.88854,0.00522
2972.82836,0.00569
2970.76819,0.00590
2968.70802,0.00594
2966.64785,0.00599
2964.58768,0.00615
2962.52750,0.00635
2960.46733,0.00635
2958.40716,0.00620
2956.34699,0.00613
2954.28682,0.00609
2952.22664,0.00604
2950.16647,0.00603
2948.10630,0.00599
2946.04613,0.00594
2943.98596,0.00599
2941.92578,0.00624
2939.86561,0.00664
2937.80544,0.00695
2935.74527,0.00708
2933.68509,0.00722
2931.62492,0.00740
2929.56475,0.00732
2927.50458,0.00693
2925.44441,0.00661
2923.38423,0.00667
2921.32406,0.00697
2919.26389,0.00708
2917.20372,0.00692
2915.14355,0.00676
2913.08337,0.00662
2911.02320,0.00644
2908.96303,0.00626
2906.90286,0.00616
2904.84268,0.00618
2902.78251,0.00630
2900.72234,0.00647
2898.66217,0.00643
2896.60200,0.00613
2894.54182,0.00591
2892.48165,0.00597
2890.42148,0.00619
2888.36131,0.00651
2886.30114,0.00683
2884.24096,0.00690
2882.18079,0.00672
2880.12062,0.00660
2878.06045,0.00662
2876.00028,0.00660
2873.94010,0.00640
2871.87993,0.00601
2869.81976,0.00560
2867.75959,0.00544
2865.69941,0.00561
2863.63924,0.00580
2861.57907,0.00581
2859.51890,0.00570
2857.45873,0.00557
2855.39855,0.00547
2853.33838,0.00547
2851.27821,0.00547
2849.21804,0.00534
2847.15787,0.00520
2845.09769,0.00513
2843.03752,0.00503
2840.97735,0.00491
2838.91718,0.00483
2836.85700,0.00483
2834.79683,0.00488
2832.73666,0.00495
2830.67649,0.00496
2828.61632,0.00489
2826.55614,0.00476
2824.49597,0.00462
2822.43580,0.00446
2820.37563,0.00431
2818.31546,0.00434
2816.25528,0.00459
2814.19511,0.00476
2812.13494,0.00474
2810.07477,0.00470
2808.01460,0.00466
2805.95442,0.00458
2803.89425,0.00463
2801.83408,0.00492
2799.77391,0.00518
2797.71373,0.00515
2795.65356,0.00490
2793.59339,0.00466
2791.53322,0.00440
2789.47305,0.00416
2787.41287,0.00418
2785.35270,0.00447
2783.29253,0.00464
2781.23236,0.00460
2779.17219,0.00451
2777.11201,0.00445
2775.05184,0.00441
2772.99167,0.00445
2770.93150,0.00460
2768.87133,0.00476
2766.81115,0.00483
2764.75098,0.00467
2762.69081,0.00430
2760.63064,0.00397
2758.57046,0.00389
2756.51029,0.00401
2754.45012,0.00414
2752.38995,0.00420
2750.32978,0.00419
2748.26960,0.00417
2746.20943,0.00415
2744.14926,0.00411
2742.08909,0.00410
2740.02892,0.00431
2737.96874,0.00469
2735.90857,0.00490
2733.84840,0.00470
2731.78823,0.00428
2729.72805,0.00404
2727.66788,0.00405
2725.60771,0.00417
2723.54754,0.00425
2721.48737,0.00435
2719.42719,0.00447
2717.36702,0.00447
2715.30685,0.00432
2713.24668,0.00424
2711.18651,0.00440
2709.12633,0.00457
2707.06616,0.00437
2705.00599,0.00391
2702.94582,0.00365
2700.88565,0.00382
2698.82547,0.00417
2696.76530,0.00438
2694.70513,0.00437
2692.64496,0.00428
2690.58478,0.00423
2688.52461,0.00423
2686.46444,0.00433
2684.40427,0.00447
2682.34410,0.00455
2680.28392,0.00458
2678.22375,0.00459
2676.16358,0.00453
2674.10341,0.00432
2672.04324,0.00400
2669.98306,0.00382
2667.92289,0.00391
2665.86272,0.00407
2663.80255,0.00419
2661.74238,0.00434
2659.68220,0.00443
2657.62203,0.00432
2655.56186,0.00415
2653.50169,0.00417
2651.44151,0.00431
2649.38134,0.00437
2647.32117,0.00431
2645.26100,0.00434
2643.20083,0.00458
2641.14065,0.00483
2639.08048,0.00482
2637.02031,0.00457
2634.96014,0.00423
2632.89997,0.00387
2630.83979,0.00357
2628.77962,0.00358
2626.71945,0.00388
2624.65928,0.00420
2622.59910,0.00439
2620.53893,0.00450
2618.47876,0.00462
2616.41859,0.00477
2614.35842,0.00482
2612.29824,0.00462
2610.23807,0.00437
2608.17790,0.00433
2606.11773,0.00431
2604.05756,0.00412
2601.99738,0.00397
2599.93721,0.00393
2597.87704,0.00387
2595.81687,0.00375
2593.75670,0.00364
2591.69652,0.00351
2589.63635,0.00340
2587.57618,0.00351
2585.51601,0.00398
2583.45583,0.00447
2581.39566,0.00451
2579.33549,0.00420
2577.27532,0.00401
2575.21515,0.00412
2573.15497,0.00434
2571.09480,0.00448
2569.03463,0.00431
2566.97446,0.00384
2564.91429,0.00339
2562.85411,0.00311
2560.79394,0.00307
2558.73377,0.00355
2556.67360,0.00441
2554.61342,0.00496
2552.55325,0.00492
2550.49308,0.00477
2548.43291,0.00482
2546.37274,0.00485
2544.31256,0.00464
2542.25239,0.00422
2540.19222,0.00382
2538.13205,0.00363
2536.07188,0.00366
2534.01170,0.00379
2531.95153,0.00390
2529.89136,0.00388
2527.83119,0.00375
2525.77102,0.00361
2523.71084,0.00364
2521.65067,0.00400
2519.59050,0.00437
2517.53033,0.00428
2515.47015,0.00406
2513.40998,0.00420
2511.34981,0.00450
2509.28964,0.00467
2507.22947,0.00467
2505.16929,0.00447
2503.10912,0.00419
2501.04895,0.00417
2498.98878,0.00444
2496.92861,0.00456
2494.86843,0.00412
2492.80826,0.00348
2490.74809,0.00319
2488.68792,0.00331
2486.62775,0.00350
2484.56757,0.00366
2482.50740,0.00400
2480.44723,0.00447
2478.38706,0.00476
2476.32688,0.00465
2474.26671,0.00426
2472.20654,0.00396
2470.14637,0.00391
2468.08620,0.00389
2466.02602,0.00377
2463.96585,0.00371
2461.90568,0.00386
2459.84551,0.00420
2457.78534,0.00455
2455.72516,0.00463
2453.66499,0.00443
2451.60482,0.00413
2449.54465,0.00384
2447.48447,0.00365
2445.42430,0.00359
2443.36413,0.00349
2441.30396,0.00333
2439.24379,0.00334
2437.18361,0.00350
2435.12344,0.00365
2433.06327,0.00387
2431.00310,0.00414
2428.94293,0.00412
2426.88275,0.00385
2424.82258,0.00369
2422.76241,0.00366
2420.70224,0.00352
2418.64207,0.00335
2416.58189,0.00333
2414.52172,0.00342
2412.46155,0.00344
2410.40138,0.00333
2408.34120,0.00318
2406.28103,0.00312
2404.22086,0.00311
2402.16069,0.00308
2400.10052,0.00313
2398.04034,0.00331
2395.98017,0.00348
2393.92000,0.00353
2391.85983,0.00345
2389.79966,0.00337
2387.73948,0.00346
2385.67931,0.00377
2383.61914,0.00414
2381.55897,0.00429
2379.49880,0.00408
2377.43862,0.00365
2375.37845,0.00312
2373.31828,0.00258
2371.25811,0.00217
2369.19793,0.00218
2367.13776,0.00272
2365.07759,0.00336
2363.01742,0.00355
2360.95725,0.00344
2358.89707,0.00343
2356.83690,0.00354
2354.77673,0.00382
2352.71656,0.00459
2350.65639,0.00582
2348.59621,0.00687
2346.53604,0.00709
2344.47587,0.00640
2342.41570,0.00515
2340.35552,0.00378
2338.29535,0.00276
2336.23518,0.00234
2334.17501,0.00229
2332.11484,0.00229
2330.05466,0.00235
2327.99449,0.00260
2325.93432,0.00301
2323.87415,0.00345
2321.81398,0.00394
2319.75380,0.00440
2317.69363,0.00459
2315.63346,0.00437
2313.57329,0.00390
2311.51312,0.00352
2309.45294,0.00344
2307.39277,0.00365
2305.33260,0.00394
2303.27243,0.00418
2301.21225,0.00442
2299.15208,0.00467
2297.09191,0.00486
2295.03174,0.00495
2292.97157,0.00492
2290.91139,0.00481
2288.85122,0.00469
2286.79105,0.00464
2284.73088,0.00467
2282.67071,0.00471
2280.61053,0.00465
2278.55036,0.00442
2276.49019,0.00411
2274.43002,0.00388
2272.36984,0.00374
2270.30967,0.00359
2268.24950,0.00341
2266.18933,0.00334
2264.12916,0.00358
2262.06898,0.00412
2260.00881,0.00468
2257.94864,0.00512
2255.88847,0.00546
2253.82830,0.00576
2251.76812,0.00612
2249.70795,0.00645
2247.64778,0.00631
2245.58761,0.00524
2243.52744,0.00373
2241.46726,0.00280
2239.40709,0.00299
2237.34692,0.00374
2235.28675,0.00399
2233.22657,0.00363
2231.16640,0.00327
2229.10623,0.00306
2227.04606,0.00300
2224.98589,0.00327
2222.92571,0.00344
2220.86554,0.00319
2218.80537,0.00349
2216.74520,0.00492
2214.68503,0.00599
2212.62485,0.00554
2210.56468,0.00452
2208.50451,0.00383
2206.44434,0.00337
2204.38417,0.00342
2202.32399,0.00412
2200.26382,0.00472
2198.20365,0.00495
2196.14348,0.00549
2194.08330,0.00674
2192.02313,0.00781
2189.96296,0.00740
2187.90279,0.00571
2185.84262,0.00457
2183.78244,0.00506
2181.72227,0.00591
2179.66210,0.00550
2177.60193,0.00435
2175.54176,0.00374
2173.48158,0.00373
2171.42141,0.00416
2169.36124,0.00539
2167.30107,0.00690
2165.24089,0.00736
2163.18072,0.00640
2161.12055,0.00490
2159.06038,0.00366
2157.00021,0.00221
2154.94003,0.00041
2152.87986,0.00000
2150.81969,0.00157
2148.75952,0.00331
2146.69935,0.00384
2144.63917,0.00346
2142.57900,0.00299
2140.51883,0.00330
2138.45866,0.00461
2136.39849,0.00532
2134.33831,0.00414
2132.27814,0.00240
2130.21797,0.00187
2128.15780,0.00242
2126.09762,0.00318
2124.03745,0.00343
2121.97728,0.00308
2119.91711,0.00282
2117.85694,0.00315
2115.79676,0.00354
2113.73659,0.00356
2111.67642,0.00353
2109.61625,0.00355
2107.55608,0.00321
2105.49590,0.00261
2103.43573,0.00238
2101.37556,0.00274
2099.31539,0.00334
2097.25521,0.00396
2095.19504,0.00446
2093.13487,0.00474
2091.07470,0.00479
2089.01453,0.00460
2086.95435,0.00424
2084.89418,0.00381
2082.83401,0.00346
2080.77384,0.00334
2078.71367,0.00345
2076.65349,0.00367
2074.59332,0.00387
2072.53315,0.00401
2070.47298,0.00405
2068.41281,0.00418
2066.35263,0.00463
2064.29246,0.00532
2062.23229,0.00583
2060.17212,0.00587
2058.11194,0.00548
2056.05177,0.00494
2053.99160,0.00451
2051.93143,0.00416
2049.87126,0.00375
2047.81108,0.00319
2045.75091,0.00251
2043.69074,0.00203
2041.63057,0.00233
2039.57040,0.00353
2037.51022,0.00481
2035.45005,0.00532
2033.38988,0.00510
2031.32971,0.00456
2029.26954,0.00395
2027.20936,0.00344
2025.14919,0.00300
2023.08902,0.00253
2021.02885,0.00207
2018.96867,0.00166
2016.90850,0.00122
2014.84833,0.00078
2012.78816,0.00038
2010.72799,0.00004
2008.66781,0.00000
2006.60764,0.00057
2004.54747,0.00164
2002.48730,0.00271
2000.42713,0.00347
1998.36695,0.00402
1996.30678,0.00456
1994.24661,0.00514
1992.18644,0.00554
1990.12626,0.00553
1988.06609,0.00538
1986.00592,0.00573
1983.94575,0.00660
1981.88558,0.00710
1979.82540,0.00657
1977.76523,0.00541
1975.70506,0.00430
1973.64489,0.00355
1971.58472,0.00321
1969.52454,0.00332
1967.46437,0.00382
1965.40420,0.00447
1963.34403,0.00489
1961.28386,0.00490
1959.22368,0.00466
1957.16351,0.00448
1955.10334,0.00450
1953.04317,0.00461
1950.98299,0.00447
1948.92282,0.00383
1946.86265,0.00290
1944.80248,0.00215
1942.74231,0.00182
1940.68213,0.00184
1938.62196,0.00218
1936.56179,0.00275
1934.50162,0.00332
1932.44145,0.00354
1930.38127,0.00337
1928.32110,0.00309
1926.26093,0.00290
1924.20076,0.00277
1922.14059,0.00269
1920.08041,0.00275
1918.02024,0.00290
1915.96007,0.00299
1913.89990,0.00293
1911.83972,0.00285
1909.77955,0.00279
1907.71938,0.00261
1905.65921,0.00238
1903.59904,0.00231
1901.53886,0.00245
1899.47869,0.00266
1897.41852,0.00283
1895.35835,0.00293
1893.29818,0.00300
1891.23800,0.00305
1889.17783,0.00300
1887.11766,0.00278
1885.05749,0.00249
1882.99731,0.00229
1880.93714,0.00224
1878.87697,0.00227
1876.81680,0.00223
1874.75663,0.00215
1872.69645,0.00212
1870.63628,0.00223
1868.57611,0.00242
1866.51594,0.00261
1864.45577,0.00268
1862.39559,0.00265
1860.33542,0.00264
1858.27525,0.00276
1856.21508,0.00292
1854.15491,0.00300
1852.09473,0.00296
1850.03456,0.00289
1847.97439,0.00283
1845.91422,0.00267
1843.85404,0.00239
1841.79387,0.00215
1839.73370,0.00214
1837.67353,0.00237
1835.61336,0.00262
1833.55318,0.00269
1831.49301,0.00260
1829.43284,0.00257
1827.37267,0.00270
1825.31250,0.00289
1823.25232,0.00297
1821.19215,0.00290
1819.13198,0.00269
1817.07181,0.00234
1815.01163,0.00192
1812.95146,0.00155
1810.89129,0.00141
1808.83112,0.00158
1806.77095,0.00199
1804.71077,0.00240
1802.65060,0.00259
1800.59043,0.00246
1798.53026,0.00214
1796.47009,0.00182
1794.40991,0.00164
1792.34974,0.00165
1790.28957,0.00180
1788.22940,0.00197
1786.16923,0.00205
1784.10905,0.00205
1782.04888,0.00206
1779.98871,0.00210
1777.92854,0.00211
1775.86836,0.00198
1773.80819,0.00174
1771.74802,0.00156
1769.68785,0.00160
1767.62768,0.00183
1765.56750,0.00204
1763.50733,0.00210
1761.44716,0.00206
1759.38699,0.00205
1757.32682,0.00216
1755.26664,0.00235
1753.20647,0.00254
1751.14630,0.00266
1749.08613,0.00276
1747.02596,0.00294
1744.96578,0.00314
1742.90561,0.00321
1740.84544,0.00307
1738.78527,0.00281
1736.72509,0.00255
1734.66492,0.00244
1732.60475,0.00259
1730.54458,0.00295
1728.48441,0.00329
1726.42423,0.00342
1724.36406,0.00333
1722.30389,0.00308
1720.24372,0.00275
1718.18355,0.00244
1716.12337,0.00226
1714.06320,0.00226
1712.00303,0.00239
1709.94286,0.00250
1707.88268,0.00253
1705.82251,0.00252
1703.76234,0.00256
1701.70217,0.00262
1699.64200,0.00253
1697.58182,0.00228
1695.52165,0.00202
1693.46148,0.00188
1691.40131,0.00180
1689.34114,0.00167
1687.28096,0.00147
1685.22079,0.00130
1683.16062,0.00135
1681.10045,0.00172
1679.04028,0.00223
1676.98010,0.00262
1674.91993,0.00277
1672.85976,0.00278
1670.79959,0.00283
1668.73941,0.00306
1666.67924,0.00343
1664.61907,0.00380
1662.55890,0.00409
1660.49873,0.00425
1658.43855,0.00428
1656.37838,0.00416
1654.31821,0.00398
1652.25804,0.00380
1650.19787,0.00365
1648.13769,0.00362
1646.07752,0.00378
1644.01735,0.00409
1641.95718,0.00441
1639.89701,0.00465
1637.83683,0.00477
1635.77666,0.00480
1633.71649,0.00485
1631.65632,0.00492
1629.59614,0.00494
1627.53597,0.00489
1625.47580,0.00482
1623.41563,0.00477
1621.35546,0.00471
1619.29528,0.00461
1617.23511,0.00452
1615.17494,0.00457
1613.11477,0.00473
1611.05460,0.00490
1608.99442,0.00496
1606.93425,0.00488
1604.87408,0.00466
1602.81391,0.00434
1600.75373,0.00397
1598.69356,0.00366
1596.63339,0.00347
1594.57322,0.00339
1592.51305,0.00332
1590.45287,0.00313
1588.39270,0.00280
1586.33253,0.00245
1584.27236,0.00219
1582.21219,0.00202
1580.15201,0.00187
1578.09184,0.00169
1576.03167,0.00153
1573.97150,0.00148
1571.91133,0.00147
1569.85115,0.00148
1567.79098,0.00158
1565.73081,0.00176
1563.67064,0.00188
1561.61046,0.00184
1559.55029,0.00163
1557.49012,0.00134
1555.42995,0.00107
1553.36978,0.00093
1551.30960,0.00094
1549.24943,0.00103
1547.18926,0.00102
1545.12909,0.00085
1543.06892,0.00060
1541.00874,0.00048
1538.94857,0.00058
1536.88840,0.00075
1534.82823,0.00084
1532.76805,0.00084
1530.70788,0.00081
1528.64771,0.00074
1526.58754,0.00061
1524.52737,0.00044
1522.46719,0.00028
1520.40702,0.00024
1518.34685,0.00038
1516.28668,0.00060
1514.22651,0.00072
1512.16633,0.00066
1510.10616,0.00042
1508.04599,0.00014
1505.98582,0.00000
1503.92565,0.00009
1501.86547,0.00032
1499.80530,0.00056
1497.74513,0.00081
1495.68496,0.00105
1493.62478,0.00118
1491.56461,0.00113
1489.50444,0.00099
1487.44427,0.00095
1485.38410,0.00107
1483.32392,0.00123
1481.26375,0.00133
1479.20358,0.00133
1477.14341,0.00122
1475.08324,0.00111
1473.02306,0.00117
1470.96289,0.00147
1468.90272,0.00183
1466.84255,0.00205
1464.78238,0.00209
1462.72220,0.00204
1460.66203,0.00199
1458.60186,0.00207
1456.54169,0.00239
1454.48151,0.00286
1452.42134,0.00325
1450.36117,0.00343
1448.30100,0.00341
1446.24083,0.00333
1444.18065,0.00328
1442.12048,0.00330
1440.06031,0.00334
1438.00014,0.00336
1435.93997,0.00338
1433.87979,0.00344
1431.81962,0.00353
1429.75945,0.00363
1427.69928,0.00371
1425.63910,0.00370
1423.57893,0.00359
1421.51876,0.00345
1419.45859,0.00339
1417.39842,0.00352
1415.33824,0.00383
1413.27807,0.00415
1411.21790,0.00431
1409.15773,0.00432
1407.09756,0.00424
1405.03738,0.00415
1402.97721,0.00402
1400.91704,0.00383
1398.85687,0.00360
1396.79670,0.00345
1394.73652,0.00348
1392.67635,0.00361
1390.61618,0.00372
1388.55601,0.00371
1386.49583,0.00366
1384.43566,0.00366
1382.37549,0.00374
1380.31532,0.00388
1378.25515,0.00403
1376.19497,0.00408
1374.13480,0.00403
1372.07463,0.00395
1370.01446,0.00391
1367.95429,0.00391
1365.89411,0.00390
1363.83394,0.00387
1361.77377,0.00386
1359.71360,0.00389
1357.65343,0.00394
1355.59325,0.00395
1353.53308,0.00391
1351.47291,0.00383
1349.41274,0.00373
1347.35256,0.00361
1345.29239,0.00347
1343.23222,0.00330
1341.17205,0.00312
1339.11188,0.00300
1337.05170,0.00295
1334.99153,0.00301
1332.93136,0.00313
1330.87119,0.00330
1328.81102,0.00347
1326.75084,0.00362
1324.69067,0.00370
1322.63050,0.00372
1320.57033,0.00371
1318.51015,0.00369
1316.44998,0.00365
1314.38981,0.00356
1312.32964,0.00343
1310.26947,0.00334
1308.20929,0.00330
1306.14912,0.00327
1304.08895,0.00321
1302.02878,0.00310
1299.96861,0.00297
1297.90843,0.00283
1295.84826,0.00270
1293.78809,0.00263
1291.72792,0.00262
1289.66775,0.00265
1287.60757,0.00270
1285.54740,0.00275
1283.48723,0.00280
1281.42706,0.00285
1279.36688,0.00290
1277.30671,0.00293
1275.24654,0.00293
1273.18637,0.00293
1271.12620,0.00298
1269.06602,0.00308
1267.00585,0.00319
1264.94568,0.00326
1262.88551,0.00330
1260.82534,0.00340
1258.76516,0.00360
1256.70499,0.00384
1254.64482,0.00405
1252.58465,0.00418
1250.52447,0.00422
1248.46430,0.00420
1246.40413,0.00415
1244.34396,0.00411
1242.28379,0.00406
1240.22361,0.00400
1238.16344,0.00393
1236.10327,0.00383
1234.04310,0.00372
1231.98293,0.00364
1229.92275,0.00355
1227.86258,0.00342
1225.80241,0.00327
1223.74224,0.00313
1221.68207,0.00297
1219.62189,0.00276
1217.56172,0.00252
1215.50155,0.00230
1213.44138,0.00214
1211.38120,0.00203
1209.32103,0.00193
1207.26086,0.00179
1205.20069,0.00155
1203.14052,0.00124
1201.08034,0.00091
1199.02017,0.00065
1196.96000,0.00051
1194.89983,0.00042
1192.83966,0.00035
1190.77948,0.00023
1188.71931,0.00008
1186.65914,0.00000
1184.59897,0.00009
1182.53880,0.00032
1180.47862,0.00051
1178.41845,0.00055
1176.35828,0.00048
1174.29811,0.00040
1172.23793,0.00047
1170.17776,0.00071
1168.11759,0.00108
1166.05742,0.00157
1163.99725,0.00215
1161.93707,0.00268
1159.87690,0.00305
1157.81673,0.00327
1155.75656,0.00333
1153.69639,0.00335
1151.63621,0.00349
1149.57604,0.00378
1147.51587,0.00416
1145.45570,0.00453
1143.39552,0.00480
1141.33535,0.00497
1139.27518,0.00498
1137.21501,0.00476
1135.15484,0.00444
1133.09466,0.00425
1131.03449,0.00433
1128.97432,0.00461
1126.91415,0.00507
1124.85398,0.00577
1122.79380,0.00652
1120.73363,0.00700
1118.67346,0.00717
1116.61329,0.00720
1114.55312,0.00723
1112.49294,0.00729
1110.43277,0.00749
1108.37260,0.00783
1106.31243,0.00822
1104.25225,0.00859
1102.19208,0.00895
1100.13191,0.00937
1098.07174,0.00980
1096.01157,0.01014
1093.95139,0.01041
1091.89122,0.01074
1089.83105,0.01111
1087.77088,0.01140
1085.71071,0.01167
1083.65053,0.01207
1081.59036,0.01246
1079.53019,0.01271
1077.47002,0.01295
1075.40985,0.01333
1073.34967,0.01380
1071.28950,0.01430
1069.22933,0.01473
1067.16916,0.01497
1065.10898,0.01500
1063.04881,0.01498
1060.98864,0.01499
1058.92847,0.01501
1056.86830,0.01497
1054.80812,0.01492
1052.74795,0.01505
1050.68778,0.01549
1048.62761,0.01616
1046.56744,0.01670
1044.50726,0.01697
1042.44709,0.01715
1040.38692,0.01742
1038.32675,0.01775
1036.26657,0.01793
1034.20640,0.01775
1032.14623,0.01737
1030.08606,0.01707
1028.02589,0.01680
1025.96571,0.01652
1023.90554,0.01636
1021.84537,0.01646
1019.78520,0.01666
1017.72503,0.01680
1015.66485,0.01693
1013.60468,0.01703
1011.54451,0.01701
1009.48434,0.01695
1007.42417,0.01682
1005.36399,0.01648
1003.30382,0.01602
1001.24365,0.01566
999.18348,0.01553
997.12330,0.01557
995.06313,0.01554
993.00296,0.01538
990.94279,0.01521
988.88262,0.01504
986.82244,0.01476
984.76227,0.01449
982.70210,0.01438
980.64193,0.01431
978.58176,0.01409
976.52158,0.01370
974.46141,0.01323
972.40124,0.01283
970.34107,0.01265
968.28089,0.01267
966.22072,0.01268
964.16055,0.01252
962.10038,0.01214
960.04021,0.01167
957.98003,0.01135
955.91986,0.01132
953.85969,0.01144
951.79952,0.01137
949.73935,0.01112
947.67917,0.01086
945.61900,0.01061
943.55883,0.01038
941.49866,0.01007
939.43849,0.00960
937.37831,0.00903
935.31814,0.00835
933.25797,0.00771
931.19780,0.00739
929.13762,0.00720
927.07745,0.00673
925.01728,0.00612
922.95711,0.00571
920.89694,0.00547
918.83676,0.00525
916.77659,0.00504
914.71642,0.00489
912.65625,0.00481
910.59608,0.00466
908.53590,0.00426
906.47573,0.00371
904.41556,0.00340
902.35539,0.00347
900.29522,0.00359
898.23504,0.00353
896.17487,0.00343
894.11470,0.00332
892.05453,0.00309
889.99435,0.00279
887.93418,0.00268
885.87401,0.00298
883.81384,0.00365
881.75367,0.00423
879.69349,0.00437
877.63332,0.00403
875.57315,0.00337
873.51298,0.00269
871.45281,0.00255
869.39263,0.00305
867.33246,0.00342
865.27229,0.00313
863.21212,0.00231
861.15194,0.00132
859.09177,0.00082
857.03160,0.00128
854.97143,0.00222
852.91126,0.00286
850.85108,0.00305
848.79091,0.00308
846.73074,0.00288
844.67057,0.00228
842.61040,0.00160
840.55022,0.00135
838.49005,0.00161
836.42988,0.00200
834.36971,0.00206
832.30954,0.00163
830.24936,0.00101
828.18919,0.00088
826.12902,0.00147
824.06885,0.00190
822.00867,0.00148
819.94850,0.00083
817.88833,0.00080
815.82816,0.00138
813.76799,0.00209
811.70781,0.00239
809.64764,0.00193
807.58747,0.00124
805.52730,0.00102
803.46713,0.00115
801.40695,0.00114
799.34678,0.00097
797.28661,0.00099
795.22644,0.00118
793.16627,0.00134
791.10609,0.00135
789.04592,0.00131
786.98575,0.00142
784.92558,0.00154
782.86540,0.00156
780.80523,0.00178
778.74506,0.00217
776.68489,0.00225
774.62472,0.00193
772.56454,0.00142
770.50437,0.00081
768.44420,0.00026
766.38403,0.00000
764.32386,0.00012
762.26368,0.00067
760.20351,0.00146
758.14334,0.00210
756.08317,0.00224
754.02299,0.00191
751.96282,0.00154
749.90265,0.00138
747.84248,0.00149
745.78231,0.00167
743.72213,0.00156
741.66196,0.00120
739.60179,0.00119
737.54162,0.00174
735.48145,0.00220
733.42127,0.00203
731.36110,0.00153
729.30093,0.00137
727.24076,0.00160
725.18059,0.00167
723.12041,0.00119
721.06024,0.00048
719.00007,0.00003
716.93990,0.00003
714.87972,0.00030
712.81955,0.00057
710.75938,0.00072
708.69921,0.00080
706.63904,0.00083
704.57886,0.00085
702.51869,0.00085
700.45852,0.00094
698.39835,0.00124
696.33818,0.00180
694.27800,0.00246
692.21783,0.00299
690.15766,0.00312
688.09749,0.00270
686.03731,0.00185
683.97714,0.00104
681.91697,0.00078
679.85680,0.00114
677.79663,0.00168
675.73645,0.00186
673.67628,0.00168
671.61611,0.00162
669.55594,0.00195
667.49577,0.00245
665.43559,0.00268
663.37542,0.00254
661.31525,0.00226
659.25508,0.00207
657.19491,0.00215
655.13473,0.00266
653.07456,0.00346
651.01439,0.00386
648.95422,0.00344
646.89404,0.00262
644.83387,0.00210
642.77370,0.00214
640.71353,0.00247
638.65336,0.00261
636.59318,0.00234
634.53301,0.00188
632.47284,0.00172
630.41267,0.00234
628.35250,0.00376
626.29232,0.00489
624.23215,0.00352
622.17198,0.00086
620.11181,0.00000
618.05164,0.00107
615.99146,0.00264
613.93129,0.00280
611.87112,0.00216
609.81095,0.00243
607.75077,0.00313
605.69060,0.00284
603.63043,0.00158
601.57026,0.00039
599.51009,0.00000
