3996.73391,0.00061
3994.67373,0.00075
3992.61356,0.00104
3990.55339,0.00112
3988.49322,0.00082
3986.43305,0.00043
3984.37287,0.00030
3982.31270,0.00043
3980.25253,0.00062
3978.19236,0.00076
3976.13219,0.00092
3974.07201,0.00104
3972.01184,0.00097
3969.95167,0.00083
3967.89150,0.00095
3965.83133,0.00115
3963.77115,0.00088
3961.71098,0.00025
3959.65081,0.00000
3957.59064,0.00030
3955.53046,0.00070
3953.47029,0.00080
3951.41012,0.00071
3949.34995,0.00068
3947.28978,0.00066
3945.22960,0.00058
3943.16943,0.00063
3941.10926,0.00080
3939.04909,0.00092
3936.98892,0.00102
3934.92874,0.00104
3932.86857,0.00094
3930.80840,0.00085
3928.74823,0.00083
3926.68805,0.00074
3924.62788,0.00058
3922.56771,0.00058
3920.50754,0.00077
3918.44737,0.00105
3916.38719,0.00125
3914.32702,0.00122
3912.26685,0.00107
3910.20668,0.00104
3908.14651,0.00113
3906.08633,0.00115
3904.02616,0.00105
3901.96599,0.00102
3899.90582,0.00106
3897.84565,0.00116
3895.78547,0.00139
3893.72530,0.00153
3891.66513,0.00127
3889.60496,0.00087
3887.54478,0.00081
3885.48461,0.00092
3883.42444,0.00082
3881.36427,0.00064
3879.30410,0.00075
3877.24392,0.00104
3875.18375,0.00111
3873.12358,0.00080
3871.06341,0.00037
3869.00324,0.00025
3866.94306,0.00043
3864.88289,0.00074
3862.82272,0.00114
3860.76255,0.00136
3858.70237,0.00145
3856.64220,0.00161
3854.58203,0.00173
3852.52186,0.00160
3850.46169,0.00135
3848.40151,0.00116
3846.34134,0.00095
3844.28117,0.00076
3842.22100,0.00077
3840.16083,0.00096
3838.10065,0.00115
3836.04048,0.00123
3833.98031,0.00141
3831.92014,0.00169
3829.85997,0.00150
3827.79979,0.00078
3825.73962,0.00026
3823.67945,0.00034
3821.61928,0.00065
3819.55910,0.00086
3817.49893,0.00095
3815.43876,0.00102
3813.37859,0.00118
3811.31842,0.00136
3809.25824,0.00142
3807.19807,0.00120
3805.13790,0.00066
3803.07773,0.00008
3801.01756,0.00001
3798.95738,0.00051
3796.89721,0.00094
3794.83704,0.00105
3792.77687,0.00097
3790.71670,0.00079
3788.65652,0.00067
3786.59635,0.00073
3784.53618,0.00098
3782.47601,0.00118
3780.41583,0.00116
3778.35566,0.00114
3776.29549,0.00128
3774.23532,0.00137
3772.17515,0.00128
3770.11497,0.00120
3768.05480,0.00120
3765.99463,0.00113
3763.93446,0.00105
3761.87429,0.00110
3759.81411,0.00111
3757.75394,0.00082
3755.69377,0.00038
3753.63360,0.00000
3751.57342,0.00004
3749.51325,0.00082
3747.45308,0.00165
3745.39291,0.00179
3743.33274,0.00135
3741.27256,0.00103
3739.21239,0.00117
3737.15222,0.00137
3735.09205,0.00109
3733.03188,0.00063
3730.97170,0.00061
3728.91153,0.00083
3726.85136,0.00107
3724.79119,0.00117
3722.73102,0.00075
3720.67084,0.00013
3718.61067,0.00000
3716.55050,0.00050
3714.49033,0.00107
3712.43015,0.00113
3710.36998,0.00084
3708.30981,0.00057
3706.24964,0.00057
3704.18947,0.00069
3702.12929,0.00075
3700.06912,0.00077
3698.00895,0.00094
3695.94878,0.00126
3693.88861,0.00148
3691.82843,0.00153
3689.76826,0.00123
3687.70809,0.00068
3685.64792,0.00047
3683.58775,0.00063
3681.52757,0.00072
3679.46740,0.00057
3677.40723,0.00018
3675.34706,0.00000
3673.28688,0.00038
3671.22671,0.00078
3669.16654,0.00077
3667.10637,0.00060
3665.04620,0.00062
3662.98602,0.00085
3660.92585,0.00112
3658.86568,0.00128
3656.80551,0.00137
3654.74534,0.00137
3652.68516,0.00126
3650.62499,0.00111
3648.56482,0.00097
3646.50465,0.00094
3644.44447,0.00108
3642.38430,0.00123
3640.32413,0.00129
3638.26396,0.00141
3636.20379,0.00170
3634.14361,0.00188
3632.08344,0.00180
3630.02327,0.00162
3627.96310,0.00165
3625.90293,0.00187
3623.84275,0.00209
3621.78258,0.00229
3619.72241,0.00257
3617.66224,0.00291
3615.60207,0.00317
3613.54189,0.00339
3611.48172,0.00348
3609.42155,0.00350
3607.36138,0.00367
3605.30120,0.00405
3603.24103,0.00447
3601.18086,0.00474
3599.12069,0.00477
3597.06052,0.00467
3595.00034,0.00481
3592.94017,0.00523
3590.88000,0.00569
3588.81983,0.00600
3586.75966,0.00613
3584.69948,0.00609
3582.63931,0.00606
3580.57914,0.00617
3578.51897,0.00639
3576.45879,0.00675
3574.39862,0.00728
3572.33845,0.00769
3570.27828,0.00792
3568.21811,0.00806
3566.15793,0.00803
3564.09776,0.00791
3562.03759,0.00811
3559.97742,0.00868
3557.91725,0.00919
3555.85707,0.00937
3553.79690,0.00949
3551.73673,0.00985
3549.67656,0.01040
3547.61639,0.01091
3545.55621,0.01125
3543.49604,0.01147
3541.43587,0.01180
3539.37570,0.01215
3537.31552,0.01236
3535.25535,0.01266
3533.19518,0.01310
3531.13501,0.01346
3529.07484,0.01375
3527.01466,0.01407
3524.95449,0.01441
3522.89432,0.01482
3520.83415,0.01533
3518.77398,0.01574
3516.71380,0.01601
3514.65363,0.01636
3512.59346,0.01678
3510.53329,0.01717
3508.47312,0.01760
3506.41294,0.01798
3504.35277,0.01816
3502.29260,0.01818
3500.23243,0.01829
3498.17225,0.01868
3496.11208,0.01925
3494.05191,0.01975
3491.99174,0.02008
3489.93157,0.02029
3487.87139,0.02047
3485.81122,0.02069
3483.75105,0.02109
3481.69088,0.02173
3479.63071,0.02234
3477.57053,0.02265
3475.51036,0.02287
3473.45019,0.02324
3471.39002,0.02363
3469.32984,0.02385
3467.26967,0.02410
3465.20950,0.02473
3463.14933,0.02539
3461.08916,0.02559
3459.02898,0.02559
3456.96881,0.02581
3454.90864,0.02612
3452.84847,0.02641
3450.78830,0.02690
3448.72812,0.02742
3446.66795,0.02785
3444.60778,0.02838
3442.54761,0.02869
3440.48744,0.02867
3438.42726,0.02852
3436.36709,0.02842
3434.30692,0.02862
3432.24675,0.02918
3430.18657,0.02969
3428.12640,0.02989
3426.06623,0.03016
3424.00606,0.03066
3421.94589,0.03090
3419.88571,0.03094
3417.82554,0.03134
3415.76537,0.03188
3413.70520,0.03227
3411.64503,0.03257
3409.58485,0.03289
3407.52468,0.03309
3405.46451,0.03307
3403.40434,0.03318
3401.34416,0.03362
3399.28399,0.03407
3397.22382,0.03445
3395.16365,0.03499
3393.10348,0.03550
3391.04330,0.03558
3388.98313,0.03524
3386.92296,0.03493
3384.86279,0.03499
3382.80262,0.03527
3380.74244,0.03556
3378.68227,0.03586
3376.62210,0.03626
3374.56193,0.03665
3372.50176,0.03681
3370.44158,0.03691
3368.38141,0.03716
3366.32124,0.03743
3364.26107,0.03757
3362.20089,0.03765
3360.14072,0.03768
3358.08055,0.03769
3356.02038,0.03758
3353.96021,0.03748
3351.90003,0.03788
3349.83986,0.03844
3347.77969,0.03861
3345.71952,0.03864
3343.65935,0.03886
3341.59917,0.03905
3339.53900,0.03906
3337.47883,0.03898
3335.41866,0.03889
3333.35849,0.03894
3331.29831,0.03926
3329.23814,0.03965
3327.17797,0.03979
3325.11780,0.03966
3323.05762,0.03943
3320.99745,0.03946
3318.93728,0.03973
3316.87711,0.03988
3314.81694,0.03989
3312.75676,0.04000
3310.69659,0.04013
3308.63642,0.04012
3306.57625,0.04005
3304.51608,0.04005
3302.45590,0.04002
3300.39573,0.04001
3298.33556,0.04021
3296.27539,0.04037
3294.21521,0.04017
3292.15504,0.03989
3290.09487,0.03995
3288.03470,0.04029
3285.97453,0.04056
3283.91435,0.04059
3281.85418,0.04040
3279.79401,0.04021
3277.73384,0.04031
3275.67367,0.04047
3273.61349,0.04042
3271.55332,0.04030
3269.49315,0.04021
3267.43298,0.04014
3265.37281,0.04016
3263.31263,0.04019
3261.25246,0.04016
3259.19229,0.04016
3257.13212,0.04014
3255.07194,0.03994
3253.01177,0.03976
3250.95160,0.03970
3248.89143,0.03957
3246.83126,0.03939
3244.77108,0.03935
3242.71091,0.03931
3240.65074,0.03912
3238.59057,0.03894
3236.53040,0.03886
3234.47022,0.03893
3232.41005,0.03899
3230.34988,0.03876
3228.28971,0.03843
3226.22954,0.03823
3224.16936,0.03798
3222.10919,0.03774
3220.04902,0.03778
3217.98885,0.03794
3215.92867,0.03801
3213.86850,0.03808
3211.80833,0.03810
3209.74816,0.03789
3207.68799,0.03754
3205.62781,0.03725
3203.56764,0.03705
3201.50747,0.03699
3199.44730,0.03694
3197.38713,0.03675
3195.32695,0.03657
3193.26678,0.03648
3191.20661,0.03641
3189.14644,0.03632
3187.08626,0.03619
3185.02609,0.03603
3182.96592,0.03578
3180.90575,0.03543
3178.84558,0.03513
3176.78540,0.03491
3174.72523,0.03475
3172.66506,0.03459
3170.60489,0.03432
3168.54472,0.03393
3166.48454,0.03360
3164.42437,0.03343
3162.36420,0.03343
3160.30403,0.03341
3158.24386,0.03325
3156.18368,0.03298
3154.12351,0.03263
3152.06334,0.03234
3150.00317,0.03224
3147.94299,0.03214
3145.88282,0.03194
3143.82265,0.03170
3141.76248,0.03142
3139.70231,0.03109
3137.64213,0.03086
3135.58196,0.03078
3133.52179,0.03074
3131.46162,0.03062
3129.40145,0.03033
3127.34127,0.03010
3125.28110,0.03011
3123.22093,0.02999
3121.16076,0.02957
3119.10058,0.02906
3117.04041,0.02865
3114.98024,0.02844
3112.92007,0.02842
3110.85990,0.02836
3108.79972,0.02820
3106.73955,0.02804
3104.67938,0.02788
3102.61921,0.02769
3100.55904,0.02741
3098.49886,0.02706
3096.43869,0.02684
3094.37852,0.02676
3092.31835,0.02672
3090.25818,0.02664
3088.19800,0.02639
3086.13783,0.02607
3084.07766,0.02589
3082.01749,0.02566
3079.95731,0.02537
3077.89714,0.02524
3075.83697,0.02518
3073.77680,0.02497
3071.71663,0.02460
3069.65645,0.02417
3067.59628,0.02391
3065.53611,0.02391
3063.47594,0.02386
3061.41577,0.02360
3059.35559,0.02335
3057.29542,0.02326
3055.23525,0.02311
3053.17508,0.02288
3051.11491,0.02272
3049.05473,0.02254
3046.99456,0.02232
3044.93439,0.02211
3042.87422,0.02193
3040.81404,0.02175
3038.75387,0.02149
3036.69370,0.02121
3034.63353,0.02102
3032.57336,0.02083
3030.51318,0.02063
3028.45301,0.02048
3026.39284,0.02037
3024.33267,0.02023
3022.27250,0.02011
3020.21232,0.02010
3018.15215,0.02001
3016.09198,0.01976
3014.03181,0.01956
3011.97163,0.01947
3009.91146,0.01942
3007.85129,0.01941
3005.79112,0.01932
3003.73095,0.01909
3001.67077,0.01879
2999.61060,0.01847
2997.55043,0.01813
2995.49026,0.01808
2993.43009,0.01826
2991.36991,0.01835
2989.30974,0.01838
2987.24957,0.01836
2985.18940,0.01832
2983.12923,0.01838
2981.06905,0.01861
2979.00888,0.01900
2976.94871,0.01932
2974.88854,0.01958
2972.82836,0.02001
2970.76819,0.02053
2968.70802,0.02116
2966.64785,0.02212
2964.58768,0.02328
2962.52750,0.02439
2960.46733,0.02542
2958.40716,0.02646
2956.34699,0.02758
2954.28682,0.02885
2952.22664,0.03031
2950.16647,0.03170
2948.10630,0.03295
2946.04613,0.03444
2943.98596,0.03622
2941.92578,0.03820
2939.86561,0.04040
2937.80544,0.04256
2935.74527,0.04450
2933.68509,0.04637
2931.62492,0.04821
2929.56475,0.04986
2927.50458,0.05129
2925.44441,0.05250
2923.38423,0.05350
2921.32406,0.05434
2919.26389,0.05487
2917.20372,0.05460
2915.14355,0.05336
2913.08337,0.05151
2911.02320,0.04941
2908.96303,0.04743
2906.90286,0.04573
2904.84268,0.04423
2902.78251,0.04295
2900.72234,0.04186
2898.66217,0.04091
2896.60200,0.04002
2894.54182,0.03895
2892.48165,0.03783
2890.42148,0.03692
2888.36131,0.03621
2886.30114,0.03556
2884.24096,0.03490
2882.18079,0.03433
2880.12062,0.03396
2878.06045,0.03364
2876.00028,0.03352
2873.94010,0.03377
2871.87993,0.03410
2869.81976,0.03441
2867.75959,0.03490
2865.69941,0.03558
2863.63924,0.03644
2861.57907,0.03763
2859.51890,0.03913
2857.45873,0.04059
2855.39855,0.04178
2853.33838,0.04291
2851.27821,0.04390
2849.21804,0.04392
2847.15787,0.04229
2845.09769,0.03950
2843.03752,0.03662
2840.97735,0.03423
2838.91718,0.03246
2836.85700,0.03106
2834.79683,0.02977
2832.73666,0.02858
2830.67649,0.02750
2828.61632,0.02656
2826.55614,0.02589
2824.49597,0.02546
2822.43580,0.02519
2820.37563,0.02496
2818.31546,0.02459
2816.25528,0.02409
2814.19511,0.02369
2812.13494,0.02336
2810.07477,0.02293
2808.01460,0.02258
2805.95442,0.02249
2803.89425,0.02234
2801.83408,0.02198
2799.77391,0.02157
2797.71373,0.02122
2795.65356,0.02110
2793.59339,0.02111
2791.53322,0.02098
2789.47305,0.02078
2787.41287,0.02054
2785.35270,0.02023
2783.29253,0.01990
2781.23236,0.01962
2779.17219,0.01952
2777.11201,0.01959
2775.05184,0.01965
2772.99167,0.01949
2770.93150,0.01921
2768.87133,0.01899
2766.81115,0.01892
2764.75098,0.01897
2762.69081,0.01906
2760.63064,0.01914
2758.57046,0.01915
2756.51029,0.01899
2754.45012,0.01867
2752.38995,0.01843
2750.32978,0.01837
2748.26960,0.01840
2746.20943,0.01839
2744.14926,0.01836
2742.08909,0.01827
2740.02892,0.01822
2737.96874,0.01828
2735.90857,0.01827
2733.84840,0.01816
2731.78823,0.01816
2729.72805,0.01814
2727.66788,0.01791
2725.60771,0.01773
2723.54754,0.01777
2721.48737,0.01775
2719.42719,0.01752
2717.36702,0.01741
2715.30685,0.01755
2713.24668,0.01761
2711.18651,0.01748
2709.12633,0.01739
2707.06616,0.01739
2705.00599,0.01739
2702.94582,0.01731
2700.88565,0.01720
2698.82547,0.01711
2696.76530,0.01702
2694.70513,0.01695
2692.64496,0.01696
2690.58478,0.01697
2688.52461,0.01697
2686.46444,0.01694
2684.40427,0.01679
2682.34410,0.01666
2680.28392,0.01666
2678.22375,0.01667
2676.16358,0.01664
2674.10341,0.01659
2672.04324,0.01648
2669.98306,0.01634
2667.92289,0.01634
2665.86272,0.01647
2663.80255,0.01650
2661.74238,0.01637
2659.68220,0.01613
2657.62203,0.01594
2655.56186,0.01583
2653.50169,0.01572
2651.44151,0.01566
2649.38134,0.01575
2647.32117,0.01588
2645.26100,0.01586
2643.20083,0.01569
2641.14065,0.01548
2639.08048,0.01534
2637.02031,0.01533
2634.96014,0.01548
2632.89997,0.01554
2630.83979,0.01525
2628.77962,0.01494
2626.71945,0.01487
2624.65928,0.01486
2622.59910,0.01474
2620.53893,0.01447
2618.47876,0.01416
2616.41859,0.01401
2614.35842,0.01406
2612.29824,0.01421
2610.23807,0.01438
2608.17790,0.01442
2606.11773,0.01414
2604.05756,0.01363
2601.99738,0.01324
2599.93721,0.01340
2597.87704,0.01387
2595.81687,0.01406
2593.75670,0.01378
2591.69652,0.01338
2589.63635,0.01319
2587.57618,0.01313
2585.51601,0.01298
2583.45583,0.01281
2581.39566,0.01284
2579.33549,0.01289
2577.27532,0.01281
2575.21515,0.01280
2573.15497,0.01270
2571.09480,0.01240
2569.03463,0.01224
2566.97446,0.01221
2564.91429,0.01214
2562.85411,0.01228
2560.79394,0.01242
2558.73377,0.01210
2556.67360,0.01177
2554.61342,0.01192
2552.55325,0.01206
2550.49308,0.01189
2548.43291,0.01179
2546.37274,0.01176
2544.31256,0.01147
2542.25239,0.01118
2540.19222,0.01130
2538.13205,0.01148
2536.07188,0.01134
2534.01170,0.01114
2531.95153,0.01106
2529.89136,0.01123
2527.83119,0.01150
2525.77102,0.01140
2523.71084,0.01100
2521.65067,0.01083
2519.59050,0.01091
2517.53033,0.01103
2515.47015,0.01113
2513.40998,0.01118
2511.34981,0.01114
2509.28964,0.01092
2507.22947,0.01067
2505.16929,0.01076
2503.10912,0.01110
2501.04895,0.01127
2498.98878,0.01113
2496.92861,0.01083
2494.86843,0.01066
2492.80826,0.01052
2490.74809,0.01028
2488.68792,0.00994
2486.62775,0.00960
2484.56757,0.00963
2482.50740,0.00988
2480.44723,0.00987
2478.38706,0.00993
2476.32688,0.01018
2474.26671,0.01025
2472.20654,0.01020
2470.14637,0.01008
2468.08620,0.00987
2466.02602,0.00971
2463.96585,0.00965
2461.90568,0.00971
2459.84551,0.00976
2457.78534,0.00965
2455.72516,0.00966
2453.66499,0.00979
2451.60482,0.00985
2449.54465,0.01003
2447.48447,0.01031
2445.42430,0.01021
2443.36413,0.00984
2441.30396,0.00966
2439.24379,0.00972
2437.18361,0.00980
2435.12344,0.00980
2433.06327,0.00968
2431.00310,0.00955
2428.94293,0.00950
2426.88275,0.00954
2424.82258,0.00961
2422.76241,0.00962
2420.70224,0.00955
2418.64207,0.00940
2416.58189,0.00932
2414.52172,0.00932
2412.46155,0.00912
2410.40138,0.00886
2408.34120,0.00879
2406.28103,0.00875
2404.22086,0.00868
2402.16069,0.00879
2400.10052,0.00891
2398.04034,0.00877
2395.98017,0.00873
2393.92000,0.00879
2391.85983,0.00892
2389.79966,0.00914
2387.73948,0.00941
2385.67931,0.00958
2383.61914,0.00935
2381.55897,0.00890
2379.49880,0.00882
2377.43862,0.00940
2375.37845,0.01012
2373.31828,0.01084
2371.25811,0.01143
2369.19793,0.01112
2367.13776,0.01031
2365.07759,0.00982
2363.01742,0.00956
2360.95725,0.01125
2358.89707,0.01206
2356.83690,0.01132
2354.77673,0.01124
2352.71656,0.01206
2350.65639,0.01392
2348.59621,0.01419
2346.53604,0.01103
2344.47587,0.01074
2342.41570,0.01140
2340.35552,0.01104
2338.29535,0.01087
2336.23518,0.01111
2334.17501,0.01213
2332.11484,0.01278
2330.05466,0.01235
2327.99449,0.01132
2325.93432,0.01146
2323.87415,0.01168
2321.81398,0.01138
2319.75380,0.01030
2317.69363,0.00981
2315.63346,0.00953
2313.57329,0.00919
2311.51312,0.00899
2309.45294,0.00915
2307.39277,0.00950
2305.33260,0.00934
2303.27243,0.00862
2301.21225,0.00800
2299.15208,0.00800
2297.09191,0.00812
2295.03174,0.00822
2292.97157,0.00853
2290.91139,0.00869
2288.85122,0.00858
2286.79105,0.00848
2284.73088,0.00835
2282.67071,0.00809
2280.61053,0.00790
2278.55036,0.00787
2276.49019,0.00778
2274.43002,0.00763
2272.36984,0.00770
2270.30967,0.00788
2268.24950,0.00766
2266.18933,0.00724
2264.12916,0.00731
2262.06898,0.00761
2260.00881,0.00749
2257.94864,0.00714
2255.88847,0.00684
2253.82830,0.00668
2251.76812,0.00649
2249.70795,0.00626
2247.64778,0.00626
2245.58761,0.00612
2243.52744,0.00553
2241.46726,0.00514
2239.40709,0.00576
2237.34692,0.00648
2235.28675,0.00635
2233.22657,0.00618
2231.16640,0.00615
2229.10623,0.00561
2227.04606,0.00515
2224.98589,0.00543
2222.92571,0.00588
2220.86554,0.00635
2218.80537,0.00654
2216.74520,0.00588
2214.68503,0.00498
2212.62485,0.00453
2210.56468,0.00476
2208.50451,0.00507
2206.44434,0.00479
2204.38417,0.00509
2202.32399,0.00627
2200.26382,0.00651
2198.20365,0.00565
2196.14348,0.00552
2194.08330,0.00603
2192.02313,0.00569
2189.96296,0.00509
2187.90279,0.00506
2185.84262,0.00460
2183.78244,0.00360
2181.72227,0.00303
2179.66210,0.00291
2177.60193,0.00288
2175.54176,0.00345
2173.48158,0.00475
2171.42141,0.00525
2169.36124,0.00440
2167.30107,0.00367
2165.24089,0.00356
2163.18072,0.00345
2161.12055,0.00302
2159.06038,0.00225
2157.00021,0.00202
2154.94003,0.00263
2152.87986,0.00325
2150.81969,0.00339
2148.75952,0.00340
2146.69935,0.00368
2144.63917,0.00364
2142.57900,0.00271
2140.51883,0.00213
2138.45866,0.00268
2136.39849,0.00311
2134.33831,0.00331
2132.27814,0.00385
2130.21797,0.00451
2128.15780,0.00513
2126.09762,0.00539
2124.03745,0.00503
2121.97728,0.00444
2119.91711,0.00432
2117.85694,0.00467
2115.79676,0.00509
2113.73659,0.00557
2111.67642,0.00576
2109.61625,0.00526
2107.55608,0.00463
2105.49590,0.00461
2103.43573,0.00495
2101.37556,0.00503
2099.31539,0.00481
2097.25521,0.00438
2095.19504,0.00362
2093.13487,0.00303
2091.07470,0.00340
2089.01453,0.00434
2086.95435,0.00455
2084.89418,0.00403
2082.83401,0.00394
2080.77384,0.00435
2078.71367,0.00483
2076.65349,0.00547
2074.59332,0.00588
2072.53315,0.00577
2070.47298,0.00507
2068.41281,0.00414
2066.35263,0.00390
2064.29246,0.00429
2062.23229,0.00454
2060.17212,0.00466
2058.11194,0.00479
2056.05177,0.00461
2053.99160,0.00437
2051.93143,0.00438
2049.87126,0.00443
2047.81108,0.00430
2045.75091,0.00382
2043.69074,0.00325
2041.63057,0.00311
2039.57040,0.00322
2037.51022,0.00328
2035.45005,0.00290
2033.38988,0.00198
2031.32971,0.00166
2029.26954,0.00180
2027.20936,0.00154
2025.14919,0.00162
2023.08902,0.00213
2021.02885,0.00178
2018.96867,0.00048
2016.90850,0.00026
2014.84833,0.00203
2012.78816,0.00412
2010.72799,0.00483
2008.66781,0.00383
2006.60764,0.00217
2004.54747,0.00142
2002.48730,0.00193
2000.42713,0.00237
1998.36695,0.00245
1996.30678,0.00282
1994.24661,0.00304
1992.18644,0.00298
1990.12626,0.00288
1988.06609,0.00272
1986.00592,0.00308
1983.94575,0.00351
1981.88558,0.00301
1979.82540,0.00234
1977.76523,0.00195
1975.70506,0.00165
1973.64489,0.00184
1971.58472,0.00136
1969.52454,0.00005
1967.46437,0.00000
1965.40420,0.00123
1963.34403,0.00191
1961.28386,0.00175
1959.22368,0.00152
1957.16351,0.00153
1955.10334,0.00168
1953.04317,0.00168
1950.98299,0.00135
1948.92282,0.00126
1946.86265,0.00187
1944.80248,0.00266
1942.74231,0.00299
1940.68213,0.00297
1938.62196,0.00269
1936.56179,0.00209
1934.50162,0.00197
1932.44145,0.00270
1930.38127,0.00330
1928.32110,0.00300
1926.26093,0.00239
1924.20076,0.00231
1922.14059,0.00257
1920.08041,0.00243
1918.02024,0.00161
1915.96007,0.00100
1913.89990,0.00131
1911.83972,0.00176
1909.77955,0.00184
1907.71938,0.00190
1905.65921,0.00209
1903.59904,0.00228
1901.53886,0.00236
1899.47869,0.00222
1897.41852,0.00202
1895.35835,0.00195
1893.29818,0.00199
1891.23800,0.00205
1889.17783,0.00200
1887.11766,0.00181
1885.05749,0.00159
1882.99731,0.00160
1880.93714,0.00178
1878.87697,0.00187
1876.81680,0.00178
1874.75663,0.00159
1872.69645,0.00150
1870.63628,0.00150
1868.57611,0.00149
1866.51594,0.00163
1864.45577,0.00191
1862.39559,0.00205
1860.33542,0.00197
1858.27525,0.00175
1856.21508,0.00155
1854.15491,0.00156
1852.09473,0.00169
1850.03456,0.00174
1847.97439,0.00164
1845.91422,0.00140
1843.85404,0.00120
1841.79387,0.00121
1839.73370,0.00132
1837.67353,0.00130
1835.61336,0.00122
1833.55318,0.00126
1831.49301,0.00131
1829.43284,0.00110
1827.37267,0.00089
1825.31250,0.00096
1823.25232,0.00111
1821.19215,0.00100
1819.13198,0.00072
1817.07181,0.00055
1815.01163,0.00060
1812.95146,0.00078
1810.89129,0.00084
1808.83112,0.00056
1806.77095,0.00016
1804.71077,0.00002
1802.65060,0.00011
1800.59043,0.00016
1798.53026,0.00016
1796.47009,0.00025
1794.40991,0.00035
1792.34974,0.00038
1790.28957,0.00049
1788.22940,0.00065
1786.16923,0.00056
1784.10905,0.00020
1782.04888,0.00000
1779.98871,0.00007
1777.92854,0.00027
1775.86836,0.00040
1773.80819,0.00039
1771.74802,0.00021
1769.68785,0.00004
1767.62768,0.00019
1765.56750,0.00069
1763.50733,0.00126
1761.44716,0.00183
1759.38699,0.00262
1757.32682,0.00364
1755.26664,0.00461
1753.20647,0.00543
1751.14630,0.00640
1749.08613,0.00766
1747.02596,0.00886
1744.96578,0.00983
1742.90561,0.01073
1740.84544,0.01158
1738.78527,0.01228
1736.72509,0.01271
1734.66492,0.01291
1732.60475,0.01306
1730.54458,0.01318
1728.48441,0.01326
1726.42423,0.01333
1724.36406,0.01338
1722.30389,0.01351
1720.24372,0.01373
1718.18355,0.01387
1716.12337,0.01383
1714.06320,0.01382
1712.00303,0.01391
1709.94286,0.01401
1707.88268,0.01398
1705.82251,0.01371
1703.76234,0.01325
1701.70217,0.01289
1699.64200,0.01272
1697.58182,0.01273
1695.52165,0.01308
1693.46148,0.01385
1691.40131,0.01489
1689.34114,0.01609
1687.28096,0.01728
1685.22079,0.01863
1683.16062,0.02051
1681.10045,0.02245
1679.04028,0.02416
1676.98010,0.02572
1674.91993,0.02691
1672.85976,0.02745
1670.79959,0.02743
1668.73941,0.02714
1666.67924,0.02670
1664.61907,0.02613
1662.55890,0.02549
1660.49873,0.02492
1658.43855,0.02448
1656.37838,0.02410
1654.31821,0.02356
1652.25804,0.02294
1650.19787,0.02269
1648.13769,0.02279
1646.07752,0.02304
1644.01735,0.02314
1641.95718,0.02308
1639.89701,0.02320
1637.83683,0.02374
1635.77666,0.02463
1633.71649,0.02543
1631.65632,0.02584
1629.59614,0.02611
1627.53597,0.02645
1625.47580,0.02677
1623.41563,0.02707
1621.35546,0.02755
1619.29528,0.02808
1617.23511,0.02847
1615.17494,0.02894
1613.11477,0.02979
1611.05460,0.03107
1608.99442,0.03253
1606.93425,0.03376
1604.87408,0.03431
1602.81391,0.03397
1600.75373,0.03287
1598.69356,0.03144
1596.63339,0.03005
1594.57322,0.02884
1592.51305,0.02787
1590.45287,0.02714
1588.39270,0.02654
1586.33253,0.02587
1584.27236,0.02504
1582.21219,0.02429
1580.15201,0.02371
1578.09184,0.02306
1576.03167,0.02224
1573.97150,0.02156
1571.91133,0.02109
1569.85115,0.02051
1567.79098,0.01972
1565.73081,0.01884
1563.67064,0.01803
1561.61046,0.01731
1559.55029,0.01624
1557.49012,0.01491
1555.42995,0.01413
1553.36978,0.01365
1551.30960,0.01307
1549.24943,0.01243
1547.18926,0.01185
1545.12909,0.01114
1543.06892,0.01006
1541.00874,0.00895
1538.94857,0.00835
1536.88840,0.00810
1534.82823,0.00769
1532.76805,0.00705
1530.70788,0.00653
1528.64771,0.00630
1526.58754,0.00625
1524.52737,0.00632
1522.46719,0.00674
1520.40702,0.00782
1518.34685,0.00932
1516.28668,0.01076
1514.22651,0.01145
1512.16633,0.01108
1510.10616,0.00999
1508.04599,0.00842
1505.98582,0.00664
1503.92565,0.00550
1501.86547,0.00488
1499.80530,0.00421
1497.74513,0.00335
1495.68496,0.00257
1493.62478,0.00209
1491.56461,0.00174
1489.50444,0.00135
1487.44427,0.00092
1485.38410,0.00067
1483.32392,0.00064
1481.26375,0.00073
1479.20358,0.00103
1477.14341,0.00166
1475.08324,0.00277
1473.02306,0.00455
1470.96289,0.00667
1468.90272,0.00846
1466.84255,0.01006
1464.78238,0.01174
1462.72220,0.01306
1460.66203,0.01373
1458.60186,0.01424
1456.54169,0.01514
1454.48151,0.01628
1452.42134,0.01719
1450.36117,0.01786
1448.30100,0.01845
1446.24083,0.01913
1444.18065,0.01992
1442.12048,0.02077
1440.06031,0.02144
1438.00014,0.02190
1435.93997,0.02239
1433.87979,0.02298
1431.81962,0.02342
1429.75945,0.02355
1427.69928,0.02353
1425.63910,0.02358
1423.57893,0.02377
1421.51876,0.02400
1419.45859,0.02412
1417.39842,0.02414
1415.33824,0.02419
1413.27807,0.02410
1411.21790,0.02372
1409.15773,0.02314
1407.09756,0.02243
1405.03738,0.02162
1402.97721,0.02089
1400.91704,0.02030
1398.85687,0.01967
1396.79670,0.01894
1394.73652,0.01833
1392.67635,0.01812
1390.61618,0.01818
1388.55601,0.01828
1386.49583,0.01843
1384.43566,0.01880
1382.37549,0.01947
1380.31532,0.02027
1378.25515,0.02093
1376.19497,0.02136
1374.13480,0.02172
1372.07463,0.02207
1370.01446,0.02230
1367.95429,0.02231
1365.89411,0.02208
1363.83394,0.02162
1361.77377,0.02110
1359.71360,0.02070
1357.65343,0.02039
1355.59325,0.02012
1353.53308,0.02001
1351.47291,0.02009
1349.41274,0.02018
1347.35256,0.02012
1345.29239,0.01999
1343.23222,0.01996
1341.17205,0.01997
1339.11188,0.01987
1337.05170,0.01974
1334.99153,0.01972
1332.93136,0.01980
1330.87119,0.01994
1328.81102,0.02006
1326.75084,0.02016
1324.69067,0.02028
1322.63050,0.02033
1320.57033,0.02018
1318.51015,0.01998
1316.44998,0.01988
1314.38981,0.01978
1312.32964,0.01959
1310.26947,0.01927
1308.20929,0.01882
1306.14912,0.01833
1304.08895,0.01778
1302.02878,0.01713
1299.96861,0.01643
1297.90843,0.01586
1295.84826,0.01570
1293.78809,0.01595
1291.72792,0.01636
1289.66775,0.01664
1287.60757,0.01669
1285.54740,0.01672
1283.48723,0.01687
1281.42706,0.01708
1279.36688,0.01717
1277.30671,0.01721
1275.24654,0.01739
1273.18637,0.01769
1271.12620,0.01798
1269.06602,0.01834
1267.00585,0.01874
1264.94568,0.01922
1262.88551,0.02001
1260.82534,0.02100
1258.76516,0.02187
1256.70499,0.02250
1254.64482,0.02290
1252.58465,0.02317
1250.52447,0.02347
1248.46430,0.02386
1246.40413,0.02430
1244.34396,0.02462
1242.28379,0.02474
1240.22361,0.02473
1238.16344,0.02461
1236.10327,0.02438
1234.04310,0.02399
1231.98293,0.02334
1229.92275,0.02252
1227.86258,0.02165
1225.80241,0.02082
1223.74224,0.02006
1221.68207,0.01903
1219.62189,0.01761
1217.56172,0.01626
1215.50155,0.01515
1213.44138,0.01408
1211.38120,0.01301
1209.32103,0.01200
1207.26086,0.01100
1205.20069,0.00997
1203.14052,0.00873
1201.08034,0.00718
1199.02017,0.00557
1196.96000,0.00407
1194.89983,0.00279
1192.83966,0.00186
1190.77948,0.00124
1188.71931,0.00072
1186.65914,0.00027
1184.59897,0.00000
1182.53880,-0.00002
1180.47862,0.00033
1178.41845,0.00108
1176.35828,0.00218
1174.29811,0.00361
1172.23793,0.00551
1170.17776,0.00764
1168.11759,0.00937
1166.05742,0.01045
1163.99725,0.01106
1161.93707,0.01156
1159.87690,0.01209
1157.81673,0.01261
1155.75656,0.01306
1153.69639,0.01360
1151.63621,0.01449
1149.57604,0.01557
1147.51587,0.01653
1145.45570,0.01741
1143.39552,0.01824
1141.33535,0.01893
1139.27518,0.01948
1137.21501,0.02013
1135.15484,0.02102
1133.09466,0.02189
1131.03449,0.02259
1128.97432,0.02336
1126.91415,0.02442
1124.85398,0.02563
1122.79380,0.02671
1120.73363,0.02782
1118.67346,0.02900
1116.61329,0.02998
1114.55312,0.03094
1112.49294,0.03219
1110.43277,0.03347
1108.37260,0.03459
1106.31243,0.03558
1104.25225,0.03644
1102.19208,0.03742
1100.13191,0.03875
1098.07174,0.04047
1096.01157,0.04255
1093.95139,0.04477
1091.89122,0.04676
1089.83105,0.04850
1087.77088,0.05026
1085.71071,0.05193
1083.65053,0.05341
1081.59036,0.05492
1079.53019,0.05667
1077.47002,0.05872
1075.40985,0.06111
1073.34967,0.06361
1071.28950,0.06581
1069.22933,0.06746
1067.16916,0.06870
1065.10898,0.06991
1063.04881,0.07120
1060.98864,0.07242
1058.92847,0.07371
1056.86830,0.07530
1054.80812,0.07714
1052.74795,0.07910
1050.68778,0.08121
1048.62761,0.08344
1046.56744,0.08572
1044.50726,0.08806
1042.44709,0.09042
1040.38692,0.09260
1038.32675,0.09429
1036.26657,0.09546
1034.20640,0.09630
1032.14623,0.09691
1030.08606,0.09733
1028.02589,0.09755
1025.96571,0.09747
1023.90554,0.09705
1021.84537,0.09648
1019.78520,0.09583
1017.72503,0.09540
1015.66485,0.09543
1013.60468,0.09562
1011.54451,0.09585
1009.48434,0.09612
1007.42417,0.09621
1005.36399,0.09605
1003.30382,0.09562
1001.24365,0.09478
999.18348,0.09360
997.12330,0.09230
995.06313,0.09095
993.00296,0.08962
990.94279,0.08827
988.88262,0.08659
986.82244,0.08486
984.76227,0.08363
982.70210,0.08253
980.64193,0.08104
978.58176,0.07941
976.52158,0.07805
974.46141,0.07675
972.40124,0.07525
970.34107,0.07363
968.28089,0.07188
966.22072,0.07013
964.16055,0.06863
962.10038,0.06739
960.04021,0.06618
957.98003,0.06479
955.91986,0.06327
953.85969,0.06173
951.79952,0.06011
949.73935,0.05849
947.67917,0.05709
945.61900,0.05568
943.55883,0.05391
941.49866,0.05187
939.43849,0.04954
937.37831,0.04661
935.31814,0.04332
933.25797,0.04022
931.19780,0.03754
929.13762,0.03528
927.07745,0.03334
925.01728,0.03162
922.95711,0.03000
920.89694,0.02838
918.83676,0.02675
916.77659,0.02503
914.71642,0.02338
912.65625,0.02181
910.59608,0.02016
908.53590,0.01878
906.47573,0.01805
904.41556,0.01747
902.35539,0.01674
900.29522,0.01633
898.23504,0.01624
896.17487,0.01639
894.11470,0.01697
892.05453,0.01736
889.99435,0.01698
887.93418,0.01625
885.87401,0.01542
883.81384,0.01442
881.75367,0.01358
879.69349,0.01284
877.63332,0.01192
875.57315,0.01104
873.51298,0.01022
871.45281,0.00949
869.39263,0.00907
867.33246,0.00876
865.27229,0.00824
863.21212,0.00783
861.15194,0.00776
859.09177,0.00773
857.03160,0.00761
854.97143,0.00754
852.91126,0.00758
850.85108,0.00779
848.79091,0.00792
846.73074,0.00758
844.67057,0.00709
842.61040,0.00693
840.55022,0.00682
838.49005,0.00661
836.42988,0.00641
834.36971,0.00620
832.30954,0.00603
830.24936,0.00592
828.18919,0.00563
826.12902,0.00487
824.06885,0.00391
822.00867,0.00346
819.94850,0.00363
817.88833,0.00348
815.82816,0.00270
813.76799,0.00202
811.70781,0.00198
809.64764,0.00252
807.58747,0.00268
805.52730,0.00218
803.46713,0.00200
801.40695,0.00222
799.34678,0.00195
797.28661,0.00144
795.22644,0.00134
793.16627,0.00130
791.10609,0.00110
789.04592,0.00086
786.98575,0.00037
784.92558,0.00000
782.86540,0.00003
780.80523,0.00006
778.74506,-0.00014
776.68489,-0.00037
774.62472,-0.00043
772.56454,-0.00048
770.50437,-0.00063
768.44420,-0.00066
766.38403,-0.00055
764.32386,-0.00045
762.26368,-0.00028
760.20351,0.00023
758.14334,0.00107
756.08317,0.00161
754.02299,0.00131
751.96282,0.00069
749.90265,0.00026
747.84248,0.00000
745.78231,-0.00035
743.72213,-0.00088
741.66196,-0.00154
739.60179,-0.00166
737.54162,-0.00136
735.48145,-0.00114
733.42127,-0.00104
731.36110,-0.00084
729.30093,-0.00038
727.24076,-0.00029
725.18059,-0.00080
723.12041,-0.00051
721.06024,0.00018
719.00007,0.00102
716.93990,0.00072
714.87972,-0.00012
712.81955,-0.00023
710.75938,0.00031
708.69921,0.00122
706.63904,0.00193
704.57886,0.00200
702.51869,0.00199
700.45852,0.00255
698.39835,0.00377
696.33818,0.00540
694.27800,0.00671
692.21783,0.00680
690.15766,0.00544
688.09749,0.00329
686.03731,0.00187
683.97714,0.00214
681.91697,0.00324
679.85680,0.00385
677.79663,0.00346
675.73645,0.00274
673.67628,0.00341
671.61611,0.00464
669.55594,0.00096
667.49577,-0.00116
665.43559,0.00502
663.37542,0.00375
661.31525,0.00138
659.25508,0.00141
657.19491,0.00248
655.13473,0.00288
653.07456,0.00250
651.01439,0.00220
648.95422,0.00189
646.89404,0.00097
644.83387,0.00000
642.77370,0.00086
640.71353,0.00264
638.65336,0.00326
636.59318,0.00357
634.53301,0.00394
632.47284,0.00287
630.41267,0.00115
628.35250,0.00060
626.29232,0.00153
624.23215,0.00299
622.17198,0.00360
620.11181,0.00357
618.05164,0.00440
615.99146,0.00515
613.93129,0.00360
611.87112,0.00132
609.81095,0.00083
607.75077,0.00179
605.69060,0.00216
603.63043,0.00133
601.57026,0.00051
599.51009,0.00000
