3996.73391,0.00001
3994.67373,-0.00019
3992.61356,-0.00024
3990.55339,-0.00001
3988.49322,-0.00003
3986.43305,-0.00015
3984.37287,-0.00008
3982.31270,0.00002
3980.25253,0.00001
3978.19236,-0.00003
3976.13219,-0.00003
3974.07201,-0.00002
3972.01184,0.00013
3969.95167,0.00038
3967.89150,0.00058
3965.83133,0.00058
3963.77115,0.00041
3961.71098,0.00020
3959.65081,0.00000
3957.59064,0.00005
3955.53046,0.00035
3953.47029,0.00066
3951.41012,0.00095
3949.34995,0.00116
3947.28978,0.00085
3945.22960,0.00056
3943.16943,0.00083
3941.10926,0.00090
3939.04909,0.00073
3936.98892,0.00053
3934.92874,0.00046
3932.86857,0.00081
3930.80840,0.00093
3928.74823,0.00056
3926.68805,0.00051
3924.62788,0.00070
3922.56771,0.00061
3920.50754,0.00091
3918.44737,0.00143
3916.38719,0.00130
3914.32702,0.00077
3912.26685,0.00076
3910.20668,0.00087
3908.14651,0.00087
3906.08633,0.00145
3904.02616,0.00212
3901.96599,0.00215
3899.90582,0.00209
3897.84565,0.00149
3895.78547,0.00095
3893.72530,0.00148
3891.66513,0.00191
3889.60496,0.00115
3887.54478,0.00139
3885.48461,0.00209
3883.42444,0.00158
3881.36427,0.00179
3879.30410,0.00159
3877.24392,0.00096
3875.18375,0.00144
3873.12358,0.00167
3871.06341,0.00182
3869.00324,0.00130
3866.94306,0.00094
3864.88289,0.00213
3862.82272,0.00219
3860.76255,0.00094
3858.70237,0.00000
3856.64220,0.00058
3854.58203,0.00266
3852.52186,0.00285
3850.46169,0.00134
3848.40151,0.00106
3846.34134,0.00157
3844.28117,0.00185
3842.22100,0.00154
3840.16083,0.00189
3838.10065,0.00259
3836.04048,0.00202
3833.98031,0.00165
3831.92014,0.00224
3829.85997,0.00233
3827.79979,0.00198
3825.73962,0.00127
3823.67945,0.00134
3821.61928,0.00224
3819.55910,0.00130
3817.49893,0.00160
3815.43876,0.00269
3813.37859,0.00188
3811.31842,0.00121
3809.25824,0.00169
3807.19807,0.00200
3805.13790,0.00098
3803.07773,0.00171
3801.01756,0.00294
3798.95738,0.00239
3796.89721,0.00237
3794.83704,0.00218
3792.77687,0.00206
3790.71670,0.00237
3788.65652,0.00240
3786.59635,0.00238
3784.53618,0.00238
3782.47601,0.00236
3780.41583,0.00288
3778.35566,0.00279
3776.29549,0.00205
3774.23532,0.00173
3772.17515,0.00194
3770.11497,0.00229
3768.05480,0.00222
3765.99463,0.00235
3763.93446,0.00196
3761.87429,0.00184
3759.81411,0.00233
3757.75394,0.00183
3755.69377,0.00099
3753.63360,0.00154
3751.57342,0.00246
3749.51325,0.00117
3747.45308,0.00000
3745.39291,0.00180
3743.33274,0.00253
3741.27256,0.00146
3739.21239,0.00150
3737.15222,0.00260
3735.09205,0.00298
3733.03188,0.00198
3730.97170,0.00065
3728.91153,0.00038
3726.85136,0.00163
3724.79119,0.00263
3722.73102,0.00266
3720.67084,0.00216
3718.61067,0.00172
3716.55050,0.00122
3714.49033,0.00125
3712.43015,0.00240
3710.36998,0.00283
3708.30981,0.00172
3706.24964,0.00077
3704.18947,0.00119
3702.12929,0.00201
3700.06912,0.00170
3698.00895,0.00131
3695.94878,0.00129
3693.88861,0.00119
3691.82843,0.00182
3689.76826,0.00262
3687.70809,0.00177
3685.64792,0.00068
3683.58775,0.00084
3681.52757,0.00113
3679.46740,0.00100
3677.40723,0.00156
3675.34706,0.00200
3673.28688,0.00087
3671.22671,0.00203
3669.16654,0.00326
3667.10637,0.00217
3665.04620,0.00146
3662.98602,0.00148
3660.92585,0.00158
3658.86568,0.00221
3656.80551,0.00288
3654.74534,0.00187
3652.68516,0.00147
3650.62499,0.00308
3648.56482,0.00360
3646.50465,0.00248
3644.44447,0.00175
3642.38430,0.00210
3640.32413,0.00247
3638.26396,0.00260
3636.20379,0.00280
3634.14361,0.00289
3632.08344,0.00292
3630.02327,0.00394
3627.96310,0.00364
3625.90293,0.00186
3623.84275,0.00154
3621.78258,0.00262
3619.72241,0.00363
3617.66224,0.00319
3615.60207,0.00288
3613.54189,0.00344
3611.48172,0.00372
3609.42155,0.00423
3607.36138,0.00444
3605.30120,0.00373
3603.24103,0.00362
3601.18086,0.00439
3599.12069,0.00496
3597.06052,0.00552
3595.00034,0.00615
3592.94017,0.00611
3590.88000,0.00622
3588.81983,0.00736
3586.75966,0.00764
3584.69948,0.00660
3582.63931,0.00640
3580.57914,0.00705
3578.51897,0.00748
3576.45879,0.00767
3574.39862,0.00779
3572.33845,0.00762
3570.27828,0.00776
3568.21811,0.00877
3566.15793,0.00937
3564.09776,0.00909
3562.03759,0.00915
3559.97742,0.00962
3557.91725,0.01003
3555.85707,0.01045
3553.79690,0.01094
3551.73673,0.01106
3549.67656,0.01107
3547.61639,0.01174
3545.55621,0.01234
3543.49604,0.01229
3541.43587,0.01223
3539.37570,0.01251
3537.31552,0.01303
3535.25535,0.01350
3533.19518,0.01389
3531.13501,0.01440
3529.07484,0.01494
3527.01466,0.01523
3524.95449,0.01549
3522.89432,0.01606
3520.83415,0.01667
3518.77398,0.01707
3516.71380,0.01723
3514.65363,0.01751
3512.59346,0.01813
3510.53329,0.01866
3508.47312,0.01852
3506.41294,0.01823
3504.35277,0.01862
3502.29260,0.01897
3500.23243,0.01912
3498.17225,0.01978
3496.11208,0.02039
3494.05191,0.02041
3491.99174,0.02045
3489.93157,0.02094
3487.87139,0.02138
3485.81122,0.02157
3483.75105,0.02213
3481.69088,0.02287
3479.63071,0.02313
3477.57053,0.02324
3475.51036,0.02353
3473.45019,0.02394
3471.39002,0.02435
3469.32984,0.02460
3467.26967,0.02481
3465.20950,0.02517
3463.14933,0.02563
3461.08916,0.02586
3459.02898,0.02592
3456.96881,0.02616
3454.90864,0.02646
3452.84847,0.02667
3450.78830,0.02695
3448.72812,0.02749
3446.66795,0.02784
3444.60778,0.02797
3442.54761,0.02849
3440.48744,0.02896
3438.42726,0.02908
3436.36709,0.02903
3434.30692,0.02904
3432.24675,0.02932
3430.18657,0.02970
3428.12640,0.03001
3426.06623,0.03041
3424.00606,0.03100
3421.94589,0.03161
3419.88571,0.03182
3417.82554,0.03181
3415.76537,0.03205
3413.70520,0.03241
3411.64503,0.03282
3409.58485,0.03322
3407.52468,0.03339
3405.46451,0.03351
3403.40434,0.03401
3401.34416,0.03457
3399.28399,0.03490
3397.22382,0.03527
3395.16365,0.03579
3393.10348,0.03623
3391.04330,0.03621
3388.98313,0.03594
3386.92296,0.03576
3384.86279,0.03572
3382.80262,0.03587
3380.74244,0.03618
3378.68227,0.03658
3376.62210,0.03719
3374.56193,0.03772
3372.50176,0.03774
3370.44158,0.03762
3368.38141,0.03780
3366.32124,0.03797
3364.26107,0.03789
3362.20089,0.03796
3360.14072,0.03814
3358.08055,0.03823
3356.02038,0.03833
3353.96021,0.03840
3351.90003,0.03854
3349.83986,0.03888
3347.77969,0.03933
3345.71952,0.03957
3343.65935,0.03943
3341.59917,0.03932
3339.53900,0.03954
3337.47883,0.03974
3335.41866,0.03967
3333.35849,0.03968
3331.29831,0.03986
3329.23814,0.03988
3327.17797,0.03977
3325.11780,0.03965
3323.05762,0.03958
3320.99745,0.03976
3318.93728,0.04005
3316.87711,0.04020
3314.81694,0.04031
3312.75676,0.04060
3310.69659,0.04085
3308.63642,0.04068
3306.57625,0.04032
3304.51608,0.04019
3302.45590,0.04013
3300.39573,0.04013
3298.33556,0.04037
3296.27539,0.04075
3294.21521,0.04106
3292.15504,0.04106
3290.09487,0.04082
3288.03470,0.04072
3285.97453,0.04085
3283.91435,0.04098
3281.85418,0.04094
3279.79401,0.04078
3277.73384,0.04082
3275.67367,0.04095
3273.61349,0.04091
3271.55332,0.04086
3269.49315,0.04077
3267.43298,0.04061
3265.37281,0.04054
3263.31263,0.04049
3261.25246,0.04041
3259.19229,0.04049
3257.13212,0.04068
3255.07194,0.04070
3253.01177,0.04041
3250.95160,0.04013
3248.89143,0.04016
3246.83126,0.04039
3244.77108,0.04040
3242.71091,0.04008
3240.65074,0.03969
3238.59057,0.03936
3236.53040,0.03926
3234.47022,0.03948
3232.41005,0.03975
3230.34988,0.03970
3228.28971,0.03934
3226.22954,0.03887
3224.16936,0.03854
3222.10919,0.03857
3220.04902,0.03888
3217.98885,0.03912
3215.92867,0.03917
3213.86850,0.03899
3211.80833,0.03873
3209.74816,0.03858
3207.68799,0.03830
3205.62781,0.03789
3203.56764,0.03753
3201.50747,0.03729
3199.44730,0.03723
3197.38713,0.03724
3195.32695,0.03715
3193.26678,0.03687
3191.20661,0.03655
3189.14644,0.03639
3187.08626,0.03634
3185.02609,0.03619
3182.96592,0.03588
3180.90575,0.03559
3178.84558,0.03561
3176.78540,0.03567
3174.72523,0.03543
3172.66506,0.03499
3170.60489,0.03451
3168.54472,0.03409
3166.48454,0.03379
3164.42437,0.03365
3162.36420,0.03375
3160.30403,0.03389
3158.24386,0.03380
3156.18368,0.03348
3154.12351,0.03302
3152.06334,0.03259
3150.00317,0.03254
3147.94299,0.03284
3145.88282,0.03290
3143.82265,0.03245
3141.76248,0.03191
3139.70231,0.03166
3137.64213,0.03149
3135.58196,0.03123
3133.52179,0.03108
3131.46162,0.03097
3129.40145,0.03078
3127.34127,0.03063
3125.28110,0.03063
3123.22093,0.03053
3121.16076,0.03014
3119.10058,0.02978
3117.04041,0.02956
3114.98024,0.02924
3112.92007,0.02890
3110.85990,0.02879
3108.79972,0.02884
3106.73955,0.02880
3104.67938,0.02857
3102.61921,0.02827
3100.55904,0.02779
3098.49886,0.02721
3096.43869,0.02696
3094.37852,0.02710
3092.31835,0.02735
3090.25818,0.02740
3088.19800,0.02709
3086.13783,0.02666
3084.07766,0.02634
3082.01749,0.02603
3079.95731,0.02580
3077.89714,0.02575
3075.83697,0.02565
3073.77680,0.02540
3071.71663,0.02510
3069.65645,0.02482
3067.59628,0.02466
3065.53611,0.02466
3063.47594,0.02457
3061.41577,0.02431
3059.35559,0.02409
3057.29542,0.02395
3055.23525,0.02365
3053.17508,0.02327
3051.11491,0.02307
3049.05473,0.02288
3046.99456,0.02263
3044.93439,0.02241
3042.87422,0.02227
3040.81404,0.02221
3038.75387,0.02202
3036.69370,0.02164
3034.63353,0.02133
3032.57336,0.02110
3030.51318,0.02087
3028.45301,0.02074
3026.39284,0.02076
3024.33267,0.02077
3022.27250,0.02069
3020.21232,0.02052
3018.15215,0.02030
3016.09198,0.02016
3014.03181,0.02018
3011.97163,0.02026
3009.91146,0.02028
3007.85129,0.02012
3005.79112,0.01972
3003.73095,0.01933
3001.67077,0.01916
2999.61060,0.01909
2997.55043,0.01892
2995.49026,0.01874
2993.43009,0.01875
2991.36991,0.01889
2989.30974,0.01894
2987.24957,0.01884
2985.18940,0.01886
2983.12923,0.01907
2981.06905,0.01931
2979.00888,0.01963
2976.94871,0.01998
2974.88854,0.02020
2972.82836,0.02038
2970.76819,0.02083
2968.70802,0.02160
2966.64785,0.02249
2964.58768,0.02357
2962.52750,0.02472
2960.46733,0.02561
2958.40716,0.02646
2956.34699,0.02762
2954.28682,0.02897
2952.22664,0.03036
2950.16647,0.03179
2948.10630,0.03326
2946.04613,0.03475
2943.98596,0.03641
2941.92578,0.03831
2939.86561,0.04041
2937.80544,0.04251
2935.74527,0.04450
2933.68509,0.04664
2931.62492,0.04873
2929.56475,0.05019
2927.50458,0.05121
2925.44441,0.05230
2923.38423,0.05340
2921.32406,0.05421
2919.26389,0.05461
2917.20372,0.05448
2915.14355,0.05364
2913.08337,0.05194
2911.02320,0.04960
2908.96303,0.04730
2906.90286,0.04553
2904.84268,0.04425
2902.78251,0.04311
2900.72234,0.04197
2898.66217,0.04089
2896.60200,0.03979
2894.54182,0.03869
2892.48165,0.03776
2890.42148,0.03699
2888.36131,0.03636
2886.30114,0.03574
2884.24096,0.03510
2882.18079,0.03457
2880.12062,0.03416
2878.06045,0.03385
2876.00028,0.03386
2873.94010,0.03409
2871.87993,0.03423
2869.81976,0.03440
2867.75959,0.03485
2865.69941,0.03550
2863.63924,0.03625
2861.57907,0.03737
2859.51890,0.03883
2857.45873,0.04032
2855.39855,0.04175
2853.33838,0.04301
2851.27821,0.04390
2849.21804,0.04389
2847.15787,0.04237
2845.09769,0.03975
2843.03752,0.03693
2840.97735,0.03440
2838.91718,0.03244
2836.85700,0.03103
2834.79683,0.02990
2832.73666,0.02889
2830.67649,0.02787
2828.61632,0.02702
2826.55614,0.02655
2824.49597,0.02617
2822.43580,0.02587
2820.37563,0.02570
2818.31546,0.02526
2816.25528,0.02465
2814.19511,0.02429
2812.13494,0.02406
2810.07477,0.02361
2808.01460,0.02302
2805.95442,0.02265
2803.89425,0.02258
2801.83408,0.02250
2799.77391,0.02213
2797.71373,0.02160
2795.65356,0.02137
2793.59339,0.02139
2791.53322,0.02134
2789.47305,0.02125
2787.41287,0.02113
2785.35270,0.02088
2783.29253,0.02060
2781.23236,0.02027
2779.17219,0.01993
2777.11201,0.01980
2775.05184,0.01982
2772.99167,0.01976
2770.93150,0.01959
2768.87133,0.01944
2766.81115,0.01935
2764.75098,0.01926
2762.69081,0.01908
2760.63064,0.01896
2758.57046,0.01906
2756.51029,0.01920
2754.45012,0.01921
2752.38995,0.01916
2750.32978,0.01903
2748.26960,0.01889
2746.20943,0.01886
2744.14926,0.01879
2742.08909,0.01862
2740.02892,0.01854
2737.96874,0.01852
2735.90857,0.01844
2733.84840,0.01836
2731.78823,0.01838
2729.72805,0.01840
2727.66788,0.01824
2725.60771,0.01800
2723.54754,0.01787
2721.48737,0.01782
2719.42719,0.01777
2717.36702,0.01780
2715.30685,0.01794
2713.24668,0.01805
2711.18651,0.01793
2709.12633,0.01768
2707.06616,0.01753
2705.00599,0.01751
2702.94582,0.01750
2700.88565,0.01747
2698.82547,0.01742
2696.76530,0.01738
2694.70513,0.01735
2692.64496,0.01728
2690.58478,0.01718
2688.52461,0.01722
2686.46444,0.01732
2684.40427,0.01734
2682.34410,0.01727
2680.28392,0.01718
2678.22375,0.01704
2676.16358,0.01684
2674.10341,0.01675
2672.04324,0.01677
2669.98306,0.01682
2667.92289,0.01690
2665.86272,0.01699
2663.80255,0.01699
2661.74238,0.01678
2659.68220,0.01645
2657.62203,0.01624
2655.56186,0.01618
2653.50169,0.01610
2651.44151,0.01600
2649.38134,0.01611
2647.32117,0.01634
2645.26100,0.01634
2643.20083,0.01606
2641.14065,0.01582
2639.08048,0.01583
2637.02031,0.01582
2634.96014,0.01562
2632.89997,0.01545
2630.83979,0.01533
2628.77962,0.01526
2626.71945,0.01548
2624.65928,0.01576
2622.59910,0.01567
2620.53893,0.01531
2618.47876,0.01508
2616.41859,0.01499
2614.35842,0.01477
2612.29824,0.01451
2610.23807,0.01441
2608.17790,0.01448
2606.11773,0.01448
2604.05756,0.01440
2601.99738,0.01440
2599.93721,0.01436
2597.87704,0.01421
2595.81687,0.01400
2593.75670,0.01368
2591.69652,0.01340
2589.63635,0.01328
2587.57618,0.01339
2585.51601,0.01373
2583.45583,0.01380
2581.39566,0.01350
2579.33549,0.01333
2577.27532,0.01330
2575.21515,0.01308
2573.15497,0.01271
2571.09480,0.01242
2569.03463,0.01223
2566.97446,0.01221
2564.91429,0.01254
2562.85411,0.01284
2560.79394,0.01272
2558.73377,0.01249
2556.67360,0.01234
2554.61342,0.01205
2552.55325,0.01175
2550.49308,0.01167
2548.43291,0.01173
2546.37274,0.01166
2544.31256,0.01142
2542.25239,0.01128
2540.19222,0.01129
2538.13205,0.01124
2536.07188,0.01135
2534.01170,0.01169
2531.95153,0.01189
2529.89136,0.01197
2527.83119,0.01215
2525.77102,0.01227
2523.71084,0.01224
2521.65067,0.01209
2519.59050,0.01187
2517.53033,0.01177
2515.47015,0.01179
2513.40998,0.01170
2511.34981,0.01143
2509.28964,0.01109
2507.22947,0.01091
2505.16929,0.01103
2503.10912,0.01113
2501.04895,0.01120
2498.98878,0.01128
2496.92861,0.01120
2494.86843,0.01101
2492.80826,0.01086
2490.74809,0.01072
2488.68792,0.01055
2486.62775,0.01039
2484.56757,0.01041
2482.50740,0.01051
2480.44723,0.01032
2478.38706,0.00997
2476.32688,0.00998
2474.26671,0.01052
2472.20654,0.01107
2470.14637,0.01096
2468.08620,0.01052
2466.02602,0.01043
2463.96585,0.01059
2461.90568,0.01055
2459.84551,0.01030
2457.78534,0.01027
2455.72516,0.01063
2453.66499,0.01087
2451.60482,0.01066
2449.54465,0.01054
2447.48447,0.01070
2445.42430,0.01053
2443.36413,0.00995
2441.30396,0.00941
2439.24379,0.00905
2437.18361,0.00911
2435.12344,0.00949
2433.06327,0.00975
2431.00310,0.00995
2428.94293,0.01020
2426.88275,0.01019
2424.82258,0.00985
2422.76241,0.00944
2420.70224,0.00924
2418.64207,0.00927
2416.58189,0.00940
2414.52172,0.00942
2412.46155,0.00928
2410.40138,0.00926
2408.34120,0.00922
2406.28103,0.00888
2404.22086,0.00863
2402.16069,0.00878
2400.10052,0.00892
2398.04034,0.00897
2395.98017,0.00912
2393.92000,0.00922
2391.85983,0.00925
2389.79966,0.00920
2387.73948,0.00907
2385.67931,0.00898
2383.61914,0.00895
2381.55897,0.00889
2379.49880,0.00888
2377.43862,0.00894
2375.37845,0.00905
2373.31828,0.00947
2371.25811,0.01083
2369.19793,0.01256
2367.13776,0.01292
2365.07759,0.01198
2363.01742,0.01123
2360.95725,0.00996
2358.89707,0.00936
2356.83690,0.00954
2354.77673,0.00995
2352.71656,0.01017
2350.65639,0.00933
2348.59621,0.00909
2346.53604,0.01128
2344.47587,0.01230
2342.41570,0.01227
2340.35552,0.01174
2338.29535,0.01074
2336.23518,0.00967
2334.17501,0.00913
2332.11484,0.00937
2330.05466,0.00925
2327.99449,0.00867
2325.93432,0.00801
2323.87415,0.00822
2321.81398,0.00878
2319.75380,0.00918
2317.69363,0.00863
2315.63346,0.00799
2313.57329,0.00788
2311.51312,0.00826
2309.45294,0.00873
2307.39277,0.00894
2305.33260,0.00896
2303.27243,0.00871
2301.21225,0.00831
2299.15208,0.00804
2297.09191,0.00811
2295.03174,0.00834
2292.97157,0.00852
2290.91139,0.00856
2288.85122,0.00827
2286.79105,0.00771
2284.73088,0.00738
2282.67071,0.00735
2280.61053,0.00727
2278.55036,0.00732
2276.49019,0.00766
2274.43002,0.00783
2272.36984,0.00771
2270.30967,0.00763
2268.24950,0.00755
2266.18933,0.00721
2264.12916,0.00670
2262.06898,0.00621
2260.00881,0.00588
2257.94864,0.00587
2255.88847,0.00626
2253.82830,0.00688
2251.76812,0.00701
2249.70795,0.00654
2247.64778,0.00618
2245.58761,0.00578
2243.52744,0.00520
2241.46726,0.00492
2239.40709,0.00524
2237.34692,0.00578
2235.28675,0.00633
2233.22657,0.00718
2231.16640,0.00766
2229.10623,0.00708
2227.04606,0.00621
2224.98589,0.00604
2222.92571,0.00645
2220.86554,0.00641
2218.80537,0.00555
2216.74520,0.00464
2214.68503,0.00447
2212.62485,0.00504
2210.56468,0.00585
2208.50451,0.00627
2206.44434,0.00609
2204.38417,0.00596
2202.32399,0.00590
2200.26382,0.00585
2198.20365,0.00661
2196.14348,0.00785
2194.08330,0.00780
2192.02313,0.00634
2189.96296,0.00577
2187.90279,0.00612
2185.84262,0.00545
2183.78244,0.00450
2181.72227,0.00447
2179.66210,0.00447
2177.60193,0.00401
2175.54176,0.00384
2173.48158,0.00430
2171.42141,0.00440
2169.36124,0.00359
2167.30107,0.00318
2165.24089,0.00385
2163.18072,0.00413
2161.12055,0.00330
2159.06038,0.00287
2157.00021,0.00304
2154.94003,0.00325
2152.87986,0.00404
2150.81969,0.00448
2148.75952,0.00425
2146.69935,0.00464
2144.63917,0.00518
2142.57900,0.00493
2140.51883,0.00456
2138.45866,0.00410
2136.39849,0.00342
2134.33831,0.00328
2132.27814,0.00354
2130.21797,0.00396
2128.15780,0.00467
2126.09762,0.00523
2124.03745,0.00542
2121.97728,0.00528
2119.91711,0.00496
2117.85694,0.00496
2115.79676,0.00531
2113.73659,0.00580
2111.67642,0.00608
2109.61625,0.00543
2107.55608,0.00446
2105.49590,0.00469
2103.43573,0.00573
2101.37556,0.00631
2099.31539,0.00630
2097.25521,0.00555
2095.19504,0.00438
2093.13487,0.00369
2091.07470,0.00368
2089.01453,0.00407
2086.95435,0.00430
2084.89418,0.00423
2082.83401,0.00431
2080.77384,0.00452
2078.71367,0.00465
2076.65349,0.00468
2074.59332,0.00455
2072.53315,0.00443
2070.47298,0.00440
2068.41281,0.00451
2066.35263,0.00516
2064.29246,0.00564
2062.23229,0.00504
2060.17212,0.00435
2058.11194,0.00438
2056.05177,0.00433
2053.99160,0.00404
2051.93143,0.00441
2049.87126,0.00546
2047.81108,0.00612
2045.75091,0.00544
2043.69074,0.00458
2041.63057,0.00511
2039.57040,0.00554
2037.51022,0.00466
2035.45005,0.00336
2033.38988,0.00235
2031.32971,0.00236
2029.26954,0.00285
2027.20936,0.00272
2025.14919,0.00283
2023.08902,0.00364
2021.02885,0.00383
2018.96867,0.00266
2016.90850,0.00160
2014.84833,0.00245
2012.78816,0.00428
2010.72799,0.00502
2008.66781,0.00423
2006.60764,0.00269
2004.54747,0.00186
2002.48730,0.00211
2000.42713,0.00253
1998.36695,0.00273
1996.30678,0.00232
1994.24661,0.00174
1992.18644,0.00186
1990.12626,0.00222
1988.06609,0.00316
1986.00592,0.00441
1983.94575,0.00484
1981.88558,0.00427
1979.82540,0.00281
1977.76523,0.00120
1975.70506,0.00107
1973.64489,0.00254
1971.58472,0.00339
1969.52454,0.00286
1967.46437,0.00244
1965.40420,0.00226
1963.34403,0.00210
1961.28386,0.00200
1959.22368,0.00148
1957.16351,0.00089
1955.10334,0.00117
1953.04317,0.00182
1950.98299,0.00172
1948.92282,0.00121
1946.86265,0.00096
1944.80248,0.00091
1942.74231,0.00128
1940.68213,0.00196
1938.62196,0.00264
1936.56179,0.00273
1934.50162,0.00271
1932.44145,0.00339
1930.38127,0.00380
1928.32110,0.00295
1926.26093,0.00220
1924.20076,0.00276
1922.14059,0.00292
1920.08041,0.00230
1918.02024,0.00225
1915.96007,0.00231
1913.89990,0.00251
1911.83972,0.00260
1909.77955,0.00238
1907.71938,0.00214
1905.65921,0.00216
1903.59904,0.00231
1901.53886,0.00227
1899.47869,0.00195
1897.41852,0.00176
1895.35835,0.00191
1893.29818,0.00201
1891.23800,0.00244
1889.17783,0.00272
1887.11766,0.00214
1885.05749,0.00192
1882.99731,0.00228
1880.93714,0.00234
1878.87697,0.00191
1876.81680,0.00148
1874.75663,0.00117
1872.69645,0.00105
1870.63628,0.00177
1868.57611,0.00258
1866.51594,0.00230
1864.45577,0.00206
1862.39559,0.00243
1860.33542,0.00253
1858.27525,0.00206
1856.21508,0.00168
1854.15491,0.00175
1852.09473,0.00188
1850.03456,0.00178
1847.97439,0.00158
1845.91422,0.00179
1843.85404,0.00183
1841.79387,0.00102
1839.73370,0.00105
1837.67353,0.00168
1835.61336,0.00165
1833.55318,0.00132
1831.49301,0.00162
1829.43284,0.00151
1827.37267,0.00084
1825.31250,0.00112
1823.25232,0.00135
1821.19215,0.00113
1819.13198,0.00102
1817.07181,0.00110
1815.01163,0.00135
1812.95146,0.00185
1810.89129,0.00200
1808.83112,0.00136
1806.77095,0.00074
1804.71077,0.00061
1802.65060,0.00082
1800.59043,0.00088
1798.53026,0.00045
1796.47009,0.00014
1794.40991,0.00070
1792.34974,0.00154
1790.28957,0.00110
1788.22940,0.00051
1786.16923,0.00067
1784.10905,0.00061
1782.04888,0.00058
1779.98871,0.00061
1777.92854,0.00010
1775.86836,0.00000
1773.80819,0.00091
1771.74802,0.00135
1769.68785,0.00064
1767.62768,0.00048
1765.56750,0.00073
1763.50733,0.00181
1761.44716,0.00276
1759.38699,0.00307
1757.32682,0.00408
1755.26664,0.00461
1753.20647,0.00524
1751.14630,0.00694
1749.08613,0.00832
1747.02596,0.00913
1744.96578,0.01004
1742.90561,0.01114
1740.84544,0.01211
1738.78527,0.01208
1736.72509,0.01241
1734.66492,0.01442
1732.60475,0.01429
1730.54458,0.01319
1728.48441,0.01321
1726.42423,0.01363
1724.36406,0.01404
1722.30389,0.01380
1720.24372,0.01426
1718.18355,0.01581
1716.12337,0.01553
1714.06320,0.01424
1712.00303,0.01370
1709.94286,0.01387
1707.88268,0.01431
1705.82251,0.01410
1703.76234,0.01273
1701.70217,0.01302
1699.64200,0.01369
1697.58182,0.01358
1695.52165,0.01433
1693.46148,0.01397
1691.40131,0.01445
1689.34114,0.01552
1687.28096,0.01666
1685.22079,0.01982
1683.16062,0.02198
1681.10045,0.02218
1679.04028,0.02329
1676.98010,0.02552
1674.91993,0.02702
1672.85976,0.02691
1670.79959,0.02775
1668.73941,0.02779
1666.67924,0.02617
1664.61907,0.02597
1662.55890,0.02631
1660.49873,0.02488
1658.43855,0.02321
1656.37838,0.02348
1654.31821,0.02585
1652.25804,0.02468
1650.19787,0.02149
1648.13769,0.02287
1646.07752,0.02450
1644.01735,0.02331
1641.95718,0.02259
1639.89701,0.02306
1637.83683,0.02502
1635.77666,0.02727
1633.71649,0.02653
1631.65632,0.02569
1629.59614,0.02657
1627.53597,0.02709
1625.47580,0.02707
1623.41563,0.02740
1621.35546,0.02692
1619.29528,0.02746
1617.23511,0.02939
1615.17494,0.02945
1613.11477,0.02921
1611.05460,0.03065
1608.99442,0.03240
1606.93425,0.03351
1604.87408,0.03424
1602.81391,0.03439
1600.75373,0.03339
1598.69356,0.03180
1596.63339,0.03043
1594.57322,0.02927
1592.51305,0.02827
1590.45287,0.02767
1588.39270,0.02721
1586.33253,0.02653
1584.27236,0.02562
1582.21219,0.02445
1580.15201,0.02341
1578.09184,0.02361
1576.03167,0.02357
1573.97150,0.02128
1571.91133,0.02053
1569.85115,0.02136
1567.79098,0.02025
1565.73081,0.01850
1563.67064,0.01685
1561.61046,0.01705
1559.55029,0.01918
1557.49012,0.01669
1555.42995,0.01388
1553.36978,0.01341
1551.30960,0.01330
1549.24943,0.01262
1547.18926,0.01159
1545.12909,0.01131
1543.06892,0.01127
1541.00874,0.01155
1538.94857,0.00969
1536.88840,0.00675
1534.82823,0.00706
1532.76805,0.00764
1530.70788,0.00638
1528.64771,0.00609
1526.58754,0.00626
1524.52737,0.00625
1522.46719,0.00753
1520.40702,0.00834
1518.34685,0.00911
1516.28668,0.01066
1514.22651,0.01064
1512.16633,0.00975
1510.10616,0.00951
1508.04599,0.01055
1505.98582,0.00896
1503.92565,0.00504
1501.86547,0.00368
1499.80530,0.00421
1497.74513,0.00432
1495.68496,0.00284
1493.62478,0.00111
1491.56461,0.00139
1489.50444,0.00201
1487.44427,0.00122
1485.38410,0.00045
1483.32392,0.00063
1481.26375,0.00106
1479.20358,0.00108
1477.14341,0.00170
1475.08324,0.00344
1473.02306,0.00591
1470.96289,0.00706
1468.90272,0.00778
1466.84255,0.01025
1464.78238,0.01263
1462.72220,0.01268
1460.66203,0.01301
1458.60186,0.01552
1456.54169,0.01704
1454.48151,0.01616
1452.42134,0.01630
1450.36117,0.01765
1448.30100,0.01907
1446.24083,0.01970
1444.18065,0.02002
1442.12048,0.02045
1440.06031,0.02100
1438.00014,0.02249
1435.93997,0.02330
1433.87979,0.02271
1431.81962,0.02316
1429.75945,0.02383
1427.69928,0.02355
1425.63910,0.02356
1423.57893,0.02368
1421.51876,0.02395
1419.45859,0.02490
1417.39842,0.02454
1415.33824,0.02380
1413.27807,0.02387
1411.21790,0.02382
1409.15773,0.02316
1407.09756,0.02255
1405.03738,0.02190
1402.97721,0.02068
1400.91704,0.02009
1398.85687,0.01993
1396.79670,0.01929
1394.73652,0.01862
1392.67635,0.01771
1390.61618,0.01752
1388.55601,0.01843
1386.49583,0.01893
1384.43566,0.01896
1382.37549,0.01958
1380.31532,0.02048
1378.25515,0.02118
1376.19497,0.02185
1374.13480,0.02224
1372.07463,0.02198
1370.01446,0.02205
1367.95429,0.02216
1365.89411,0.02191
1363.83394,0.02200
1361.77377,0.02170
1359.71360,0.02079
1357.65343,0.02027
1355.59325,0.02014
1353.53308,0.02010
1351.47291,0.02019
1349.41274,0.02038
1347.35256,0.02037
1345.29239,0.02010
1343.23222,0.01984
1341.17205,0.01996
1339.11188,0.01998
1337.05170,0.01954
1334.99153,0.01942
1332.93136,0.01973
1330.87119,0.02003
1328.81102,0.02008
1326.75084,0.02000
1324.69067,0.01992
1322.63050,0.01992
1320.57033,0.02003
1318.51015,0.02001
1316.44998,0.01975
1314.38981,0.01962
1312.32964,0.01952
1310.26947,0.01925
1308.20929,0.01888
1306.14912,0.01842
1304.08895,0.01798
1302.02878,0.01750
1299.96861,0.01691
1297.90843,0.01638
1295.84826,0.01611
1293.78809,0.01607
1291.72792,0.01618
1289.66775,0.01644
1287.60757,0.01666
1285.54740,0.01670
1283.48723,0.01674
1281.42706,0.01688
1279.36688,0.01703
1277.30671,0.01718
1275.24654,0.01742
1273.18637,0.01777
1271.12620,0.01806
1269.06602,0.01837
1267.00585,0.01885
1264.94568,0.01945
1262.88551,0.02017
1260.82534,0.02101
1258.76516,0.02176
1256.70499,0.02238
1254.64482,0.02283
1252.58465,0.02311
1250.52447,0.02341
1248.46430,0.02378
1246.40413,0.02414
1244.34396,0.02450
1242.28379,0.02481
1240.22361,0.02488
1238.16344,0.02458
1236.10327,0.02416
1234.04310,0.02389
1231.98293,0.02339
1229.92275,0.02251
1227.86258,0.02162
1225.80241,0.02085
1223.74224,0.01996
1221.68207,0.01884
1219.62189,0.01756
1217.56172,0.01636
1215.50155,0.01533
1213.44138,0.01428
1211.38120,0.01317
1209.32103,0.01201
1207.26086,0.01084
1205.20069,0.00974
1203.14052,0.00847
1201.08034,0.00697
1199.02017,0.00555
1196.96000,0.00419
1194.89983,0.00287
1192.83966,0.00184
1190.77948,0.00117
1188.71931,0.00073
1186.65914,0.00034
1184.59897,0.00000
1182.53880,-0.00014
1180.47862,0.00020
1178.41845,0.00097
1176.35828,0.00202
1174.29811,0.00345
1172.23793,0.00548
1170.17776,0.00771
1168.11759,0.00945
1166.05742,0.01056
1163.99725,0.01115
1161.93707,0.01148
1159.87690,0.01189
1157.81673,0.01239
1155.75656,0.01294
1153.69639,0.01365
1151.63621,0.01449
1149.57604,0.01529
1147.51587,0.01614
1145.45570,0.01710
1143.39552,0.01804
1141.33535,0.01887
1139.27518,0.01962
1137.21501,0.02023
1135.15484,0.02081
1133.09466,0.02138
1131.03449,0.02201
1128.97432,0.02291
1126.91415,0.02409
1124.85398,0.02528
1122.79380,0.02635
1120.73363,0.02746
1118.67346,0.02877
1116.61329,0.03004
1114.55312,0.03105
1112.49294,0.03193
1110.43277,0.03291
1108.37260,0.03392
1106.31243,0.03479
1104.25225,0.03567
1102.19208,0.03671
1100.13191,0.03803
1098.07174,0.03987
1096.01157,0.04204
1093.95139,0.04420
1091.89122,0.04616
1089.83105,0.04793
1087.77088,0.04969
1085.71071,0.05141
1083.65053,0.05300
1081.59036,0.05466
1079.53019,0.05646
1077.47002,0.05844
1075.40985,0.06072
1073.34967,0.06306
1071.28950,0.06506
1069.22933,0.06646
1067.16916,0.06750
1065.10898,0.06867
1063.04881,0.07015
1060.98864,0.07183
1058.92847,0.07333
1056.86830,0.07459
1054.80812,0.07614
1052.74795,0.07809
1050.68778,0.08026
1048.62761,0.08258
1046.56744,0.08494
1044.50726,0.08714
1042.44709,0.08906
1040.38692,0.09084
1038.32675,0.09260
1036.26657,0.09407
1034.20640,0.09499
1032.14623,0.09557
1030.08606,0.09607
1028.02589,0.09644
1025.96571,0.09629
1023.90554,0.09567
1021.84537,0.09505
1019.78520,0.09447
1017.72503,0.09410
1015.66485,0.09422
1013.60468,0.09453
1011.54451,0.09481
1009.48434,0.09502
1007.42417,0.09501
1005.36399,0.09488
1003.30382,0.09447
1001.24365,0.09341
999.18348,0.09189
997.12330,0.09060
995.06313,0.08963
993.00296,0.08836
990.94279,0.08667
988.88262,0.08491
986.82244,0.08326
984.76227,0.08196
982.70210,0.08101
980.64193,0.07988
978.58176,0.07839
976.52158,0.07695
974.46141,0.07572
972.40124,0.07439
970.34107,0.07289
968.28089,0.07137
966.22072,0.06964
964.16055,0.06781
962.10038,0.06625
960.04021,0.06478
957.98003,0.06316
955.91986,0.06157
953.85969,0.06014
951.79952,0.05874
949.73935,0.05728
947.67917,0.05597
945.61900,0.05467
943.55883,0.05296
941.49866,0.05087
939.43849,0.04844
937.37831,0.04561
935.31814,0.04268
933.25797,0.03997
931.19780,0.03742
929.13762,0.03503
927.07745,0.03294
925.01728,0.03103
922.95711,0.02911
920.89694,0.02734
918.83676,0.02573
916.77659,0.02405
914.71642,0.02258
912.65625,0.02134
910.59608,0.01994
908.53590,0.01849
906.47573,0.01745
904.41556,0.01688
902.35539,0.01646
900.29522,0.01631
898.23504,0.01646
896.17487,0.01653
894.11470,0.01657
892.05453,0.01664
889.99435,0.01655
887.93418,0.01619
885.87401,0.01526
883.81384,0.01389
881.75367,0.01291
879.69349,0.01227
877.63332,0.01147
875.57315,0.01072
873.51298,0.01006
871.45281,0.00936
869.39263,0.00873
867.33246,0.00845
865.27229,0.00838
863.21212,0.00791
861.15194,0.00732
859.09177,0.00708
857.03160,0.00707
854.97143,0.00703
852.91126,0.00664
850.85108,0.00637
848.79091,0.00656
846.73074,0.00663
844.67057,0.00635
842.61040,0.00600
840.55022,0.00597
838.49005,0.00617
836.42988,0.00606
834.36971,0.00594
832.30954,0.00612
830.24936,0.00610
828.18919,0.00556
826.12902,0.00441
824.06885,0.00298
822.00867,0.00237
819.94850,0.00267
817.88833,0.00282
815.82816,0.00260
813.76799,0.00217
811.70781,0.00175
809.64764,0.00193
807.58747,0.00255
805.52730,0.00282
803.46713,0.00252
801.40695,0.00198
799.34678,0.00153
797.28661,0.00154
795.22644,0.00183
793.16627,0.00132
791.10609,0.00032
789.04592,0.00000
786.98575,0.00022
784.92558,0.00070
782.86540,0.00103
780.80523,0.00060
778.74506,-0.00007
776.68489,-0.00030
774.62472,-0.00017
772.56454,0.00014
770.50437,0.00030
768.44420,0.00012
766.38403,0.00007
764.32386,0.00002
762.26368,-0.00020
760.20351,-0.00018
758.14334,0.00010
756.08317,0.00016
754.02299,-0.00004
751.96282,0.00000
749.90265,0.00019
747.84248,0.00077
745.78231,0.00072
743.72213,-0.00059
741.66196,-0.00145
739.60179,-0.00072
737.54162,0.00015
735.48145,0.00015
733.42127,-0.00001
731.36110,0.00004
729.30093,0.00017
727.24076,0.00010
725.18059,-0.00028
723.12041,-0.00031
721.06024,0.00060
719.00007,0.00155
716.93990,0.00168
714.87972,0.00110
712.81955,0.00087
710.75938,0.00120
708.69921,0.00169
706.63904,0.00205
704.57886,0.00195
702.51869,0.00175
700.45852,0.00199
698.39835,0.00264
696.33818,0.00389
694.27800,0.00540
692.21783,0.00583
690.15766,0.00485
688.09749,0.00330
686.03731,0.00205
683.97714,0.00163
681.91697,0.00142
679.85680,0.00083
677.79663,0.00053
675.73645,0.00079
673.67628,0.00059
671.61611,-0.00023
669.55594,0.00193
667.49577,0.00518
665.43559,0.00265
663.37542,0.00214
661.31525,0.00183
659.25508,0.00146
657.19491,0.00142
655.13473,0.00059
653.07456,-0.00081
651.01439,-0.00090
648.95422,0.00000
646.89404,-0.00037
644.83387,-0.00061
642.77370,0.00122
640.71353,0.00406
638.65336,0.00621
636.59318,0.00749
634.53301,0.00723
632.47284,0.00554
630.41267,0.00400
628.35250,0.00344
626.29232,0.00270
624.23215,0.00045
622.17198,-0.00179
620.11181,-0.00305
618.05164,-0.00321
615.99146,-0.00151
613.93129,0.00083
611.87112,0.00170
609.81095,0.00115
607.75077,0.00108
605.69060,0.00147
603.63043,0.00124
601.57026,0.00080
599.51009,0.00000
