3996.73391,0.00019
3994.67373,0.00031
3992.61356,0.00079
3990.55339,0.00123
3988.49322,0.00113
3986.43305,0.00072
3984.37287,0.00052
3982.31270,0.00060
3980.25253,0.00065
3978.19236,0.00051
3976.13219,0.00034
3974.07201,0.00037
3972.01184,0.00073
3969.95167,0.00126
3967.89150,0.00150
3965.83133,0.00128
3963.77115,0.00064
3961.71098,0.00013
3959.65081,0.00043
3957.59064,0.00114
3955.53046,0.00119
3953.47029,0.00056
3951.41012,0.00006
3949.34995,0.00000
3947.28978,0.00013
3945.22960,0.00047
3943.16943,0.00106
3941.10926,0.00138
3939.04909,0.00113
3936.98892,0.00083
3934.92874,0.00082
3932.86857,0.00091
3930.80840,0.00090
3928.74823,0.00076
3926.68805,0.00039
3924.62788,0.00005
3922.56771,0.00031
3920.50754,0.00096
3918.44737,0.00136
3916.38719,0.00154
3914.32702,0.00163
3912.26685,0.00149
3910.20668,0.00133
3908.14651,0.00146
3906.08633,0.00164
3904.02616,0.00161
3901.96599,0.00140
3899.90582,0.00113
3897.84565,0.00106
3895.78547,0.00130
3893.72530,0.00153
3891.66513,0.00143
3889.60496,0.00105
3887.54478,0.00068
3885.48461,0.00055
3883.42444,0.00071
3881.36427,0.00119
3879.30410,0.00178
3877.24392,0.00198
3875.18375,0.00169
3873.12358,0.00118
3871.06341,0.00088
3869.00324,0.00095
3866.94306,0.00097
3864.88289,0.00080
3862.82272,0.00084
3860.76255,0.00110
3858.70237,0.00120
3856.64220,0.00109
3854.58203,0.00096
3852.52186,0.00108
3850.46169,0.00133
3848.40151,0.00142
3846.34134,0.00136
3844.28117,0.00126
3842.22100,0.00119
3840.16083,0.00117
3838.10065,0.00125
3836.04048,0.00129
3833.98031,0.00112
3831.92014,0.00091
3829.85997,0.00073
3827.79979,0.00051
3825.73962,0.00043
3823.67945,0.00071
3821.61928,0.00131
3819.55910,0.00179
3817.49893,0.00171
3815.43876,0.00144
3813.37859,0.00144
3811.31842,0.00156
3809.25824,0.00140
3807.19807,0.00079
3805.13790,0.00009
3803.07773,0.00000
3801.01756,0.00070
3798.95738,0.00149
3796.89721,0.00176
3794.83704,0.00160
3792.77687,0.00123
3790.71670,0.00093
3788.65652,0.00092
3786.59635,0.00102
3784.53618,0.00099
3782.47601,0.00094
3780.41583,0.00099
3778.35566,0.00099
3776.29549,0.00118
3774.23532,0.00161
3772.17515,0.00161
3770.11497,0.00114
3768.05480,0.00105
3765.99463,0.00159
3763.93446,0.00202
3761.87429,0.00188
3759.81411,0.00147
3757.75394,0.00106
3755.69377,0.00058
3753.63360,0.00026
3751.57342,0.00077
3749.51325,0.00185
3747.45308,0.00198
3745.39291,0.00117
3743.33274,0.00096
3741.27256,0.00173
3739.21239,0.00223
3737.15222,0.00172
3735.09205,0.00065
3733.03188,0.00018
3730.97170,0.00047
3728.91153,0.00060
3726.85136,0.00063
3724.79119,0.00121
3722.73102,0.00184
3720.67084,0.00187
3718.61067,0.00164
3716.55050,0.00154
3714.49033,0.00123
3712.43015,0.00059
3710.36998,0.00031
3708.30981,0.00046
3706.24964,0.00086
3704.18947,0.00124
3702.12929,0.00119
3700.06912,0.00092
3698.00895,0.00103
3695.94878,0.00133
3693.88861,0.00149
3691.82843,0.00171
3689.76826,0.00168
3687.70809,0.00121
3685.64792,0.00091
3683.58775,0.00104
3681.52757,0.00131
3679.46740,0.00147
3677.40723,0.00146
3675.34706,0.00134
3673.28688,0.00089
3671.22671,0.00010
3669.16654,0.00000
3667.10637,0.00066
3665.04620,0.00103
3662.98602,0.00120
3660.92585,0.00159
3658.86568,0.00186
3656.80551,0.00185
3654.74534,0.00192
3652.68516,0.00196
3650.62499,0.00161
3648.56482,0.00115
3646.50465,0.00122
3644.44447,0.00160
3642.38430,0.00198
3640.32413,0.00219
3638.26396,0.00238
3636.20379,0.00272
3634.14361,0.00282
3632.08344,0.00244
3630.02327,0.00213
3627.96310,0.00220
3625.90293,0.00214
3623.84275,0.00201
3621.78258,0.00210
3619.72241,0.00273
3617.66224,0.00388
3615.60207,0.00476
3613.54189,0.00529
3611.48172,0.00549
3609.42155,0.00532
3607.36138,0.00499
3605.30120,0.00467
3603.24103,0.00472
3601.18086,0.00517
3599.12069,0.00561
3597.06052,0.00571
3595.00034,0.00573
3592.94017,0.00598
3590.88000,0.00638
3588.81983,0.00643
3586.75966,0.00593
3584.69948,0.00540
3582.63931,0.00559
3580.57914,0.00639
3578.51897,0.00683
3576.45879,0.00679
3574.39862,0.00730
3572.33845,0.00839
3570.27828,0.00910
3568.21811,0.00932
3566.15793,0.00942
3564.09776,0.00919
3562.03759,0.00882
3559.97742,0.00879
3557.91725,0.00916
3555.85707,0.00964
3553.79690,0.00989
3551.73673,0.01005
3549.67656,0.01050
3547.61639,0.01109
3545.55621,0.01133
3543.49604,0.01116
3541.43587,0.01121
3539.37570,0.01181
3537.31552,0.01253
3535.25535,0.01305
3533.19518,0.01344
3531.13501,0.01366
3529.07484,0.01390
3527.01466,0.01443
3524.95449,0.01509
3522.89432,0.01550
3520.83415,0.01561
3518.77398,0.01574
3516.71380,0.01604
3514.65363,0.01635
3512.59346,0.01666
3510.53329,0.01685
3508.47312,0.01681
3506.41294,0.01679
3504.35277,0.01709
3502.29260,0.01766
3500.23243,0.01816
3498.17225,0.01839
3496.11208,0.01839
3494.05191,0.01830
3491.99174,0.01840
3489.93157,0.01918
3487.87139,0.02050
3485.81122,0.02121
3483.75105,0.02116
3481.69088,0.02141
3479.63071,0.02184
3477.57053,0.02194
3475.51036,0.02215
3473.45019,0.02253
3471.39002,0.02303
3469.32984,0.02370
3467.26967,0.02402
3465.20950,0.02396
3463.14933,0.02423
3461.08916,0.02467
3459.02898,0.02479
3456.96881,0.02485
3454.90864,0.02496
3452.84847,0.02511
3450.78830,0.02543
3448.72812,0.02555
3446.66795,0.02554
3444.60778,0.02611
3442.54761,0.02688
3440.48744,0.02713
3438.42726,0.02731
3436.36709,0.02768
3434.30692,0.02781
3432.24675,0.02775
3430.18657,0.02794
3428.12640,0.02845
3426.06623,0.02909
3424.00606,0.02964
3421.94589,0.03012
3419.88571,0.03059
3417.82554,0.03078
3415.76537,0.03057
3413.70520,0.03060
3411.64503,0.03139
3409.58485,0.03223
3407.52468,0.03216
3405.46451,0.03191
3403.40434,0.03254
3401.34416,0.03330
3399.28399,0.03340
3397.22382,0.03312
3395.16365,0.03294
3393.10348,0.03295
3391.04330,0.03302
3388.98313,0.03311
3386.92296,0.03325
3384.86279,0.03333
3382.80262,0.03349
3380.74244,0.03403
3378.68227,0.03477
3376.62210,0.03538
3374.56193,0.03579
3372.50176,0.03595
3370.44158,0.03601
3368.38141,0.03617
3366.32124,0.03638
3364.26107,0.03640
3362.20089,0.03634
3360.14072,0.03650
3358.08055,0.03675
3356.02038,0.03668
3353.96021,0.03629
3351.90003,0.03613
3349.83986,0.03643
3347.77969,0.03684
3345.71952,0.03711
3343.65935,0.03719
3341.59917,0.03744
3339.53900,0.03811
3337.47883,0.03846
3335.41866,0.03806
3333.35849,0.03754
3331.29831,0.03758
3329.23814,0.03819
3327.17797,0.03886
3325.11780,0.03898
3323.05762,0.03848
3320.99745,0.03806
3318.93728,0.03820
3316.87711,0.03838
3314.81694,0.03814
3312.75676,0.03770
3310.69659,0.03740
3308.63642,0.03747
3306.57625,0.03787
3304.51608,0.03832
3302.45590,0.03858
3300.39573,0.03850
3298.33556,0.03828
3296.27539,0.03832
3294.21521,0.03848
3292.15504,0.03867
3290.09487,0.03889
3288.03470,0.03885
3285.97453,0.03868
3283.91435,0.03865
3281.85418,0.03864
3279.79401,0.03861
3277.73384,0.03886
3275.67367,0.03917
3273.61349,0.03895
3271.55332,0.03849
3269.49315,0.03862
3267.43298,0.03914
3265.37281,0.03912
3263.31263,0.03862
3261.25246,0.03848
3259.19229,0.03889
3257.13212,0.03914
3255.07194,0.03884
3253.01177,0.03849
3250.95160,0.03833
3248.89143,0.03809
3246.83126,0.03775
3244.77108,0.03752
3242.71091,0.03758
3240.65074,0.03772
3238.59057,0.03767
3236.53040,0.03765
3234.47022,0.03785
3232.41005,0.03808
3230.34988,0.03793
3228.28971,0.03736
3226.22954,0.03676
3224.16936,0.03654
3222.10919,0.03670
3220.04902,0.03697
3217.98885,0.03727
3215.92867,0.03730
3213.86850,0.03690
3211.80833,0.03651
3209.74816,0.03652
3207.68799,0.03656
3205.62781,0.03629
3203.56764,0.03610
3201.50747,0.03596
3199.44730,0.03554
3197.38713,0.03528
3195.32695,0.03550
3193.26678,0.03572
3191.20661,0.03548
3189.14644,0.03492
3187.08626,0.03451
3185.02609,0.03440
3182.96592,0.03433
3180.90575,0.03419
3178.84558,0.03403
3176.78540,0.03380
3174.72523,0.03349
3172.66506,0.03313
3170.60489,0.03281
3168.54472,0.03259
3166.48454,0.03253
3164.42437,0.03273
3162.36420,0.03311
3160.30403,0.03333
3158.24386,0.03329
3156.18368,0.03302
3154.12351,0.03256
3152.06334,0.03220
3150.00317,0.03209
3147.94299,0.03203
3145.88282,0.03172
3143.82265,0.03114
3141.76248,0.03076
3139.70231,0.03059
3137.64213,0.03021
3135.58196,0.02988
3133.52179,0.02991
3131.46162,0.03006
3129.40145,0.02986
3127.34127,0.02942
3125.28110,0.02920
3123.22093,0.02917
3121.16076,0.02911
3119.10058,0.02911
3117.04041,0.02924
3114.98024,0.02924
3112.92007,0.02876
3110.85990,0.02791
3108.79972,0.02747
3106.73955,0.02763
3104.67938,0.02775
3102.61921,0.02774
3100.55904,0.02758
3098.49886,0.02700
3096.43869,0.02648
3094.37852,0.02649
3092.31835,0.02660
3090.25818,0.02642
3088.19800,0.02620
3086.13783,0.02604
3084.07766,0.02597
3082.01749,0.02608
3079.95731,0.02612
3077.89714,0.02571
3075.83697,0.02501
3073.77680,0.02450
3071.71663,0.02426
3069.65645,0.02400
3067.59628,0.02388
3065.53611,0.02413
3063.47594,0.02443
3061.41577,0.02440
3059.35559,0.02396
3057.29542,0.02345
3055.23525,0.02317
3053.17508,0.02296
3051.11491,0.02270
3049.05473,0.02240
3046.99456,0.02218
3044.93439,0.02231
3042.87422,0.02252
3040.81404,0.02241
3038.75387,0.02214
3036.69370,0.02184
3034.63353,0.02147
3032.57336,0.02093
3030.51318,0.02043
3028.45301,0.02025
3026.39284,0.02030
3024.33267,0.02036
3022.27250,0.02039
3020.21232,0.02043
3018.15215,0.02041
3016.09198,0.02029
3014.03181,0.02020
3011.97163,0.02003
3009.91146,0.01959
3007.85129,0.01922
3005.79112,0.01929
3003.73095,0.01941
3001.67077,0.01917
2999.61060,0.01887
2997.55043,0.01871
2995.49026,0.01861
2993.43009,0.01868
2991.36991,0.01877
2989.30974,0.01886
2987.24957,0.01884
2985.18940,0.01860
2983.12923,0.01863
2981.06905,0.01926
2979.00888,0.01976
2976.94871,0.01975
2974.88854,0.01990
2972.82836,0.02048
2970.76819,0.02110
2968.70802,0.02159
2966.64785,0.02211
2964.58768,0.02299
2962.52750,0.02427
2960.46733,0.02544
2958.40716,0.02644
2956.34699,0.02759
2954.28682,0.02867
2952.22664,0.02953
2950.16647,0.03057
2948.10630,0.03203
2946.04613,0.03349
2943.98596,0.03510
2941.92578,0.03716
2939.86561,0.03925
2937.80544,0.04117
2935.74527,0.04299
2933.68509,0.04465
2931.62492,0.04624
2929.56475,0.04777
2927.50458,0.04913
2925.44441,0.05030
2923.38423,0.05122
2921.32406,0.05183
2919.26389,0.05209
2917.20372,0.05178
2915.14355,0.05074
2913.08337,0.04904
2911.02320,0.04704
2908.96303,0.04542
2906.90286,0.04417
2904.84268,0.04276
2902.78251,0.04148
2900.72234,0.04076
2898.66217,0.03994
2896.60200,0.03875
2894.54182,0.03780
2892.48165,0.03697
2890.42148,0.03621
2888.36131,0.03566
2886.30114,0.03506
2884.24096,0.03461
2882.18079,0.03428
2880.12062,0.03369
2878.06045,0.03324
2876.00028,0.03330
2873.94010,0.03350
2871.87993,0.03355
2869.81976,0.03369
2867.75959,0.03423
2865.69941,0.03508
2863.63924,0.03596
2861.57907,0.03694
2859.51890,0.03821
2857.45873,0.03967
2855.39855,0.04097
2853.33838,0.04197
2851.27821,0.04257
2849.21804,0.04252
2847.15787,0.04136
2845.09769,0.03908
2843.03752,0.03660
2840.97735,0.03450
2838.91718,0.03264
2836.85700,0.03088
2834.79683,0.02944
2832.73666,0.02836
2830.67649,0.02734
2828.61632,0.02649
2826.55614,0.02613
2824.49597,0.02601
2822.43580,0.02578
2820.37563,0.02536
2818.31546,0.02485
2816.25528,0.02457
2814.19511,0.02459
2812.13494,0.02454
2810.07477,0.02400
2808.01460,0.02311
2805.95442,0.02255
2803.89425,0.02240
2801.83408,0.02227
2799.77391,0.02198
2797.71373,0.02179
2795.65356,0.02190
2793.59339,0.02198
2791.53322,0.02176
2789.47305,0.02139
2787.41287,0.02104
2785.35270,0.02093
2783.29253,0.02091
2781.23236,0.02068
2779.17219,0.02034
2777.11201,0.02024
2775.05184,0.02041
2772.99167,0.02033
2770.93150,0.01995
2768.87133,0.01979
2766.81115,0.01991
2764.75098,0.01996
2762.69081,0.01967
2760.63064,0.01940
2758.57046,0.01946
2756.51029,0.01958
2754.45012,0.01953
2752.38995,0.01947
2750.32978,0.01962
2748.26960,0.01973
2746.20943,0.01953
2744.14926,0.01928
2742.08909,0.01916
2740.02892,0.01916
2737.96874,0.01923
2735.90857,0.01928
2733.84840,0.01930
2731.78823,0.01922
2729.72805,0.01901
2727.66788,0.01884
2725.60771,0.01881
2723.54754,0.01890
2721.48737,0.01875
2719.42719,0.01826
2717.36702,0.01796
2715.30685,0.01806
2713.24668,0.01821
2711.18651,0.01824
2709.12633,0.01808
2707.06616,0.01794
2705.00599,0.01802
2702.94582,0.01801
2700.88565,0.01792
2698.82547,0.01800
2696.76530,0.01803
2694.70513,0.01796
2692.64496,0.01791
2690.58478,0.01799
2688.52461,0.01828
2686.46444,0.01852
2684.40427,0.01833
2682.34410,0.01800
2680.28392,0.01800
2678.22375,0.01810
2676.16358,0.01797
2674.10341,0.01784
2672.04324,0.01796
2669.98306,0.01805
2667.92289,0.01791
2665.86272,0.01769
2663.80255,0.01735
2661.74238,0.01701
2659.68220,0.01702
2657.62203,0.01728
2655.56186,0.01735
2653.50169,0.01712
2651.44151,0.01680
2649.38134,0.01662
2647.32117,0.01682
2645.26100,0.01734
2643.20083,0.01757
2641.14065,0.01732
2639.08048,0.01695
2637.02031,0.01663
2634.96014,0.01649
2632.89997,0.01672
2630.83979,0.01682
2628.77962,0.01644
2626.71945,0.01618
2624.65928,0.01632
2622.59910,0.01657
2620.53893,0.01676
2618.47876,0.01667
2616.41859,0.01612
2614.35842,0.01545
2612.29824,0.01514
2610.23807,0.01513
2608.17790,0.01519
2606.11773,0.01519
2604.05756,0.01501
2601.99738,0.01480
2599.93721,0.01487
2597.87704,0.01500
2595.81687,0.01487
2593.75670,0.01490
2591.69652,0.01522
2589.63635,0.01524
2587.57618,0.01500
2585.51601,0.01463
2583.45583,0.01439
2581.39566,0.01482
2579.33549,0.01524
2577.27532,0.01500
2575.21515,0.01467
2573.15497,0.01470
2571.09480,0.01476
2569.03463,0.01464
2566.97446,0.01447
2564.91429,0.01424
2562.85411,0.01396
2560.79394,0.01386
2558.73377,0.01380
2556.67360,0.01362
2554.61342,0.01356
2552.55325,0.01337
2550.49308,0.01274
2548.43291,0.01242
2546.37274,0.01257
2544.31256,0.01254
2542.25239,0.01251
2540.19222,0.01257
2538.13205,0.01221
2536.07188,0.01183
2534.01170,0.01195
2531.95153,0.01233
2529.89136,0.01287
2527.83119,0.01347
2525.77102,0.01377
2523.71084,0.01345
2521.65067,0.01301
2519.59050,0.01327
2517.53033,0.01353
2515.47015,0.01325
2513.40998,0.01296
2511.34981,0.01286
2509.28964,0.01293
2507.22947,0.01295
2505.16929,0.01282
2503.10912,0.01284
2501.04895,0.01299
2498.98878,0.01303
2496.92861,0.01291
2494.86843,0.01283
2492.80826,0.01271
2490.74809,0.01246
2488.68792,0.01229
2486.62775,0.01202
2484.56757,0.01175
2482.50740,0.01186
2480.44723,0.01212
2478.38706,0.01242
2476.32688,0.01267
2474.26671,0.01257
2472.20654,0.01217
2470.14637,0.01193
2468.08620,0.01199
2466.02602,0.01179
2463.96585,0.01156
2461.90568,0.01164
2459.84551,0.01145
2457.78534,0.01119
2455.72516,0.01127
2453.66499,0.01126
2451.60482,0.01133
2449.54465,0.01218
2447.48447,0.01308
2445.42430,0.01274
2443.36413,0.01177
2441.30396,0.01113
2439.24379,0.01086
2437.18361,0.01114
2435.12344,0.01181
2433.06327,0.01242
2431.00310,0.01261
2428.94293,0.01241
2426.88275,0.01225
2424.82258,0.01207
2422.76241,0.01151
2420.70224,0.01098
2418.64207,0.01118
2416.58189,0.01181
2414.52172,0.01182
2412.46155,0.01126
2410.40138,0.01069
2408.34120,0.00999
2406.28103,0.00947
2404.22086,0.00951
2402.16069,0.01007
2400.10052,0.01092
2398.04034,0.01152
2395.98017,0.01158
2393.92000,0.01134
2391.85983,0.01118
2389.79966,0.01133
2387.73948,0.01173
2385.67931,0.01210
2383.61914,0.01200
2381.55897,0.01149
2379.49880,0.01100
2377.43862,0.01100
2375.37845,0.01134
2373.31828,0.01209
2371.25811,0.01279
2369.19793,0.01259
2367.13776,0.01254
2365.07759,0.01205
2363.01742,0.00964
2360.95725,0.01110
2358.89707,0.01485
2356.83690,0.01755
2354.77673,0.01785
2352.71656,0.01665
2350.65639,0.01792
2348.59621,0.01791
2346.53604,0.01283
2344.47587,0.01242
2342.41570,0.01470
2340.35552,0.01557
2338.29535,0.01479
2336.23518,0.01296
2334.17501,0.01208
2332.11484,0.01121
2330.05466,0.00981
2327.99449,0.00897
2325.93432,0.01042
2323.87415,0.01165
2321.81398,0.01204
2319.75380,0.01184
2317.69363,0.01226
2315.63346,0.01159
2313.57329,0.01035
2311.51312,0.01005
2309.45294,0.01047
2307.39277,0.01086
2305.33260,0.01094
2303.27243,0.01081
2301.21225,0.01067
2299.15208,0.01076
2297.09191,0.01033
2295.03174,0.00961
2292.97157,0.00987
2290.91139,0.01078
2288.85122,0.01115
2286.79105,0.01066
2284.73088,0.00976
2282.67071,0.00915
2280.61053,0.00904
2278.55036,0.00936
2276.49019,0.00993
2274.43002,0.01015
2272.36984,0.00997
2270.30967,0.01030
2268.24950,0.01046
2266.18933,0.00921
2264.12916,0.00772
2262.06898,0.00753
2260.00881,0.00826
2257.94864,0.00917
2255.88847,0.01027
2253.82830,0.01119
2251.76812,0.01093
2249.70795,0.00981
2247.64778,0.00951
2245.58761,0.00977
2243.52744,0.00942
2241.46726,0.00926
2239.40709,0.00954
2237.34692,0.00915
2235.28675,0.00820
2233.22657,0.00770
2231.16640,0.00763
2229.10623,0.00711
2227.04606,0.00691
2224.98589,0.00808
2222.92571,0.00892
2220.86554,0.00855
2218.80537,0.00865
2216.74520,0.00916
2214.68503,0.00849
2212.62485,0.00770
2210.56468,0.00835
2208.50451,0.00951
2206.44434,0.01003
2204.38417,0.01012
2202.32399,0.00993
2200.26382,0.00929
2198.20365,0.00905
2196.14348,0.00968
2194.08330,0.00989
2192.02313,0.00872
2189.96296,0.00783
2187.90279,0.00876
2185.84262,0.00952
2183.78244,0.00859
2181.72227,0.00680
2179.66210,0.00477
2177.60193,0.00376
2175.54176,0.00449
2173.48158,0.00584
2171.42141,0.00689
2169.36124,0.00697
2167.30107,0.00684
2165.24089,0.00767
2163.18072,0.00768
2161.12055,0.00544
2159.06038,0.00312
2157.00021,0.00287
2154.94003,0.00489
2152.87986,0.00739
2150.81969,0.00771
2148.75952,0.00680
2146.69935,0.00699
2144.63917,0.00825
2142.57900,0.00863
2140.51883,0.00700
2138.45866,0.00561
2136.39849,0.00622
2134.33831,0.00708
2132.27814,0.00645
2130.21797,0.00564
2128.15780,0.00602
2126.09762,0.00698
2124.03745,0.00762
2121.97728,0.00742
2119.91711,0.00667
2117.85694,0.00634
2115.79676,0.00712
2113.73659,0.00872
2111.67642,0.00928
2109.61625,0.00776
2107.55608,0.00612
2105.49590,0.00624
2103.43573,0.00763
2101.37556,0.00892
2099.31539,0.00891
2097.25521,0.00758
2095.19504,0.00633
2093.13487,0.00642
2091.07470,0.00736
2089.01453,0.00777
2086.95435,0.00745
2084.89418,0.00711
2082.83401,0.00666
2080.77384,0.00567
2078.71367,0.00521
2076.65349,0.00625
2074.59332,0.00744
2072.53315,0.00798
2070.47298,0.00865
2068.41281,0.00931
2066.35263,0.00914
2064.29246,0.00875
2062.23229,0.00893
2060.17212,0.00868
2058.11194,0.00743
2056.05177,0.00646
2053.99160,0.00731
2051.93143,0.00919
2049.87126,0.00933
2047.81108,0.00722
2045.75091,0.00543
2043.69074,0.00519
2041.63057,0.00522
2039.57040,0.00496
2037.51022,0.00556
2035.45005,0.00641
2033.38988,0.00600
2031.32971,0.00641
2029.26954,0.00815
2027.20936,0.00821
2025.14919,0.00672
2023.08902,0.00655
2021.02885,0.00788
2018.96867,0.00766
2016.90850,0.00534
2014.84833,0.00454
2012.78816,0.00643
2010.72799,0.00797
2008.66781,0.00746
2006.60764,0.00594
2004.54747,0.00447
2002.48730,0.00318
2000.42713,0.00266
1998.36695,0.00411
1996.30678,0.00627
1994.24661,0.00679
1992.18644,0.00584
1990.12626,0.00460
1988.06609,0.00450
1986.00592,0.00646
1983.94575,0.00847
1981.88558,0.00777
1979.82540,0.00456
1977.76523,0.00134
1975.70506,0.00000
1973.64489,0.00037
1971.58472,0.00111
1969.52454,0.00203
1967.46437,0.00353
1965.40420,0.00520
1963.34403,0.00647
1961.28386,0.00600
1959.22368,0.00430
1957.16351,0.00381
1955.10334,0.00444
1953.04317,0.00416
1950.98299,0.00335
1948.92282,0.00322
1946.86265,0.00300
1944.80248,0.00313
1942.74231,0.00416
1940.68213,0.00467
1938.62196,0.00477
1936.56179,0.00514
1934.50162,0.00525
1932.44145,0.00487
1930.38127,0.00468
1928.32110,0.00483
1926.26093,0.00500
1924.20076,0.00540
1922.14059,0.00589
1920.08041,0.00589
1918.02024,0.00531
1915.96007,0.00448
1913.89990,0.00386
1911.83972,0.00360
1909.77955,0.00375
1907.71938,0.00419
1905.65921,0.00455
1903.59904,0.00443
1901.53886,0.00372
1899.47869,0.00295
1897.41852,0.00267
1895.35835,0.00298
1893.29818,0.00363
1891.23800,0.00413
1889.17783,0.00420
1887.11766,0.00393
1885.05749,0.00343
1882.99731,0.00296
1880.93714,0.00274
1878.87697,0.00280
1876.81680,0.00304
1874.75663,0.00330
1872.69645,0.00358
1870.63628,0.00368
1868.57611,0.00340
1866.51594,0.00308
1864.45577,0.00300
1862.39559,0.00297
1860.33542,0.00268
1858.27525,0.00216
1856.21508,0.00183
1854.15491,0.00192
1852.09473,0.00232
1850.03456,0.00269
1847.97439,0.00271
1845.91422,0.00252
1843.85404,0.00253
1841.79387,0.00285
1839.73370,0.00308
1837.67353,0.00288
1835.61336,0.00245
1833.55318,0.00216
1831.49301,0.00188
1829.43284,0.00143
1827.37267,0.00130
1825.31250,0.00169
1823.25232,0.00217
1821.19215,0.00232
1819.13198,0.00223
1817.07181,0.00235
1815.01163,0.00267
1812.95146,0.00255
1810.89129,0.00197
1808.83112,0.00157
1806.77095,0.00159
1804.71077,0.00163
1802.65060,0.00134
1800.59043,0.00072
1798.53026,0.00016
1796.47009,0.00000
1794.40991,0.00013
1792.34974,0.00035
1790.28957,0.00058
1788.22940,0.00071
1786.16923,0.00054
1784.10905,0.00018
1782.04888,0.00000
1779.98871,0.00016
1777.92854,0.00054
1775.86836,0.00096
1773.80819,0.00130
1771.74802,0.00133
1769.68785,0.00097
1767.62768,0.00069
1765.56750,0.00087
1763.50733,0.00127
1761.44716,0.00164
1759.38699,0.00227
1757.32682,0.00338
1755.26664,0.00449
1753.20647,0.00529
1751.14630,0.00626
1749.08613,0.00760
1747.02596,0.00889
1744.96578,0.01002
1742.90561,0.01102
1740.84544,0.01164
1738.78527,0.01179
1736.72509,0.01181
1734.66492,0.01194
1732.60475,0.01217
1730.54458,0.01235
1728.48441,0.01254
1726.42423,0.01288
1724.36406,0.01319
1722.30389,0.01338
1720.24372,0.01358
1718.18355,0.01377
1716.12337,0.01361
1714.06320,0.01318
1712.00303,0.01290
1709.94286,0.01293
1707.88268,0.01323
1705.82251,0.01357
1703.76234,0.01354
1701.70217,0.01317
1699.64200,0.01292
1697.58182,0.01308
1695.52165,0.01335
1693.46148,0.01362
1691.40131,0.01426
1689.34114,0.01532
1687.28096,0.01634
1685.22079,0.01746
1683.16062,0.01940
1681.10045,0.02162
1679.04028,0.02335
1676.98010,0.02462
1674.91993,0.02567
1672.85976,0.02643
1670.79959,0.02658
1668.73941,0.02617
1666.67924,0.02572
1664.61907,0.02543
1662.55890,0.02497
1660.49873,0.02426
1658.43855,0.02373
1656.37838,0.02356
1654.31821,0.02349
1652.25804,0.02327
1650.19787,0.02330
1648.13769,0.02349
1646.07752,0.02331
1644.01735,0.02291
1641.95718,0.02270
1639.89701,0.02282
1637.83683,0.02328
1635.77666,0.02403
1633.71649,0.02481
1631.65632,0.02537
1629.59614,0.02578
1627.53597,0.02599
1625.47580,0.02602
1623.41563,0.02611
1621.35546,0.02632
1619.29528,0.02652
1617.23511,0.02688
1615.17494,0.02753
1613.11477,0.02842
1611.05460,0.02970
1608.99442,0.03130
1606.93425,0.03262
1604.87408,0.03317
1602.81391,0.03280
1600.75373,0.03176
1598.69356,0.03057
1596.63339,0.02948
1594.57322,0.02837
1592.51305,0.02726
1590.45287,0.02632
1588.39270,0.02569
1586.33253,0.02522
1584.27236,0.02459
1582.21219,0.02374
1580.15201,0.02290
1578.09184,0.02221
1576.03167,0.02158
1573.97150,0.02097
1571.91133,0.02034
1569.85115,0.01960
1567.79098,0.01890
1565.73081,0.01826
1563.67064,0.01742
1561.61046,0.01640
1559.55029,0.01544
1557.49012,0.01493
1555.42995,0.01460
1553.36978,0.01413
1551.30960,0.01366
1549.24943,0.01310
1547.18926,0.01247
1545.12909,0.01188
1543.06892,0.01116
1541.00874,0.01016
1538.94857,0.00927
1536.88840,0.00882
1534.82823,0.00834
1532.76805,0.00757
1530.70788,0.00696
1528.64771,0.00682
1526.58754,0.00699
1524.52737,0.00734
1522.46719,0.00802
1520.40702,0.00901
1518.34685,0.00997
1516.28668,0.01083
1514.22651,0.01133
1512.16633,0.01129
1510.10616,0.01087
1508.04599,0.00974
1505.98582,0.00761
1503.92565,0.00599
1501.86547,0.00530
1499.80530,0.00484
1497.74513,0.00413
1495.68496,0.00328
1493.62478,0.00269
1491.56461,0.00251
1489.50444,0.00243
1487.44427,0.00210
1485.38410,0.00181
1483.32392,0.00175
1481.26375,0.00174
1479.20358,0.00183
1477.14341,0.00243
1475.08324,0.00368
1473.02306,0.00542
1470.96289,0.00720
1468.90272,0.00874
1466.84255,0.01028
1464.78238,0.01180
1462.72220,0.01296
1460.66203,0.01367
1458.60186,0.01418
1456.54169,0.01478
1454.48151,0.01541
1452.42134,0.01597
1450.36117,0.01660
1448.30100,0.01741
1446.24083,0.01832
1444.18065,0.01911
1442.12048,0.01971
1440.06031,0.02020
1438.00014,0.02065
1435.93997,0.02110
1433.87979,0.02153
1431.81962,0.02190
1429.75945,0.02213
1427.69928,0.02220
1425.63910,0.02232
1423.57893,0.02275
1421.51876,0.02321
1419.45859,0.02324
1417.39842,0.02319
1415.33824,0.02342
1413.27807,0.02353
1411.21790,0.02321
1409.15773,0.02265
1407.09756,0.02195
1405.03738,0.02108
1402.97721,0.02028
1400.91704,0.01963
1398.85687,0.01896
1396.79670,0.01835
1394.73652,0.01795
1392.67635,0.01766
1390.61618,0.01750
1388.55601,0.01751
1386.49583,0.01779
1384.43566,0.01844
1382.37549,0.01924
1380.31532,0.01989
1378.25515,0.02037
1376.19497,0.02079
1374.13480,0.02111
1372.07463,0.02131
1370.01446,0.02141
1367.95429,0.02137
1365.89411,0.02107
1363.83394,0.02061
1361.77377,0.02021
1359.71360,0.01982
1357.65343,0.01938
1355.59325,0.01907
1353.53308,0.01910
1351.47291,0.01934
1349.41274,0.01952
1347.35256,0.01947
1345.29239,0.01926
1343.23222,0.01921
1341.17205,0.01938
1339.11188,0.01941
1337.05170,0.01923
1334.99153,0.01905
1332.93136,0.01906
1330.87119,0.01922
1328.81102,0.01935
1326.75084,0.01937
1324.69067,0.01928
1322.63050,0.01923
1320.57033,0.01934
1318.51015,0.01949
1316.44998,0.01960
1314.38981,0.01954
1312.32964,0.01922
1310.26947,0.01876
1308.20929,0.01833
1306.14912,0.01795
1304.08895,0.01752
1302.02878,0.01691
1299.96861,0.01626
1297.90843,0.01588
1295.84826,0.01595
1293.78809,0.01616
1291.72792,0.01608
1289.66775,0.01602
1287.60757,0.01625
1285.54740,0.01645
1283.48723,0.01644
1281.42706,0.01628
1279.36688,0.01634
1277.30671,0.01679
1275.24654,0.01716
1273.18637,0.01724
1271.12620,0.01729
1269.06602,0.01758
1267.00585,0.01804
1264.94568,0.01853
1262.88551,0.01928
1260.82534,0.02024
1258.76516,0.02094
1256.70499,0.02138
1254.64482,0.02188
1252.58465,0.02243
1250.52447,0.02273
1248.46430,0.02281
1246.40413,0.02295
1244.34396,0.02316
1242.28379,0.02347
1240.22361,0.02383
1238.16344,0.02395
1236.10327,0.02369
1234.04310,0.02325
1231.98293,0.02264
1229.92275,0.02178
1227.86258,0.02096
1225.80241,0.02028
1223.74224,0.01946
1221.68207,0.01815
1219.62189,0.01661
1217.56172,0.01549
1215.50155,0.01476
1213.44138,0.01398
1211.38120,0.01297
1209.32103,0.01192
1207.26086,0.01088
1205.20069,0.00979
1203.14052,0.00864
1201.08034,0.00731
1199.02017,0.00568
1196.96000,0.00397
1194.89983,0.00267
1192.83966,0.00191
1190.77948,0.00148
1188.71931,0.00121
1186.65914,0.00086
1184.59897,0.00035
1182.53880,0.00000
1180.47862,0.00017
1178.41845,0.00114
1176.35828,0.00250
1174.29811,0.00400
1172.23793,0.00601
1170.17776,0.00817
1168.11759,0.00970
1166.05742,0.01057
1163.99725,0.01107
1161.93707,0.01153
1159.87690,0.01198
1157.81673,0.01209
1155.75656,0.01218
1153.69639,0.01272
1151.63621,0.01360
1149.57604,0.01459
1147.51587,0.01557
1145.45570,0.01662
1143.39552,0.01780
1141.33535,0.01891
1139.27518,0.01962
1137.21501,0.01994
1135.15484,0.02025
1133.09466,0.02072
1131.03449,0.02138
1128.97432,0.02217
1126.91415,0.02312
1124.85398,0.02419
1122.79380,0.02520
1120.73363,0.02628
1118.67346,0.02748
1116.61329,0.02864
1114.55312,0.02954
1112.49294,0.03038
1110.43277,0.03132
1108.37260,0.03215
1106.31243,0.03290
1104.25225,0.03384
1102.19208,0.03510
1100.13191,0.03648
1098.07174,0.03796
1096.01157,0.03975
1093.95139,0.04176
1091.89122,0.04352
1089.83105,0.04510
1087.77088,0.04694
1085.71071,0.04883
1083.65053,0.05046
1081.59036,0.05196
1079.53019,0.05360
1077.47002,0.05546
1075.40985,0.05739
1073.34967,0.05930
1071.28950,0.06116
1069.22933,0.06269
1067.16916,0.06387
1065.10898,0.06493
1063.04881,0.06614
1060.98864,0.06764
1058.92847,0.06910
1056.86830,0.07053
1054.80812,0.07221
1052.74795,0.07394
1050.68778,0.07587
1048.62761,0.07824
1046.56744,0.08051
1044.50726,0.08245
1042.44709,0.08431
1040.38692,0.08619
1038.32675,0.08809
1036.26657,0.08980
1034.20640,0.09086
1032.14623,0.09111
1030.08606,0.09104
1028.02589,0.09094
1025.96571,0.09062
1023.90554,0.09046
1021.84537,0.09051
1019.78520,0.08990
1017.72503,0.08904
1015.66485,0.08895
1013.60468,0.08936
1011.54451,0.08985
1009.48434,0.09033
1007.42417,0.09042
1005.36399,0.09006
1003.30382,0.08947
1001.24365,0.08846
999.18348,0.08701
997.12330,0.08566
995.06313,0.08465
993.00296,0.08358
990.94279,0.08211
988.88262,0.08051
986.82244,0.07910
984.76227,0.07792
982.70210,0.07688
980.64193,0.07564
978.58176,0.07426
976.52158,0.07300
974.46141,0.07153
972.40124,0.06999
970.34107,0.06875
968.28089,0.06756
966.22072,0.06603
964.16055,0.06391
962.10038,0.06192
960.04021,0.06071
957.98003,0.05966
955.91986,0.05811
953.85969,0.05640
951.79952,0.05503
949.73935,0.05406
947.67917,0.05341
945.61900,0.05269
943.55883,0.05130
941.49866,0.04883
939.43849,0.04580
937.37831,0.04280
935.31814,0.03999
933.25797,0.03746
931.19780,0.03524
929.13762,0.03350
927.07745,0.03218
925.01728,0.03066
922.95711,0.02860
920.89694,0.02640
918.83676,0.02455
916.77659,0.02316
914.71642,0.02210
912.65625,0.02096
910.59608,0.01934
908.53590,0.01736
906.47573,0.01587
904.41556,0.01558
902.35539,0.01595
900.29522,0.01585
898.23504,0.01529
896.17487,0.01503
894.11470,0.01541
892.05453,0.01597
889.99435,0.01592
887.93418,0.01523
885.87401,0.01450
883.81384,0.01377
881.75367,0.01295
879.69349,0.01234
877.63332,0.01169
875.57315,0.01064
873.51298,0.00958
871.45281,0.00847
869.39263,0.00773
867.33246,0.00831
865.27229,0.00874
863.21212,0.00741
861.15194,0.00590
859.09177,0.00593
857.03160,0.00669
854.97143,0.00679
852.91126,0.00622
850.85108,0.00596
848.79091,0.00628
846.73074,0.00673
844.67057,0.00713
842.61040,0.00738
840.55022,0.00752
838.49005,0.00726
836.42988,0.00653
834.36971,0.00597
832.30954,0.00596
830.24936,0.00606
828.18919,0.00588
826.12902,0.00571
824.06885,0.00526
822.00867,0.00450
819.94850,0.00418
817.88833,0.00409
815.82816,0.00364
813.76799,0.00305
811.70781,0.00274
809.64764,0.00307
807.58747,0.00334
805.52730,0.00252
803.46713,0.00187
801.40695,0.00233
799.34678,0.00236
797.28661,0.00237
795.22644,0.00349
793.16627,0.00386
791.10609,0.00272
789.04592,0.00171
786.98575,0.00185
784.92558,0.00271
782.86540,0.00290
780.80523,0.00228
778.74506,0.00139
776.68489,0.00048
774.62472,0.00040
772.56454,0.00091
770.50437,0.00057
768.44420,-0.00042
766.38403,-0.00016
764.32386,0.00144
762.26368,0.00254
760.20351,0.00273
758.14334,0.00282
756.08317,0.00272
754.02299,0.00276
751.96282,0.00408
749.90265,0.00506
747.84248,0.00438
745.78231,0.00356
743.72213,0.00254
741.66196,0.00099
739.60179,0.00000
737.54162,-0.00043
735.48145,-0.00001
733.42127,0.00098
731.36110,0.00156
729.30093,0.00133
727.24076,0.00044
725.18059,-0.00016
723.12041,0.00144
721.06024,0.00321
719.00007,0.00427
716.93990,0.00378
714.87972,0.00252
712.81955,0.00204
710.75938,0.00245
708.69921,0.00317
706.63904,0.00415
704.57886,0.00549
702.51869,0.00641
700.45852,0.00641
698.39835,0.00595
696.33818,0.00560
694.27800,0.00547
692.21783,0.00523
690.15766,0.00451
688.09749,0.00322
686.03731,0.00177
683.97714,0.00078
681.91697,0.00068
679.85680,0.00126
677.79663,0.00141
675.73645,0.00057
673.67628,0.00123
671.61611,0.00480
669.55594,0.00313
667.49577,0.00205
665.43559,0.01128
663.37542,0.00976
661.31525,0.00618
659.25508,0.00492
657.19491,0.00593
655.13473,0.00806
653.07456,0.00841
651.01439,0.00511
648.95422,0.00070
646.89404,0.00000
644.83387,0.00265
642.77370,0.00490
640.71353,0.00399
638.65336,0.00206
636.59318,0.00108
634.53301,0.00002
632.47284,0.00015
630.41267,0.00293
628.35250,0.00454
626.29232,0.00153
624.23215,-0.00170
622.17198,-0.00059
620.11181,0.00325
618.05164,0.00416
615.99146,0.00220
613.93129,0.00124
611.87112,0.00203
609.81095,0.00228
607.75077,0.00167
605.69060,0.00276
603.63043,0.00384
601.57026,0.00237
599.51009,0.00000
