3996.73391,-0.00004
3994.67373,-0.00002
3992.61356,0.00017
3990.55339,0.00032
3988.49322,0.00025
3986.43305,0.00014
3984.37287,0.00023
3982.31270,0.00039
3980.25253,0.00034
3978.19236,0.00014
3976.13219,0.00000
3974.07201,0.00004
3972.01184,0.00020
3969.95167,0.00034
3967.89150,0.00036
3965.83133,0.00032
3963.77115,0.00020
3961.71098,0.00012
3959.65081,0.00020
3957.59064,0.00035
3955.53046,0.00038
3953.47029,0.00032
3951.41012,0.00031
3949.34995,0.00040
3947.28978,0.00046
3945.22960,0.00037
3943.16943,0.00014
3941.10926,0.00000
3939.04909,0.00008
3936.98892,0.00038
3934.92874,0.00070
3932.86857,0.00074
3930.80840,0.00039
3928.74823,0.00006
3926.68805,0.00002
3924.62788,0.00009
3922.56771,0.00013
3920.50754,0.00029
3918.44737,0.00058
3916.38719,0.00080
3914.32702,0.00085
3912.26685,0.00072
3910.20668,0.00049
3908.14651,0.00034
3906.08633,0.00041
3904.02616,0.00058
3901.96599,0.00052
3899.90582,0.00027
3897.84565,0.00018
3895.78547,0.00031
3893.72530,0.00049
3891.66513,0.00055
3889.60496,0.00047
3887.54478,0.00045
3885.48461,0.00049
3883.42444,0.00060
3881.36427,0.00075
3879.30410,0.00079
3877.24392,0.00079
3875.18375,0.00081
3873.12358,0.00080
3871.06341,0.00083
3869.00324,0.00082
3866.94306,0.00059
3864.88289,0.00033
3862.82272,0.00025
3860.76255,0.00033
3858.70237,0.00059
3856.64220,0.00108
3854.58203,0.00130
3852.52186,0.00083
3850.46169,0.00038
3848.40151,0.00041
3846.34134,0.00056
3844.28117,0.00068
3842.22100,0.00085
3840.16083,0.00102
3838.10065,0.00107
3836.04048,0.00092
3833.98031,0.00069
3831.92014,0.00050
3829.85997,0.00033
3827.79979,0.00023
3825.73962,0.00033
3823.67945,0.00056
3821.61928,0.00062
3819.55910,0.00055
3817.49893,0.00055
3815.43876,0.00049
3813.37859,0.00037
3811.31842,0.00029
3809.25824,0.00017
3807.19807,0.00010
3805.13790,0.00028
3803.07773,0.00046
3801.01756,0.00047
3798.95738,0.00044
3796.89721,0.00047
3794.83704,0.00048
3792.77687,0.00046
3790.71670,0.00040
3788.65652,0.00033
3786.59635,0.00028
3784.53618,0.00030
3782.47601,0.00042
3780.41583,0.00057
3778.35566,0.00055
3776.29549,0.00038
3774.23532,0.00031
3772.17515,0.00042
3770.11497,0.00052
3768.05480,0.00042
3765.99463,0.00026
3763.93446,0.00032
3761.87429,0.00061
3759.81411,0.00080
3757.75394,0.00064
3755.69377,0.00040
3753.63360,0.00045
3751.57342,0.00080
3749.51325,0.00113
3747.45308,0.00114
3745.39291,0.00101
3743.33274,0.00098
3741.27256,0.00098
3739.21239,0.00096
3737.15222,0.00101
3735.09205,0.00101
3733.03188,0.00083
3730.97170,0.00085
3728.91153,0.00129
3726.85136,0.00160
3724.79119,0.00140
3722.73102,0.00106
3720.67084,0.00087
3718.61067,0.00073
3716.55050,0.00063
3714.49033,0.00074
3712.43015,0.00085
3710.36998,0.00057
3708.30981,0.00043
3706.24964,0.00056
3704.18947,0.00065
3702.12929,0.00059
3700.06912,0.00057
3698.00895,0.00068
3695.94878,0.00069
3693.88861,0.00055
3691.82843,0.00044
3689.76826,0.00045
3687.70809,0.00051
3685.64792,0.00082
3683.58775,0.00117
3681.52757,0.00129
3679.46740,0.00117
3677.40723,0.00118
3675.34706,0.00133
3673.28688,0.00126
3671.22671,0.00106
3669.16654,0.00099
3667.10637,0.00114
3665.04620,0.00124
3662.98602,0.00111
3660.92585,0.00095
3658.86568,0.00104
3656.80551,0.00140
3654.74534,0.00180
3652.68516,0.00210
3650.62499,0.00228
3648.56482,0.00223
3646.50465,0.00208
3644.44447,0.00207
3642.38430,0.00205
3640.32413,0.00188
3638.26396,0.00178
3636.20379,0.00203
3634.14361,0.00246
3632.08344,0.00270
3630.02327,0.00272
3627.96310,0.00272
3625.90293,0.00293
3623.84275,0.00329
3621.78258,0.00367
3619.72241,0.00412
3617.66224,0.00448
3615.60207,0.00454
3613.54189,0.00435
3611.48172,0.00412
3609.42155,0.00385
3607.36138,0.00373
3605.30120,0.00390
3603.24103,0.00415
3601.18086,0.00430
3599.12069,0.00442
3597.06052,0.00479
3595.00034,0.00525
3592.94017,0.00541
3590.88000,0.00515
3588.81983,0.00498
3586.75966,0.00515
3584.69948,0.00549
3582.63931,0.00573
3580.57914,0.00584
3578.51897,0.00602
3576.45879,0.00636
3574.39862,0.00672
3572.33845,0.00701
3570.27828,0.00730
3568.21811,0.00766
3566.15793,0.00797
3564.09776,0.00795
3562.03759,0.00774
3559.97742,0.00765
3557.91725,0.00773
3555.85707,0.00791
3553.79690,0.00806
3551.73673,0.00820
3549.67656,0.00840
3547.61639,0.00861
3545.55621,0.00878
3543.49604,0.00884
3541.43587,0.00873
3539.37570,0.00869
3537.31552,0.00896
3535.25535,0.00953
3533.19518,0.01010
3531.13501,0.01034
3529.07484,0.01026
3527.01466,0.01023
3524.95449,0.01045
3522.89432,0.01074
3520.83415,0.01100
3518.77398,0.01116
3516.71380,0.01120
3514.65363,0.01130
3512.59346,0.01147
3510.53329,0.01142
3508.47312,0.01120
3506.41294,0.01120
3504.35277,0.01149
3502.29260,0.01184
3500.23243,0.01204
3498.17225,0.01218
3496.11208,0.01230
3494.05191,0.01240
3491.99174,0.01245
3489.93157,0.01244
3487.87139,0.01251
3485.81122,0.01272
3483.75105,0.01297
3481.69088,0.01309
3479.63071,0.01307
3477.57053,0.01315
3475.51036,0.01339
3473.45019,0.01380
3471.39002,0.01411
3469.32984,0.01393
3467.26967,0.01358
3465.20950,0.01370
3463.14933,0.01419
3461.08916,0.01460
3459.02898,0.01490
3456.96881,0.01522
3454.90864,0.01543
3452.84847,0.01554
3450.78830,0.01571
3448.72812,0.01589
3446.66795,0.01590
3444.60778,0.01575
3442.54761,0.01577
3440.48744,0.01613
3438.42726,0.01651
3436.36709,0.01661
3434.30692,0.01656
3432.24675,0.01657
3430.18657,0.01663
3428.12640,0.01660
3426.06623,0.01646
3424.00606,0.01648
3421.94589,0.01680
3419.88571,0.01713
3417.82554,0.01720
3415.76537,0.01717
3413.70520,0.01723
3411.64503,0.01738
3409.58485,0.01753
3407.52468,0.01753
3405.46451,0.01749
3403.40434,0.01768
3401.34416,0.01793
3399.28399,0.01806
3397.22382,0.01822
3395.16365,0.01850
3393.10348,0.01872
3391.04330,0.01891
3388.98313,0.01918
3386.92296,0.01941
3384.86279,0.01926
3382.80262,0.01888
3380.74244,0.01880
3378.68227,0.01889
3376.62210,0.01883
3374.56193,0.01872
3372.50176,0.01867
3370.44158,0.01859
3368.38141,0.01861
3366.32124,0.01879
3364.26107,0.01907
3362.20089,0.01936
3360.14072,0.01955
3358.08055,0.01956
3356.02038,0.01959
3353.96021,0.01973
3351.90003,0.01979
3349.83986,0.01977
3347.77969,0.01977
3345.71952,0.01964
3343.65935,0.01947
3341.59917,0.01935
3339.53900,0.01933
3337.47883,0.01949
3335.41866,0.01976
3333.35849,0.01985
3331.29831,0.01972
3329.23814,0.01968
3327.17797,0.01992
3325.11780,0.02030
3323.05762,0.02063
3320.99745,0.02068
3318.93728,0.02051
3316.87711,0.02040
3314.81694,0.02034
3312.75676,0.02028
3310.69659,0.02030
3308.63642,0.02022
3306.57625,0.02003
3304.51608,0.01993
3302.45590,0.01993
3300.39573,0.02006
3298.33556,0.02031
3296.27539,0.02051
3294.21521,0.02056
3292.15504,0.02042
3290.09487,0.02013
3288.03470,0.01985
3285.97453,0.01979
3283.91435,0.01997
3281.85418,0.02015
3279.79401,0.02023
3277.73384,0.02023
3275.67367,0.02015
3273.61349,0.02010
3271.55332,0.02002
3269.49315,0.01983
3267.43298,0.01979
3265.37281,0.01999
3263.31263,0.02020
3261.25246,0.02023
3259.19229,0.02008
3257.13212,0.01989
3255.07194,0.01980
3253.01177,0.01975
3250.95160,0.01962
3248.89143,0.01952
3246.83126,0.01965
3244.77108,0.01985
3242.71091,0.01988
3240.65074,0.01982
3238.59057,0.01981
3236.53040,0.01976
3234.47022,0.01958
3232.41005,0.01952
3230.34988,0.01968
3228.28971,0.01966
3226.22954,0.01948
3224.16936,0.01936
3222.10919,0.01920
3220.04902,0.01914
3217.98885,0.01928
3215.92867,0.01953
3213.86850,0.01956
3211.80833,0.01931
3209.74816,0.01909
3207.68799,0.01897
3205.62781,0.01876
3203.56764,0.01850
3201.50747,0.01839
3199.44730,0.01840
3197.38713,0.01834
3195.32695,0.01819
3193.26678,0.01803
3191.20661,0.01788
3189.14644,0.01773
3187.08626,0.01753
3185.02609,0.01735
3182.96592,0.01733
3180.90575,0.01736
3178.84558,0.01728
3176.78540,0.01709
3174.72523,0.01688
3172.66506,0.01679
3170.60489,0.01678
3168.54472,0.01671
3166.48454,0.01660
3164.42437,0.01645
3162.36420,0.01623
3160.30403,0.01599
3158.24386,0.01576
3156.18368,0.01566
3154.12351,0.01574
3152.06334,0.01577
3150.00317,0.01549
3147.94299,0.01511
3145.88282,0.01486
3143.82265,0.01476
3141.76248,0.01477
3139.70231,0.01483
3137.64213,0.01481
3135.58196,0.01467
3133.52179,0.01438
3131.46162,0.01401
3129.40145,0.01373
3127.34127,0.01366
3125.28110,0.01377
3123.22093,0.01382
3121.16076,0.01366
3119.10058,0.01345
3117.04041,0.01324
3114.98024,0.01301
3112.92007,0.01290
3110.85990,0.01293
3108.79972,0.01288
3106.73955,0.01265
3104.67938,0.01238
3102.61921,0.01215
3100.55904,0.01195
3098.49886,0.01184
3096.43869,0.01186
3094.37852,0.01186
3092.31835,0.01173
3090.25818,0.01155
3088.19800,0.01137
3086.13783,0.01115
3084.07766,0.01095
3082.01749,0.01086
3079.95731,0.01086
3077.89714,0.01081
3075.83697,0.01070
3073.77680,0.01056
3071.71663,0.01039
3069.65645,0.01026
3067.59628,0.01028
3065.53611,0.01030
3063.47594,0.01013
3061.41577,0.00986
3059.35559,0.00963
3057.29542,0.00951
3055.23525,0.00958
3053.17508,0.00966
3051.11491,0.00947
3049.05473,0.00914
3046.99456,0.00898
3044.93439,0.00894
3042.87422,0.00883
3040.81404,0.00879
3038.75387,0.00879
3036.69370,0.00864
3034.63353,0.00845
3032.57336,0.00827
3030.51318,0.00811
3028.45301,0.00811
3026.39284,0.00818
3024.33267,0.00808
3022.27250,0.00788
3020.21232,0.00780
3018.15215,0.00774
3016.09198,0.00757
3014.03181,0.00748
3011.97163,0.00739
3009.91146,0.00722
3007.85129,0.00719
3005.79112,0.00733
3003.73095,0.00750
3001.67077,0.00764
2999.61060,0.00762
2997.55043,0.00743
2995.49026,0.00725
2993.43009,0.00725
2991.36991,0.00731
2989.30974,0.00732
2987.24957,0.00738
2985.18940,0.00747
2983.12923,0.00743
2981.06905,0.00740
2979.00888,0.00747
2976.94871,0.00761
2974.88854,0.00777
2972.82836,0.00782
2970.76819,0.00783
2968.70802,0.00792
2966.64785,0.00813
2964.58768,0.00837
2962.52750,0.00850
2960.46733,0.00854
2958.40716,0.00855
2956.34699,0.00855
2954.28682,0.00870
2952.22664,0.00906
2950.16647,0.00937
2948.10630,0.00955
2946.04613,0.00977
2943.98596,0.01002
2941.92578,0.01017
2939.86561,0.01022
2937.80544,0.01036
2935.74527,0.01055
2933.68509,0.01065
2931.62492,0.01056
2929.56475,0.01026
2927.50458,0.01006
2925.44441,0.01017
2923.38423,0.01032
2921.32406,0.01025
2919.26389,0.01008
2917.20372,0.01001
2915.14355,0.01001
2913.08337,0.00994
2911.02320,0.00975
2908.96303,0.00952
2906.90286,0.00934
2904.84268,0.00924
2902.78251,0.00924
2900.72234,0.00932
2898.66217,0.00936
2896.60200,0.00933
2894.54182,0.00927
2892.48165,0.00919
2890.42148,0.00912
2888.36131,0.00903
2886.30114,0.00897
2884.24096,0.00902
2882.18079,0.00905
2880.12062,0.00895
2878.06045,0.00879
2876.00028,0.00865
2873.94010,0.00861
2871.87993,0.00856
2869.81976,0.00843
2867.75959,0.00832
2865.69941,0.00820
2863.63924,0.00803
2861.57907,0.00787
2859.51890,0.00786
2857.45873,0.00788
2855.39855,0.00778
2853.33838,0.00758
2851.27821,0.00737
2849.21804,0.00721
2847.15787,0.00703
2845.09769,0.00692
2843.03752,0.00698
2840.97735,0.00701
2838.91718,0.00684
2836.85700,0.00668
2834.79683,0.00665
2832.73666,0.00663
2830.67649,0.00665
2828.61632,0.00663
2826.55614,0.00657
2824.49597,0.00651
2822.43580,0.00638
2820.37563,0.00614
2818.31546,0.00602
2816.25528,0.00601
2814.19511,0.00601
2812.13494,0.00601
2810.07477,0.00596
2808.01460,0.00583
2805.95442,0.00568
2803.89425,0.00554
2801.83408,0.00546
2799.77391,0.00549
2797.71373,0.00549
2795.65356,0.00537
2793.59339,0.00528
2791.53322,0.00531
2789.47305,0.00535
2787.41287,0.00529
2785.35270,0.00527
2783.29253,0.00534
2781.23236,0.00547
2779.17219,0.00550
2777.11201,0.00536
2775.05184,0.00521
2772.99167,0.00524
2770.93150,0.00534
2768.87133,0.00535
2766.81115,0.00523
2764.75098,0.00509
2762.69081,0.00503
2760.63064,0.00503
2758.57046,0.00513
2756.51029,0.00520
2754.45012,0.00512
2752.38995,0.00501
2750.32978,0.00492
2748.26960,0.00486
2746.20943,0.00490
2744.14926,0.00496
2742.08909,0.00497
2740.02892,0.00498
2737.96874,0.00501
2735.90857,0.00500
2733.84840,0.00494
2731.78823,0.00485
2729.72805,0.00476
2727.66788,0.00477
2725.60771,0.00480
2723.54754,0.00473
2721.48737,0.00474
2719.42719,0.00478
2717.36702,0.00472
2715.30685,0.00462
2713.24668,0.00452
2711.18651,0.00444
2709.12633,0.00431
2707.06616,0.00425
2705.00599,0.00432
2702.94582,0.00440
2700.88565,0.00454
2698.82547,0.00470
2696.76530,0.00470
2694.70513,0.00465
2692.64496,0.00463
2690.58478,0.00457
2688.52461,0.00452
2686.46444,0.00451
2684.40427,0.00449
2682.34410,0.00443
2680.28392,0.00441
2678.22375,0.00445
2676.16358,0.00444
2674.10341,0.00434
2672.04324,0.00427
2669.98306,0.00425
2667.92289,0.00418
2665.86272,0.00406
2663.80255,0.00409
2661.74238,0.00421
2659.68220,0.00424
2657.62203,0.00426
2655.56186,0.00439
2653.50169,0.00440
2651.44151,0.00426
2649.38134,0.00420
2647.32117,0.00421
2645.26100,0.00419
2643.20083,0.00417
2641.14065,0.00415
2639.08048,0.00408
2637.02031,0.00395
2634.96014,0.00385
2632.89997,0.00383
2630.83979,0.00377
2628.77962,0.00368
2626.71945,0.00367
2624.65928,0.00375
2622.59910,0.00391
2620.53893,0.00398
2618.47876,0.00384
2616.41859,0.00357
2614.35842,0.00341
2612.29824,0.00341
2610.23807,0.00335
2608.17790,0.00316
2606.11773,0.00326
2604.05756,0.00359
2601.99738,0.00377
2599.93721,0.00369
2597.87704,0.00337
2595.81687,0.00310
2593.75670,0.00304
2591.69652,0.00305
2589.63635,0.00307
2587.57618,0.00301
2585.51601,0.00288
2583.45583,0.00291
2581.39566,0.00298
2579.33549,0.00297
2577.27532,0.00300
2575.21515,0.00306
2573.15497,0.00305
2571.09480,0.00311
2569.03463,0.00324
2566.97446,0.00323
2564.91429,0.00309
2562.85411,0.00296
2560.79394,0.00288
2558.73377,0.00286
2556.67360,0.00285
2554.61342,0.00283
2552.55325,0.00292
2550.49308,0.00302
2548.43291,0.00298
2546.37274,0.00299
2544.31256,0.00303
2542.25239,0.00297
2540.19222,0.00301
2538.13205,0.00301
2536.07188,0.00287
2534.01170,0.00280
2531.95153,0.00280
2529.89136,0.00275
2527.83119,0.00258
2525.77102,0.00240
2523.71084,0.00243
2521.65067,0.00271
2519.59050,0.00300
2517.53033,0.00299
2515.47015,0.00286
2513.40998,0.00285
2511.34981,0.00283
2509.28964,0.00267
2507.22947,0.00247
2505.16929,0.00249
2503.10912,0.00268
2501.04895,0.00287
2498.98878,0.00318
2496.92861,0.00342
2494.86843,0.00325
2492.80826,0.00293
2490.74809,0.00279
2488.68792,0.00266
2486.62775,0.00263
2484.56757,0.00284
2482.50740,0.00301
2480.44723,0.00303
2478.38706,0.00295
2476.32688,0.00272
2474.26671,0.00251
2472.20654,0.00253
2470.14637,0.00265
2468.08620,0.00261
2466.02602,0.00246
2463.96585,0.00232
2461.90568,0.00229
2459.84551,0.00248
2457.78534,0.00267
2455.72516,0.00268
2453.66499,0.00263
2451.60482,0.00256
2449.54465,0.00251
2447.48447,0.00265
2445.42430,0.00284
2443.36413,0.00269
2441.30396,0.00245
2439.24379,0.00239
2437.18361,0.00225
2435.12344,0.00197
2433.06327,0.00182
2431.00310,0.00181
2428.94293,0.00196
2426.88275,0.00234
2424.82258,0.00266
2422.76241,0.00268
2420.70224,0.00248
2418.64207,0.00231
2416.58189,0.00230
2414.52172,0.00234
2412.46155,0.00242
2410.40138,0.00253
2408.34120,0.00261
2406.28103,0.00264
2404.22086,0.00254
2402.16069,0.00234
2400.10052,0.00224
2398.04034,0.00201
2395.98017,0.00190
2393.92000,0.00198
2391.85983,0.00217
2389.79966,0.00229
2387.73948,0.00228
2385.67931,0.00212
2383.61914,0.00192
2381.55897,0.00200
2379.49880,0.00238
2377.43862,0.00270
2375.37845,0.00306
2373.31828,0.00307
2371.25811,0.00287
2369.19793,0.00302
2367.13776,0.00280
2365.07759,0.00159
2363.01742,0.00119
2360.95725,0.00060
2358.89707,0.00175
2356.83690,0.00307
2354.77673,0.00392
2352.71656,0.00365
2350.65639,0.00098
2348.59621,0.00000
2346.53604,0.00435
2344.47587,0.00469
2342.41570,0.00330
2340.35552,0.00264
2338.29535,0.00212
2336.23518,0.00195
2334.17501,0.00193
2332.11484,0.00215
2330.05466,0.00214
2327.99449,0.00285
2325.93432,0.00303
2323.87415,0.00342
2321.81398,0.00319
2319.75380,0.00330
2317.69363,0.00279
2315.63346,0.00288
2313.57329,0.00325
2311.51312,0.00305
2309.45294,0.00261
2307.39277,0.00243
2305.33260,0.00274
2303.27243,0.00310
2301.21225,0.00322
2299.15208,0.00293
2297.09191,0.00261
2295.03174,0.00246
2292.97157,0.00252
2290.91139,0.00289
2288.85122,0.00322
2286.79105,0.00317
2284.73088,0.00299
2282.67071,0.00295
2280.61053,0.00283
2278.55036,0.00253
2276.49019,0.00232
2274.43002,0.00228
2272.36984,0.00242
2270.30967,0.00265
2268.24950,0.00271
2266.18933,0.00244
2264.12916,0.00202
2262.06898,0.00179
2260.00881,0.00203
2257.94864,0.00239
2255.88847,0.00256
2253.82830,0.00270
2251.76812,0.00295
2249.70795,0.00303
2247.64778,0.00257
2245.58761,0.00190
2243.52744,0.00206
2241.46726,0.00275
2239.40709,0.00300
2237.34692,0.00266
2235.28675,0.00230
2233.22657,0.00230
2231.16640,0.00226
2229.10623,0.00211
2227.04606,0.00229
2224.98589,0.00232
2222.92571,0.00202
2220.86554,0.00196
2218.80537,0.00230
2216.74520,0.00290
2214.68503,0.00325
2212.62485,0.00274
2210.56468,0.00185
2208.50451,0.00174
2206.44434,0.00223
2204.38417,0.00209
2202.32399,0.00180
2200.26382,0.00233
2198.20365,0.00261
2196.14348,0.00214
2194.08330,0.00183
2192.02313,0.00172
2189.96296,0.00191
2187.90279,0.00245
2185.84262,0.00244
2183.78244,0.00210
2181.72227,0.00255
2179.66210,0.00331
2177.60193,0.00317
2175.54176,0.00235
2173.48158,0.00203
2171.42141,0.00249
2169.36124,0.00274
2167.30107,0.00238
2165.24089,0.00209
2163.18072,0.00193
2161.12055,0.00128
2159.06038,0.00079
2157.00021,0.00147
2154.94003,0.00236
2152.87986,0.00239
2150.81969,0.00181
2148.75952,0.00130
2146.69935,0.00128
2144.63917,0.00135
2142.57900,0.00137
2140.51883,0.00141
2138.45866,0.00097
2136.39849,0.00043
2134.33831,0.00051
2132.27814,0.00091
2130.21797,0.00134
2128.15780,0.00156
2126.09762,0.00144
2124.03745,0.00166
2121.97728,0.00227
2119.91711,0.00240
2117.85694,0.00212
2115.79676,0.00203
2113.73659,0.00209
2111.67642,0.00198
2109.61625,0.00201
2107.55608,0.00236
2105.49590,0.00257
2103.43573,0.00240
2101.37556,0.00219
2099.31539,0.00200
2097.25521,0.00179
2095.19504,0.00178
2093.13487,0.00197
2091.07470,0.00187
2089.01453,0.00143
2086.95435,0.00118
2084.89418,0.00141
2082.83401,0.00175
2080.77384,0.00180
2078.71367,0.00158
2076.65349,0.00125
2074.59332,0.00105
2072.53315,0.00104
2070.47298,0.00108
2068.41281,0.00104
2066.35263,0.00111
2064.29246,0.00166
2062.23229,0.00254
2060.17212,0.00295
2058.11194,0.00260
2056.05177,0.00221
2053.99160,0.00232
2051.93143,0.00253
2049.87126,0.00241
2047.81108,0.00216
2045.75091,0.00218
2043.69074,0.00253
2041.63057,0.00281
2039.57040,0.00279
2037.51022,0.00254
2035.45005,0.00199
2033.38988,0.00116
2031.32971,0.00081
2029.26954,0.00135
2027.20936,0.00189
2025.14919,0.00203
2023.08902,0.00212
2021.02885,0.00195
2018.96867,0.00139
2016.90850,0.00148
2014.84833,0.00264
2012.78816,0.00311
2010.72799,0.00259
2008.66781,0.00236
2006.60764,0.00225
2004.54747,0.00161
2002.48730,0.00094
2000.42713,0.00099
1998.36695,0.00142
1996.30678,0.00153
1994.24661,0.00134
1992.18644,0.00110
1990.12626,0.00120
1988.06609,0.00185
1986.00592,0.00255
1983.94575,0.00300
1981.88558,0.00305
1979.82540,0.00232
1977.76523,0.00140
1975.70506,0.00123
1973.64489,0.00145
1971.58472,0.00136
1969.52454,0.00075
1967.46437,0.00050
1965.40420,0.00145
1963.34403,0.00227
1961.28386,0.00175
1959.22368,0.00071
1957.16351,0.00011
1955.10334,0.00000
1953.04317,0.00020
1950.98299,0.00055
1948.92282,0.00086
1946.86265,0.00093
1944.80248,0.00056
1942.74231,0.00013
1940.68213,0.00015
1938.62196,0.00054
1936.56179,0.00092
1934.50162,0.00112
1932.44145,0.00115
1930.38127,0.00088
1928.32110,0.00058
1926.26093,0.00077
1924.20076,0.00121
1922.14059,0.00136
1920.08041,0.00131
1918.02024,0.00132
1915.96007,0.00137
1913.89990,0.00136
1911.83972,0.00133
1909.77955,0.00118
1907.71938,0.00087
1905.65921,0.00072
1903.59904,0.00069
1901.53886,0.00052
1899.47869,0.00040
1897.41852,0.00064
1895.35835,0.00099
1893.29818,0.00091
1891.23800,0.00048
1889.17783,0.00019
1887.11766,0.00017
1885.05749,0.00021
1882.99731,0.00034
1880.93714,0.00067
1878.87697,0.00096
1876.81680,0.00091
1874.75663,0.00055
1872.69645,0.00017
1870.63628,0.00009
1868.57611,0.00041
1866.51594,0.00086
1864.45577,0.00107
1862.39559,0.00100
1860.33542,0.00070
1858.27525,0.00040
1856.21508,0.00029
1854.15491,0.00028
1852.09473,0.00028
1850.03456,0.00040
1847.97439,0.00060
1845.91422,0.00057
1843.85404,0.00029
1841.79387,0.00008
1839.73370,0.00004
1837.67353,0.00017
1835.61336,0.00038
1833.55318,0.00046
1831.49301,0.00038
1829.43284,0.00025
1827.37267,0.00010
1825.31250,0.00000
1823.25232,-0.00002
1821.19215,-0.00003
1819.13198,0.00002
1817.07181,0.00021
1815.01163,0.00037
1812.95146,0.00027
1810.89129,0.00001
1808.83112,-0.00015
1806.77095,-0.00010
1804.71077,0.00007
1802.65060,0.00017
1800.59043,0.00008
1798.53026,-0.00003
1796.47009,-0.00001
1794.40991,0.00004
1792.34974,0.00003
1790.28957,0.00004
1788.22940,0.00012
1786.16923,0.00024
1784.10905,0.00028
1782.04888,0.00025
1779.98871,0.00025
1777.92854,0.00023
1775.86836,0.00018
1773.80819,0.00022
1771.74802,0.00046
1769.68785,0.00084
1767.62768,0.00104
1765.56750,0.00097
1763.50733,0.00095
1761.44716,0.00115
1759.38699,0.00140
1757.32682,0.00158
1755.26664,0.00182
1753.20647,0.00222
1751.14630,0.00263
1749.08613,0.00288
1747.02596,0.00306
1744.96578,0.00330
1742.90561,0.00348
1740.84544,0.00356
1738.78527,0.00369
1736.72509,0.00385
1734.66492,0.00391
1732.60475,0.00395
1730.54458,0.00411
1728.48441,0.00427
1726.42423,0.00425
1724.36406,0.00410
1722.30389,0.00394
1720.24372,0.00380
1718.18355,0.00354
1716.12337,0.00328
1714.06320,0.00321
1712.00303,0.00316
1709.94286,0.00296
1707.88268,0.00266
1705.82251,0.00238
1703.76234,0.00216
1701.70217,0.00201
1699.64200,0.00202
1697.58182,0.00211
1695.52165,0.00218
1693.46148,0.00226
1691.40131,0.00233
1689.34114,0.00237
1687.28096,0.00243
1685.22079,0.00252
1683.16062,0.00274
1681.10045,0.00318
1679.04028,0.00360
1676.98010,0.00388
1674.91993,0.00414
1672.85976,0.00453
1670.79959,0.00495
1668.73941,0.00531
1666.67924,0.00556
1664.61907,0.00569
1662.55890,0.00592
1660.49873,0.00646
1658.43855,0.00710
1656.37838,0.00749
1654.31821,0.00758
1652.25804,0.00767
1650.19787,0.00791
1648.13769,0.00813
1646.07752,0.00829
1644.01735,0.00848
1641.95718,0.00869
1639.89701,0.00886
1637.83683,0.00891
1635.77666,0.00886
1633.71649,0.00888
1631.65632,0.00905
1629.59614,0.00915
1627.53597,0.00907
1625.47580,0.00900
1623.41563,0.00903
1621.35546,0.00912
1619.29528,0.00916
1617.23511,0.00909
1615.17494,0.00905
1613.11477,0.00915
1611.05460,0.00918
1608.99442,0.00902
1606.93425,0.00877
1604.87408,0.00846
1602.81391,0.00809
1600.75373,0.00763
1598.69356,0.00713
1596.63339,0.00668
1594.57322,0.00623
1592.51305,0.00574
1590.45287,0.00520
1588.39270,0.00470
1586.33253,0.00427
1584.27236,0.00385
1582.21219,0.00348
1580.15201,0.00318
1578.09184,0.00279
1576.03167,0.00229
1573.97150,0.00195
1571.91133,0.00182
1569.85115,0.00173
1567.79098,0.00165
1565.73081,0.00158
1563.67064,0.00149
1561.61046,0.00137
1559.55029,0.00113
1557.49012,0.00080
1555.42995,0.00069
1553.36978,0.00077
1551.30960,0.00081
1549.24943,0.00071
1547.18926,0.00063
1545.12909,0.00054
1543.06892,0.00033
1541.00874,0.00006
1538.94857,0.00000
1536.88840,0.00015
1534.82823,0.00022
1532.76805,0.00013
1530.70788,0.00013
1528.64771,0.00030
1526.58754,0.00044
1524.52737,0.00043
1522.46719,0.00028
1520.40702,0.00015
1518.34685,0.00019
1516.28668,0.00032
1514.22651,0.00041
1512.16633,0.00054
1510.10616,0.00069
1508.04599,0.00057
1505.98582,0.00017
1503.92565,0.00007
1501.86547,0.00028
1499.80530,0.00048
1497.74513,0.00055
1495.68496,0.00046
1493.62478,0.00037
1491.56461,0.00037
1489.50444,0.00044
1487.44427,0.00056
1485.38410,0.00076
1483.32392,0.00103
1481.26375,0.00129
1479.20358,0.00155
1477.14341,0.00181
1475.08324,0.00203
1473.02306,0.00218
1470.96289,0.00248
1468.90272,0.00297
1466.84255,0.00349
1464.78238,0.00391
1462.72220,0.00425
1460.66203,0.00449
1458.60186,0.00460
1456.54169,0.00461
1454.48151,0.00466
1452.42134,0.00485
1450.36117,0.00513
1448.30100,0.00542
1446.24083,0.00567
1444.18065,0.00586
1442.12048,0.00601
1440.06031,0.00611
1438.00014,0.00621
1435.93997,0.00636
1433.87979,0.00660
1431.81962,0.00684
1429.75945,0.00708
1427.69928,0.00736
1425.63910,0.00756
1423.57893,0.00768
1421.51876,0.00788
1419.45859,0.00819
1417.39842,0.00847
1415.33824,0.00861
1413.27807,0.00867
1411.21790,0.00867
1409.15773,0.00857
1407.09756,0.00839
1405.03738,0.00815
1402.97721,0.00788
1400.91704,0.00766
1398.85687,0.00743
1396.79670,0.00713
1394.73652,0.00689
1392.67635,0.00690
1390.61618,0.00705
1388.55601,0.00705
1386.49583,0.00693
1384.43566,0.00691
1382.37549,0.00712
1380.31532,0.00748
1378.25515,0.00785
1376.19497,0.00810
1374.13480,0.00825
1372.07463,0.00829
1370.01446,0.00822
1367.95429,0.00809
1365.89411,0.00799
1363.83394,0.00798
1361.77377,0.00795
1359.71360,0.00780
1357.65343,0.00760
1355.59325,0.00749
1353.53308,0.00749
1351.47291,0.00747
1349.41274,0.00738
1347.35256,0.00721
1345.29239,0.00702
1343.23222,0.00684
1341.17205,0.00674
1339.11188,0.00665
1337.05170,0.00658
1334.99153,0.00658
1332.93136,0.00661
1330.87119,0.00664
1328.81102,0.00670
1326.75084,0.00683
1324.69067,0.00694
1322.63050,0.00702
1320.57033,0.00712
1318.51015,0.00720
1316.44998,0.00719
1314.38981,0.00718
1312.32964,0.00719
1310.26947,0.00710
1308.20929,0.00687
1306.14912,0.00664
1304.08895,0.00652
1302.02878,0.00646
1299.96861,0.00632
1297.90843,0.00614
1295.84826,0.00601
1293.78809,0.00591
1291.72792,0.00582
1289.66775,0.00574
1287.60757,0.00567
1285.54740,0.00565
1283.48723,0.00566
1281.42706,0.00564
1279.36688,0.00570
1277.30671,0.00584
1275.24654,0.00592
1273.18637,0.00605
1271.12620,0.00636
1269.06602,0.00667
1267.00585,0.00690
1264.94568,0.00719
1262.88551,0.00756
1260.82534,0.00787
1258.76516,0.00815
1256.70499,0.00843
1254.64482,0.00865
1252.58465,0.00877
1250.52447,0.00885
1248.46430,0.00889
1246.40413,0.00890
1244.34396,0.00896
1242.28379,0.00899
1240.22361,0.00880
1238.16344,0.00846
1236.10327,0.00815
1234.04310,0.00789
1231.98293,0.00765
1229.92275,0.00740
1227.86258,0.00709
1225.80241,0.00673
1223.74224,0.00643
1221.68207,0.00612
1219.62189,0.00569
1217.56172,0.00532
1215.50155,0.00504
1213.44138,0.00473
1211.38120,0.00438
1209.32103,0.00398
1207.26086,0.00349
1205.20069,0.00295
1203.14052,0.00243
1201.08034,0.00196
1199.02017,0.00145
1196.96000,0.00095
1194.89983,0.00058
1192.83966,0.00031
1190.77948,0.00009
1188.71931,0.00000
1186.65914,0.00009
1184.59897,0.00033
1182.53880,0.00057
1180.47862,0.00083
1178.41845,0.00117
1176.35828,0.00162
1174.29811,0.00220
1172.23793,0.00290
1170.17776,0.00363
1168.11759,0.00429
1166.05742,0.00493
1163.99725,0.00560
1161.93707,0.00625
1159.87690,0.00683
1157.81673,0.00734
1155.75656,0.00781
1153.69639,0.00831
1151.63621,0.00883
1149.57604,0.00935
1147.51587,0.00977
1145.45570,0.01007
1143.39552,0.01023
1141.33535,0.01034
1139.27518,0.01050
1137.21501,0.01067
1135.15484,0.01087
1133.09466,0.01108
1131.03449,0.01137
1128.97432,0.01183
1126.91415,0.01238
1124.85398,0.01297
1122.79380,0.01361
1120.73363,0.01417
1118.67346,0.01453
1116.61329,0.01482
1114.55312,0.01525
1112.49294,0.01585
1110.43277,0.01643
1108.37260,0.01698
1106.31243,0.01763
1104.25225,0.01833
1102.19208,0.01900
1100.13191,0.01976
1098.07174,0.02063
1096.01157,0.02144
1093.95139,0.02214
1091.89122,0.02296
1089.83105,0.02393
1087.77088,0.02479
1085.71071,0.02545
1083.65053,0.02597
1081.59036,0.02657
1079.53019,0.02730
1077.47002,0.02801
1075.40985,0.02861
1073.34967,0.02921
1071.28950,0.02973
1069.22933,0.03016
1067.16916,0.03065
1065.10898,0.03121
1063.04881,0.03163
1060.98864,0.03185
1058.92847,0.03207
1056.86830,0.03233
1054.80812,0.03262
1052.74795,0.03299
1050.68778,0.03348
1048.62761,0.03408
1046.56744,0.03470
1044.50726,0.03532
1042.44709,0.03593
1040.38692,0.03640
1038.32675,0.03667
1036.26657,0.03693
1034.20640,0.03718
1032.14623,0.03726
1030.08606,0.03725
1028.02589,0.03728
1025.96571,0.03716
1023.90554,0.03689
1021.84537,0.03672
1019.78520,0.03668
1017.72503,0.03674
1015.66485,0.03687
1013.60468,0.03703
1011.54451,0.03720
1009.48434,0.03716
1007.42417,0.03687
1005.36399,0.03659
1003.30382,0.03633
1001.24365,0.03595
999.18348,0.03547
997.12330,0.03495
995.06313,0.03448
993.00296,0.03401
990.94279,0.03354
988.88262,0.03316
986.82244,0.03281
984.76227,0.03236
982.70210,0.03192
980.64193,0.03160
978.58176,0.03130
976.52158,0.03089
974.46141,0.03042
972.40124,0.03001
970.34107,0.02956
968.28089,0.02906
966.22072,0.02853
964.16055,0.02798
962.10038,0.02746
960.04021,0.02691
957.98003,0.02639
955.91986,0.02595
953.85969,0.02550
951.79952,0.02504
949.73935,0.02450
947.67917,0.02370
945.61900,0.02279
943.55883,0.02189
941.49866,0.02086
939.43849,0.01954
937.37831,0.01797
935.31814,0.01638
933.25797,0.01484
931.19780,0.01347
929.13762,0.01234
927.07745,0.01133
925.01728,0.01041
922.95711,0.00957
920.89694,0.00872
918.83676,0.00788
916.77659,0.00727
914.71642,0.00696
912.65625,0.00662
910.59608,0.00604
908.53590,0.00553
906.47573,0.00535
904.41556,0.00517
902.35539,0.00489
900.29522,0.00487
898.23504,0.00512
896.17487,0.00545
894.11470,0.00562
892.05453,0.00548
889.99435,0.00541
887.93418,0.00533
885.87401,0.00490
883.81384,0.00435
881.75367,0.00404
879.69349,0.00387
877.63332,0.00358
875.57315,0.00321
873.51298,0.00304
871.45281,0.00305
869.39263,0.00302
867.33246,0.00290
865.27229,0.00268
863.21212,0.00246
861.15194,0.00256
859.09177,0.00283
857.03160,0.00285
854.97143,0.00268
852.91126,0.00254
850.85108,0.00243
848.79091,0.00222
846.73074,0.00209
844.67057,0.00213
842.61040,0.00194
840.55022,0.00149
838.49005,0.00113
836.42988,0.00083
834.36971,0.00047
832.30954,0.00013
830.24936,0.00000
828.18919,0.00014
826.12902,0.00046
824.06885,0.00057
822.00867,0.00039
819.94850,0.00036
817.88833,0.00052
815.82816,0.00054
813.76799,0.00078
811.70781,0.00130
809.64764,0.00178
807.58747,0.00209
805.52730,0.00201
803.46713,0.00183
801.40695,0.00191
799.34678,0.00190
797.28661,0.00166
795.22644,0.00153
793.16627,0.00141
791.10609,0.00107
789.04592,0.00087
786.98575,0.00092
784.92558,0.00084
782.86540,0.00066
780.80523,0.00079
778.74506,0.00110
776.68489,0.00123
774.62472,0.00125
772.56454,0.00120
770.50437,0.00101
768.44420,0.00083
766.38403,0.00098
764.32386,0.00130
762.26368,0.00145
760.20351,0.00153
758.14334,0.00154
756.08317,0.00125
754.02299,0.00092
751.96282,0.00083
749.90265,0.00069
747.84248,0.00053
745.78231,0.00059
743.72213,0.00074
741.66196,0.00091
739.60179,0.00107
737.54162,0.00105
735.48145,0.00092
733.42127,0.00093
731.36110,0.00120
729.30093,0.00163
727.24076,0.00210
725.18059,0.00253
723.12041,0.00276
721.06024,0.00346
719.00007,0.00346
716.93990,0.00323
714.87972,0.00308
712.81955,0.00314
710.75938,0.00351
708.69921,0.00388
706.63904,0.00421
704.57886,0.00478
702.51869,0.00553
700.45852,0.00576
698.39835,0.00507
696.33818,0.00408
694.27800,0.00353
692.21783,0.00342
690.15766,0.00331
688.09749,0.00303
686.03731,0.00277
683.97714,0.00259
681.91697,0.00243
679.85680,0.00251
677.79663,0.00313
675.73645,0.00369
673.67628,0.00271
671.61611,0.00000
669.55594,0.00285
667.49577,0.00815
665.43559,0.00089
663.37542,0.00234
661.31525,0.00426
659.25508,0.00377
657.19491,0.00287
655.13473,0.00282
653.07456,0.00316
651.01439,0.00338
648.95422,0.00383
646.89404,0.00379
644.83387,0.00350
642.77370,0.00322
640.71353,0.00339
638.65336,0.00412
636.59318,0.00485
634.53301,0.00487
632.47284,0.00459
630.41267,0.00487
628.35250,0.00578
626.29232,0.00665
624.23215,0.00686
622.17198,0.00593
620.11181,0.00417
618.05164,0.00295
615.99146,0.00308
613.93129,0.00362
611.87112,0.00383
609.81095,0.00319
607.75077,0.00189
605.69060,0.00132
603.63043,0.00112
601.57026,0.00044
599.51009,0.00000
