3996.73391,-0.00010
3994.67373,0.00003
3992.61356,0.00015
3990.55339,0.00009
3988.49322,-0.00004
3986.43305,0.00003
3984.37287,0.00025
3982.31270,0.00036
3980.25253,0.00040
3978.19236,0.00044
3976.13219,0.00046
3974.07201,0.00039
3972.01184,0.00032
3969.95167,0.00039
3967.89150,0.00052
3965.83133,0.00059
3963.77115,0.00058
3961.71098,0.00057
3959.65081,0.00051
3957.59064,0.00036
3955.53046,0.00014
3953.47029,0.00000
3951.41012,0.00008
3949.34995,0.00031
3947.28978,0.00052
3945.22960,0.00053
3943.16943,0.00041
3941.10926,0.00034
3939.04909,0.00037
3936.98892,0.00043
3934.92874,0.00059
3932.86857,0.00074
3930.80840,0.00057
3928.74823,0.00029
3926.68805,0.00017
3924.62788,0.00013
3922.56771,0.00010
3920.50754,0.00020
3918.44737,0.00044
3916.38719,0.00060
3914.32702,0.00063
3912.26685,0.00070
3910.20668,0.00079
3908.14651,0.00073
3906.08633,0.00055
3904.02616,0.00050
3901.96599,0.00064
3899.90582,0.00071
3897.84565,0.00073
3895.78547,0.00088
3893.72530,0.00105
3891.66513,0.00096
3889.60496,0.00061
3887.54478,0.00023
3885.48461,0.00000
3883.42444,0.00009
3881.36427,0.00045
3879.30410,0.00074
3877.24392,0.00088
3875.18375,0.00100
3873.12358,0.00116
3871.06341,0.00131
3869.00324,0.00128
3866.94306,0.00094
3864.88289,0.00054
3862.82272,0.00044
3860.76255,0.00059
3858.70237,0.00083
3856.64220,0.00102
3854.58203,0.00104
3852.52186,0.00101
3850.46169,0.00092
3848.40151,0.00074
3846.34134,0.00057
3844.28117,0.00056
3842.22100,0.00092
3840.16083,0.00164
3838.10065,0.00209
3836.04048,0.00178
3833.98031,0.00116
3831.92014,0.00066
3829.85997,0.00035
3827.79979,0.00038
3825.73962,0.00070
3823.67945,0.00104
3821.61928,0.00106
3819.55910,0.00080
3817.49893,0.00066
3815.43876,0.00070
3813.37859,0.00075
3811.31842,0.00077
3809.25824,0.00069
3807.19807,0.00057
3805.13790,0.00055
3803.07773,0.00061
3801.01756,0.00068
3798.95738,0.00076
3796.89721,0.00080
3794.83704,0.00076
3792.77687,0.00075
3790.71670,0.00075
3788.65652,0.00064
3786.59635,0.00050
3784.53618,0.00051
3782.47601,0.00062
3780.41583,0.00065
3778.35566,0.00065
3776.29549,0.00066
3774.23532,0.00068
3772.17515,0.00072
3770.11497,0.00076
3768.05480,0.00068
3765.99463,0.00060
3763.93446,0.00073
3761.87429,0.00097
3759.81411,0.00096
3757.75394,0.00073
3755.69377,0.00070
3753.63360,0.00080
3751.57342,0.00071
3749.51325,0.00065
3747.45308,0.00080
3745.39291,0.00093
3743.33274,0.00097
3741.27256,0.00109
3739.21239,0.00131
3737.15222,0.00152
3735.09205,0.00154
3733.03188,0.00122
3730.97170,0.00104
3728.91153,0.00132
3726.85136,0.00165
3724.79119,0.00156
3722.73102,0.00120
3720.67084,0.00098
3718.61067,0.00090
3716.55050,0.00097
3714.49033,0.00112
3712.43015,0.00103
3710.36998,0.00075
3708.30981,0.00076
3706.24964,0.00098
3704.18947,0.00105
3702.12929,0.00094
3700.06912,0.00092
3698.00895,0.00103
3695.94878,0.00099
3693.88861,0.00082
3691.82843,0.00085
3689.76826,0.00105
3687.70809,0.00116
3685.64792,0.00122
3683.58775,0.00134
3681.52757,0.00140
3679.46740,0.00141
3677.40723,0.00156
3675.34706,0.00193
3673.28688,0.00211
3671.22671,0.00198
3669.16654,0.00190
3667.10637,0.00203
3665.04620,0.00220
3662.98602,0.00229
3660.92585,0.00237
3658.86568,0.00251
3656.80551,0.00273
3654.74534,0.00297
3652.68516,0.00305
3650.62499,0.00267
3648.56482,0.00212
3646.50465,0.00227
3644.44447,0.00293
3642.38430,0.00342
3640.32413,0.00357
3638.26396,0.00359
3636.20379,0.00368
3634.14361,0.00389
3632.08344,0.00426
3630.02327,0.00472
3627.96310,0.00492
3625.90293,0.00490
3623.84275,0.00509
3621.78258,0.00549
3619.72241,0.00592
3617.66224,0.00628
3615.60207,0.00650
3613.54189,0.00671
3611.48172,0.00690
3609.42155,0.00707
3607.36138,0.00725
3605.30120,0.00737
3603.24103,0.00746
3601.18086,0.00749
3599.12069,0.00747
3597.06052,0.00757
3595.00034,0.00807
3592.94017,0.00883
3590.88000,0.00938
3588.81983,0.00964
3586.75966,0.00980
3584.69948,0.00992
3582.63931,0.01012
3580.57914,0.01043
3578.51897,0.01078
3576.45879,0.01107
3574.39862,0.01123
3572.33845,0.01146
3570.27828,0.01188
3568.21811,0.01229
3566.15793,0.01243
3564.09776,0.01248
3562.03759,0.01273
3559.97742,0.01309
3557.91725,0.01335
3555.85707,0.01366
3553.79690,0.01412
3551.73673,0.01464
3549.67656,0.01503
3547.61639,0.01527
3545.55621,0.01535
3543.49604,0.01538
3541.43587,0.01551
3539.37570,0.01577
3537.31552,0.01608
3535.25535,0.01643
3533.19518,0.01682
3531.13501,0.01717
3529.07484,0.01749
3527.01466,0.01785
3524.95449,0.01810
3522.89432,0.01816
3520.83415,0.01834
3518.77398,0.01876
3516.71380,0.01915
3514.65363,0.01939
3512.59346,0.01963
3510.53329,0.01991
3508.47312,0.02010
3506.41294,0.02024
3504.35277,0.02042
3502.29260,0.02063
3500.23243,0.02081
3498.17225,0.02105
3496.11208,0.02140
3494.05191,0.02181
3491.99174,0.02206
3489.93157,0.02207
3487.87139,0.02201
3485.81122,0.02209
3483.75105,0.02240
3481.69088,0.02288
3479.63071,0.02327
3477.57053,0.02346
3475.51036,0.02358
3473.45019,0.02383
3471.39002,0.02418
3469.32984,0.02425
3467.26967,0.02412
3465.20950,0.02436
3463.14933,0.02499
3461.08916,0.02564
3459.02898,0.02606
3456.96881,0.02624
3454.90864,0.02631
3452.84847,0.02644
3450.78830,0.02665
3448.72812,0.02685
3446.66795,0.02696
3444.60778,0.02697
3442.54761,0.02717
3440.48744,0.02764
3438.42726,0.02800
3436.36709,0.02804
3434.30692,0.02804
3432.24675,0.02817
3430.18657,0.02840
3428.12640,0.02865
3426.06623,0.02878
3424.00606,0.02890
3421.94589,0.02919
3419.88571,0.02947
3417.82554,0.02960
3415.76537,0.02971
3413.70520,0.02982
3411.64503,0.02999
3409.58485,0.03029
3407.52468,0.03050
3405.46451,0.03055
3403.40434,0.03063
3401.34416,0.03072
3399.28399,0.03085
3397.22382,0.03105
3395.16365,0.03132
3393.10348,0.03156
3391.04330,0.03174
3388.98313,0.03191
3386.92296,0.03215
3384.86279,0.03230
3382.80262,0.03222
3380.74244,0.03218
3378.68227,0.03227
3376.62210,0.03233
3374.56193,0.03234
3372.50176,0.03239
3370.44158,0.03246
3368.38141,0.03256
3366.32124,0.03270
3364.26107,0.03295
3362.20089,0.03322
3360.14072,0.03327
3358.08055,0.03320
3356.02038,0.03334
3353.96021,0.03355
3351.90003,0.03354
3349.83986,0.03350
3347.77969,0.03358
3345.71952,0.03369
3343.65935,0.03366
3341.59917,0.03340
3339.53900,0.03332
3337.47883,0.03361
3335.41866,0.03400
3333.35849,0.03418
3331.29831,0.03403
3329.23814,0.03381
3327.17797,0.03380
3325.11780,0.03400
3323.05762,0.03426
3320.99745,0.03444
3318.93728,0.03458
3316.87711,0.03457
3314.81694,0.03438
3312.75676,0.03420
3310.69659,0.03413
3308.63642,0.03403
3306.57625,0.03404
3304.51608,0.03421
3302.45590,0.03435
3300.39573,0.03447
3298.33556,0.03461
3296.27539,0.03468
3294.21521,0.03471
3292.15504,0.03464
3290.09487,0.03440
3288.03470,0.03419
3285.97453,0.03426
3283.91435,0.03443
3281.85418,0.03436
3279.79401,0.03413
3277.73384,0.03401
3275.67367,0.03399
3273.61349,0.03403
3271.55332,0.03407
3269.49315,0.03404
3267.43298,0.03401
3265.37281,0.03413
3263.31263,0.03429
3261.25246,0.03433
3259.19229,0.03427
3257.13212,0.03418
3255.07194,0.03400
3253.01177,0.03370
3250.95160,0.03342
3248.89143,0.03332
3246.83126,0.03344
3244.77108,0.03357
3242.71091,0.03357
3240.65074,0.03353
3238.59057,0.03346
3236.53040,0.03331
3234.47022,0.03309
3232.41005,0.03287
3230.34988,0.03282
3228.28971,0.03294
3226.22954,0.03310
3224.16936,0.03308
3222.10919,0.03277
3220.04902,0.03244
3217.98885,0.03224
3215.92867,0.03219
3213.86850,0.03216
3211.80833,0.03199
3209.74816,0.03177
3207.68799,0.03151
3205.62781,0.03119
3203.56764,0.03094
3201.50747,0.03076
3199.44730,0.03056
3197.38713,0.03042
3195.32695,0.03044
3193.26678,0.03042
3191.20661,0.03018
3189.14644,0.02991
3187.08626,0.02963
3185.02609,0.02934
3182.96592,0.02932
3180.90575,0.02938
3178.84558,0.02910
3176.78540,0.02862
3174.72523,0.02833
3172.66506,0.02823
3170.60489,0.02807
3168.54472,0.02778
3166.48454,0.02747
3164.42437,0.02720
3162.36420,0.02690
3160.30403,0.02662
3158.24386,0.02651
3156.18368,0.02652
3154.12351,0.02645
3152.06334,0.02613
3150.00317,0.02555
3147.94299,0.02505
3145.88282,0.02487
3143.82265,0.02471
3141.76248,0.02445
3139.70231,0.02432
3137.64213,0.02431
3135.58196,0.02419
3133.52179,0.02388
3131.46162,0.02348
3129.40145,0.02309
3127.34127,0.02276
3125.28110,0.02255
3123.22093,0.02243
3121.16076,0.02237
3119.10058,0.02234
3117.04041,0.02215
3114.98024,0.02176
3112.92007,0.02133
3110.85990,0.02103
3108.79972,0.02088
3106.73955,0.02071
3104.67938,0.02038
3102.61921,0.01993
3100.55904,0.01952
3098.49886,0.01927
3096.43869,0.01926
3094.37852,0.01926
3092.31835,0.01897
3090.25818,0.01854
3088.19800,0.01823
3086.13783,0.01805
3084.07766,0.01784
3082.01749,0.01755
3079.95731,0.01736
3077.89714,0.01722
3075.83697,0.01700
3073.77680,0.01676
3071.71663,0.01658
3069.65645,0.01646
3067.59628,0.01644
3065.53611,0.01632
3063.47594,0.01603
3061.41577,0.01578
3059.35559,0.01562
3057.29542,0.01539
3055.23525,0.01521
3053.17508,0.01515
3051.11491,0.01495
3049.05473,0.01465
3046.99456,0.01456
3044.93439,0.01450
3042.87422,0.01422
3040.81404,0.01391
3038.75387,0.01370
3036.69370,0.01355
3034.63353,0.01344
3032.57336,0.01329
3030.51318,0.01307
3028.45301,0.01284
3026.39284,0.01262
3024.33267,0.01243
3022.27250,0.01231
3020.21232,0.01222
3018.15215,0.01205
3016.09198,0.01186
3014.03181,0.01179
3011.97163,0.01170
3009.91146,0.01150
3007.85129,0.01144
3005.79112,0.01155
3003.73095,0.01160
3001.67077,0.01150
2999.61060,0.01126
2997.55043,0.01104
2995.49026,0.01100
2993.43009,0.01107
2991.36991,0.01113
2989.30974,0.01124
2987.24957,0.01138
2985.18940,0.01149
2983.12923,0.01153
2981.06905,0.01148
2979.00888,0.01148
2976.94871,0.01167
2974.88854,0.01195
2972.82836,0.01208
2970.76819,0.01211
2968.70802,0.01228
2966.64785,0.01258
2964.58768,0.01286
2962.52750,0.01310
2960.46733,0.01337
2958.40716,0.01362
2956.34699,0.01375
2954.28682,0.01397
2952.22664,0.01440
2950.16647,0.01484
2948.10630,0.01524
2946.04613,0.01562
2943.98596,0.01586
2941.92578,0.01593
2939.86561,0.01602
2937.80544,0.01622
2935.74527,0.01640
2933.68509,0.01652
2931.62492,0.01657
2929.56475,0.01646
2927.50458,0.01629
2925.44441,0.01626
2923.38423,0.01635
2921.32406,0.01628
2919.26389,0.01602
2917.20372,0.01577
2915.14355,0.01558
2913.08337,0.01541
2911.02320,0.01528
2908.96303,0.01520
2906.90286,0.01511
2904.84268,0.01493
2902.78251,0.01474
2900.72234,0.01466
2898.66217,0.01463
2896.60200,0.01464
2894.54182,0.01468
2892.48165,0.01463
2890.42148,0.01446
2888.36131,0.01431
2886.30114,0.01423
2884.24096,0.01417
2882.18079,0.01399
2880.12062,0.01372
2878.06045,0.01359
2876.00028,0.01365
2873.94010,0.01368
2871.87993,0.01353
2869.81976,0.01325
2867.75959,0.01299
2865.69941,0.01270
2863.63924,0.01237
2861.57907,0.01217
2859.51890,0.01216
2857.45873,0.01209
2855.39855,0.01186
2853.33838,0.01157
2851.27821,0.01129
2849.21804,0.01105
2847.15787,0.01080
2845.09769,0.01056
2843.03752,0.01051
2840.97735,0.01051
2838.91718,0.01035
2836.85700,0.01018
2834.79683,0.01004
2832.73666,0.00991
2830.67649,0.00979
2828.61632,0.00967
2826.55614,0.00964
2824.49597,0.00965
2822.43580,0.00944
2820.37563,0.00908
2818.31546,0.00890
2816.25528,0.00891
2814.19511,0.00889
2812.13494,0.00882
2810.07477,0.00883
2808.01460,0.00881
2805.95442,0.00870
2803.89425,0.00857
2801.83408,0.00846
2799.77391,0.00840
2797.71373,0.00830
2795.65356,0.00811
2793.59339,0.00800
2791.53322,0.00797
2789.47305,0.00800
2787.41287,0.00804
2785.35270,0.00808
2783.29253,0.00814
2781.23236,0.00808
2779.17219,0.00784
2777.11201,0.00760
2775.05184,0.00751
2772.99167,0.00756
2770.93150,0.00772
2768.87133,0.00782
2766.81115,0.00763
2764.75098,0.00740
2762.69081,0.00741
2760.63064,0.00745
2758.57046,0.00743
2756.51029,0.00738
2754.45012,0.00727
2752.38995,0.00717
2750.32978,0.00717
2748.26960,0.00721
2746.20943,0.00727
2744.14926,0.00729
2742.08909,0.00722
2740.02892,0.00718
2737.96874,0.00716
2735.90857,0.00701
2733.84840,0.00684
2731.78823,0.00686
2729.72805,0.00697
2727.66788,0.00700
2725.60771,0.00691
2723.54754,0.00684
2721.48737,0.00685
2719.42719,0.00682
2717.36702,0.00669
2715.30685,0.00655
2713.24668,0.00648
2711.18651,0.00649
2709.12633,0.00641
2707.06616,0.00630
2705.00599,0.00628
2702.94582,0.00624
2700.88565,0.00626
2698.82547,0.00642
2696.76530,0.00656
2694.70513,0.00658
2692.64496,0.00655
2690.58478,0.00643
2688.52461,0.00624
2686.46444,0.00613
2684.40427,0.00611
2682.34410,0.00610
2680.28392,0.00611
2678.22375,0.00617
2676.16358,0.00619
2674.10341,0.00614
2672.04324,0.00603
2669.98306,0.00591
2667.92289,0.00578
2665.86272,0.00573
2663.80255,0.00585
2661.74238,0.00596
2659.68220,0.00592
2657.62203,0.00588
2655.56186,0.00588
2653.50169,0.00579
2651.44151,0.00570
2649.38134,0.00570
2647.32117,0.00567
2645.26100,0.00562
2643.20083,0.00569
2641.14065,0.00578
2639.08048,0.00563
2637.02031,0.00530
2634.96014,0.00514
2632.89997,0.00514
2630.83979,0.00507
2628.77962,0.00492
2626.71945,0.00478
2624.65928,0.00474
2622.59910,0.00487
2620.53893,0.00509
2618.47876,0.00512
2616.41859,0.00492
2614.35842,0.00472
2612.29824,0.00466
2610.23807,0.00457
2608.17790,0.00436
2606.11773,0.00429
2604.05756,0.00444
2601.99738,0.00461
2599.93721,0.00458
2597.87704,0.00421
2595.81687,0.00380
2593.75670,0.00374
2591.69652,0.00377
2589.63635,0.00366
2587.57618,0.00361
2585.51601,0.00375
2583.45583,0.00405
2581.39566,0.00420
2579.33549,0.00407
2577.27532,0.00380
2575.21515,0.00362
2573.15497,0.00368
2571.09480,0.00391
2569.03463,0.00404
2566.97446,0.00402
2564.91429,0.00396
2562.85411,0.00386
2560.79394,0.00383
2558.73377,0.00394
2556.67360,0.00390
2554.61342,0.00372
2552.55325,0.00367
2550.49308,0.00363
2548.43291,0.00347
2546.37274,0.00355
2544.31256,0.00377
2542.25239,0.00382
2540.19222,0.00384
2538.13205,0.00371
2536.07188,0.00340
2534.01170,0.00334
2531.95153,0.00344
2529.89136,0.00333
2527.83119,0.00311
2525.77102,0.00301
2523.71084,0.00308
2521.65067,0.00315
2519.59050,0.00318
2517.53033,0.00316
2515.47015,0.00321
2513.40998,0.00336
2511.34981,0.00350
2509.28964,0.00364
2507.22947,0.00372
2505.16929,0.00359
2503.10912,0.00329
2501.04895,0.00311
2498.98878,0.00325
2496.92861,0.00344
2494.86843,0.00336
2492.80826,0.00321
2490.74809,0.00329
2488.68792,0.00341
2486.62775,0.00341
2484.56757,0.00351
2482.50740,0.00350
2480.44723,0.00317
2478.38706,0.00292
2476.32688,0.00295
2474.26671,0.00295
2472.20654,0.00292
2470.14637,0.00306
2468.08620,0.00310
2466.02602,0.00290
2463.96585,0.00276
2461.90568,0.00281
2459.84551,0.00294
2457.78534,0.00305
2455.72516,0.00320
2453.66499,0.00338
2451.60482,0.00328
2449.54465,0.00292
2447.48447,0.00286
2445.42430,0.00304
2443.36413,0.00311
2441.30396,0.00314
2439.24379,0.00316
2437.18361,0.00305
2435.12344,0.00284
2433.06327,0.00267
2431.00310,0.00264
2428.94293,0.00260
2426.88275,0.00258
2424.82258,0.00274
2422.76241,0.00296
2420.70224,0.00300
2418.64207,0.00286
2416.58189,0.00269
2414.52172,0.00268
2412.46155,0.00281
2410.40138,0.00288
2408.34120,0.00287
2406.28103,0.00281
2404.22086,0.00276
2402.16069,0.00275
2400.10052,0.00265
2398.04034,0.00234
2395.98017,0.00222
2393.92000,0.00235
2391.85983,0.00254
2389.79966,0.00267
2387.73948,0.00280
2385.67931,0.00290
2383.61914,0.00286
2381.55897,0.00284
2379.49880,0.00309
2377.43862,0.00337
2375.37845,0.00312
2373.31828,0.00257
2371.25811,0.00231
2369.19793,0.00247
2367.13776,0.00261
2365.07759,0.00210
2363.01742,0.00102
2360.95725,0.00099
2358.89707,0.00149
2356.83690,0.00227
2354.77673,0.00291
2352.71656,0.00309
2350.65639,0.00383
2348.59621,0.00420
2346.53604,0.00253
2344.47587,0.00188
2342.41570,0.00213
2340.35552,0.00216
2338.29535,0.00185
2336.23518,0.00165
2334.17501,0.00214
2332.11484,0.00292
2330.05466,0.00356
2327.99449,0.00393
2325.93432,0.00441
2323.87415,0.00424
2321.81398,0.00371
2319.75380,0.00323
2317.69363,0.00326
2315.63346,0.00324
2313.57329,0.00328
2311.51312,0.00345
2309.45294,0.00348
2307.39277,0.00337
2305.33260,0.00335
2303.27243,0.00344
2301.21225,0.00345
2299.15208,0.00345
2297.09191,0.00332
2295.03174,0.00298
2292.97157,0.00290
2290.91139,0.00322
2288.85122,0.00344
2286.79105,0.00324
2284.73088,0.00289
2282.67071,0.00267
2280.61053,0.00255
2278.55036,0.00241
2276.49019,0.00224
2274.43002,0.00218
2272.36984,0.00233
2270.30967,0.00262
2268.24950,0.00275
2266.18933,0.00267
2264.12916,0.00251
2262.06898,0.00251
2260.00881,0.00268
2257.94864,0.00257
2255.88847,0.00224
2253.82830,0.00242
2251.76812,0.00299
2249.70795,0.00326
2247.64778,0.00313
2245.58761,0.00285
2243.52744,0.00299
2241.46726,0.00340
2239.40709,0.00325
2237.34692,0.00274
2235.28675,0.00258
2233.22657,0.00230
2231.16640,0.00172
2229.10623,0.00167
2227.04606,0.00225
2224.98589,0.00259
2222.92571,0.00246
2220.86554,0.00245
2218.80537,0.00297
2216.74520,0.00363
2214.68503,0.00342
2212.62485,0.00223
2210.56468,0.00123
2208.50451,0.00114
2206.44434,0.00165
2204.38417,0.00182
2202.32399,0.00143
2200.26382,0.00161
2198.20365,0.00236
2196.14348,0.00270
2194.08330,0.00239
2192.02313,0.00146
2189.96296,0.00087
2187.90279,0.00129
2185.84262,0.00179
2183.78244,0.00202
2181.72227,0.00278
2179.66210,0.00355
2177.60193,0.00320
2175.54176,0.00221
2173.48158,0.00177
2171.42141,0.00213
2169.36124,0.00273
2167.30107,0.00301
2165.24089,0.00267
2163.18072,0.00169
2161.12055,0.00065
2159.06038,0.00031
2157.00021,0.00042
2154.94003,0.00048
2152.87986,0.00103
2150.81969,0.00178
2148.75952,0.00137
2146.69935,0.00049
2144.63917,0.00058
2142.57900,0.00122
2140.51883,0.00159
2138.45866,0.00133
2136.39849,0.00112
2134.33831,0.00142
2132.27814,0.00173
2130.21797,0.00181
2128.15780,0.00160
2126.09762,0.00146
2124.03745,0.00185
2121.97728,0.00223
2119.91711,0.00228
2117.85694,0.00216
2115.79676,0.00217
2113.73659,0.00255
2111.67642,0.00278
2109.61625,0.00273
2107.55608,0.00268
2105.49590,0.00260
2103.43573,0.00247
2101.37556,0.00231
2099.31539,0.00226
2097.25521,0.00223
2095.19504,0.00207
2093.13487,0.00191
2091.07470,0.00175
2089.01453,0.00173
2086.95435,0.00201
2084.89418,0.00238
2082.83401,0.00260
2080.77384,0.00261
2078.71367,0.00241
2076.65349,0.00215
2074.59332,0.00209
2072.53315,0.00222
2070.47298,0.00228
2068.41281,0.00208
2066.35263,0.00175
2064.29246,0.00167
2062.23229,0.00202
2060.17212,0.00261
2058.11194,0.00279
2056.05177,0.00247
2053.99160,0.00236
2051.93143,0.00271
2049.87126,0.00292
2047.81108,0.00242
2045.75091,0.00155
2043.69074,0.00131
2041.63057,0.00199
2039.57040,0.00216
2037.51022,0.00122
2035.45005,0.00033
2033.38988,0.00000
2031.32971,0.00014
2029.26954,0.00052
2027.20936,0.00077
2025.14919,0.00114
2023.08902,0.00127
2021.02885,0.00078
2018.96867,0.00049
2016.90850,0.00063
2014.84833,0.00056
2012.78816,0.00043
2010.72799,0.00117
2008.66781,0.00227
2006.60764,0.00217
2004.54747,0.00103
2002.48730,0.00031
2000.42713,0.00071
1998.36695,0.00148
1996.30678,0.00178
1994.24661,0.00151
1992.18644,0.00089
1990.12626,0.00072
1988.06609,0.00142
1986.00592,0.00198
1983.94575,0.00170
1981.88558,0.00113
1979.82540,0.00090
1977.76523,0.00106
1975.70506,0.00122
1973.64489,0.00101
1971.58472,0.00089
1969.52454,0.00116
1967.46437,0.00168
1965.40420,0.00237
1963.34403,0.00234
1961.28386,0.00129
1959.22368,0.00031
1957.16351,0.00007
1955.10334,0.00013
1953.04317,0.00004
1950.98299,0.00000
1948.92282,0.00037
1946.86265,0.00087
1944.80248,0.00084
1942.74231,0.00047
1940.68213,0.00042
1938.62196,0.00061
1936.56179,0.00070
1934.50162,0.00070
1932.44145,0.00052
1930.38127,0.00017
1928.32110,0.00010
1926.26093,0.00047
1924.20076,0.00090
1922.14059,0.00119
1920.08041,0.00128
1918.02024,0.00122
1915.96007,0.00108
1913.89990,0.00087
1911.83972,0.00071
1909.77955,0.00070
1907.71938,0.00072
1905.65921,0.00074
1903.59904,0.00080
1901.53886,0.00077
1899.47869,0.00064
1897.41852,0.00061
1895.35835,0.00073
1893.29818,0.00064
1891.23800,0.00031
1889.17783,0.00012
1887.11766,0.00019
1885.05749,0.00022
1882.99731,0.00027
1880.93714,0.00060
1878.87697,0.00090
1876.81680,0.00079
1874.75663,0.00051
1872.69645,0.00044
1870.63628,0.00066
1868.57611,0.00090
1866.51594,0.00085
1864.45577,0.00069
1862.39559,0.00057
1860.33542,0.00043
1858.27525,0.00032
1856.21508,0.00033
1854.15491,0.00028
1852.09473,0.00016
1850.03456,0.00018
1847.97439,0.00019
1845.91422,-0.00011
1843.85404,-0.00034
1841.79387,-0.00009
1839.73370,0.00021
1837.67353,0.00022
1835.61336,0.00012
1833.55318,0.00008
1831.49301,0.00009
1829.43284,0.00011
1827.37267,0.00016
1825.31250,0.00029
1823.25232,0.00042
1821.19215,0.00037
1819.13198,0.00019
1817.07181,0.00013
1815.01163,0.00018
1812.95146,0.00012
1810.89129,-0.00004
1808.83112,-0.00012
1806.77095,-0.00012
1804.71077,-0.00014
1802.65060,-0.00019
1800.59043,-0.00021
1798.53026,-0.00022
1796.47009,-0.00024
1794.40991,-0.00030
1792.34974,-0.00033
1790.28957,-0.00027
1788.22940,-0.00011
1786.16923,0.00007
1784.10905,0.00017
1782.04888,0.00015
1779.98871,0.00006
1777.92854,0.00000
1775.86836,0.00002
1773.80819,0.00010
1771.74802,0.00026
1769.68785,0.00055
1767.62768,0.00082
1765.56750,0.00090
1763.50733,0.00091
1761.44716,0.00107
1759.38699,0.00145
1757.32682,0.00195
1755.26664,0.00244
1753.20647,0.00282
1751.14630,0.00318
1749.08613,0.00362
1747.02596,0.00413
1744.96578,0.00458
1742.90561,0.00495
1740.84544,0.00523
1738.78527,0.00540
1736.72509,0.00545
1734.66492,0.00552
1732.60475,0.00570
1730.54458,0.00592
1728.48441,0.00606
1726.42423,0.00608
1724.36406,0.00600
1722.30389,0.00588
1720.24372,0.00568
1718.18355,0.00533
1716.12337,0.00493
1714.06320,0.00462
1712.00303,0.00430
1709.94286,0.00391
1707.88268,0.00350
1705.82251,0.00318
1703.76234,0.00299
1701.70217,0.00281
1699.64200,0.00261
1697.58182,0.00263
1695.52165,0.00289
1693.46148,0.00313
1691.40131,0.00328
1689.34114,0.00340
1687.28096,0.00353
1685.22079,0.00376
1683.16062,0.00430
1681.10045,0.00496
1679.04028,0.00546
1676.98010,0.00585
1674.91993,0.00627
1672.85976,0.00673
1670.79959,0.00724
1668.73941,0.00788
1666.67924,0.00849
1664.61907,0.00894
1662.55890,0.00939
1660.49873,0.00995
1658.43855,0.01047
1656.37838,0.01083
1654.31821,0.01111
1652.25804,0.01156
1650.19787,0.01210
1648.13769,0.01258
1646.07752,0.01298
1644.01735,0.01325
1641.95718,0.01340
1639.89701,0.01348
1637.83683,0.01362
1635.77666,0.01385
1633.71649,0.01404
1631.65632,0.01412
1629.59614,0.01413
1627.53597,0.01414
1625.47580,0.01427
1623.41563,0.01445
1621.35546,0.01454
1619.29528,0.01443
1617.23511,0.01426
1615.17494,0.01429
1613.11477,0.01435
1611.05460,0.01414
1608.99442,0.01377
1606.93425,0.01344
1604.87408,0.01310
1602.81391,0.01259
1600.75373,0.01195
1598.69356,0.01128
1596.63339,0.01058
1594.57322,0.00982
1592.51305,0.00907
1590.45287,0.00834
1588.39270,0.00761
1586.33253,0.00686
1584.27236,0.00616
1582.21219,0.00556
1580.15201,0.00503
1578.09184,0.00444
1576.03167,0.00383
1573.97150,0.00345
1571.91133,0.00319
1569.85115,0.00283
1567.79098,0.00247
1565.73081,0.00226
1563.67064,0.00215
1561.61046,0.00197
1559.55029,0.00167
1557.49012,0.00151
1555.42995,0.00150
1553.36978,0.00141
1551.30960,0.00120
1549.24943,0.00094
1547.18926,0.00079
1545.12909,0.00073
1543.06892,0.00065
1541.00874,0.00059
1538.94857,0.00064
1536.88840,0.00068
1534.82823,0.00055
1532.76805,0.00028
1530.70788,0.00006
1528.64771,0.00000
1526.58754,0.00008
1524.52737,0.00022
1522.46719,0.00030
1520.40702,0.00034
1518.34685,0.00036
1516.28668,0.00035
1514.22651,0.00033
1512.16633,0.00040
1510.10616,0.00059
1508.04599,0.00065
1505.98582,0.00045
1503.92565,0.00031
1501.86547,0.00038
1499.80530,0.00053
1497.74513,0.00066
1495.68496,0.00073
1493.62478,0.00070
1491.56461,0.00061
1489.50444,0.00067
1487.44427,0.00099
1485.38410,0.00132
1483.32392,0.00152
1481.26375,0.00167
1479.20358,0.00190
1477.14341,0.00225
1475.08324,0.00275
1473.02306,0.00343
1470.96289,0.00416
1468.90272,0.00474
1466.84255,0.00519
1464.78238,0.00563
1462.72220,0.00603
1460.66203,0.00631
1458.60186,0.00650
1456.54169,0.00681
1454.48151,0.00719
1452.42134,0.00752
1450.36117,0.00778
1448.30100,0.00801
1446.24083,0.00822
1444.18065,0.00843
1442.12048,0.00870
1440.06031,0.00899
1438.00014,0.00927
1435.93997,0.00958
1433.87979,0.00988
1431.81962,0.01020
1429.75945,0.01065
1427.69928,0.01117
1425.63910,0.01154
1423.57893,0.01176
1421.51876,0.01197
1419.45859,0.01223
1417.39842,0.01249
1415.33824,0.01268
1413.27807,0.01279
1411.21790,0.01278
1409.15773,0.01261
1407.09756,0.01235
1405.03738,0.01209
1402.97721,0.01183
1400.91704,0.01154
1398.85687,0.01122
1396.79670,0.01086
1394.73652,0.01054
1392.67635,0.01040
1390.61618,0.01039
1388.55601,0.01037
1386.49583,0.01038
1384.43566,0.01056
1382.37549,0.01091
1380.31532,0.01132
1378.25515,0.01169
1376.19497,0.01196
1374.13480,0.01217
1372.07463,0.01229
1370.01446,0.01228
1367.95429,0.01214
1365.89411,0.01197
1363.83394,0.01186
1361.77377,0.01179
1359.71360,0.01163
1357.65343,0.01139
1355.59325,0.01119
1353.53308,0.01111
1351.47291,0.01110
1349.41274,0.01099
1347.35256,0.01076
1345.29239,0.01052
1343.23222,0.01034
1341.17205,0.01020
1339.11188,0.01006
1337.05170,0.01000
1334.99153,0.01005
1332.93136,0.01014
1330.87119,0.01019
1328.81102,0.01020
1326.75084,0.01019
1324.69067,0.01022
1322.63050,0.01031
1320.57033,0.01042
1318.51015,0.01058
1316.44998,0.01076
1314.38981,0.01091
1312.32964,0.01089
1310.26947,0.01068
1308.20929,0.01040
1306.14912,0.01012
1304.08895,0.00985
1302.02878,0.00962
1299.96861,0.00938
1297.90843,0.00908
1295.84826,0.00892
1293.78809,0.00893
1291.72792,0.00893
1289.66775,0.00887
1287.60757,0.00882
1285.54740,0.00880
1283.48723,0.00875
1281.42706,0.00869
1279.36688,0.00869
1277.30671,0.00871
1275.24654,0.00877
1273.18637,0.00897
1271.12620,0.00931
1269.06602,0.00968
1267.00585,0.01012
1264.94568,0.01069
1262.88551,0.01128
1260.82534,0.01173
1258.76516,0.01203
1256.70499,0.01232
1254.64482,0.01268
1252.58465,0.01300
1250.52447,0.01317
1248.46430,0.01321
1246.40413,0.01318
1244.34396,0.01315
1242.28379,0.01308
1240.22361,0.01289
1238.16344,0.01260
1236.10327,0.01221
1234.04310,0.01179
1231.98293,0.01140
1229.92275,0.01106
1227.86258,0.01065
1225.80241,0.01021
1223.74224,0.00979
1221.68207,0.00932
1219.62189,0.00875
1217.56172,0.00822
1215.50155,0.00772
1213.44138,0.00716
1211.38120,0.00657
1209.32103,0.00595
1207.26086,0.00518
1205.20069,0.00435
1203.14052,0.00364
1201.08034,0.00293
1199.02017,0.00213
1196.96000,0.00133
1194.89983,0.00069
1192.83966,0.00032
1190.77948,0.00012
1188.71931,0.00000
1186.65914,-0.00008
1184.59897,0.00008
1182.53880,0.00043
1180.47862,0.00092
1178.41845,0.00152
1176.35828,0.00225
1174.29811,0.00307
1172.23793,0.00399
1170.17776,0.00494
1168.11759,0.00587
1166.05742,0.00682
1163.99725,0.00779
1161.93707,0.00871
1159.87690,0.00954
1157.81673,0.01031
1155.75656,0.01107
1153.69639,0.01180
1151.63621,0.01257
1149.57604,0.01341
1147.51587,0.01406
1145.45570,0.01443
1143.39552,0.01469
1141.33535,0.01487
1139.27518,0.01498
1137.21501,0.01520
1135.15484,0.01562
1133.09466,0.01613
1131.03449,0.01664
1128.97432,0.01722
1126.91415,0.01788
1124.85398,0.01862
1122.79380,0.01940
1120.73363,0.02012
1118.67346,0.02075
1116.61329,0.02139
1114.55312,0.02215
1112.49294,0.02295
1110.43277,0.02367
1108.37260,0.02434
1106.31243,0.02503
1104.25225,0.02582
1102.19208,0.02689
1100.13191,0.02819
1098.07174,0.02945
1096.01157,0.03060
1093.95139,0.03172
1091.89122,0.03293
1089.83105,0.03418
1087.77088,0.03522
1085.71071,0.03605
1083.65053,0.03691
1081.59036,0.03780
1079.53019,0.03875
1077.47002,0.03987
1075.40985,0.04105
1073.34967,0.04213
1071.28950,0.04307
1069.22933,0.04381
1067.16916,0.04437
1065.10898,0.04482
1063.04881,0.04515
1060.98864,0.04538
1058.92847,0.04573
1056.86830,0.04626
1054.80812,0.04689
1052.74795,0.04751
1050.68778,0.04813
1048.62761,0.04887
1046.56744,0.04975
1044.50726,0.05074
1042.44709,0.05160
1040.38692,0.05223
1038.32675,0.05277
1036.26657,0.05333
1034.20640,0.05382
1032.14623,0.05415
1030.08606,0.05426
1028.02589,0.05415
1025.96571,0.05384
1023.90554,0.05357
1021.84537,0.05345
1019.78520,0.05353
1017.72503,0.05382
1015.66485,0.05405
1013.60468,0.05406
1011.54451,0.05402
1009.48434,0.05388
1007.42417,0.05355
1005.36399,0.05320
1003.30382,0.05285
1001.24365,0.05230
999.18348,0.05156
997.12330,0.05081
995.06313,0.05009
993.00296,0.04940
990.94279,0.04871
988.88262,0.04811
986.82244,0.04768
984.76227,0.04724
982.70210,0.04666
980.64193,0.04604
978.58176,0.04553
976.52158,0.04509
974.46141,0.04455
972.40124,0.04394
970.34107,0.04325
968.28089,0.04247
966.22072,0.04176
964.16055,0.04109
962.10038,0.04036
960.04021,0.03959
957.98003,0.03901
955.91986,0.03863
953.85969,0.03803
951.79952,0.03713
949.73935,0.03626
947.67917,0.03529
945.61900,0.03392
943.55883,0.03229
941.49866,0.03055
939.43849,0.02871
937.37831,0.02666
935.31814,0.02435
933.25797,0.02196
931.19780,0.01977
929.13762,0.01807
927.07745,0.01675
925.01728,0.01557
922.95711,0.01446
920.89694,0.01334
918.83676,0.01236
916.77659,0.01153
914.71642,0.01072
912.65625,0.00991
910.59608,0.00909
908.53590,0.00843
906.47573,0.00807
904.41556,0.00779
902.35539,0.00764
900.29522,0.00775
898.23504,0.00803
896.17487,0.00836
894.11470,0.00854
892.05453,0.00843
889.99435,0.00810
887.93418,0.00753
885.87401,0.00680
883.81384,0.00623
881.75367,0.00578
879.69349,0.00551
877.63332,0.00540
875.57315,0.00506
873.51298,0.00445
871.45281,0.00406
869.39263,0.00396
867.33246,0.00388
865.27229,0.00370
863.21212,0.00350
861.15194,0.00352
859.09177,0.00361
857.03160,0.00346
854.97143,0.00324
852.91126,0.00305
850.85108,0.00292
848.79091,0.00293
846.73074,0.00288
844.67057,0.00254
842.61040,0.00195
840.55022,0.00138
838.49005,0.00096
836.42988,0.00052
834.36971,0.00021
832.30954,0.00000
830.24936,-0.00015
828.18919,0.00005
826.12902,0.00029
824.06885,0.00023
822.00867,0.00001
819.94850,-0.00004
817.88833,0.00009
815.82816,0.00021
813.76799,0.00048
811.70781,0.00095
809.64764,0.00139
807.58747,0.00162
805.52730,0.00159
803.46713,0.00158
801.40695,0.00163
799.34678,0.00139
797.28661,0.00100
795.22644,0.00087
793.16627,0.00089
791.10609,0.00086
789.04592,0.00084
786.98575,0.00076
784.92558,0.00053
782.86540,0.00028
780.80523,0.00025
778.74506,0.00026
776.68489,0.00026
774.62472,0.00047
772.56454,0.00073
770.50437,0.00077
768.44420,0.00058
766.38403,0.00056
764.32386,0.00070
762.26368,0.00075
760.20351,0.00093
758.14334,0.00098
756.08317,0.00054
754.02299,0.00011
751.96282,0.00000
749.90265,-0.00013
747.84248,-0.00019
745.78231,-0.00010
743.72213,-0.00001
741.66196,-0.00003
739.60179,-0.00005
737.54162,-0.00020
735.48145,-0.00055
733.42127,-0.00075
731.36110,-0.00049
729.30093,0.00007
727.24076,0.00040
725.18059,0.00028
723.12041,0.00027
721.06024,0.00047
719.00007,0.00123
716.93990,0.00154
714.87972,0.00110
712.81955,0.00060
710.75938,0.00053
708.69921,0.00109
706.63904,0.00224
704.57886,0.00342
702.51869,0.00384
700.45852,0.00343
698.39835,0.00280
696.33818,0.00235
694.27800,0.00220
692.21783,0.00237
690.15766,0.00260
688.09749,0.00250
686.03731,0.00171
683.97714,0.00053
681.91697,0.00000
679.85680,0.00045
677.79663,0.00136
675.73645,0.00185
673.67628,0.00198
671.61611,0.00200
669.55594,-0.00005
667.49577,-0.00185
665.43559,0.00115
663.37542,0.00128
661.31525,0.00113
659.25508,0.00169
657.19491,0.00208
655.13473,0.00205
653.07456,0.00170
651.01439,0.00115
648.95422,0.00097
646.89404,0.00147
644.83387,0.00190
642.77370,0.00179
640.71353,0.00131
638.65336,0.00106
636.59318,0.00110
634.53301,0.00110
632.47284,0.00147
630.41267,0.00247
628.35250,0.00320
626.29232,0.00292
624.23215,0.00260
622.17198,0.00270
620.11181,0.00231
618.05164,0.00170
615.99146,0.00140
613.93129,0.00070
611.87112,-0.00062
609.81095,-0.00217
607.75077,-0.00291
605.69060,-0.00197
603.63043,-0.00013
601.57026,0.00089
599.51009,0.00000
