3996.73391,0.00062
3994.67373,0.00043
3992.61356,0.00027
3990.55339,0.00014
3988.49322,0.00013
3986.43305,0.00011
3984.37287,0.00002
3982.31270,-0.00004
3980.25253,-0.00002
3978.19236,0.00008
3976.13219,0.00007
3974.07201,0.00000
3972.01184,0.00018
3969.95167,0.00054
3967.89150,0.00065
3965.83133,0.00035
3963.77115,0.00014
3961.71098,0.00037
3959.65081,0.00073
3957.59064,0.00089
3955.53046,0.00079
3953.47029,0.00059
3951.41012,0.00054
3949.34995,0.00058
3947.28978,0.00056
3945.22960,0.00064
3943.16943,0.00084
3941.10926,0.00103
3939.04909,0.00126
3936.98892,0.00143
3934.92874,0.00150
3932.86857,0.00147
3930.80840,0.00113
3928.74823,0.00058
3926.68805,0.00052
3924.62788,0.00112
3922.56771,0.00169
3920.50754,0.00178
3918.44737,0.00159
3916.38719,0.00118
3914.32702,0.00070
3912.26685,0.00061
3910.20668,0.00090
3908.14651,0.00108
3906.08633,0.00115
3904.02616,0.00138
3901.96599,0.00137
3899.90582,0.00088
3897.84565,0.00032
3895.78547,0.00000
3893.72530,0.00011
3891.66513,0.00079
3889.60496,0.00161
3887.54478,0.00189
3885.48461,0.00175
3883.42444,0.00173
3881.36427,0.00178
3879.30410,0.00154
3877.24392,0.00113
3875.18375,0.00080
3873.12358,0.00072
3871.06341,0.00107
3869.00324,0.00141
3866.94306,0.00126
3864.88289,0.00106
3862.82272,0.00107
3860.76255,0.00117
3858.70237,0.00133
3856.64220,0.00152
3854.58203,0.00169
3852.52186,0.00188
3850.46169,0.00186
3848.40151,0.00152
3846.34134,0.00119
3844.28117,0.00129
3842.22100,0.00172
3840.16083,0.00219
3838.10065,0.00264
3836.04048,0.00260
3833.98031,0.00198
3831.92014,0.00145
3829.85997,0.00131
3827.79979,0.00144
3825.73962,0.00157
3823.67945,0.00141
3821.61928,0.00100
3819.55910,0.00082
3817.49893,0.00091
3815.43876,0.00097
3813.37859,0.00105
3811.31842,0.00108
3809.25824,0.00089
3807.19807,0.00051
3805.13790,0.00021
3803.07773,0.00038
3801.01756,0.00102
3798.95738,0.00148
3796.89721,0.00150
3794.83704,0.00127
3792.77687,0.00102
3790.71670,0.00099
3788.65652,0.00099
3786.59635,0.00072
3784.53618,0.00046
3782.47601,0.00060
3780.41583,0.00091
3778.35566,0.00100
3776.29549,0.00094
3774.23532,0.00097
3772.17515,0.00120
3770.11497,0.00168
3768.05480,0.00205
3765.99463,0.00174
3763.93446,0.00113
3761.87429,0.00099
3759.81411,0.00110
3757.75394,0.00094
3755.69377,0.00094
3753.63360,0.00151
3751.57342,0.00201
3749.51325,0.00161
3747.45308,0.00068
3745.39291,0.00020
3743.33274,0.00049
3741.27256,0.00085
3739.21239,0.00065
3737.15222,0.00012
3735.09205,0.00000
3733.03188,0.00047
3730.97170,0.00105
3728.91153,0.00128
3726.85136,0.00131
3724.79119,0.00126
3722.73102,0.00090
3720.67084,0.00037
3718.61067,0.00016
3716.55050,0.00062
3714.49033,0.00114
3712.43015,0.00105
3710.36998,0.00060
3708.30981,0.00024
3706.24964,0.00031
3704.18947,0.00069
3702.12929,0.00102
3700.06912,0.00119
3698.00895,0.00119
3695.94878,0.00097
3693.88861,0.00063
3691.82843,0.00031
3689.76826,0.00020
3687.70809,0.00045
3685.64792,0.00052
3683.58775,0.00036
3681.52757,0.00021
3679.46740,0.00008
3677.40723,0.00000
3675.34706,0.00005
3673.28688,0.00004
3671.22671,0.00012
3669.16654,0.00044
3667.10637,0.00080
3665.04620,0.00118
3662.98602,0.00172
3660.92585,0.00220
3658.86568,0.00210
3656.80551,0.00145
3654.74534,0.00097
3652.68516,0.00102
3650.62499,0.00153
3648.56482,0.00193
3646.50465,0.00153
3644.44447,0.00110
3642.38430,0.00137
3640.32413,0.00204
3638.26396,0.00251
3636.20379,0.00257
3634.14361,0.00239
3632.08344,0.00236
3630.02327,0.00273
3627.96310,0.00318
3625.90293,0.00305
3623.84275,0.00250
3621.78258,0.00203
3619.72241,0.00204
3617.66224,0.00253
3615.60207,0.00308
3613.54189,0.00352
3611.48172,0.00372
3609.42155,0.00373
3607.36138,0.00373
3605.30120,0.00372
3603.24103,0.00378
3601.18086,0.00397
3599.12069,0.00432
3597.06052,0.00476
3595.00034,0.00525
3592.94017,0.00552
3590.88000,0.00567
3588.81983,0.00599
3586.75966,0.00618
3584.69948,0.00587
3582.63931,0.00580
3580.57914,0.00631
3578.51897,0.00678
3576.45879,0.00686
3574.39862,0.00678
3572.33845,0.00680
3570.27828,0.00723
3568.21811,0.00820
3566.15793,0.00903
3564.09776,0.00912
3562.03759,0.00877
3559.97742,0.00859
3557.91725,0.00872
3555.85707,0.00889
3553.79690,0.00908
3551.73673,0.00942
3549.67656,0.00983
3547.61639,0.01033
3545.55621,0.01094
3543.49604,0.01148
3541.43587,0.01186
3539.37570,0.01224
3537.31552,0.01265
3535.25535,0.01282
3533.19518,0.01267
3531.13501,0.01265
3529.07484,0.01318
3527.01466,0.01411
3524.95449,0.01473
3522.89432,0.01481
3520.83415,0.01491
3518.77398,0.01526
3516.71380,0.01556
3514.65363,0.01592
3512.59346,0.01646
3510.53329,0.01677
3508.47312,0.01671
3506.41294,0.01679
3504.35277,0.01729
3502.29260,0.01783
3500.23243,0.01808
3498.17225,0.01826
3496.11208,0.01854
3494.05191,0.01884
3491.99174,0.01934
3489.93157,0.02001
3487.87139,0.02039
3485.81122,0.02055
3483.75105,0.02098
3481.69088,0.02141
3479.63071,0.02150
3477.57053,0.02151
3475.51036,0.02160
3473.45019,0.02186
3471.39002,0.02249
3469.32984,0.02308
3467.26967,0.02319
3465.20950,0.02329
3463.14933,0.02389
3461.08916,0.02458
3459.02898,0.02483
3456.96881,0.02465
3454.90864,0.02447
3452.84847,0.02468
3450.78830,0.02524
3448.72812,0.02595
3446.66795,0.02666
3444.60778,0.02702
3442.54761,0.02687
3440.48744,0.02649
3438.42726,0.02648
3436.36709,0.02710
3434.30692,0.02776
3432.24675,0.02806
3430.18657,0.02831
3428.12640,0.02861
3426.06623,0.02859
3424.00606,0.02855
3421.94589,0.02918
3419.88571,0.03001
3417.82554,0.03024
3415.76537,0.03027
3413.70520,0.03041
3411.64503,0.03051
3409.58485,0.03061
3407.52468,0.03085
3405.46451,0.03126
3403.40434,0.03164
3401.34416,0.03178
3399.28399,0.03190
3397.22382,0.03216
3395.16365,0.03241
3393.10348,0.03285
3391.04330,0.03360
3388.98313,0.03402
3386.92296,0.03391
3384.86279,0.03372
3382.80262,0.03374
3380.74244,0.03402
3378.68227,0.03458
3376.62210,0.03523
3374.56193,0.03559
3372.50176,0.03552
3370.44158,0.03536
3368.38141,0.03543
3366.32124,0.03556
3364.26107,0.03567
3362.20089,0.03564
3360.14072,0.03537
3358.08055,0.03523
3356.02038,0.03553
3353.96021,0.03613
3351.90003,0.03670
3349.83986,0.03674
3347.77969,0.03614
3345.71952,0.03576
3343.65935,0.03613
3341.59917,0.03670
3339.53900,0.03704
3337.47883,0.03715
3335.41866,0.03699
3333.35849,0.03702
3331.29831,0.03763
3329.23814,0.03804
3327.17797,0.03776
3325.11780,0.03767
3323.05762,0.03807
3320.99745,0.03813
3318.93728,0.03781
3316.87711,0.03774
3314.81694,0.03795
3312.75676,0.03801
3310.69659,0.03793
3308.63642,0.03789
3306.57625,0.03783
3304.51608,0.03780
3302.45590,0.03805
3300.39573,0.03855
3298.33556,0.03893
3296.27539,0.03878
3294.21521,0.03832
3292.15504,0.03813
3290.09487,0.03819
3288.03470,0.03822
3285.97453,0.03813
3283.91435,0.03799
3281.85418,0.03800
3279.79401,0.03817
3277.73384,0.03843
3275.67367,0.03865
3273.61349,0.03861
3271.55332,0.03837
3269.49315,0.03813
3267.43298,0.03809
3265.37281,0.03835
3263.31263,0.03873
3261.25246,0.03898
3259.19229,0.03902
3257.13212,0.03881
3255.07194,0.03839
3253.01177,0.03808
3250.95160,0.03800
3248.89143,0.03796
3246.83126,0.03791
3244.77108,0.03793
3242.71091,0.03804
3240.65074,0.03798
3238.59057,0.03760
3236.53040,0.03722
3234.47022,0.03700
3232.41005,0.03674
3230.34988,0.03658
3228.28971,0.03670
3226.22954,0.03681
3224.16936,0.03682
3222.10919,0.03683
3220.04902,0.03675
3217.98885,0.03683
3215.92867,0.03711
3213.86850,0.03722
3211.80833,0.03704
3209.74816,0.03668
3207.68799,0.03616
3205.62781,0.03567
3203.56764,0.03551
3201.50747,0.03572
3199.44730,0.03591
3197.38713,0.03580
3195.32695,0.03549
3193.26678,0.03525
3191.20661,0.03511
3189.14644,0.03489
3187.08626,0.03457
3185.02609,0.03423
3182.96592,0.03398
3180.90575,0.03390
3178.84558,0.03387
3176.78540,0.03359
3174.72523,0.03333
3172.66506,0.03324
3170.60489,0.03300
3168.54472,0.03278
3166.48454,0.03282
3164.42437,0.03282
3162.36420,0.03264
3160.30403,0.03246
3158.24386,0.03228
3156.18368,0.03206
3154.12351,0.03182
3152.06334,0.03140
3150.00317,0.03075
3147.94299,0.03029
3145.88282,0.03021
3143.82265,0.03017
3141.76248,0.03006
3139.70231,0.03002
3137.64213,0.03003
3135.58196,0.02989
3133.52179,0.02948
3131.46162,0.02898
3129.40145,0.02870
3127.34127,0.02866
3125.28110,0.02866
3123.22093,0.02862
3121.16076,0.02868
3119.10058,0.02880
3117.04041,0.02860
3114.98024,0.02802
3112.92007,0.02740
3110.85990,0.02703
3108.79972,0.02698
3106.73955,0.02714
3104.67938,0.02713
3102.61921,0.02682
3100.55904,0.02644
3098.49886,0.02620
3096.43869,0.02620
3094.37852,0.02622
3092.31835,0.02605
3090.25818,0.02567
3088.19800,0.02523
3086.13783,0.02500
3084.07766,0.02494
3082.01749,0.02482
3079.95731,0.02464
3077.89714,0.02429
3075.83697,0.02390
3073.77680,0.02376
3071.71663,0.02373
3069.65645,0.02346
3067.59628,0.02292
3065.53611,0.02251
3063.47594,0.02251
3061.41577,0.02270
3059.35559,0.02268
3057.29542,0.02235
3055.23525,0.02214
3053.17508,0.02223
3051.11491,0.02222
3049.05473,0.02193
3046.99456,0.02156
3044.93439,0.02130
3042.87422,0.02121
3040.81404,0.02107
3038.75387,0.02076
3036.69370,0.02051
3034.63353,0.02036
3032.57336,0.02005
3030.51318,0.01958
3028.45301,0.01939
3026.39284,0.01971
3024.33267,0.02007
3022.27250,0.01993
3020.21232,0.01946
3018.15215,0.01930
3016.09198,0.01952
3014.03181,0.01961
3011.97163,0.01945
3009.91146,0.01911
3007.85129,0.01859
3005.79112,0.01818
3003.73095,0.01798
3001.67077,0.01796
2999.61060,0.01797
2997.55043,0.01772
2995.49026,0.01744
2993.43009,0.01745
2991.36991,0.01752
2989.30974,0.01755
2987.24957,0.01760
2985.18940,0.01756
2983.12923,0.01737
2981.06905,0.01733
2979.00888,0.01763
2976.94871,0.01827
2974.88854,0.01912
2972.82836,0.01979
2970.76819,0.02018
2968.70802,0.02047
2966.64785,0.02100
2964.58768,0.02192
2962.52750,0.02311
2960.46733,0.02439
2958.40716,0.02564
2956.34699,0.02684
2954.28682,0.02809
2952.22664,0.02926
2950.16647,0.03042
2948.10630,0.03184
2946.04613,0.03336
2943.98596,0.03488
2941.92578,0.03667
2939.86561,0.03859
2937.80544,0.04033
2935.74527,0.04190
2933.68509,0.04339
2931.62492,0.04511
2929.56475,0.04699
2927.50458,0.04841
2925.44441,0.04925
2923.38423,0.04999
2921.32406,0.05073
2919.26389,0.05108
2917.20372,0.05086
2915.14355,0.04990
2913.08337,0.04807
2911.02320,0.04598
2908.96303,0.04416
2906.90286,0.04273
2904.84268,0.04163
2902.78251,0.04052
2900.72234,0.03938
2898.66217,0.03854
2896.60200,0.03768
2894.54182,0.03662
2892.48165,0.03573
2890.42148,0.03499
2888.36131,0.03437
2886.30114,0.03381
2884.24096,0.03314
2882.18079,0.03237
2880.12062,0.03178
2878.06045,0.03155
2876.00028,0.03173
2873.94010,0.03221
2871.87993,0.03268
2869.81976,0.03299
2867.75959,0.03336
2865.69941,0.03408
2863.63924,0.03511
2861.57907,0.03618
2859.51890,0.03731
2857.45873,0.03853
2855.39855,0.03968
2853.33838,0.04065
2851.27821,0.04131
2849.21804,0.04103
2847.15787,0.03947
2845.09769,0.03719
2843.03752,0.03469
2840.97735,0.03237
2838.91718,0.03050
2836.85700,0.02905
2834.79683,0.02797
2832.73666,0.02723
2830.67649,0.02666
2828.61632,0.02605
2826.55614,0.02545
2824.49597,0.02483
2822.43580,0.02422
2820.37563,0.02380
2818.31546,0.02348
2816.25528,0.02309
2814.19511,0.02274
2812.13494,0.02244
2810.07477,0.02216
2808.01460,0.02198
2805.95442,0.02174
2803.89425,0.02140
2801.83408,0.02120
2799.77391,0.02108
2797.71373,0.02083
2795.65356,0.02060
2793.59339,0.02049
2791.53322,0.02038
2789.47305,0.02020
2787.41287,0.01987
2785.35270,0.01948
2783.29253,0.01917
2781.23236,0.01905
2779.17219,0.01913
2777.11201,0.01919
2775.05184,0.01909
2772.99167,0.01897
2770.93150,0.01884
2768.87133,0.01867
2766.81115,0.01851
2764.75098,0.01853
2762.69081,0.01875
2760.63064,0.01888
2758.57046,0.01865
2756.51029,0.01828
2754.45012,0.01800
2752.38995,0.01785
2750.32978,0.01796
2748.26960,0.01813
2746.20943,0.01814
2744.14926,0.01810
2742.08909,0.01798
2740.02892,0.01779
2737.96874,0.01764
2735.90857,0.01756
2733.84840,0.01752
2731.78823,0.01763
2729.72805,0.01774
2727.66788,0.01765
2725.60771,0.01754
2723.54754,0.01756
2721.48737,0.01766
2719.42719,0.01771
2717.36702,0.01761
2715.30685,0.01743
2713.24668,0.01728
2711.18651,0.01710
2709.12633,0.01687
2707.06616,0.01672
2705.00599,0.01678
2702.94582,0.01688
2700.88565,0.01676
2698.82547,0.01660
2696.76530,0.01653
2694.70513,0.01637
2692.64496,0.01628
2690.58478,0.01648
2688.52461,0.01670
2686.46444,0.01675
2684.40427,0.01671
2682.34410,0.01649
2680.28392,0.01614
2678.22375,0.01606
2676.16358,0.01626
2674.10341,0.01647
2672.04324,0.01662
2669.98306,0.01675
2667.92289,0.01669
2665.86272,0.01646
2663.80255,0.01633
2661.74238,0.01631
2659.68220,0.01624
2657.62203,0.01612
2655.56186,0.01604
2653.50169,0.01598
2651.44151,0.01594
2649.38134,0.01597
2647.32117,0.01602
2645.26100,0.01586
2643.20083,0.01559
2641.14065,0.01551
2639.08048,0.01561
2637.02031,0.01557
2634.96014,0.01511
2632.89997,0.01458
2630.83979,0.01441
2628.77962,0.01455
2626.71945,0.01467
2624.65928,0.01470
2622.59910,0.01461
2620.53893,0.01430
2618.47876,0.01399
2616.41859,0.01393
2614.35842,0.01389
2612.29824,0.01376
2610.23807,0.01380
2608.17790,0.01399
2606.11773,0.01412
2604.05756,0.01399
2601.99738,0.01355
2599.93721,0.01322
2597.87704,0.01346
2595.81687,0.01389
2593.75670,0.01403
2591.69652,0.01413
2589.63635,0.01412
2587.57618,0.01384
2585.51601,0.01346
2583.45583,0.01302
2581.39566,0.01280
2579.33549,0.01287
2577.27532,0.01280
2575.21515,0.01265
2573.15497,0.01255
2571.09480,0.01236
2569.03463,0.01258
2566.97446,0.01308
2564.91429,0.01314
2562.85411,0.01280
2560.79394,0.01245
2558.73377,0.01237
2556.67360,0.01244
2554.61342,0.01235
2552.55325,0.01215
2550.49308,0.01211
2548.43291,0.01219
2546.37274,0.01196
2544.31256,0.01163
2542.25239,0.01159
2540.19222,0.01170
2538.13205,0.01183
2536.07188,0.01191
2534.01170,0.01184
2531.95153,0.01181
2529.89136,0.01190
2527.83119,0.01190
2525.77102,0.01201
2523.71084,0.01249
2521.65067,0.01263
2519.59050,0.01195
2517.53033,0.01156
2515.47015,0.01197
2513.40998,0.01212
2511.34981,0.01170
2509.28964,0.01118
2507.22947,0.01091
2505.16929,0.01095
2503.10912,0.01096
2501.04895,0.01063
2498.98878,0.01016
2496.92861,0.01009
2494.86843,0.01025
2492.80826,0.01023
2490.74809,0.01027
2488.68792,0.01048
2486.62775,0.01061
2484.56757,0.01070
2482.50740,0.01074
2480.44723,0.01077
2478.38706,0.01095
2476.32688,0.01105
2474.26671,0.01080
2472.20654,0.01037
2470.14637,0.01025
2468.08620,0.01066
2466.02602,0.01124
2463.96585,0.01148
2461.90568,0.01130
2459.84551,0.01086
2457.78534,0.01051
2455.72516,0.01044
2453.66499,0.01046
2451.60482,0.01047
2449.54465,0.01017
2447.48447,0.00957
2445.42430,0.00934
2443.36413,0.00942
2441.30396,0.00939
2439.24379,0.00945
2437.18361,0.00971
2435.12344,0.01005
2433.06327,0.01028
2431.00310,0.01027
2428.94293,0.01032
2426.88275,0.01024
2424.82258,0.00979
2422.76241,0.00963
2420.70224,0.00969
2418.64207,0.00953
2416.58189,0.00968
2414.52172,0.01035
2412.46155,0.01080
2410.40138,0.01054
2408.34120,0.00985
2406.28103,0.00946
2404.22086,0.00960
2402.16069,0.00981
2400.10052,0.00981
2398.04034,0.00944
2395.98017,0.00934
2393.92000,0.00927
2391.85983,0.00919
2389.79966,0.00934
2387.73948,0.00960
2385.67931,0.00967
2383.61914,0.00940
2381.55897,0.00901
2379.49880,0.00904
2377.43862,0.00953
2375.37845,0.00945
2373.31828,0.00872
2371.25811,0.00780
2369.19793,0.00677
2367.13776,0.00724
2365.07759,0.00999
2363.01742,0.01117
2360.95725,0.01061
2358.89707,0.00907
2356.83690,0.00929
2354.77673,0.01107
2352.71656,0.01238
2350.65639,0.01470
2348.59621,0.01585
2346.53604,0.01249
2344.47587,0.01109
2342.41570,0.01104
2340.35552,0.01119
2338.29535,0.01105
2336.23518,0.00995
2334.17501,0.00913
2332.11484,0.00929
2330.05466,0.01067
2327.99449,0.01160
2325.93432,0.01165
2323.87415,0.01007
2321.81398,0.00886
2319.75380,0.00873
2317.69363,0.00994
2315.63346,0.01068
2313.57329,0.01039
2311.51312,0.00979
2309.45294,0.00947
2307.39277,0.00936
2305.33260,0.00936
2303.27243,0.00956
2301.21225,0.00959
2299.15208,0.00955
2297.09191,0.00938
2295.03174,0.00925
2292.97157,0.00925
2290.91139,0.00898
2288.85122,0.00861
2286.79105,0.00864
2284.73088,0.00893
2282.67071,0.00893
2280.61053,0.00859
2278.55036,0.00832
2276.49019,0.00843
2274.43002,0.00896
2272.36984,0.00950
2270.30967,0.00928
2268.24950,0.00810
2266.18933,0.00681
2264.12916,0.00645
2262.06898,0.00687
2260.00881,0.00725
2257.94864,0.00737
2255.88847,0.00741
2253.82830,0.00747
2251.76812,0.00727
2249.70795,0.00662
2247.64778,0.00633
2245.58761,0.00713
2243.52744,0.00842
2241.46726,0.00836
2239.40709,0.00705
2237.34692,0.00592
2235.28675,0.00528
2233.22657,0.00546
2231.16640,0.00590
2229.10623,0.00571
2227.04606,0.00567
2224.98589,0.00652
2222.92571,0.00732
2220.86554,0.00687
2218.80537,0.00576
2216.74520,0.00544
2214.68503,0.00564
2212.62485,0.00563
2210.56468,0.00636
2208.50451,0.00711
2206.44434,0.00668
2204.38417,0.00618
2202.32399,0.00577
2200.26382,0.00542
2198.20365,0.00572
2196.14348,0.00642
2194.08330,0.00721
2192.02313,0.00763
2189.96296,0.00717
2187.90279,0.00673
2185.84262,0.00760
2183.78244,0.00865
2181.72227,0.00821
2179.66210,0.00750
2177.60193,0.00791
2175.54176,0.00842
2173.48158,0.00804
2171.42141,0.00708
2169.36124,0.00631
2167.30107,0.00612
2165.24089,0.00691
2163.18072,0.00766
2161.12055,0.00557
2159.06038,0.00178
2157.00021,0.00105
2154.94003,0.00318
2152.87986,0.00441
2150.81969,0.00388
2148.75952,0.00340
2146.69935,0.00437
2144.63917,0.00590
2142.57900,0.00565
2140.51883,0.00463
2138.45866,0.00534
2136.39849,0.00626
2134.33831,0.00567
2132.27814,0.00522
2130.21797,0.00556
2128.15780,0.00570
2126.09762,0.00591
2124.03745,0.00634
2121.97728,0.00643
2119.91711,0.00602
2117.85694,0.00564
2115.79676,0.00569
2113.73659,0.00591
2111.67642,0.00625
2109.61625,0.00642
2107.55608,0.00638
2105.49590,0.00664
2103.43573,0.00675
2101.37556,0.00649
2099.31539,0.00628
2097.25521,0.00607
2095.19504,0.00595
2093.13487,0.00613
2091.07470,0.00625
2089.01453,0.00636
2086.95435,0.00675
2084.89418,0.00682
2082.83401,0.00609
2080.77384,0.00493
2078.71367,0.00426
2076.65349,0.00484
2074.59332,0.00592
2072.53315,0.00609
2070.47298,0.00575
2068.41281,0.00606
2066.35263,0.00668
2064.29246,0.00706
2062.23229,0.00723
2060.17212,0.00678
2058.11194,0.00571
2056.05177,0.00424
2053.99160,0.00313
2051.93143,0.00299
2049.87126,0.00272
2047.81108,0.00183
2045.75091,0.00117
2043.69074,0.00154
2041.63057,0.00362
2039.57040,0.00616
2037.51022,0.00649
2035.45005,0.00449
2033.38988,0.00223
2031.32971,0.00143
2029.26954,0.00316
2027.20936,0.00556
2025.14919,0.00576
2023.08902,0.00457
2021.02885,0.00330
2018.96867,0.00158
2016.90850,0.00019
2014.84833,0.00000
2012.78816,0.00088
2010.72799,0.00180
2008.66781,0.00185
2006.60764,0.00192
2004.54747,0.00249
2002.48730,0.00311
2000.42713,0.00421
1998.36695,0.00570
1996.30678,0.00632
1994.24661,0.00614
1992.18644,0.00590
1990.12626,0.00536
1988.06609,0.00455
1986.00592,0.00368
1983.94575,0.00306
1981.88558,0.00315
1979.82540,0.00297
1977.76523,0.00206
1975.70506,0.00205
1973.64489,0.00291
1971.58472,0.00302
1969.52454,0.00279
1967.46437,0.00364
1965.40420,0.00498
1963.34403,0.00598
1961.28386,0.00675
1959.22368,0.00656
1957.16351,0.00572
1955.10334,0.00512
1953.04317,0.00422
1950.98299,0.00298
1948.92282,0.00222
1946.86265,0.00233
1944.80248,0.00284
1942.74231,0.00311
1940.68213,0.00364
1938.62196,0.00466
1936.56179,0.00491
1934.50162,0.00403
1932.44145,0.00311
1930.38127,0.00295
1928.32110,0.00323
1926.26093,0.00308
1924.20076,0.00253
1922.14059,0.00263
1920.08041,0.00362
1918.02024,0.00420
1915.96007,0.00357
1913.89990,0.00292
1911.83972,0.00315
1909.77955,0.00378
1907.71938,0.00403
1905.65921,0.00366
1903.59904,0.00326
1901.53886,0.00322
1899.47869,0.00318
1897.41852,0.00299
1895.35835,0.00281
1893.29818,0.00250
1891.23800,0.00198
1889.17783,0.00163
1887.11766,0.00184
1885.05749,0.00237
1882.99731,0.00274
1880.93714,0.00280
1878.87697,0.00272
1876.81680,0.00247
1874.75663,0.00211
1872.69645,0.00207
1870.63628,0.00239
1868.57611,0.00259
1866.51594,0.00258
1864.45577,0.00263
1862.39559,0.00272
1860.33542,0.00275
1858.27525,0.00282
1856.21508,0.00291
1854.15491,0.00279
1852.09473,0.00253
1850.03456,0.00235
1847.97439,0.00215
1845.91422,0.00193
1843.85404,0.00198
1841.79387,0.00218
1839.73370,0.00204
1837.67353,0.00158
1835.61336,0.00132
1833.55318,0.00148
1831.49301,0.00164
1829.43284,0.00154
1827.37267,0.00144
1825.31250,0.00138
1823.25232,0.00131
1821.19215,0.00125
1819.13198,0.00112
1817.07181,0.00085
1815.01163,0.00053
1812.95146,0.00028
1810.89129,0.00011
1808.83112,0.00011
1806.77095,0.00043
1804.71077,0.00091
1802.65060,0.00121
1800.59043,0.00118
1798.53026,0.00097
1796.47009,0.00080
1794.40991,0.00073
1792.34974,0.00077
1790.28957,0.00093
1788.22940,0.00102
1786.16923,0.00094
1784.10905,0.00078
1782.04888,0.00066
1779.98871,0.00054
1777.92854,0.00039
1775.86836,0.00022
1773.80819,0.00000
1771.74802,-0.00004
1769.68785,0.00034
1767.62768,0.00079
1765.56750,0.00100
1763.50733,0.00109
1761.44716,0.00144
1759.38699,0.00219
1757.32682,0.00334
1755.26664,0.00474
1753.20647,0.00611
1751.14630,0.00735
1749.08613,0.00825
1747.02596,0.00881
1744.96578,0.00940
1742.90561,0.00994
1740.84544,0.01023
1738.78527,0.01044
1736.72509,0.01070
1734.66492,0.01113
1732.60475,0.01169
1730.54458,0.01202
1728.48441,0.01220
1726.42423,0.01249
1724.36406,0.01284
1722.30389,0.01290
1720.24372,0.01263
1718.18355,0.01265
1716.12337,0.01337
1714.06320,0.01384
1712.00303,0.01366
1709.94286,0.01342
1707.88268,0.01347
1705.82251,0.01358
1703.76234,0.01343
1701.70217,0.01312
1699.64200,0.01286
1697.58182,0.01271
1695.52165,0.01295
1693.46148,0.01373
1691.40131,0.01467
1689.34114,0.01554
1687.28096,0.01640
1685.22079,0.01769
1683.16062,0.01967
1681.10045,0.02153
1679.04028,0.02289
1676.98010,0.02409
1674.91993,0.02524
1672.85976,0.02597
1670.79959,0.02606
1668.73941,0.02576
1666.67924,0.02540
1664.61907,0.02490
1662.55890,0.02404
1660.49873,0.02313
1658.43855,0.02256
1656.37838,0.02225
1654.31821,0.02196
1652.25804,0.02167
1650.19787,0.02151
1648.13769,0.02132
1646.07752,0.02110
1644.01735,0.02114
1641.95718,0.02147
1639.89701,0.02197
1637.83683,0.02246
1635.77666,0.02285
1633.71649,0.02342
1631.65632,0.02430
1629.59614,0.02515
1627.53597,0.02569
1625.47580,0.02600
1623.41563,0.02625
1621.35546,0.02640
1619.29528,0.02648
1617.23511,0.02664
1615.17494,0.02709
1613.11477,0.02795
1611.05460,0.02915
1608.99442,0.03041
1606.93425,0.03125
1604.87408,0.03152
1602.81391,0.03130
1600.75373,0.03052
1598.69356,0.02929
1596.63339,0.02799
1594.57322,0.02685
1592.51305,0.02593
1590.45287,0.02519
1588.39270,0.02464
1586.33253,0.02414
1584.27236,0.02346
1582.21219,0.02269
1580.15201,0.02208
1578.09184,0.02142
1576.03167,0.02051
1573.97150,0.01996
1571.91133,0.01981
1569.85115,0.01938
1567.79098,0.01855
1565.73081,0.01770
1563.67064,0.01705
1561.61046,0.01642
1559.55029,0.01516
1557.49012,0.01376
1555.42995,0.01356
1553.36978,0.01357
1551.30960,0.01297
1549.24943,0.01204
1547.18926,0.01118
1545.12909,0.01035
1543.06892,0.00932
1541.00874,0.00821
1538.94857,0.00776
1536.88840,0.00798
1534.82823,0.00797
1532.76805,0.00759
1530.70788,0.00737
1528.64771,0.00744
1526.58754,0.00748
1524.52737,0.00741
1522.46719,0.00758
1520.40702,0.00861
1518.34685,0.01020
1516.28668,0.01137
1514.22651,0.01154
1512.16633,0.01101
1510.10616,0.01028
1508.04599,0.00908
1505.98582,0.00715
1503.92565,0.00574
1501.86547,0.00517
1499.80530,0.00479
1497.74513,0.00407
1495.68496,0.00312
1493.62478,0.00248
1491.56461,0.00219
1489.50444,0.00190
1487.44427,0.00151
1485.38410,0.00117
1483.32392,0.00104
1481.26375,0.00118
1479.20358,0.00151
1477.14341,0.00201
1475.08324,0.00310
1473.02306,0.00508
1470.96289,0.00727
1468.90272,0.00892
1466.84255,0.01025
1464.78238,0.01165
1462.72220,0.01293
1460.66203,0.01375
1458.60186,0.01436
1456.54169,0.01527
1454.48151,0.01632
1452.42134,0.01706
1450.36117,0.01746
1448.30100,0.01785
1446.24083,0.01849
1444.18065,0.01934
1442.12048,0.02020
1440.06031,0.02089
1438.00014,0.02143
1435.93997,0.02193
1433.87979,0.02227
1431.81962,0.02236
1429.75945,0.02233
1427.69928,0.02238
1425.63910,0.02255
1423.57893,0.02288
1421.51876,0.02328
1419.45859,0.02352
1417.39842,0.02351
1415.33824,0.02337
1413.27807,0.02313
1411.21790,0.02268
1409.15773,0.02216
1407.09756,0.02173
1405.03738,0.02126
1402.97721,0.02058
1400.91704,0.01984
1398.85687,0.01922
1396.79670,0.01875
1394.73652,0.01831
1392.67635,0.01786
1390.61618,0.01757
1388.55601,0.01759
1386.49583,0.01793
1384.43566,0.01846
1382.37549,0.01905
1380.31532,0.01962
1378.25515,0.02015
1376.19497,0.02062
1374.13480,0.02094
1372.07463,0.02110
1370.01446,0.02120
1367.95429,0.02124
1365.89411,0.02111
1363.83394,0.02076
1361.77377,0.02026
1359.71360,0.01984
1357.65343,0.01955
1355.59325,0.01927
1353.53308,0.01907
1351.47291,0.01910
1349.41274,0.01919
1347.35256,0.01913
1345.29239,0.01897
1343.23222,0.01891
1341.17205,0.01899
1339.11188,0.01902
1337.05170,0.01891
1334.99153,0.01883
1332.93136,0.01890
1330.87119,0.01899
1328.81102,0.01898
1326.75084,0.01897
1324.69067,0.01906
1322.63050,0.01917
1320.57033,0.01913
1318.51015,0.01884
1316.44998,0.01848
1314.38981,0.01834
1312.32964,0.01832
1310.26947,0.01815
1308.20929,0.01776
1306.14912,0.01720
1304.08895,0.01665
1302.02878,0.01621
1299.96861,0.01583
1297.90843,0.01527
1295.84826,0.01472
1293.78809,0.01476
1291.72792,0.01523
1289.66775,0.01549
1287.60757,0.01552
1285.54740,0.01572
1283.48723,0.01613
1281.42706,0.01646
1279.36688,0.01649
1277.30671,0.01634
1275.24654,0.01636
1273.18637,0.01671
1271.12620,0.01720
1269.06602,0.01766
1267.00585,0.01816
1264.94568,0.01880
1262.88551,0.01954
1260.82534,0.02022
1258.76516,0.02070
1256.70499,0.02106
1254.64482,0.02142
1252.58465,0.02177
1250.52447,0.02217
1248.46430,0.02256
1246.40413,0.02285
1244.34396,0.02292
1242.28379,0.02282
1240.22361,0.02271
1238.16344,0.02268
1236.10327,0.02252
1234.04310,0.02217
1231.98293,0.02181
1229.92275,0.02138
1227.86258,0.02060
1225.80241,0.01953
1223.74224,0.01846
1221.68207,0.01751
1219.62189,0.01651
1217.56172,0.01533
1215.50155,0.01411
1213.44138,0.01289
1211.38120,0.01165
1209.32103,0.01058
1207.26086,0.00975
1205.20069,0.00888
1203.14052,0.00769
1201.08034,0.00649
1199.02017,0.00552
1196.96000,0.00434
1194.89983,0.00287
1192.83966,0.00160
1190.77948,0.00068
1188.71931,0.00022
1186.65914,0.00012
1184.59897,0.00000
1182.53880,-0.00013
1180.47862,0.00006
1178.41845,0.00056
1176.35828,0.00155
1174.29811,0.00310
1172.23793,0.00503
1170.17776,0.00718
1168.11759,0.00900
1166.05742,0.00999
1163.99725,0.01044
1161.93707,0.01068
1159.87690,0.01082
1157.81673,0.01118
1155.75656,0.01179
1153.69639,0.01238
1151.63621,0.01302
1149.57604,0.01400
1147.51587,0.01515
1145.45570,0.01602
1143.39552,0.01672
1141.33535,0.01753
1139.27518,0.01843
1137.21501,0.01923
1135.15484,0.01982
1133.09466,0.02032
1131.03449,0.02084
1128.97432,0.02157
1126.91415,0.02265
1124.85398,0.02388
1122.79380,0.02502
1120.73363,0.02609
1118.67346,0.02700
1116.61329,0.02781
1114.55312,0.02869
1112.49294,0.02957
1110.43277,0.03047
1108.37260,0.03162
1106.31243,0.03289
1104.25225,0.03387
1102.19208,0.03481
1100.13191,0.03623
1098.07174,0.03782
1096.01157,0.03937
1093.95139,0.04111
1091.89122,0.04295
1089.83105,0.04463
1087.77088,0.04626
1085.71071,0.04801
1083.65053,0.04972
1081.59036,0.05124
1079.53019,0.05278
1077.47002,0.05458
1075.40985,0.05670
1073.34967,0.05905
1071.28950,0.06113
1069.22933,0.06260
1067.16916,0.06376
1065.10898,0.06482
1063.04881,0.06584
1060.98864,0.06687
1058.92847,0.06805
1056.86830,0.06941
1054.80812,0.07078
1052.74795,0.07239
1050.68778,0.07447
1048.62761,0.07677
1046.56744,0.07906
1044.50726,0.08120
1042.44709,0.08319
1040.38692,0.08523
1038.32675,0.08713
1036.26657,0.08844
1034.20640,0.08915
1032.14623,0.08949
1030.08606,0.08951
1028.02589,0.08937
1025.96571,0.08929
1023.90554,0.08904
1021.84537,0.08856
1019.78520,0.08814
1017.72503,0.08789
1015.66485,0.08784
1013.60468,0.08809
1011.54451,0.08838
1009.48434,0.08839
1007.42417,0.08840
1005.36399,0.08858
1003.30382,0.08836
1001.24365,0.08743
999.18348,0.08629
997.12330,0.08538
995.06313,0.08438
993.00296,0.08285
990.94279,0.08110
988.88262,0.07965
986.82244,0.07846
984.76227,0.07723
982.70210,0.07598
980.64193,0.07479
978.58176,0.07363
976.52158,0.07243
974.46141,0.07104
972.40124,0.06951
970.34107,0.06793
968.28089,0.06639
966.22072,0.06485
964.16055,0.06335
962.10038,0.06203
960.04021,0.06047
957.98003,0.05847
955.91986,0.05693
953.85969,0.05621
951.79952,0.05546
949.73935,0.05427
947.67917,0.05292
945.61900,0.05161
943.55883,0.05000
941.49866,0.04797
939.43849,0.04577
937.37831,0.04334
935.31814,0.04074
933.25797,0.03822
931.19780,0.03588
929.13762,0.03351
927.07745,0.03091
925.01728,0.02869
922.95711,0.02735
920.89694,0.02632
918.83676,0.02504
916.77659,0.02326
914.71642,0.02115
912.65625,0.01924
910.59608,0.01784
908.53590,0.01686
906.47573,0.01606
904.41556,0.01532
902.35539,0.01458
900.29522,0.01408
898.23504,0.01410
896.17487,0.01434
894.11470,0.01474
892.05453,0.01539
889.99435,0.01580
887.93418,0.01572
885.87401,0.01521
883.81384,0.01427
881.75367,0.01294
879.69349,0.01152
877.63332,0.01035
875.57315,0.00941
873.51298,0.00891
871.45281,0.00868
869.39263,0.00810
867.33246,0.00751
865.27229,0.00742
863.21212,0.00728
861.15194,0.00665
859.09177,0.00602
857.03160,0.00615
854.97143,0.00670
852.91126,0.00644
850.85108,0.00563
848.79091,0.00551
846.73074,0.00578
844.67057,0.00565
842.61040,0.00560
840.55022,0.00587
838.49005,0.00578
836.42988,0.00533
834.36971,0.00501
832.30954,0.00472
830.24936,0.00408
828.18919,0.00329
826.12902,0.00310
824.06885,0.00331
822.00867,0.00305
819.94850,0.00239
817.88833,0.00232
815.82816,0.00261
813.76799,0.00232
811.70781,0.00166
809.64764,0.00122
807.58747,0.00145
805.52730,0.00226
803.46713,0.00248
801.40695,0.00236
799.34678,0.00316
797.28661,0.00380
795.22644,0.00299
793.16627,0.00189
791.10609,0.00182
789.04592,0.00205
786.98575,0.00147
784.92558,0.00046
782.86540,0.00000
780.80523,0.00003
778.74506,-0.00022
776.68489,-0.00048
774.62472,0.00005
772.56454,0.00108
770.50437,0.00184
768.44420,0.00207
766.38403,0.00174
764.32386,0.00138
762.26368,0.00139
760.20351,0.00128
758.14334,0.00143
756.08317,0.00185
754.02299,0.00160
751.96282,0.00096
749.90265,0.00067
747.84248,0.00039
745.78231,0.00000
743.72213,-0.00034
741.66196,-0.00035
739.60179,-0.00012
737.54162,0.00025
735.48145,0.00130
733.42127,0.00247
731.36110,0.00214
729.30093,0.00132
727.24076,0.00140
725.18059,0.00161
723.12041,0.00240
721.06024,0.00273
719.00007,0.00334
716.93990,0.00324
714.87972,0.00216
712.81955,0.00162
710.75938,0.00249
708.69921,0.00409
706.63904,0.00547
704.57886,0.00623
702.51869,0.00605
700.45852,0.00532
698.39835,0.00522
696.33818,0.00620
694.27800,0.00707
692.21783,0.00645
690.15766,0.00462
688.09749,0.00370
686.03731,0.00455
683.97714,0.00532
681.91697,0.00521
679.85680,0.00521
677.79663,0.00557
675.73645,0.00629
673.67628,0.00782
671.61611,0.00889
669.55594,0.00432
667.49577,-0.00023
665.43559,0.00560
663.37542,0.00592
661.31525,0.00444
659.25508,0.00339
657.19491,0.00348
655.13473,0.00503
653.07456,0.00691
651.01439,0.00744
648.95422,0.00665
646.89404,0.00710
644.83387,0.01006
642.77370,0.01299
640.71353,0.01160
638.65336,0.00701
636.59318,0.00442
634.53301,0.00504
632.47284,0.00592
630.41267,0.00543
628.35250,0.00378
626.29232,0.00188
624.23215,0.00061
622.17198,0.00000
620.11181,0.00130
618.05164,0.00461
615.99146,0.00743
613.93129,0.00859
611.87112,0.00618
609.81095,0.00126
607.75077,-0.00085
605.69060,0.00154
603.63043,0.00328
601.57026,0.00202
599.51009,0.00000
