3996.73391,0.00132
3994.67373,0.00115
3992.61356,0.00098
3990.55339,0.00097
3988.49322,0.00117
3986.43305,0.00110
3984.37287,0.00052
3982.31270,0.00000
3980.25253,0.00003
3978.19236,0.00046
3976.13219,0.00071
3974.07201,0.00043
3972.01184,0.00023
3969.95167,0.00053
3967.89150,0.00077
3965.83133,0.00063
3963.77115,0.00054
3961.71098,0.00061
3959.65081,0.00062
3957.59064,0.00059
3955.53046,0.00058
3953.47029,0.00052
3951.41012,0.00042
3949.34995,0.00039
3947.28978,0.00063
3945.22960,0.00135
3943.16943,0.00222
3941.10926,0.00269
3939.04909,0.00270
3936.98892,0.00256
3934.92874,0.00244
3932.86857,0.00225
3930.80840,0.00180
3928.74823,0.00115
3926.68805,0.00085
3924.62788,0.00109
3922.56771,0.00144
3920.50754,0.00172
3918.44737,0.00202
3916.38719,0.00189
3914.32702,0.00132
3912.26685,0.00109
3910.20668,0.00143
3908.14651,0.00181
3906.08633,0.00188
3904.02616,0.00188
3901.96599,0.00196
3899.90582,0.00180
3897.84565,0.00127
3895.78547,0.00072
3893.72530,0.00061
3891.66513,0.00112
3889.60496,0.00175
3887.54478,0.00173
3885.48461,0.00118
3883.42444,0.00106
3881.36427,0.00151
3879.30410,0.00190
3877.24392,0.00208
3875.18375,0.00211
3873.12358,0.00205
3871.06341,0.00230
3869.00324,0.00282
3866.94306,0.00283
3864.88289,0.00224
3862.82272,0.00128
3860.76255,0.00055
3858.70237,0.00063
3856.64220,0.00124
3854.58203,0.00177
3852.52186,0.00205
3850.46169,0.00216
3848.40151,0.00194
3846.34134,0.00167
3844.28117,0.00170
3842.22100,0.00211
3840.16083,0.00283
3838.10065,0.00335
3836.04048,0.00289
3833.98031,0.00186
3831.92014,0.00118
3829.85997,0.00113
3827.79979,0.00155
3825.73962,0.00210
3823.67945,0.00225
3821.61928,0.00202
3819.55910,0.00198
3817.49893,0.00198
3815.43876,0.00170
3813.37859,0.00145
3811.31842,0.00138
3809.25824,0.00146
3807.19807,0.00151
3805.13790,0.00125
3803.07773,0.00101
3801.01756,0.00130
3798.95738,0.00175
3796.89721,0.00188
3794.83704,0.00169
3792.77687,0.00141
3790.71670,0.00141
3788.65652,0.00153
3786.59635,0.00130
3784.53618,0.00103
3782.47601,0.00125
3780.41583,0.00184
3778.35566,0.00224
3776.29549,0.00216
3774.23532,0.00204
3772.17515,0.00227
3770.11497,0.00256
3768.05480,0.00247
3765.99463,0.00199
3763.93446,0.00159
3761.87429,0.00164
3759.81411,0.00173
3757.75394,0.00158
3755.69377,0.00165
3753.63360,0.00205
3751.57342,0.00218
3749.51325,0.00186
3747.45308,0.00181
3745.39291,0.00228
3743.33274,0.00284
3741.27256,0.00278
3739.21239,0.00196
3737.15222,0.00104
3735.09205,0.00083
3733.03188,0.00127
3730.97170,0.00180
3728.91153,0.00214
3726.85136,0.00229
3724.79119,0.00196
3722.73102,0.00117
3720.67084,0.00076
3718.61067,0.00106
3716.55050,0.00182
3714.49033,0.00241
3712.43015,0.00242
3710.36998,0.00200
3708.30981,0.00142
3706.24964,0.00123
3704.18947,0.00145
3702.12929,0.00148
3700.06912,0.00125
3698.00895,0.00118
3695.94878,0.00119
3693.88861,0.00116
3691.82843,0.00125
3689.76826,0.00154
3687.70809,0.00187
3685.64792,0.00172
3683.58775,0.00127
3681.52757,0.00088
3679.46740,0.00042
3677.40723,0.00000
3675.34706,-0.00000
3673.28688,0.00019
3671.22671,0.00069
3669.16654,0.00160
3667.10637,0.00218
3665.04620,0.00233
3662.98602,0.00262
3660.92585,0.00307
3658.86568,0.00308
3656.80551,0.00263
3654.74534,0.00243
3652.68516,0.00279
3650.62499,0.00340
3648.56482,0.00316
3646.50465,0.00185
3644.44447,0.00126
3642.38430,0.00193
3640.32413,0.00280
3638.26396,0.00325
3636.20379,0.00343
3634.14361,0.00343
3632.08344,0.00338
3630.02327,0.00373
3627.96310,0.00422
3625.90293,0.00394
3623.84275,0.00346
3621.78258,0.00351
3619.72241,0.00394
3617.66224,0.00425
3615.60207,0.00433
3613.54189,0.00444
3611.48172,0.00475
3609.42155,0.00512
3607.36138,0.00530
3605.30120,0.00529
3603.24103,0.00545
3601.18086,0.00568
3599.12069,0.00570
3597.06052,0.00557
3595.00034,0.00541
3592.94017,0.00554
3590.88000,0.00639
3588.81983,0.00769
3586.75966,0.00844
3584.69948,0.00807
3582.63931,0.00749
3580.57914,0.00735
3578.51897,0.00738
3576.45879,0.00741
3574.39862,0.00760
3572.33845,0.00797
3570.27828,0.00858
3568.21811,0.00931
3566.15793,0.00969
3564.09776,0.00971
3562.03759,0.00978
3559.97742,0.00989
3557.91725,0.01001
3555.85707,0.01028
3553.79690,0.01072
3551.73673,0.01112
3549.67656,0.01133
3547.61639,0.01161
3545.55621,0.01211
3543.49604,0.01252
3541.43587,0.01277
3539.37570,0.01320
3537.31552,0.01369
3535.25535,0.01378
3533.19518,0.01354
3531.13501,0.01331
3529.07484,0.01350
3527.01466,0.01442
3524.95449,0.01535
3522.89432,0.01573
3520.83415,0.01596
3518.77398,0.01608
3516.71380,0.01602
3514.65363,0.01626
3512.59346,0.01681
3510.53329,0.01702
3508.47312,0.01681
3506.41294,0.01688
3504.35277,0.01746
3502.29260,0.01834
3500.23243,0.01933
3498.17225,0.02013
3496.11208,0.02043
3494.05191,0.02041
3491.99174,0.02061
3489.93157,0.02103
3487.87139,0.02112
3485.81122,0.02108
3483.75105,0.02145
3481.69088,0.02187
3479.63071,0.02189
3477.57053,0.02195
3475.51036,0.02224
3473.45019,0.02258
3471.39002,0.02311
3469.32984,0.02380
3467.26967,0.02409
3465.20950,0.02394
3463.14933,0.02404
3461.08916,0.02468
3459.02898,0.02539
3456.96881,0.02564
3454.90864,0.02546
3452.84847,0.02539
3450.78830,0.02572
3448.72812,0.02635
3446.66795,0.02698
3444.60778,0.02755
3442.54761,0.02787
3440.48744,0.02769
3438.42726,0.02754
3436.36709,0.02789
3434.30692,0.02834
3432.24675,0.02855
3430.18657,0.02891
3428.12640,0.02949
3426.06623,0.02965
3424.00606,0.02937
3421.94589,0.02950
3419.88571,0.02998
3417.82554,0.03039
3415.76537,0.03077
3413.70520,0.03086
3411.64503,0.03080
3409.58485,0.03097
3407.52468,0.03138
3405.46451,0.03191
3403.40434,0.03218
3401.34416,0.03214
3399.28399,0.03244
3397.22382,0.03304
3395.16365,0.03347
3393.10348,0.03378
3391.04330,0.03422
3388.98313,0.03465
3386.92296,0.03464
3384.86279,0.03420
3382.80262,0.03401
3380.74244,0.03465
3378.68227,0.03578
3376.62210,0.03632
3374.56193,0.03595
3372.50176,0.03522
3370.44158,0.03463
3368.38141,0.03463
3366.32124,0.03527
3364.26107,0.03579
3362.20089,0.03591
3360.14072,0.03599
3358.08055,0.03619
3356.02038,0.03656
3353.96021,0.03711
3351.90003,0.03745
3349.83986,0.03723
3347.77969,0.03662
3345.71952,0.03638
3343.65935,0.03678
3341.59917,0.03726
3339.53900,0.03754
3337.47883,0.03758
3335.41866,0.03745
3333.35849,0.03769
3331.29831,0.03836
3329.23814,0.03859
3327.17797,0.03817
3325.11780,0.03806
3323.05762,0.03842
3320.99745,0.03841
3318.93728,0.03792
3316.87711,0.03750
3314.81694,0.03739
3312.75676,0.03782
3310.69659,0.03854
3308.63642,0.03868
3306.57625,0.03830
3304.51608,0.03819
3302.45590,0.03830
3300.39573,0.03831
3298.33556,0.03841
3296.27539,0.03863
3294.21521,0.03882
3292.15504,0.03897
3290.09487,0.03897
3288.03470,0.03870
3285.97453,0.03838
3283.91435,0.03825
3281.85418,0.03835
3279.79401,0.03864
3277.73384,0.03891
3275.67367,0.03893
3273.61349,0.03879
3271.55332,0.03861
3269.49315,0.03844
3267.43298,0.03842
3265.37281,0.03840
3263.31263,0.03844
3261.25246,0.03869
3259.19229,0.03883
3257.13212,0.03868
3255.07194,0.03834
3253.01177,0.03808
3250.95160,0.03802
3248.89143,0.03805
3246.83126,0.03819
3244.77108,0.03842
3242.71091,0.03864
3240.65074,0.03895
3238.59057,0.03910
3236.53040,0.03854
3234.47022,0.03747
3232.41005,0.03676
3230.34988,0.03669
3228.28971,0.03670
3226.22954,0.03647
3224.16936,0.03659
3222.10919,0.03720
3220.04902,0.03739
3217.98885,0.03719
3215.92867,0.03741
3213.86850,0.03785
3211.80833,0.03786
3209.74816,0.03737
3207.68799,0.03663
3205.62781,0.03579
3203.56764,0.03522
3201.50747,0.03532
3199.44730,0.03569
3197.38713,0.03584
3195.32695,0.03581
3193.26678,0.03566
3191.20661,0.03542
3189.14644,0.03523
3187.08626,0.03501
3185.02609,0.03482
3182.96592,0.03466
3180.90575,0.03432
3178.84558,0.03394
3176.78540,0.03376
3174.72523,0.03383
3172.66506,0.03398
3170.60489,0.03384
3168.54472,0.03347
3166.48454,0.03309
3164.42437,0.03275
3162.36420,0.03262
3160.30403,0.03266
3158.24386,0.03262
3156.18368,0.03250
3154.12351,0.03220
3152.06334,0.03154
3150.00317,0.03067
3147.94299,0.03015
3145.88282,0.03039
3143.82265,0.03087
3141.76248,0.03097
3139.70231,0.03078
3137.64213,0.03064
3135.58196,0.03056
3133.52179,0.03021
3131.46162,0.02971
3129.40145,0.02936
3127.34127,0.02911
3125.28110,0.02894
3123.22093,0.02899
3121.16076,0.02923
3119.10058,0.02928
3117.04041,0.02892
3114.98024,0.02841
3112.92007,0.02798
3110.85990,0.02772
3108.79972,0.02775
3106.73955,0.02791
3104.67938,0.02786
3102.61921,0.02763
3100.55904,0.02737
3098.49886,0.02716
3096.43869,0.02716
3094.37852,0.02727
3092.31835,0.02717
3090.25818,0.02678
3088.19800,0.02640
3086.13783,0.02630
3084.07766,0.02632
3082.01749,0.02615
3079.95731,0.02578
3077.89714,0.02526
3075.83697,0.02477
3073.77680,0.02440
3071.71663,0.02408
3069.65645,0.02368
3067.59628,0.02329
3065.53611,0.02289
3063.47594,0.02266
3061.41577,0.02295
3059.35559,0.02340
3057.29542,0.02343
3055.23525,0.02313
3053.17508,0.02270
3051.11491,0.02212
3049.05473,0.02184
3046.99456,0.02210
3044.93439,0.02239
3042.87422,0.02230
3040.81404,0.02174
3038.75387,0.02106
3036.69370,0.02085
3034.63353,0.02108
3032.57336,0.02105
3030.51318,0.02060
3028.45301,0.02053
3026.39284,0.02111
3024.33267,0.02143
3022.27250,0.02095
3020.21232,0.02024
3018.15215,0.02004
3016.09198,0.02028
3014.03181,0.02035
3011.97163,0.02007
3009.91146,0.01957
3007.85129,0.01899
3005.79112,0.01849
3003.73095,0.01830
3001.67077,0.01865
2999.61060,0.01906
2997.55043,0.01885
2995.49026,0.01862
2993.43009,0.01882
2991.36991,0.01884
2989.30974,0.01862
2987.24957,0.01865
2985.18940,0.01870
2983.12923,0.01844
2981.06905,0.01818
2979.00888,0.01838
2976.94871,0.01901
2974.88854,0.01975
2972.82836,0.02038
2970.76819,0.02093
2968.70802,0.02135
2966.64785,0.02186
2964.58768,0.02276
2962.52750,0.02372
2960.46733,0.02472
2958.40716,0.02602
2956.34699,0.02730
2954.28682,0.02849
2952.22664,0.02958
2950.16647,0.03055
2948.10630,0.03197
2946.04613,0.03397
2943.98596,0.03585
2941.92578,0.03742
2939.86561,0.03897
2937.80544,0.04074
2935.74527,0.04244
2933.68509,0.04372
2931.62492,0.04522
2929.56475,0.04721
2927.50458,0.04883
2925.44441,0.04969
2923.38423,0.05024
2921.32406,0.05078
2919.26389,0.05107
2917.20372,0.05113
2915.14355,0.05066
2913.08337,0.04887
2911.02320,0.04636
2908.96303,0.04457
2906.90286,0.04359
2904.84268,0.04263
2902.78251,0.04133
2900.72234,0.03998
2898.66217,0.03892
2896.60200,0.03796
2894.54182,0.03706
2892.48165,0.03631
2890.42148,0.03546
2888.36131,0.03472
2886.30114,0.03422
2884.24096,0.03355
2882.18079,0.03276
2880.12062,0.03235
2878.06045,0.03233
2876.00028,0.03240
2873.94010,0.03254
2871.87993,0.03287
2869.81976,0.03334
2867.75959,0.03366
2865.69941,0.03398
2863.63924,0.03478
2861.57907,0.03614
2859.51890,0.03758
2857.45873,0.03890
2855.39855,0.04012
2853.33838,0.04118
2851.27821,0.04195
2849.21804,0.04160
2847.15787,0.03969
2845.09769,0.03722
2843.03752,0.03500
2840.97735,0.03301
2838.91718,0.03129
2836.85700,0.02987
2834.79683,0.02880
2832.73666,0.02799
2830.67649,0.02732
2828.61632,0.02683
2826.55614,0.02645
2824.49597,0.02591
2822.43580,0.02520
2820.37563,0.02464
2818.31546,0.02416
2816.25528,0.02349
2814.19511,0.02288
2812.13494,0.02270
2810.07477,0.02271
2808.01460,0.02266
2805.95442,0.02235
2803.89425,0.02179
2801.83408,0.02152
2799.77391,0.02164
2797.71373,0.02168
2795.65356,0.02151
2793.59339,0.02129
2791.53322,0.02109
2789.47305,0.02079
2787.41287,0.02048
2785.35270,0.02028
2783.29253,0.02012
2781.23236,0.02000
2779.17219,0.02002
2777.11201,0.02004
2775.05184,0.01990
2772.99167,0.01983
2770.93150,0.01976
2768.87133,0.01950
2766.81115,0.01932
2764.75098,0.01933
2762.69081,0.01921
2760.63064,0.01903
2758.57046,0.01906
2756.51029,0.01907
2754.45012,0.01892
2752.38995,0.01887
2750.32978,0.01902
2748.26960,0.01903
2746.20943,0.01883
2744.14926,0.01869
2742.08909,0.01862
2740.02892,0.01862
2737.96874,0.01871
2735.90857,0.01869
2733.84840,0.01853
2731.78823,0.01835
2729.72805,0.01812
2727.66788,0.01799
2725.60771,0.01810
2723.54754,0.01813
2721.48737,0.01796
2719.42719,0.01800
2717.36702,0.01817
2715.30685,0.01809
2713.24668,0.01776
2711.18651,0.01744
2709.12633,0.01728
2707.06616,0.01748
2705.00599,0.01790
2702.94582,0.01793
2700.88565,0.01748
2698.82547,0.01714
2696.76530,0.01711
2694.70513,0.01714
2692.64496,0.01698
2690.58478,0.01689
2688.52461,0.01709
2686.46444,0.01730
2684.40427,0.01732
2682.34410,0.01727
2680.28392,0.01720
2678.22375,0.01717
2676.16358,0.01717
2674.10341,0.01715
2672.04324,0.01715
2669.98306,0.01715
2667.92289,0.01706
2665.86272,0.01702
2663.80255,0.01721
2661.74238,0.01736
2659.68220,0.01723
2657.62203,0.01701
2655.56186,0.01696
2653.50169,0.01701
2651.44151,0.01687
2649.38134,0.01669
2647.32117,0.01680
2645.26100,0.01697
2643.20083,0.01698
2641.14065,0.01686
2639.08048,0.01662
2637.02031,0.01613
2634.96014,0.01559
2632.89997,0.01541
2630.83979,0.01562
2628.77962,0.01593
2626.71945,0.01596
2624.65928,0.01587
2622.59910,0.01585
2620.53893,0.01552
2618.47876,0.01500
2616.41859,0.01487
2614.35842,0.01513
2612.29824,0.01547
2610.23807,0.01566
2608.17790,0.01542
2606.11773,0.01490
2604.05756,0.01465
2601.99738,0.01462
2599.93721,0.01453
2597.87704,0.01452
2595.81687,0.01478
2593.75670,0.01519
2591.69652,0.01531
2589.63635,0.01481
2587.57618,0.01417
2585.51601,0.01356
2583.45583,0.01298
2581.39566,0.01307
2579.33549,0.01380
2577.27532,0.01402
2575.21515,0.01354
2573.15497,0.01306
2571.09480,0.01278
2569.03463,0.01305
2566.97446,0.01369
2564.91429,0.01373
2562.85411,0.01349
2560.79394,0.01358
2558.73377,0.01376
2556.67360,0.01373
2554.61342,0.01328
2552.55325,0.01275
2550.49308,0.01279
2548.43291,0.01309
2546.37274,0.01309
2544.31256,0.01278
2542.25239,0.01239
2540.19222,0.01212
2538.13205,0.01201
2536.07188,0.01202
2534.01170,0.01212
2531.95153,0.01220
2529.89136,0.01222
2527.83119,0.01224
2525.77102,0.01256
2523.71084,0.01310
2521.65067,0.01311
2519.59050,0.01242
2517.53033,0.01211
2515.47015,0.01233
2513.40998,0.01212
2511.34981,0.01158
2509.28964,0.01113
2507.22947,0.01107
2505.16929,0.01164
2503.10912,0.01203
2501.04895,0.01164
2498.98878,0.01098
2496.92861,0.01095
2494.86843,0.01135
2492.80826,0.01137
2490.74809,0.01122
2488.68792,0.01124
2486.62775,0.01140
2484.56757,0.01150
2482.50740,0.01118
2480.44723,0.01084
2478.38706,0.01104
2476.32688,0.01152
2474.26671,0.01157
2472.20654,0.01121
2470.14637,0.01097
2468.08620,0.01121
2466.02602,0.01179
2463.96585,0.01208
2461.90568,0.01190
2459.84551,0.01167
2457.78534,0.01187
2455.72516,0.01231
2453.66499,0.01233
2451.60482,0.01195
2449.54465,0.01119
2447.48447,0.01044
2445.42430,0.01047
2443.36413,0.01063
2441.30396,0.01009
2439.24379,0.00969
2437.18361,0.01006
2435.12344,0.01048
2433.06327,0.01044
2431.00310,0.01048
2428.94293,0.01098
2426.88275,0.01104
2424.82258,0.01052
2422.76241,0.01053
2420.70224,0.01092
2418.64207,0.01105
2416.58189,0.01122
2414.52172,0.01141
2412.46155,0.01127
2410.40138,0.01090
2408.34120,0.01033
2406.28103,0.00980
2404.22086,0.00978
2402.16069,0.01014
2400.10052,0.01035
2398.04034,0.01012
2395.98017,0.00991
2393.92000,0.00973
2391.85983,0.00979
2389.79966,0.01015
2387.73948,0.01057
2385.67931,0.01072
2383.61914,0.01024
2381.55897,0.00958
2379.49880,0.00972
2377.43862,0.01050
2375.37845,0.01059
2373.31828,0.00955
2371.25811,0.00769
2369.19793,0.00549
2367.13776,0.00536
2365.07759,0.00858
2363.01742,0.01065
2360.95725,0.00967
2358.89707,0.00844
2356.83690,0.00995
2354.77673,0.01179
2352.71656,0.01177
2350.65639,0.01289
2348.59621,0.01473
2346.53604,0.01418
2344.47587,0.01319
2342.41570,0.01204
2340.35552,0.01170
2338.29535,0.01200
2336.23518,0.01151
2334.17501,0.01042
2332.11484,0.00934
2330.05466,0.00906
2327.99449,0.00970
2325.93432,0.01042
2323.87415,0.00960
2321.81398,0.00852
2319.75380,0.00833
2317.69363,0.00965
2315.63346,0.01133
2313.57329,0.01188
2311.51312,0.01115
2309.45294,0.01039
2307.39277,0.01001
2305.33260,0.00973
2303.27243,0.00959
2301.21225,0.00962
2299.15208,0.00991
2297.09191,0.01028
2295.03174,0.01067
2292.97157,0.01078
2290.91139,0.01021
2288.85122,0.00949
2286.79105,0.00918
2284.73088,0.00919
2282.67071,0.00920
2280.61053,0.00893
2278.55036,0.00849
2276.49019,0.00840
2274.43002,0.00874
2272.36984,0.00901
2270.30967,0.00898
2268.24950,0.00883
2266.18933,0.00887
2264.12916,0.00923
2262.06898,0.00959
2260.00881,0.00955
2257.94864,0.00912
2255.88847,0.00845
2253.82830,0.00795
2251.76812,0.00803
2249.70795,0.00831
2247.64778,0.00814
2245.58761,0.00790
2243.52744,0.00868
2241.46726,0.00957
2239.40709,0.00897
2237.34692,0.00758
2235.28675,0.00696
2233.22657,0.00758
2231.16640,0.00802
2229.10623,0.00741
2227.04606,0.00729
2224.98589,0.00824
2222.92571,0.00894
2220.86554,0.00826
2218.80537,0.00718
2216.74520,0.00717
2214.68503,0.00656
2212.62485,0.00472
2210.56468,0.00448
2208.50451,0.00580
2206.44434,0.00750
2204.38417,0.00933
2202.32399,0.00903
2200.26382,0.00700
2198.20365,0.00585
2196.14348,0.00573
2194.08330,0.00661
2192.02313,0.00834
2189.96296,0.00921
2187.90279,0.00868
2185.84262,0.00886
2183.78244,0.01039
2181.72227,0.01106
2179.66210,0.01011
2177.60193,0.00902
2175.54176,0.00875
2173.48158,0.00811
2171.42141,0.00618
2169.36124,0.00479
2167.30107,0.00499
2165.24089,0.00616
2163.18072,0.00762
2161.12055,0.00726
2159.06038,0.00481
2157.00021,0.00320
2154.94003,0.00345
2152.87986,0.00431
2150.81969,0.00454
2148.75952,0.00360
2146.69935,0.00361
2144.63917,0.00600
2142.57900,0.00660
2140.51883,0.00453
2138.45866,0.00423
2136.39849,0.00517
2134.33831,0.00533
2132.27814,0.00586
2130.21797,0.00660
2128.15780,0.00723
2126.09762,0.00811
2124.03745,0.00832
2121.97728,0.00763
2119.91711,0.00716
2117.85694,0.00738
2115.79676,0.00769
2113.73659,0.00790
2111.67642,0.00833
2109.61625,0.00867
2107.55608,0.00844
2105.49590,0.00780
2103.43573,0.00735
2101.37556,0.00763
2099.31539,0.00810
2097.25521,0.00789
2095.19504,0.00755
2093.13487,0.00757
2091.07470,0.00752
2089.01453,0.00780
2086.95435,0.00859
2084.89418,0.00879
2082.83401,0.00758
2080.77384,0.00564
2078.71367,0.00463
2076.65349,0.00550
2074.59332,0.00705
2072.53315,0.00743
2070.47298,0.00690
2068.41281,0.00664
2066.35263,0.00692
2064.29246,0.00766
2062.23229,0.00868
2060.17212,0.00923
2058.11194,0.00862
2056.05177,0.00710
2053.99160,0.00545
2051.93143,0.00448
2049.87126,0.00384
2047.81108,0.00290
2045.75091,0.00301
2043.69074,0.00481
2041.63057,0.00693
2039.57040,0.00881
2037.51022,0.00963
2035.45005,0.00839
2033.38988,0.00634
2031.32971,0.00504
2029.26954,0.00433
2027.20936,0.00385
2025.14919,0.00385
2023.08902,0.00396
2021.02885,0.00372
2018.96867,0.00326
2016.90850,0.00190
2014.84833,0.00000
2012.78816,0.00004
2010.72799,0.00234
2008.66781,0.00424
2006.60764,0.00432
2004.54747,0.00408
2002.48730,0.00521
2000.42713,0.00674
1998.36695,0.00751
1996.30678,0.00799
1994.24661,0.00836
1992.18644,0.00782
1990.12626,0.00616
1988.06609,0.00470
1986.00592,0.00407
1983.94575,0.00415
1981.88558,0.00480
1979.82540,0.00475
1977.76523,0.00290
1975.70506,0.00065
1973.64489,0.00042
1971.58472,0.00257
1969.52454,0.00463
1967.46437,0.00531
1965.40420,0.00565
1963.34403,0.00638
1961.28386,0.00698
1959.22368,0.00635
1957.16351,0.00578
1955.10334,0.00590
1953.04317,0.00491
1950.98299,0.00327
1948.92282,0.00261
1946.86265,0.00334
1944.80248,0.00474
1942.74231,0.00529
1940.68213,0.00509
1938.62196,0.00552
1936.56179,0.00580
1934.50162,0.00499
1932.44145,0.00421
1930.38127,0.00431
1928.32110,0.00484
1926.26093,0.00494
1924.20076,0.00438
1922.14059,0.00403
1920.08041,0.00433
1918.02024,0.00413
1915.96007,0.00333
1913.89990,0.00352
1911.83972,0.00465
1909.77955,0.00536
1907.71938,0.00530
1905.65921,0.00505
1903.59904,0.00497
1901.53886,0.00475
1899.47869,0.00426
1897.41852,0.00385
1895.35835,0.00358
1893.29818,0.00332
1891.23800,0.00298
1889.17783,0.00277
1887.11766,0.00292
1885.05749,0.00319
1882.99731,0.00314
1880.93714,0.00265
1878.87697,0.00223
1876.81680,0.00229
1874.75663,0.00248
1872.69645,0.00261
1870.63628,0.00305
1868.57611,0.00371
1866.51594,0.00383
1864.45577,0.00327
1862.39559,0.00279
1860.33542,0.00283
1858.27525,0.00331
1856.21508,0.00378
1854.15491,0.00378
1852.09473,0.00334
1850.03456,0.00294
1847.97439,0.00300
1845.91422,0.00344
1843.85404,0.00371
1841.79387,0.00347
1839.73370,0.00289
1837.67353,0.00227
1835.61336,0.00194
1833.55318,0.00206
1831.49301,0.00247
1829.43284,0.00282
1827.37267,0.00273
1825.31250,0.00224
1823.25232,0.00176
1821.19215,0.00152
1819.13198,0.00138
1817.07181,0.00115
1815.01163,0.00081
1812.95146,0.00052
1810.89129,0.00038
1808.83112,0.00031
1806.77095,0.00032
1804.71077,0.00045
1802.65060,0.00068
1800.59043,0.00093
1798.53026,0.00112
1796.47009,0.00108
1794.40991,0.00083
1792.34974,0.00069
1790.28957,0.00089
1788.22940,0.00113
1786.16923,0.00119
1784.10905,0.00106
1782.04888,0.00082
1779.98871,0.00059
1777.92854,0.00040
1775.86836,0.00019
1773.80819,0.00000
1771.74802,0.00012
1769.68785,0.00060
1767.62768,0.00090
1765.56750,0.00094
1763.50733,0.00116
1761.44716,0.00180
1759.38699,0.00270
1757.32682,0.00370
1755.26664,0.00477
1753.20647,0.00596
1751.14630,0.00729
1749.08613,0.00835
1747.02596,0.00899
1744.96578,0.00941
1742.90561,0.00985
1740.84544,0.01055
1738.78527,0.01134
1736.72509,0.01179
1734.66492,0.01204
1732.60475,0.01216
1730.54458,0.01207
1728.48441,0.01207
1726.42423,0.01240
1724.36406,0.01297
1722.30389,0.01324
1720.24372,0.01295
1718.18355,0.01281
1716.12337,0.01329
1714.06320,0.01361
1712.00303,0.01345
1709.94286,0.01318
1707.88268,0.01305
1705.82251,0.01317
1703.76234,0.01358
1701.70217,0.01395
1699.64200,0.01375
1697.58182,0.01329
1695.52165,0.01332
1693.46148,0.01377
1691.40131,0.01450
1689.34114,0.01564
1687.28096,0.01704
1685.22079,0.01877
1683.16062,0.02079
1681.10045,0.02220
1679.04028,0.02303
1676.98010,0.02397
1674.91993,0.02522
1672.85976,0.02611
1670.79959,0.02602
1668.73941,0.02515
1666.67924,0.02425
1664.61907,0.02364
1662.55890,0.02316
1660.49873,0.02280
1658.43855,0.02259
1656.37838,0.02235
1654.31821,0.02188
1652.25804,0.02143
1650.19787,0.02149
1648.13769,0.02172
1646.07752,0.02152
1644.01735,0.02109
1641.95718,0.02110
1639.89701,0.02160
1637.83683,0.02221
1635.77666,0.02259
1633.71649,0.02287
1631.65632,0.02357
1629.59614,0.02462
1627.53597,0.02540
1625.47580,0.02573
1623.41563,0.02596
1621.35546,0.02622
1619.29528,0.02654
1617.23511,0.02689
1615.17494,0.02721
1613.11477,0.02782
1611.05460,0.02891
1608.99442,0.03016
1606.93425,0.03103
1604.87408,0.03128
1602.81391,0.03089
1600.75373,0.02992
1598.69356,0.02870
1596.63339,0.02754
1594.57322,0.02649
1592.51305,0.02558
1590.45287,0.02491
1588.39270,0.02455
1586.33253,0.02413
1584.27236,0.02339
1582.21219,0.02270
1580.15201,0.02230
1578.09184,0.02180
1576.03167,0.02082
1573.97150,0.02004
1571.91133,0.02000
1569.85115,0.02008
1567.79098,0.01951
1565.73081,0.01841
1563.67064,0.01741
1561.61046,0.01689
1559.55029,0.01615
1557.49012,0.01474
1555.42995,0.01395
1553.36978,0.01368
1551.30960,0.01321
1549.24943,0.01240
1547.18926,0.01155
1545.12909,0.01096
1543.06892,0.01046
1541.00874,0.00966
1538.94857,0.00888
1536.88840,0.00857
1534.82823,0.00838
1532.76805,0.00809
1530.70788,0.00787
1528.64771,0.00770
1526.58754,0.00758
1524.52737,0.00765
1522.46719,0.00806
1520.40702,0.00904
1518.34685,0.01036
1516.28668,0.01143
1514.22651,0.01172
1512.16633,0.01127
1510.10616,0.01059
1508.04599,0.00949
1505.98582,0.00756
1503.92565,0.00593
1501.86547,0.00524
1499.80530,0.00493
1497.74513,0.00425
1495.68496,0.00314
1493.62478,0.00248
1491.56461,0.00248
1489.50444,0.00242
1487.44427,0.00192
1485.38410,0.00149
1483.32392,0.00142
1481.26375,0.00151
1479.20358,0.00169
1477.14341,0.00217
1475.08324,0.00329
1473.02306,0.00513
1470.96289,0.00716
1468.90272,0.00885
1466.84255,0.01029
1464.78238,0.01154
1462.72220,0.01243
1460.66203,0.01308
1458.60186,0.01404
1456.54169,0.01549
1454.48151,0.01661
1452.42134,0.01707
1450.36117,0.01732
1448.30100,0.01778
1446.24083,0.01851
1444.18065,0.01940
1442.12048,0.02030
1440.06031,0.02105
1438.00014,0.02160
1435.93997,0.02199
1433.87979,0.02223
1431.81962,0.02233
1429.75945,0.02236
1427.69928,0.02246
1425.63910,0.02275
1423.57893,0.02324
1421.51876,0.02368
1419.45859,0.02374
1417.39842,0.02345
1415.33824,0.02321
1413.27807,0.02302
1411.21790,0.02270
1409.15773,0.02223
1407.09756,0.02169
1405.03738,0.02098
1402.97721,0.02020
1400.91704,0.01963
1398.85687,0.01922
1396.79670,0.01877
1394.73652,0.01823
1392.67635,0.01768
1390.61618,0.01743
1388.55601,0.01755
1386.49583,0.01787
1384.43566,0.01825
1382.37549,0.01871
1380.31532,0.01926
1378.25515,0.01985
1376.19497,0.02044
1374.13480,0.02087
1372.07463,0.02104
1370.01446,0.02114
1367.95429,0.02127
1365.89411,0.02122
1363.83394,0.02089
1361.77377,0.02039
1359.71360,0.01992
1357.65343,0.01959
1355.59325,0.01930
1353.53308,0.01913
1351.47291,0.01934
1349.41274,0.01968
1347.35256,0.01968
1345.29239,0.01927
1343.23222,0.01885
1341.17205,0.01871
1339.11188,0.01870
1337.05170,0.01866
1334.99153,0.01864
1332.93136,0.01878
1330.87119,0.01891
1328.81102,0.01889
1326.75084,0.01888
1324.69067,0.01900
1322.63050,0.01910
1320.57033,0.01916
1318.51015,0.01907
1316.44998,0.01882
1314.38981,0.01872
1312.32964,0.01869
1310.26947,0.01837
1308.20929,0.01784
1306.14912,0.01731
1304.08895,0.01683
1302.02878,0.01643
1299.96861,0.01611
1297.90843,0.01563
1295.84826,0.01513
1293.78809,0.01504
1291.72792,0.01530
1289.66775,0.01555
1287.60757,0.01576
1285.54740,0.01602
1283.48723,0.01636
1281.42706,0.01666
1279.36688,0.01673
1277.30671,0.01659
1275.24654,0.01649
1273.18637,0.01668
1271.12620,0.01705
1269.06602,0.01745
1267.00585,0.01805
1264.94568,0.01879
1262.88551,0.01949
1260.82534,0.02015
1258.76516,0.02064
1256.70499,0.02093
1254.64482,0.02127
1252.58465,0.02191
1250.52447,0.02255
1248.46430,0.02285
1246.40413,0.02301
1244.34396,0.02316
1242.28379,0.02318
1240.22361,0.02314
1238.16344,0.02301
1236.10327,0.02274
1234.04310,0.02241
1231.98293,0.02190
1229.92275,0.02110
1227.86258,0.02013
1225.80241,0.01915
1223.74224,0.01812
1221.68207,0.01701
1219.62189,0.01596
1217.56172,0.01488
1215.50155,0.01380
1213.44138,0.01282
1211.38120,0.01183
1209.32103,0.01081
1207.26086,0.01003
1205.20069,0.00940
1203.14052,0.00825
1201.08034,0.00658
1199.02017,0.00514
1196.96000,0.00413
1194.89983,0.00315
1192.83966,0.00219
1190.77948,0.00142
1188.71931,0.00101
1186.65914,0.00080
1184.59897,0.00042
1182.53880,0.00000
1180.47862,-0.00010
1178.41845,0.00038
1176.35828,0.00156
1174.29811,0.00323
1172.23793,0.00504
1170.17776,0.00691
1168.11759,0.00845
1166.05742,0.00941
1163.99725,0.01019
1161.93707,0.01087
1159.87690,0.01128
1157.81673,0.01174
1155.75656,0.01240
1153.69639,0.01295
1151.63621,0.01347
1149.57604,0.01439
1147.51587,0.01559
1145.45570,0.01649
1143.39552,0.01714
1141.33535,0.01778
1139.27518,0.01834
1137.21501,0.01902
1135.15484,0.01985
1133.09466,0.02051
1131.03449,0.02105
1128.97432,0.02189
1126.91415,0.02303
1124.85398,0.02417
1122.79380,0.02504
1120.73363,0.02567
1118.67346,0.02642
1116.61329,0.02737
1114.55312,0.02836
1112.49294,0.02929
1110.43277,0.03031
1108.37260,0.03159
1106.31243,0.03293
1104.25225,0.03398
1102.19208,0.03479
1100.13191,0.03580
1098.07174,0.03715
1096.01157,0.03871
1093.95139,0.04057
1091.89122,0.04258
1089.83105,0.04438
1087.77088,0.04593
1085.71071,0.04723
1083.65053,0.04847
1081.59036,0.05001
1079.53019,0.05201
1077.47002,0.05403
1075.40985,0.05598
1073.34967,0.05831
1071.28950,0.06056
1069.22933,0.06218
1067.16916,0.06333
1065.10898,0.06434
1063.04881,0.06536
1060.98864,0.06633
1058.92847,0.06737
1056.86830,0.06867
1054.80812,0.07003
1052.74795,0.07147
1050.68778,0.07361
1048.62761,0.07609
1046.56744,0.07808
1044.50726,0.07976
1042.44709,0.08161
1040.38692,0.08382
1038.32675,0.08602
1036.26657,0.08739
1034.20640,0.08783
1032.14623,0.08809
1030.08606,0.08842
1028.02589,0.08847
1025.96571,0.08834
1023.90554,0.08811
1021.84537,0.08768
1019.78520,0.08731
1017.72503,0.08711
1015.66485,0.08687
1013.60468,0.08657
1011.54451,0.08654
1009.48434,0.08680
1007.42417,0.08698
1005.36399,0.08708
1003.30382,0.08710
1001.24365,0.08665
999.18348,0.08578
997.12330,0.08471
995.06313,0.08313
993.00296,0.08123
990.94279,0.07975
988.88262,0.07867
986.82244,0.07740
984.76227,0.07603
982.70210,0.07487
980.64193,0.07374
978.58176,0.07261
976.52158,0.07164
974.46141,0.07050
972.40124,0.06900
970.34107,0.06750
968.28089,0.06599
966.22072,0.06429
964.16055,0.06257
962.10038,0.06102
960.04021,0.05926
957.98003,0.05736
955.91986,0.05621
953.85969,0.05562
951.79952,0.05470
949.73935,0.05354
947.67917,0.05243
945.61900,0.05142
943.55883,0.04993
941.49866,0.04751
939.43849,0.04497
937.37831,0.04266
935.31814,0.04027
933.25797,0.03768
931.19780,0.03505
929.13762,0.03279
927.07745,0.03080
925.01728,0.02874
922.95711,0.02690
920.89694,0.02558
918.83676,0.02445
916.77659,0.02299
914.71642,0.02131
912.65625,0.01992
910.59608,0.01882
908.53590,0.01800
906.47573,0.01726
904.41556,0.01616
902.35539,0.01525
900.29522,0.01519
898.23504,0.01557
896.17487,0.01567
894.11470,0.01552
892.05453,0.01537
889.99435,0.01520
887.93418,0.01538
885.87401,0.01567
883.81384,0.01495
881.75367,0.01320
879.69349,0.01190
877.63332,0.01115
875.57315,0.01018
873.51298,0.00957
871.45281,0.00967
869.39263,0.00942
867.33246,0.00829
865.27229,0.00722
863.21212,0.00707
861.15194,0.00767
859.09177,0.00791
857.03160,0.00745
854.97143,0.00717
852.91126,0.00691
850.85108,0.00652
848.79091,0.00655
846.73074,0.00687
844.67057,0.00704
842.61040,0.00703
840.55022,0.00677
838.49005,0.00601
836.42988,0.00539
834.36971,0.00543
832.30954,0.00570
830.24936,0.00579
828.18919,0.00529
826.12902,0.00460
824.06885,0.00428
822.00867,0.00375
819.94850,0.00300
817.88833,0.00278
815.82816,0.00262
813.76799,0.00226
811.70781,0.00190
809.64764,0.00149
807.58747,0.00179
805.52730,0.00278
803.46713,0.00311
801.40695,0.00292
799.34678,0.00372
797.28661,0.00510
795.22644,0.00502
793.16627,0.00352
791.10609,0.00246
789.04592,0.00235
786.98575,0.00203
784.92558,0.00085
782.86540,0.00000
780.80523,0.00002
778.74506,0.00041
776.68489,0.00103
774.62472,0.00192
772.56454,0.00248
770.50437,0.00189
768.44420,0.00054
766.38403,-0.00048
764.32386,-0.00056
762.26368,0.00002
760.20351,0.00010
758.14334,0.00001
756.08317,0.00036
754.02299,0.00028
751.96282,0.00000
749.90265,-0.00002
747.84248,-0.00038
745.78231,-0.00084
743.72213,-0.00091
741.66196,-0.00154
739.60179,-0.00258
737.54162,-0.00309
735.48145,-0.00225
733.42127,-0.00082
731.36110,-0.00031
729.30093,0.00059
727.24076,0.00173
725.18059,0.00111
723.12041,0.00070
721.06024,0.00084
719.00007,0.00091
716.93990,0.00004
714.87972,-0.00066
712.81955,0.00013
710.75938,0.00228
708.69921,0.00499
706.63904,0.00717
704.57886,0.00783
702.51869,0.00648
700.45852,0.00438
698.39835,0.00458
696.33818,0.00719
694.27800,0.00788
692.21783,0.00466
690.15766,0.00091
688.09749,0.00006
686.03731,0.00215
683.97714,0.00436
681.91697,0.00450
679.85680,0.00350
677.79663,0.00320
675.73645,0.00365
673.67628,0.00355
671.61611,0.00266
669.55594,0.00039
667.49577,-0.00073
665.43559,0.00283
663.37542,0.00397
661.31525,0.00398
659.25508,0.00341
657.19491,0.00323
655.13473,0.00329
653.07456,0.00310
651.01439,0.00231
648.95422,0.00068
646.89404,0.00000
644.83387,0.00226
642.77370,0.00678
640.71353,0.00906
638.65336,0.00684
636.59318,0.00441
634.53301,0.00509
632.47284,0.00558
630.41267,0.00262
628.35250,-0.00182
626.29232,-0.00391
624.23215,-0.00212
622.17198,0.00176
620.11181,0.00370
618.05164,0.00308
615.99146,0.00188
613.93129,0.00126
611.87112,0.00260
609.81095,0.00444
607.75077,0.00512
605.69060,0.00465
603.63043,0.00070
601.57026,-0.00317
599.51009,0.00000
