3996.73391	0.00067
3994.67373	0.00046
3992.61356	0.00026
3990.55339	0.00009
3988.49322	0.00000
3986.43305	0.00000
3984.37287	0.00008
3982.31270	0.00020
3980.25253	0.00028
3978.19236	0.00027
3976.13219	0.00020
3974.07201	0.00017
3972.01184	0.00021
3969.95167	0.00027
3967.89150	0.00030
3965.83133	0.00028
3963.77115	0.00021
3961.71098	0.00014
3959.65081	0.00015
3957.59064	0.00027
3955.53046	0.00049
3953.47029	0.00076
3951.41012	0.00108
3949.34995	0.00142
3947.28978	0.00163
3945.22960	0.00155
3943.16943	0.00120
3941.10926	0.00084
3939.04909	0.00072
3936.98892	0.00082
3934.92874	0.00094
3932.86857	0.00095
3930.80840	0.00086
3928.74823	0.00077
3926.68805	0.00075
3924.62788	0.00085
3922.56771	0.00101
3920.50754	0.00108
3918.44737	0.00098
3916.38719	0.00077
3914.32702	0.00064
3912.26685	0.00067
3910.20668	0.00082
3908.14651	0.00097
3906.08633	0.00098
3904.02616	0.00081
3901.96599	0.00054
3899.90582	0.00038
3897.84565	0.00049
3895.78547	0.00086
3893.72530	0.00130
3891.66513	0.00160
3889.60496	0.00164
3887.54478	0.00144
3885.48461	0.00109
3883.42444	0.00070
3881.36427	0.00036
3879.30410	0.00020
3877.24392	0.00028
3875.18375	0.00061
3873.12358	0.00100
3871.06341	0.00125
3869.00324	0.00125
3866.94306	0.00106
3864.88289	0.00091
3862.82272	0.00099
3860.76255	0.00122
3858.70237	0.00143
3856.64220	0.00150
3854.58203	0.00146
3852.52186	0.00141
3850.46169	0.00143
3848.40151	0.00152
3846.34134	0.00161
3844.28117	0.00158
3842.22100	0.00148
3840.16083	0.00147
3838.10065	0.00163
3836.04048	0.00185
3833.98031	0.00193
3831.92014	0.00176
3829.85997	0.00143
3827.79979	0.00108
3825.73962	0.00081
3823.67945	0.00064
3821.61928	0.00051
3819.55910	0.00043
3817.49893	0.00050
3815.43876	0.00075
3813.37859	0.00107
3811.31842	0.00131
3809.25824	0.00133
3807.19807	0.00117
3805.13790	0.00096
3803.07773	0.00082
3801.01756	0.00075
3798.95738	0.00076
3796.89721	0.00084
3794.83704	0.00098
3792.77687	0.00116
3790.71670	0.00139
3788.65652	0.00165
3786.59635	0.00191
3784.53618	0.00208
3782.47601	0.00208
3780.41583	0.00186
3778.35566	0.00149
3776.29549	0.00117
3774.23532	0.00101
3772.17515	0.00096
3770.11497	0.00093
3768.05480	0.00088
3765.99463	0.00086
3763.93446	0.00093
3761.87429	0.00103
3759.81411	0.00103
3757.75394	0.00096
3755.69377	0.00097
3753.63360	0.00109
3751.57342	0.00119
3749.51325	0.00131
3747.45308	0.00156
3745.39291	0.00183
3743.33274	0.00181
3741.27256	0.00139
3739.21239	0.00075
3737.15222	0.00029
3735.09205	0.00043
3733.03188	0.00128
3730.97170	0.00236
3728.91153	0.00311
3726.85136	0.00327
3724.79119	0.00294
3722.73102	0.00248
3720.67084	0.00222
3718.61067	0.00218
3716.55050	0.00217
3714.49033	0.00211
3712.43015	0.00207
3710.36998	0.00211
3708.30981	0.00220
3706.24964	0.00229
3704.18947	0.00240
3702.12929	0.00247
3700.06912	0.00250
3698.00895	0.00253
3695.94878	0.00263
3693.88861	0.00275
3691.82843	0.00281
3689.76826	0.00275
3687.70809	0.00243
3685.64792	0.00185
3683.58775	0.00124
3681.52757	0.00080
3679.46740	0.00055
3677.40723	0.00041
3675.34706	0.00037
3673.28688	0.00049
3671.22671	0.00081
3669.16654	0.00124
3667.10637	0.00174
3665.04620	0.00219
3662.98602	0.00245
3660.92585	0.00244
3658.86568	0.00219
3656.80551	0.00181
3654.74534	0.00138
3652.68516	0.00100
3650.62499	0.00082
3648.56482	0.00107
3646.50465	0.00172
3644.44447	0.00242
3642.38430	0.00290
3640.32413	0.00310
3638.26396	0.00313
3636.20379	0.00308
3634.14361	0.00301
3632.08344	0.00290
3630.02327	0.00285
3627.96310	0.00302
3625.90293	0.00351
3623.84275	0.00421
3621.78258	0.00496
3619.72241	0.00556
3617.66224	0.00588
3615.60207	0.00594
3613.54189	0.00585
3611.48172	0.00573
3609.42155	0.00568
3607.36138	0.00569
3605.30120	0.00582
3603.24103	0.00611
3601.18086	0.00655
3599.12069	0.00707
3597.06052	0.00752
3595.00034	0.00775
3592.94017	0.00771
3590.88000	0.00752
3588.81983	0.00745
3586.75966	0.00766
3584.69948	0.00814
3582.63931	0.00879
3580.57914	0.00945
3578.51897	0.00996
3576.45879	0.01032
3574.39862	0.01063
3572.33845	0.01085
3570.27828	0.01090
3568.21811	0.01084
3566.15793	0.01078
3564.09776	0.01085
3562.03759	0.01104
3559.97742	0.01128
3557.91725	0.01155
3555.85707	0.01192
3553.79690	0.01246
3551.73673	0.01307
3549.67656	0.01364
3547.61639	0.01409
3545.55621	0.01445
3543.49604	0.01479
3541.43587	0.01517
3539.37570	0.01559
3537.31552	0.01605
3535.25535	0.01651
3533.19518	0.01693
3531.13501	0.01731
3529.07484	0.01771
3527.01466	0.01811
3524.95449	0.01853
3522.89432	0.01894
3520.83415	0.01934
3518.77398	0.01975
3516.71380	0.02023
3514.65363	0.02068
3512.59346	0.02103
3510.53329	0.02130
3508.47312	0.02161
3506.41294	0.02203
3504.35277	0.02249
3502.29260	0.02288
3500.23243	0.02310
3498.17225	0.02322
3496.11208	0.02340
3494.05191	0.02383
3491.99174	0.02448
3489.93157	0.02511
3487.87139	0.02554
3485.81122	0.02574
3483.75105	0.02587
3481.69088	0.02604
3479.63071	0.02627
3477.57053	0.02648
3475.51036	0.02666
3473.45019	0.02687
3471.39002	0.02724
3469.32984	0.02785
3467.26967	0.02863
3465.20950	0.02943
3463.14933	0.03005
3461.08916	0.03044
3459.02898	0.03064
3456.96881	0.03076
3454.90864	0.03084
3452.84847	0.03093
3450.78830	0.03108
3448.72812	0.03133
3446.66795	0.03175
3444.60778	0.03233
3442.54761	0.03300
3440.48744	0.03362
3438.42726	0.03406
3436.36709	0.03428
3434.30692	0.03434
3432.24675	0.03441
3430.18657	0.03459
3428.12640	0.03484
3426.06623	0.03512
3424.00606	0.03546
3421.94589	0.03594
3419.88571	0.03650
3417.82554	0.03700
3415.76537	0.03733
3413.70520	0.03749
3411.64503	0.03748
3409.58485	0.03736
3407.52468	0.03724
3405.46451	0.03732
3403.40434	0.03770
3401.34416	0.03835
3399.28399	0.03904
3397.22382	0.03959
3395.16365	0.03995
3393.10348	0.04014
3391.04330	0.04023
3388.98313	0.04032
3386.92296	0.04047
3384.86279	0.04062
3382.80262	0.04068
3380.74244	0.04069
3378.68227	0.04073
3376.62210	0.04087
3374.56193	0.04109
3372.50176	0.04140
3370.44158	0.04183
3368.38141	0.04227
3366.32124	0.04262
3364.26107	0.04285
3362.20089	0.04306
3360.14072	0.04326
3358.08055	0.04338
3356.02038	0.04337
3353.96021	0.04326
3351.90003	0.04323
3349.83986	0.04335
3347.77969	0.04350
3345.71952	0.04355
3343.65935	0.04351
3341.59917	0.04345
3339.53900	0.04342
3337.47883	0.04347
3335.41866	0.04360
3333.35849	0.04383
3331.29831	0.04412
3329.23814	0.04439
3327.17797	0.04453
3325.11780	0.04445
3323.05762	0.04417
3320.99745	0.04384
3318.93728	0.04363
3316.87711	0.04371
3314.81694	0.04402
3312.75676	0.04441
3310.69659	0.04466
3308.63642	0.04467
3306.57625	0.04447
3304.51608	0.04423
3302.45590	0.04414
3300.39573	0.04424
3298.33556	0.04442
3296.27539	0.04456
3294.21521	0.04459
3292.15504	0.04456
3290.09487	0.04455
3288.03470	0.04469
3285.97453	0.04493
3283.91435	0.04506
3281.85418	0.04495
3279.79401	0.04472
3277.73384	0.04452
3275.67367	0.04441
3273.61349	0.04435
3271.55332	0.04428
3269.49315	0.04417
3267.43298	0.04401
3265.37281	0.04377
3263.31263	0.04343
3261.25246	0.04306
3259.19229	0.04283
3257.13212	0.04282
3255.07194	0.04300
3253.01177	0.04322
3250.95160	0.04332
3248.89143	0.04326
3246.83126	0.04308
3244.77108	0.04292
3242.71091	0.04288
3240.65074	0.04293
3238.59057	0.04292
3236.53040	0.04276
3234.47022	0.04251
3232.41005	0.04230
3230.34988	0.04224
3228.28971	0.04233
3226.22954	0.04248
3224.16936	0.04258
3222.10919	0.04255
3220.04902	0.04234
3217.98885	0.04194
3215.92867	0.04146
3213.86850	0.04109
3211.80833	0.04098
3209.74816	0.04110
3207.68799	0.04124
3205.62781	0.04125
3203.56764	0.04108
3201.50747	0.04083
3199.44730	0.04058
3197.38713	0.04033
3195.32695	0.04010
3193.26678	0.03983
3191.20661	0.03947
3189.14644	0.03901
3187.08626	0.03854
3185.02609	0.03815
3182.96592	0.03787
3180.90575	0.03769
3178.84558	0.03763
3176.78540	0.03768
3174.72523	0.03772
3172.66506	0.03764
3170.60489	0.03741
3168.54472	0.03709
3166.48454	0.03674
3164.42437	0.03641
3162.36420	0.03611
3160.30403	0.03583
3158.24386	0.03556
3156.18368	0.03532
3154.12351	0.03510
3152.06334	0.03490
3150.00317	0.03470
3147.94299	0.03452
3145.88282	0.03432
3143.82265	0.03415
3141.76248	0.03404
3139.70231	0.03388
3137.64213	0.03355
3135.58196	0.03309
3133.52179	0.03270
3131.46162	0.03248
3129.40145	0.03241
3127.34127	0.03239
3125.28110	0.03227
3123.22093	0.03199
3121.16076	0.03161
3119.10058	0.03119
3117.04041	0.03077
3114.98024	0.03039
3112.92007	0.03011
3110.85990	0.02997
3108.79972	0.02993
3106.73955	0.02986
3104.67938	0.02974
3102.61921	0.02959
3100.55904	0.02946
3098.49886	0.02932
3096.43869	0.02915
3094.37852	0.02890
3092.31835	0.02858
3090.25818	0.02816
3088.19800	0.02770
3086.13783	0.02728
3084.07766	0.02698
3082.01749	0.02679
3079.95731	0.02667
3077.89714	0.02658
3075.83697	0.02651
3073.77680	0.02644
3071.71663	0.02633
3069.65645	0.02620
3067.59628	0.02601
3065.53611	0.02572
3063.47594	0.02536
3061.41577	0.02501
3059.35559	0.02472
3057.29542	0.02451
3055.23525	0.02435
3053.17508	0.02419
3051.11491	0.02398
3049.05473	0.02371
3046.99456	0.02344
3044.93439	0.02327
3042.87422	0.02317
3040.81404	0.02304
3038.75387	0.02281
3036.69370	0.02253
3034.63353	0.02233
3032.57336	0.02223
3030.51318	0.02218
3028.45301	0.02207
3026.39284	0.02187
3024.33267	0.02165
3022.27250	0.02152
3020.21232	0.02152
3018.15215	0.02162
3016.09198	0.02168
3014.03181	0.02164
3011.97163	0.02153
3009.91146	0.02138
3007.85129	0.02121
3005.79112	0.02103
3003.73095	0.02080
3001.67077	0.02055
2999.61060	0.02040
2997.55043	0.02048
2995.49026	0.02063
2993.43009	0.02055
2991.36991	0.02026
2989.30974	0.02011
2987.24957	0.02022
2985.18940	0.02039
2983.12923	0.02053
2981.06905	0.02077
2979.00888	0.02128
2976.94871	0.02196
2974.88854	0.02268
2972.82836	0.02341
2970.76819	0.02406
2968.70802	0.02477
2966.64785	0.02577
2964.58768	0.02703
2962.52750	0.02849
2960.46733	0.03008
2958.40716	0.03163
2956.34699	0.03300
2954.28682	0.03416
2952.22664	0.03522
2950.16647	0.03653
2948.10630	0.03828
2946.04613	0.04023
2943.98596	0.04209
2941.92578	0.04396
2939.86561	0.04599
2937.80544	0.04815
2935.74527	0.05041
2933.68509	0.05271
2931.62492	0.05492
2929.56475	0.05687
2927.50458	0.05842
2925.44441	0.05963
2923.38423	0.06054
2921.32406	0.06102
2919.26389	0.06099
2917.20372	0.06029
2915.14355	0.05874
2913.08337	0.05650
2911.02320	0.05405
2908.96303	0.05185
2906.90286	0.05011
2904.84268	0.04860
2902.78251	0.04691
2900.72234	0.04502
2898.66217	0.04338
2896.60200	0.04218
2894.54182	0.04124
2892.48165	0.04039
2890.42148	0.03958
2888.36131	0.03870
2886.30114	0.03774
2884.24096	0.03700
2882.18079	0.03670
2880.12062	0.03652
2878.06045	0.03621
2876.00028	0.03607
2873.94010	0.03639
2871.87993	0.03694
2869.81976	0.03743
2867.75959	0.03795
2865.69941	0.03865
2863.63924	0.03958
2861.57907	0.04079
2859.51890	0.04227
2857.45873	0.04395
2855.39855	0.04578
2853.33838	0.04736
2851.27821	0.04793
2849.21804	0.04691
2847.15787	0.04438
2845.09769	0.04100
2843.03752	0.03763
2840.97735	0.03492
2838.91718	0.03303
2836.85700	0.03165
2834.79683	0.03038
2832.73666	0.02913
2830.67649	0.02803
2828.61632	0.02717
2826.55614	0.02652
2824.49597	0.02600
2822.43580	0.02544
2820.37563	0.02479
2818.31546	0.02421
2816.25528	0.02381
2814.19511	0.02349
2812.13494	0.02317
2810.07477	0.02296
2808.01460	0.02291
2805.95442	0.02281
2803.89425	0.02248
2801.83408	0.02207
2799.77391	0.02187
2797.71373	0.02184
2795.65356	0.02169
2793.59339	0.02138
2791.53322	0.02113
2789.47305	0.02102
2787.41287	0.02092
2785.35270	0.02077
2783.29253	0.02057
2781.23236	0.02037
2779.17219	0.02022
2777.11201	0.02015
2775.05184	0.02001
2772.99167	0.01967
2770.93150	0.01932
2768.87133	0.01915
2766.81115	0.01913
2764.75098	0.01907
2762.69081	0.01895
2760.63064	0.01885
2758.57046	0.01885
2756.51029	0.01885
2754.45012	0.01874
2752.38995	0.01862
2750.32978	0.01861
2748.26960	0.01860
2746.20943	0.01856
2744.14926	0.01851
2742.08909	0.01846
2740.02892	0.01838
2737.96874	0.01830
2735.90857	0.01825
2733.84840	0.01828
2731.78823	0.01841
2729.72805	0.01851
2727.66788	0.01845
2725.60771	0.01826
2723.54754	0.01804
2721.48737	0.01791
2719.42719	0.01786
2717.36702	0.01780
2715.30685	0.01772
2713.24668	0.01771
2711.18651	0.01777
2709.12633	0.01784
2707.06616	0.01784
2705.00599	0.01774
2702.94582	0.01764
2700.88565	0.01757
2698.82547	0.01742
2696.76530	0.01718
2694.70513	0.01703
2692.64496	0.01700
2690.58478	0.01702
2688.52461	0.01702
2686.46444	0.01689
2684.40427	0.01667
2682.34410	0.01653
2680.28392	0.01656
2678.22375	0.01671
2676.16358	0.01685
2674.10341	0.01686
2672.04324	0.01665
2669.98306	0.01631
2667.92289	0.01608
2665.86272	0.01617
2663.80255	0.01647
2661.74238	0.01674
2659.68220	0.01681
2657.62203	0.01666
2655.56186	0.01646
2653.50169	0.01639
2651.44151	0.01643
2649.38134	0.01647
2647.32117	0.01635
2645.26100	0.01608
2643.20083	0.01583
2641.14065	0.01566
2639.08048	0.01555
2637.02031	0.01549
2634.96014	0.01549
2632.89997	0.01547
2630.83979	0.01530
2628.77962	0.01508
2626.71945	0.01502
2624.65928	0.01513
2622.59910	0.01529
2620.53893	0.01533
2618.47876	0.01518
2616.41859	0.01491
2614.35842	0.01462
2612.29824	0.01444
2610.23807	0.01448
2608.17790	0.01463
2606.11773	0.01473
2604.05756	0.01466
2601.99738	0.01433
2599.93721	0.01390
2597.87704	0.01371
2595.81687	0.01383
2593.75670	0.01396
2591.69652	0.01379
2589.63635	0.01341
2587.57618	0.01316
2585.51601	0.01312
2583.45583	0.01309
2581.39566	0.01294
2579.33549	0.01275
2577.27532	0.01270
2575.21515	0.01285
2573.15497	0.01302
2571.09480	0.01299
2569.03463	0.01271
2566.97446	0.01236
2564.91429	0.01213
2562.85411	0.01209
2560.79394	0.01214
2558.73377	0.01227
2556.67360	0.01257
2554.61342	0.01284
2552.55325	0.01270
2550.49308	0.01221
2548.43291	0.01185
2546.37274	0.01190
2544.31256	0.01222
2542.25239	0.01257
2540.19222	0.01288
2538.13205	0.01298
2536.07188	0.01275
2534.01170	0.01242
2531.95153	0.01207
2529.89136	0.01175
2527.83119	0.01167
2525.77102	0.01175
2523.71084	0.01173
2521.65067	0.01155
2519.59050	0.01141
2517.53033	0.01139
2515.47015	0.01140
2513.40998	0.01135
2511.34981	0.01136
2509.28964	0.01147
2507.22947	0.01159
2505.16929	0.01159
2503.10912	0.01144
2501.04895	0.01120
2498.98878	0.01100
2496.92861	0.01091
2494.86843	0.01090
2492.80826	0.01090
2490.74809	0.01100
2488.68792	0.01118
2486.62775	0.01119
2484.56757	0.01084
2482.50740	0.01030
2480.44723	0.01001
2478.38706	0.01022
2476.32688	0.01053
2474.26671	0.01054
2472.20654	0.01031
2470.14637	0.01002
2468.08620	0.00985
2466.02602	0.00996
2463.96585	0.01002
2461.90568	0.00969
2459.84551	0.00938
2457.78534	0.00958
2455.72516	0.00998
2453.66499	0.01005
2451.60482	0.00974
2449.54465	0.00937
2447.48447	0.00922
2445.42430	0.00929
2443.36413	0.00925
2441.30396	0.00905
2439.24379	0.00903
2437.18361	0.00929
2435.12344	0.00954
2433.06327	0.00965
2431.00310	0.00972
2428.94293	0.00973
2426.88275	0.00971
2424.82258	0.00976
2422.76241	0.00983
2420.70224	0.00990
2418.64207	0.00995
2416.58189	0.00991
2414.52172	0.00982
2412.46155	0.00980
2410.40138	0.00982
2408.34120	0.00972
2406.28103	0.00953
2404.22086	0.00931
2402.16069	0.00903
2400.10052	0.00880
2398.04034	0.00886
2395.98017	0.00912
2393.92000	0.00934
2391.85983	0.00944
2389.79966	0.00945
2387.73948	0.00944
2385.67931	0.00934
2383.61914	0.00907
2381.55897	0.00866
2379.49880	0.00835
2377.43862	0.00830
2375.37845	0.00846
2373.31828	0.00869
2371.25811	0.00900
2369.19793	0.00955
2367.13776	0.01037
2365.07759	0.01116
2363.01742	0.01151
2360.95725	0.01122
2358.89707	0.01033
2356.83690	0.00937
2354.77673	0.00894
2352.71656	0.00922
2350.65639	0.00976
2348.59621	0.00979
2346.53604	0.00918
2344.47587	0.00875
2342.41570	0.00900
2340.35552	0.00964
2338.29535	0.01018
2336.23518	0.01032
2334.17501	0.01015
2332.11484	0.00992
2330.05466	0.00991
2327.99449	0.01020
2325.93432	0.01066
2323.87415	0.01106
2321.81398	0.01136
2319.75380	0.01157
2317.69363	0.01157
2315.63346	0.01116
2313.57329	0.01037
2311.51312	0.00959
2309.45294	0.00918
2307.39277	0.00918
2305.33260	0.00939
2303.27243	0.00963
2301.21225	0.00981
2299.15208	0.00997
2297.09191	0.01009
2295.03174	0.01018
2292.97157	0.01024
2290.91139	0.01017
2288.85122	0.00992
2286.79105	0.00961
2284.73088	0.00933
2282.67071	0.00903
2280.61053	0.00871
2278.55036	0.00849
2276.49019	0.00845
2274.43002	0.00853
2272.36984	0.00857
2270.30967	0.00857
2268.24950	0.00856
2266.18933	0.00853
2264.12916	0.00848
2262.06898	0.00840
2260.00881	0.00824
2257.94864	0.00799
2255.88847	0.00770
2253.82830	0.00744
2251.76812	0.00735
2249.70795	0.00748
2247.64778	0.00778
2245.58761	0.00813
2243.52744	0.00834
2241.46726	0.00842
2239.40709	0.00841
2237.34692	0.00801
2235.28675	0.00728
2233.22657	0.00687
2231.16640	0.00681
2229.10623	0.00678
2227.04606	0.00669
2224.98589	0.00642
2222.92571	0.00606
2220.86554	0.00606
2218.80537	0.00629
2216.74520	0.00637
2214.68503	0.00664
2212.62485	0.00722
2210.56468	0.00752
2208.50451	0.00736
2206.44434	0.00720
2204.38417	0.00726
2202.32399	0.00723
2200.26382	0.00681
2198.20365	0.00627
2196.14348	0.00619
2194.08330	0.00627
2192.02313	0.00600
2189.96296	0.00592
2187.90279	0.00633
2185.84262	0.00657
2183.78244	0.00637
2181.72227	0.00610
2179.66210	0.00583
2177.60193	0.00536
2175.54176	0.00493
2173.48158	0.00523
2171.42141	0.00602
2169.36124	0.00617
2167.30107	0.00569
2165.24089	0.00594
2163.18072	0.00679
2161.12055	0.00617
2159.06038	0.00364
2157.00021	0.00185
2154.94003	0.00238
2152.87986	0.00353
2150.81969	0.00350
2148.75952	0.00308
2146.69935	0.00353
2144.63917	0.00459
2142.57900	0.00551
2140.51883	0.00596
2138.45866	0.00575
2136.39849	0.00487
2134.33831	0.00397
2132.27814	0.00373
2130.21797	0.00421
2128.15780	0.00523
2126.09762	0.00630
2124.03745	0.00684
2121.97728	0.00688
2119.91711	0.00687
2117.85694	0.00698
2115.79676	0.00703
2113.73659	0.00694
2111.67642	0.00686
2109.61625	0.00671
2107.55608	0.00657
2105.49590	0.00687
2103.43573	0.00739
2101.37556	0.00756
2099.31539	0.00756
2097.25521	0.00760
2095.19504	0.00761
2093.13487	0.00734
2091.07470	0.00672
2089.01453	0.00604
2086.95435	0.00559
2084.89418	0.00542
2082.83401	0.00544
2080.77384	0.00563
2078.71367	0.00587
2076.65349	0.00613
2074.59332	0.00642
2072.53315	0.00669
2070.47298	0.00680
2068.41281	0.00672
2066.35263	0.00654
2064.29246	0.00635
2062.23229	0.00617
2060.17212	0.00606
2058.11194	0.00606
2056.05177	0.00624
2053.99160	0.00661
2051.93143	0.00701
2049.87126	0.00726
2047.81108	0.00722
2045.75091	0.00689
2043.69074	0.00633
2041.63057	0.00558
2039.57040	0.00467
2037.51022	0.00373
2035.45005	0.00302
2033.38988	0.00271
2031.32971	0.00277
2029.26954	0.00289
2027.20936	0.00264
2025.14919	0.00200
2023.08902	0.00147
2021.02885	0.00137
2018.96867	0.00160
2016.90850	0.00228
2014.84833	0.00346
2012.78816	0.00470
2010.72799	0.00537
2008.66781	0.00546
2006.60764	0.00537
2004.54747	0.00514
2002.48730	0.00458
2000.42713	0.00377
1998.36695	0.00315
1996.30678	0.00295
1994.24661	0.00310
1992.18644	0.00335
1990.12626	0.00347
1988.06609	0.00348
1986.00592	0.00349
1983.94575	0.00350
1981.88558	0.00347
1979.82540	0.00353
1977.76523	0.00376
1975.70506	0.00395
1973.64489	0.00379
1971.58472	0.00322
1969.52454	0.00245
1967.46437	0.00179
1965.40420	0.00154
1963.34403	0.00187
1961.28386	0.00259
1959.22368	0.00336
1957.16351	0.00399
1955.10334	0.00444
1953.04317	0.00471
1950.98299	0.00479
1948.92282	0.00470
1946.86265	0.00452
1944.80248	0.00435
1942.74231	0.00424
1940.68213	0.00415
1938.62196	0.00397
1936.56179	0.00372
1934.50162	0.00354
1932.44145	0.00357
1930.38127	0.00375
1928.32110	0.00383
1926.26093	0.00363
1924.20076	0.00327
1922.14059	0.00308
1920.08041	0.00318
1918.02024	0.00336
1915.96007	0.00343
1913.89990	0.00344
1911.83972	0.00348
1909.77955	0.00351
1907.71938	0.00344
1905.65921	0.00329
1903.59904	0.00313
1901.53886	0.00307
1899.47869	0.00317
1897.41852	0.00327
1895.35835	0.00323
1893.29818	0.00307
1891.23800	0.00294
1889.17783	0.00287
1887.11766	0.00279
1885.05749	0.00274
1882.99731	0.00281
1880.93714	0.00297
1878.87697	0.00308
1876.81680	0.00314
1874.75663	0.00322
1872.69645	0.00334
1870.63628	0.00339
1868.57611	0.00321
1866.51594	0.00284
1864.45577	0.00245
1862.39559	0.00218
1860.33542	0.00206
1858.27525	0.00206
1856.21508	0.00217
1854.15491	0.00230
1852.09473	0.00239
1850.03456	0.00240
1847.97439	0.00236
1845.91422	0.00235
1843.85404	0.00238
1841.79387	0.00238
1839.73370	0.00232
1837.67353	0.00219
1835.61336	0.00205
1833.55318	0.00193
1831.49301	0.00183
1829.43284	0.00183
1827.37267	0.00194
1825.31250	0.00211
1823.25232	0.00223
1821.19215	0.00221
1819.13198	0.00204
1817.07181	0.00183
1815.01163	0.00172
1812.95146	0.00173
1810.89129	0.00180
1808.83112	0.00185
1806.77095	0.00188
1804.71077	0.00192
1802.65060	0.00197
1800.59043	0.00198
1798.53026	0.00191
1796.47009	0.00175
1794.40991	0.00151
1792.34974	0.00133
1790.28957	0.00132
1788.22940	0.00147
1786.16923	0.00167
1784.10905	0.00179
1782.04888	0.00177
1779.98871	0.00167
1777.92854	0.00157
1775.86836	0.00152
1773.80819	0.00145
1771.74802	0.00146
1769.68785	0.00165
1767.62768	0.00207
1765.56750	0.00267
1763.50733	0.00339
1761.44716	0.00429
1759.38699	0.00542
1757.32682	0.00679
1755.26664	0.00830
1753.20647	0.00988
1751.14630	0.01151
1749.08613	0.01314
1747.02596	0.01464
1744.96578	0.01587
1742.90561	0.01673
1740.84544	0.01723
1738.78527	0.01742
1736.72509	0.01735
1734.66492	0.01707
1732.60475	0.01671
1730.54458	0.01644
1728.48441	0.01636
1726.42423	0.01642
1724.36406	0.01651
1722.30389	0.01658
1720.24372	0.01656
1718.18355	0.01644
1716.12337	0.01630
1714.06320	0.01625
1712.00303	0.01626
1709.94286	0.01617
1707.88268	0.01590
1705.82251	0.01548
1703.76234	0.01503
1701.70217	0.01469
1699.64200	0.01456
1697.58182	0.01475
1695.52165	0.01532
1693.46148	0.01620
1691.40131	0.01725
1689.34114	0.01836
1687.28096	0.01955
1685.22079	0.02099
1683.16062	0.02278
1681.10045	0.02471
1679.04028	0.02648
1676.98010	0.02786
1674.91993	0.02875
1672.85976	0.02912
1670.79959	0.02905
1668.73941	0.02871
1666.67924	0.02825
1664.61907	0.02779
1662.55890	0.02735
1660.49873	0.02688
1658.43855	0.02634
1656.37838	0.02568
1654.31821	0.02500
1652.25804	0.02451
1650.19787	0.02440
1648.13769	0.02461
1646.07752	0.02496
1644.01735	0.02537
1641.95718	0.02577
1639.89701	0.02616
1637.83683	0.02660
1635.77666	0.02715
1633.71649	0.02781
1631.65632	0.02846
1629.59614	0.02900
1627.53597	0.02936
1625.47580	0.02960
1623.41563	0.02979
1621.35546	0.02999
1619.29528	0.03026
1617.23511	0.03069
1615.17494	0.03137
1613.11477	0.03229
1611.05460	0.03340
1608.99442	0.03451
1606.93425	0.03538
1604.87408	0.03568
1602.81391	0.03527
1600.75373	0.03424
1598.69356	0.03284
1596.63339	0.03135
1594.57322	0.02998
1592.51305	0.02889
1590.45287	0.02806
1588.39270	0.02737
1586.33253	0.02666
1584.27236	0.02585
1582.21219	0.02496
1580.15201	0.02404
1578.09184	0.02317
1576.03167	0.02239
1573.97150	0.02169
1571.91133	0.02102
1569.85115	0.02032
1567.79098	0.01957
1565.73081	0.01878
1563.67064	0.01792
1561.61046	0.01695
1559.55029	0.01589
1557.49012	0.01483
1555.42995	0.01399
1553.36978	0.01342
1551.30960	0.01295
1549.24943	0.01242
1547.18926	0.01177
1545.12909	0.01102
1543.06892	0.01021
1541.00874	0.00944
1538.94857	0.00881
1536.88840	0.00836
1534.82823	0.00801
1532.76805	0.00766
1530.70788	0.00731
1528.64771	0.00707
1526.58754	0.00703
1524.52737	0.00725
1522.46719	0.00791
1520.40702	0.00907
1518.34685	0.01039
1516.28668	0.01139
1514.22651	0.01171
1512.16633	0.01126
1510.10616	0.01019
1508.04599	0.00878
1505.98582	0.00740
1503.92565	0.00630
1501.86547	0.00538
1499.80530	0.00447
1497.74513	0.00358
1495.68496	0.00285
1493.62478	0.00235
1491.56461	0.00204
1489.50444	0.00186
1487.44427	0.00179
1485.38410	0.00184
1483.32392	0.00204
1481.26375	0.00240
1479.20358	0.00296
1477.14341	0.00381
1475.08324	0.00506
1473.02306	0.00676
1470.96289	0.00879
1468.90272	0.01089
1466.84255	0.01284
1464.78238	0.01451
1462.72220	0.01579
1460.66203	0.01673
1458.60186	0.01748
1456.54169	0.01823
1454.48151	0.01902
1452.42134	0.01976
1450.36117	0.02045
1448.30100	0.02114
1446.24083	0.02190
1444.18065	0.02273
1442.12048	0.02357
1440.06031	0.02437
1438.00014	0.02507
1435.93997	0.02562
1433.87979	0.02595
1431.81962	0.02603
1429.75945	0.02593
1427.69928	0.02581
1425.63910	0.02578
1423.57893	0.02583
1421.51876	0.02596
1419.45859	0.02614
1417.39842	0.02629
1415.33824	0.02631
1413.27807	0.02613
1411.21790	0.02579
1409.15773	0.02531
1407.09756	0.02470
1405.03738	0.02398
1402.97721	0.02318
1400.91704	0.02236
1398.85687	0.02156
1396.79670	0.02086
1394.73652	0.02037
1392.67635	0.02011
1390.61618	0.02005
1388.55601	0.02019
1386.49583	0.02055
1384.43566	0.02110
1382.37549	0.02176
1380.31532	0.02242
1378.25515	0.02301
1376.19497	0.02351
1374.13480	0.02390
1372.07463	0.02414
1370.01446	0.02417
1367.95429	0.02397
1365.89411	0.02359
1363.83394	0.02315
1361.77377	0.02273
1359.71360	0.02238
1357.65343	0.02211
1355.59325	0.02192
1353.53308	0.02180
1351.47291	0.02172
1349.41274	0.02162
1347.35256	0.02151
1345.29239	0.02142
1343.23222	0.02140
1341.17205	0.02141
1339.11188	0.02141
1337.05170	0.02134
1334.99153	0.02126
1332.93136	0.02122
1330.87119	0.02123
1328.81102	0.02127
1326.75084	0.02134
1324.69067	0.02147
1322.63050	0.02167
1320.57033	0.02184
1318.51015	0.02188
1316.44998	0.02171
1314.38981	0.02136
1312.32964	0.02093
1310.26947	0.02047
1308.20929	0.02002
1306.14912	0.01956
1304.08895	0.01907
1302.02878	0.01855
1299.96861	0.01804
1297.90843	0.01764
1295.84826	0.01741
1293.78809	0.01738
1291.72792	0.01749
1289.66775	0.01771
1287.60757	0.01801
1285.54740	0.01832
1283.48723	0.01859
1281.42706	0.01880
1279.36688	0.01896
1277.30671	0.01908
1275.24654	0.01923
1273.18637	0.01949
1271.12620	0.01993
1269.06602	0.02052
1267.00585	0.02121
1264.94568	0.02192
1262.88551	0.02259
1260.82534	0.02317
1258.76516	0.02366
1256.70499	0.02409
1254.64482	0.02450
1252.58465	0.02493
1250.52447	0.02539
1248.46430	0.02583
1246.40413	0.02618
1244.34396	0.02640
1242.28379	0.02650
1240.22361	0.02647
1238.16344	0.02630
1236.10327	0.02597
1234.04310	0.02548
1231.98293	0.02486
1229.92275	0.02411
1227.86258	0.02324
1225.80241	0.02225
1223.74224	0.02111
1221.68207	0.01985
1219.62189	0.01855
1217.56172	0.01729
1215.50155	0.01609
1213.44138	0.01496
1211.38120	0.01388
1209.32103	0.01283
1207.26086	0.01172
1205.20069	0.01051
1203.14052	0.00921
1201.08034	0.00784
1199.02017	0.00643
1196.96000	0.00505
1194.89983	0.00392
1192.83966	0.00309
1190.77948	0.00246
1188.71931	0.00205
1186.65914	0.00189
1184.59897	0.00193
1182.53880	0.00224
1180.47862	0.00278
1178.41845	0.00359
1176.35828	0.00481
1174.29811	0.00653
1172.23793	0.00865
1170.17776	0.01086
1168.11759	0.01272
1166.05742	0.01397
1163.99725	0.01467
1161.93707	0.01507
1159.87690	0.01542
1157.81673	0.01584
1155.75656	0.01636
1153.69639	0.01702
1151.63621	0.01784
1149.57604	0.01880
1147.51587	0.01989
1145.45570	0.02098
1143.39552	0.02187
1141.33535	0.02256
1139.27518	0.02324
1137.21501	0.02389
1135.15484	0.02436
1133.09466	0.02476
1131.03449	0.02538
1128.97432	0.02629
1126.91415	0.02732
1124.85398	0.02843
1122.79380	0.02970
1120.73363	0.03102
1118.67346	0.03221
1116.61329	0.03335
1114.55312	0.03456
1112.49294	0.03575
1110.43277	0.03678
1108.37260	0.03768
1106.31243	0.03858
1104.25225	0.03964
1102.19208	0.04092
1100.13191	0.04244
1098.07174	0.04419
1096.01157	0.04608
1093.95139	0.04804
1091.89122	0.05001
1089.83105	0.05178
1087.77088	0.05330
1085.71071	0.05477
1083.65053	0.05629
1081.59036	0.05793
1079.53019	0.05981
1077.47002	0.06197
1075.40985	0.06420
1073.34967	0.06617
1071.28950	0.06780
1069.22933	0.06924
1067.16916	0.07057
1065.10898	0.07187
1063.04881	0.07316
1060.98864	0.07442
1058.92847	0.07571
1056.86830	0.07717
1054.80812	0.07881
1052.74795	0.08053
1050.68778	0.08231
1048.62761	0.08424
1046.56744	0.08636
1044.50726	0.08852
1042.44709	0.09057
1040.38692	0.09249
1038.32675	0.09415
1036.26657	0.09548
1034.20640	0.09652
1032.14623	0.09724
1030.08606	0.09751
1028.02589	0.09735
1025.96571	0.09699
1023.90554	0.09654
1021.84537	0.09608
1019.78520	0.09571
1017.72503	0.09547
1015.66485	0.09526
1013.60468	0.09503
1011.54451	0.09496
1009.48434	0.09503
1007.42417	0.09499
1005.36399	0.09489
1003.30382	0.09475
1001.24365	0.09423
999.18348	0.09312
997.12330	0.09155
995.06313	0.08988
993.00296	0.08839
990.94279	0.08703
988.88262	0.08564
986.82244	0.08420
984.76227	0.08272
982.70210	0.08122
980.64193	0.07980
978.58176	0.07843
976.52158	0.07711
974.46141	0.07583
972.40124	0.07441
970.34107	0.07276
968.28089	0.07117
966.22072	0.06979
964.16055	0.06833
962.10038	0.06652
960.04021	0.06462
957.98003	0.06306
955.91986	0.06180
953.85969	0.06057
951.79952	0.05926
949.73935	0.05791
947.67917	0.05651
945.61900	0.05497
943.55883	0.05317
941.49866	0.05090
939.43849	0.04806
937.37831	0.04479
935.31814	0.04148
933.25797	0.03853
931.19780	0.03612
929.13762	0.03411
927.07745	0.03223
925.01728	0.03037
922.95711	0.02854
920.89694	0.02686
918.83676	0.02534
916.77659	0.02380
914.71642	0.02221
912.65625	0.02068
910.59608	0.01924
908.53590	0.01788
906.47573	0.01688
904.41556	0.01632
902.35539	0.01590
900.29522	0.01546
898.23504	0.01535
896.17487	0.01574
894.11470	0.01619
892.05453	0.01619
889.99435	0.01585
887.93418	0.01543
885.87401	0.01485
883.81384	0.01397
881.75367	0.01291
879.69349	0.01181
877.63332	0.01094
875.57315	0.01026
873.51298	0.00944
871.45281	0.00862
869.39263	0.00815
867.33246	0.00795
865.27229	0.00779
863.21212	0.00754
861.15194	0.00719
859.09177	0.00689
857.03160	0.00684
854.97143	0.00704
852.91126	0.00722
850.85108	0.00714
848.79091	0.00686
846.73074	0.00671
844.67057	0.00689
842.61040	0.00711
840.55022	0.00700
838.49005	0.00656
836.42988	0.00605
834.36971	0.00568
832.30954	0.00534
830.24936	0.00492
828.18919	0.00459
826.12902	0.00432
824.06885	0.00384
822.00867	0.00326
819.94850	0.00301
817.88833	0.00314
815.82816	0.00325
813.76799	0.00301
811.70781	0.00262
809.64764	0.00263
807.58747	0.00306
805.52730	0.00327
803.46713	0.00294
801.40695	0.00244
799.34678	0.00214
797.28661	0.00209
795.22644	0.00220
793.16627	0.00235
791.10609	0.00244
789.04592	0.00240
786.98575	0.00218
784.92558	0.00190
782.86540	0.00193
780.80523	0.00252
778.74506	0.00319
776.68489	0.00325
774.62472	0.00288
772.56454	0.00265
770.50437	0.00261
768.44420	0.00258
766.38403	0.00251
764.32386	0.00255
762.26368	0.00272
760.20351	0.00277
758.14334	0.00263
756.08317	0.00259
754.02299	0.00277
751.96282	0.00296
749.90265	0.00283
747.84248	0.00244
745.78231	0.00217
743.72213	0.00183
741.66196	0.00164
739.60179	0.00152
737.54162	0.00150
735.48145	0.00175
733.42127	0.00225
731.36110	0.00249
729.30093	0.00223
727.24076	0.00187
725.18059	0.00186
723.12041	0.00223
721.06024	0.00268
719.00007	0.00300
716.93990	0.00315
714.87972	0.00323
712.81955	0.00346
710.75938	0.00396
708.69921	0.00463
706.63904	0.00532
704.57886	0.00593
702.51869	0.00646
700.45852	0.00689
698.39835	0.00700
696.33818	0.00666
694.27800	0.00602
692.21783	0.00538
690.15766	0.00499
688.09749	0.00489
686.03731	0.00494
683.97714	0.00493
681.91697	0.00470
679.85680	0.00423
677.79663	0.00367
675.73645	0.00305
673.67628	0.00221
671.61611	0.00105
669.55594	0.00000
667.49577	0.00005
665.43559	0.00133
663.37542	0.00250
661.31525	0.00307
659.25508	0.00326
657.19491	0.00341
655.13473	0.00356
653.07456	0.00360
651.01439	0.00351
648.95422	0.00344
646.89404	0.00366
644.83387	0.00425
642.77370	0.00481
640.71353	0.00492
638.65336	0.00460
636.59318	0.00425
634.53301	0.00418
632.47284	0.00454
630.41267	0.00528
628.35250	0.00610
626.29232	0.00623
624.23215	0.00461
622.17198	0.00213
620.11181	0.00102
618.05164	0.00193
615.99146	0.00350
613.93129	0.00388
611.87112	0.00236
609.81095	0.00039
607.75077	0.00000
605.69060	0.00076
603.63043	0.00083
601.57026	0.00020
599.51009	0.00000
