3996.73391	0.00116
3994.67373	0.00096
3992.61356	0.00084
3990.55339	0.00083
3988.49322	0.00086
3986.43305	0.00076
3984.37287	0.00051
3982.31270	0.00024
3980.25253	0.00006
3978.19236	0.00000
3976.13219	0.00009
3974.07201	0.00032
3972.01184	0.00062
3969.95167	0.00089
3967.89150	0.00106
3965.83133	0.00112
3963.77115	0.00114
3961.71098	0.00123
3959.65081	0.00137
3957.59064	0.00143
3955.53046	0.00134
3953.47029	0.00117
3951.41012	0.00104
3949.34995	0.00104
3947.28978	0.00111
3945.22960	0.00107
3943.16943	0.00085
3941.10926	0.00063
3939.04909	0.00066
3936.98892	0.00091
3934.92874	0.00114
3932.86857	0.00118
3930.80840	0.00115
3928.74823	0.00123
3926.68805	0.00136
3924.62788	0.00138
3922.56771	0.00128
3920.50754	0.00113
3918.44737	0.00093
3916.38719	0.00074
3914.32702	0.00063
3912.26685	0.00062
3910.20668	0.00072
3908.14651	0.00086
3906.08633	0.00091
3904.02616	0.00080
3901.96599	0.00057
3899.90582	0.00032
3897.84565	0.00019
3895.78547	0.00024
3893.72530	0.00039
3891.66513	0.00051
3889.60496	0.00051
3887.54478	0.00045
3885.48461	0.00043
3883.42444	0.00048
3881.36427	0.00053
3879.30410	0.00046
3877.24392	0.00034
3875.18375	0.00025
3873.12358	0.00026
3871.06341	0.00036
3869.00324	0.00044
3866.94306	0.00042
3864.88289	0.00037
3862.82272	0.00043
3860.76255	0.00061
3858.70237	0.00075
3856.64220	0.00075
3854.58203	0.00065
3852.52186	0.00066
3850.46169	0.00098
3848.40151	0.00152
3846.34134	0.00205
3844.28117	0.00237
3842.22100	0.00240
3840.16083	0.00222
3838.10065	0.00203
3836.04048	0.00196
3833.98031	0.00195
3831.92014	0.00185
3829.85997	0.00160
3827.79979	0.00125
3825.73962	0.00089
3823.67945	0.00058
3821.61928	0.00030
3819.55910	0.00012
3817.49893	0.00018
3815.43876	0.00050
3813.37859	0.00098
3811.31842	0.00147
3809.25824	0.00184
3807.19807	0.00206
3805.13790	0.00214
3803.07773	0.00202
3801.01756	0.00174
3798.95738	0.00141
3796.89721	0.00121
3794.83704	0.00119
3792.77687	0.00132
3790.71670	0.00156
3788.65652	0.00185
3786.59635	0.00211
3784.53618	0.00230
3782.47601	0.00237
3780.41583	0.00221
3778.35566	0.00181
3776.29549	0.00141
3774.23532	0.00119
3772.17515	0.00108
3770.11497	0.00100
3768.05480	0.00096
3765.99463	0.00101
3763.93446	0.00114
3761.87429	0.00126
3759.81411	0.00127
3757.75394	0.00112
3755.69377	0.00084
3753.63360	0.00049
3751.57342	0.00018
3749.51325	0.00018
3747.45308	0.00070
3745.39291	0.00149
3743.33274	0.00205
3741.27256	0.00205
3739.21239	0.00155
3737.15222	0.00085
3735.09205	0.00046
3733.03188	0.00076
3730.97170	0.00154
3728.91153	0.00227
3726.85136	0.00259
3724.79119	0.00253
3722.73102	0.00228
3720.67084	0.00198
3718.61067	0.00166
3716.55050	0.00125
3714.49033	0.00079
3712.43015	0.00050
3710.36998	0.00058
3708.30981	0.00099
3706.24964	0.00144
3704.18947	0.00175
3702.12929	0.00189
3700.06912	0.00197
3698.00895	0.00207
3695.94878	0.00224
3693.88861	0.00244
3691.82843	0.00262
3689.76826	0.00259
3687.70809	0.00220
3685.64792	0.00155
3683.58775	0.00093
3681.52757	0.00054
3679.46740	0.00035
3677.40723	0.00025
3675.34706	0.00024
3673.28688	0.00036
3671.22671	0.00060
3669.16654	0.00095
3667.10637	0.00144
3665.04620	0.00197
3662.98602	0.00226
3660.92585	0.00212
3658.86568	0.00166
3656.80551	0.00115
3654.74534	0.00084
3652.68516	0.00073
3650.62499	0.00075
3648.56482	0.00092
3646.50465	0.00133
3644.44447	0.00188
3642.38430	0.00239
3640.32413	0.00272
3638.26396	0.00289
3636.20379	0.00301
3634.14361	0.00311
3632.08344	0.00319
3630.02327	0.00327
3627.96310	0.00353
3625.90293	0.00402
3623.84275	0.00454
3621.78258	0.00491
3619.72241	0.00511
3617.66224	0.00525
3615.60207	0.00540
3613.54189	0.00552
3611.48172	0.00561
3609.42155	0.00571
3607.36138	0.00585
3605.30120	0.00601
3603.24103	0.00619
3601.18086	0.00646
3599.12069	0.00677
3597.06052	0.00694
3595.00034	0.00680
3592.94017	0.00636
3590.88000	0.00593
3588.81983	0.00583
3586.75966	0.00619
3584.69948	0.00696
3582.63931	0.00789
3580.57914	0.00864
3578.51897	0.00905
3576.45879	0.00922
3574.39862	0.00933
3572.33845	0.00943
3570.27828	0.00952
3568.21811	0.00963
3566.15793	0.00982
3564.09776	0.01012
3562.03759	0.01043
3559.97742	0.01068
3557.91725	0.01089
3555.85707	0.01120
3553.79690	0.01167
3551.73673	0.01222
3549.67656	0.01268
3547.61639	0.01302
3545.55621	0.01330
3543.49604	0.01360
3541.43587	0.01399
3539.37570	0.01449
3537.31552	0.01509
3535.25535	0.01567
3533.19518	0.01612
3531.13501	0.01651
3529.07484	0.01690
3527.01466	0.01732
3524.95449	0.01782
3522.89432	0.01839
3520.83415	0.01890
3518.77398	0.01932
3516.71380	0.01971
3514.65363	0.02008
3512.59346	0.02036
3510.53329	0.02054
3508.47312	0.02074
3506.41294	0.02107
3504.35277	0.02150
3502.29260	0.02188
3500.23243	0.02210
3498.17225	0.02219
3496.11208	0.02234
3494.05191	0.02266
3491.99174	0.02315
3489.93157	0.02367
3487.87139	0.02406
3485.81122	0.02427
3483.75105	0.02442
3481.69088	0.02457
3479.63071	0.02476
3477.57053	0.02499
3475.51036	0.02524
3473.45019	0.02545
3471.39002	0.02562
3469.32984	0.02588
3467.26967	0.02635
3465.20950	0.02707
3463.14933	0.02785
3461.08916	0.02850
3459.02898	0.02899
3456.96881	0.02937
3454.90864	0.02972
3452.84847	0.03003
3450.78830	0.03021
3448.72812	0.03029
3446.66795	0.03042
3444.60778	0.03073
3442.54761	0.03123
3440.48744	0.03179
3438.42726	0.03227
3436.36709	0.03258
3434.30692	0.03276
3432.24675	0.03296
3430.18657	0.03327
3428.12640	0.03372
3426.06623	0.03422
3424.00606	0.03468
3421.94589	0.03506
3419.88571	0.03534
3417.82554	0.03553
3415.76537	0.03565
3413.70520	0.03569
3411.64503	0.03564
3409.58485	0.03552
3407.52468	0.03543
3405.46451	0.03549
3403.40434	0.03575
3401.34416	0.03615
3399.28399	0.03664
3397.22382	0.03721
3395.16365	0.03777
3393.10348	0.03822
3391.04330	0.03848
3388.98313	0.03864
3386.92296	0.03878
3384.86279	0.03893
3382.80262	0.03909
3380.74244	0.03925
3378.68227	0.03948
3376.62210	0.03982
3374.56193	0.04012
3372.50176	0.04025
3370.44158	0.04023
3368.38141	0.04022
3366.32124	0.04035
3364.26107	0.04065
3362.20089	0.04103
3360.14072	0.04137
3358.08055	0.04163
3356.02038	0.04177
3353.96021	0.04180
3351.90003	0.04176
3349.83986	0.04170
3347.77969	0.04164
3345.71952	0.04164
3343.65935	0.04173
3341.59917	0.04186
3339.53900	0.04199
3337.47883	0.04215
3335.41866	0.04226
3333.35849	0.04230
3331.29831	0.04232
3329.23814	0.04241
3327.17797	0.04258
3325.11780	0.04276
3323.05762	0.04287
3320.99745	0.04285
3318.93728	0.04275
3316.87711	0.04273
3314.81694	0.04289
3312.75676	0.04314
3310.69659	0.04337
3308.63642	0.04343
3306.57625	0.04329
3304.51608	0.04309
3302.45590	0.04302
3300.39573	0.04316
3298.33556	0.04337
3296.27539	0.04347
3294.21521	0.04335
3292.15504	0.04310
3290.09487	0.04292
3288.03470	0.04296
3285.97453	0.04314
3283.91435	0.04328
3281.85418	0.04326
3279.79401	0.04311
3277.73384	0.04295
3275.67367	0.04284
3273.61349	0.04277
3271.55332	0.04269
3269.49315	0.04257
3267.43298	0.04240
3265.37281	0.04215
3263.31263	0.04184
3261.25246	0.04161
3259.19229	0.04157
3257.13212	0.04169
3255.07194	0.04188
3253.01177	0.04201
3250.95160	0.04202
3248.89143	0.04194
3246.83126	0.04182
3244.77108	0.04173
3242.71091	0.04171
3240.65074	0.04173
3238.59057	0.04164
3236.53040	0.04140
3234.47022	0.04109
3232.41005	0.04086
3230.34988	0.04077
3228.28971	0.04080
3226.22954	0.04083
3224.16936	0.04079
3222.10919	0.04068
3220.04902	0.04049
3217.98885	0.04028
3215.92867	0.04005
3213.86850	0.03982
3211.80833	0.03967
3209.74816	0.03963
3207.68799	0.03961
3205.62781	0.03949
3203.56764	0.03929
3201.50747	0.03913
3199.44730	0.03900
3197.38713	0.03884
3195.32695	0.03861
3193.26678	0.03829
3191.20661	0.03787
3189.14644	0.03739
3187.08626	0.03701
3185.02609	0.03684
3182.96592	0.03685
3180.90575	0.03694
3178.84558	0.03697
3176.78540	0.03691
3174.72523	0.03673
3172.66506	0.03642
3170.60489	0.03602
3168.54472	0.03562
3166.48454	0.03532
3164.42437	0.03515
3162.36420	0.03502
3160.30403	0.03483
3158.24386	0.03453
3156.18368	0.03420
3154.12351	0.03391
3152.06334	0.03371
3150.00317	0.03362
3147.94299	0.03363
3145.88282	0.03358
3143.82265	0.03338
3141.76248	0.03305
3139.70231	0.03265
3137.64213	0.03222
3135.58196	0.03180
3133.52179	0.03147
3131.46162	0.03134
3129.40145	0.03136
3127.34127	0.03135
3125.28110	0.03114
3123.22093	0.03077
3121.16076	0.03039
3119.10058	0.03010
3117.04041	0.02989
3114.98024	0.02968
3112.92007	0.02948
3110.85990	0.02934
3108.79972	0.02932
3106.73955	0.02934
3104.67938	0.02929
3102.61921	0.02911
3100.55904	0.02883
3098.49886	0.02850
3096.43869	0.02820
3094.37852	0.02797
3092.31835	0.02775
3090.25818	0.02744
3088.19800	0.02703
3086.13783	0.02666
3084.07766	0.02644
3082.01749	0.02634
3079.95731	0.02625
3077.89714	0.02613
3075.83697	0.02595
3073.77680	0.02567
3071.71663	0.02530
3069.65645	0.02496
3067.59628	0.02475
3065.53611	0.02457
3063.47594	0.02432
3061.41577	0.02401
3059.35559	0.02374
3057.29542	0.02354
3055.23525	0.02338
3053.17508	0.02326
3051.11491	0.02319
3049.05473	0.02309
3046.99456	0.02288
3044.93439	0.02256
3042.87422	0.02220
3040.81404	0.02187
3038.75387	0.02161
3036.69370	0.02147
3034.63353	0.02147
3032.57336	0.02154
3030.51318	0.02153
3028.45301	0.02141
3026.39284	0.02116
3024.33267	0.02087
3022.27250	0.02067
3020.21232	0.02064
3018.15215	0.02075
3016.09198	0.02087
3014.03181	0.02091
3011.97163	0.02085
3009.91146	0.02077
3007.85129	0.02076
3005.79112	0.02078
3003.73095	0.02066
3001.67077	0.02033
2999.61060	0.01995
2997.55043	0.01984
2995.49026	0.01998
2993.43009	0.02003
2991.36991	0.01987
2989.30974	0.01975
2987.24957	0.01977
2985.18940	0.01978
2983.12923	0.01973
2981.06905	0.01982
2979.00888	0.02024
2976.94871	0.02093
2974.88854	0.02168
2972.82836	0.02234
2970.76819	0.02296
2968.70802	0.02368
2966.64785	0.02455
2964.58768	0.02565
2962.52750	0.02710
2960.46733	0.02881
2958.40716	0.03040
2956.34699	0.03167
2954.28682	0.03282
2952.22664	0.03404
2950.16647	0.03539
2948.10630	0.03692
2946.04613	0.03862
2943.98596	0.04044
2941.92578	0.04239
2939.86561	0.04442
2937.80544	0.04650
2935.74527	0.04863
2933.68509	0.05075
2931.62492	0.05274
2929.56475	0.05453
2927.50458	0.05604
2925.44441	0.05710
2923.38423	0.05761
2921.32406	0.05776
2919.26389	0.05772
2917.20372	0.05726
2915.14355	0.05598
2913.08337	0.05386
2911.02320	0.05137
2908.96303	0.04912
2906.90286	0.04748
2904.84268	0.04628
2902.78251	0.04499
2900.72234	0.04337
2898.66217	0.04175
2896.60200	0.04052
2894.54182	0.03955
2892.48165	0.03871
2890.42148	0.03803
2888.36131	0.03739
2886.30114	0.03660
2884.24096	0.03584
2882.18079	0.03534
2880.12062	0.03501
2878.06045	0.03479
2876.00028	0.03482
2873.94010	0.03521
2871.87993	0.03576
2869.81976	0.03623
2867.75959	0.03661
2865.69941	0.03712
2863.63924	0.03800
2861.57907	0.03934
2859.51890	0.04091
2857.45873	0.04248
2855.39855	0.04399
2853.33838	0.04525
2851.27821	0.04574
2849.21804	0.04483
2847.15787	0.04247
2845.09769	0.03933
2843.03752	0.03624
2840.97735	0.03370
2838.91718	0.03192
2836.85700	0.03075
2834.79683	0.02971
2832.73666	0.02853
2830.67649	0.02741
2828.61632	0.02655
2826.55614	0.02592
2824.49597	0.02531
2822.43580	0.02459
2820.37563	0.02389
2818.31546	0.02345
2816.25528	0.02328
2814.19511	0.02306
2812.13494	0.02266
2810.07477	0.02224
2808.01460	0.02196
2805.95442	0.02179
2803.89425	0.02162
2801.83408	0.02144
2799.77391	0.02124
2797.71373	0.02094
2795.65356	0.02063
2793.59339	0.02045
2791.53322	0.02041
2789.47305	0.02041
2787.41287	0.02039
2785.35270	0.02024
2783.29253	0.01986
2781.23236	0.01937
2779.17219	0.01904
2777.11201	0.01897
2775.05184	0.01899
2772.99167	0.01888
2770.93150	0.01862
2768.87133	0.01832
2766.81115	0.01813
2764.75098	0.01817
2762.69081	0.01832
2760.63064	0.01840
2758.57046	0.01839
2756.51029	0.01836
2754.45012	0.01824
2752.38995	0.01808
2750.32978	0.01803
2748.26960	0.01806
2746.20943	0.01803
2744.14926	0.01788
2742.08909	0.01776
2740.02892	0.01779
2737.96874	0.01791
2735.90857	0.01790
2733.84840	0.01771
2731.78823	0.01759
2729.72805	0.01763
2727.66788	0.01765
2725.60771	0.01756
2723.54754	0.01749
2721.48737	0.01745
2719.42719	0.01737
2717.36702	0.01724
2715.30685	0.01715
2713.24668	0.01708
2711.18651	0.01696
2709.12633	0.01686
2707.06616	0.01686
2705.00599	0.01692
2702.94582	0.01704
2700.88565	0.01715
2698.82547	0.01711
2696.76530	0.01686
2694.70513	0.01655
2692.64496	0.01641
2690.58478	0.01654
2688.52461	0.01675
2686.46444	0.01681
2684.40427	0.01673
2682.34410	0.01664
2680.28392	0.01650
2678.22375	0.01634
2676.16358	0.01627
2674.10341	0.01628
2672.04324	0.01620
2669.98306	0.01594
2667.92289	0.01558
2665.86272	0.01540
2663.80255	0.01556
2661.74238	0.01587
2659.68220	0.01599
2657.62203	0.01585
2655.56186	0.01571
2653.50169	0.01575
2651.44151	0.01587
2649.38134	0.01590
2647.32117	0.01579
2645.26100	0.01562
2643.20083	0.01547
2641.14065	0.01524
2639.08048	0.01498
2637.02031	0.01490
2634.96014	0.01499
2632.89997	0.01505
2630.83979	0.01500
2628.77962	0.01494
2626.71945	0.01487
2624.65928	0.01473
2622.59910	0.01463
2620.53893	0.01466
2618.47876	0.01460
2616.41859	0.01430
2614.35842	0.01393
2612.29824	0.01382
2610.23807	0.01404
2608.17790	0.01425
2606.11773	0.01417
2604.05756	0.01399
2601.99738	0.01385
2599.93721	0.01372
2597.87704	0.01360
2595.81687	0.01351
2593.75670	0.01342
2591.69652	0.01332
2589.63635	0.01322
2587.57618	0.01315
2585.51601	0.01307
2583.45583	0.01295
2581.39566	0.01284
2579.33549	0.01280
2577.27532	0.01286
2575.21515	0.01293
2573.15497	0.01281
2571.09480	0.01243
2569.03463	0.01196
2566.97446	0.01168
2564.91429	0.01171
2562.85411	0.01193
2560.79394	0.01220
2558.73377	0.01249
2556.67360	0.01260
2554.61342	0.01230
2552.55325	0.01184
2550.49308	0.01157
2548.43291	0.01152
2546.37274	0.01163
2544.31256	0.01185
2542.25239	0.01209
2540.19222	0.01224
2538.13205	0.01225
2536.07188	0.01214
2534.01170	0.01185
2531.95153	0.01136
2529.89136	0.01092
2527.83119	0.01083
2525.77102	0.01102
2523.71084	0.01134
2521.65067	0.01165
2519.59050	0.01185
2517.53033	0.01189
2515.47015	0.01168
2513.40998	0.01127
2511.34981	0.01089
2509.28964	0.01063
2507.22947	0.01052
2505.16929	0.01066
2503.10912	0.01088
2501.04895	0.01078
2498.98878	0.01034
2496.92861	0.01002
2494.86843	0.01014
2492.80826	0.01051
2490.74809	0.01074
2488.68792	0.01076
2486.62775	0.01067
2484.56757	0.01040
2482.50740	0.01006
2480.44723	0.00990
2478.38706	0.00997
2476.32688	0.01017
2474.26671	0.01040
2472.20654	0.01051
2470.14637	0.01038
2468.08620	0.01007
2466.02602	0.00976
2463.96585	0.00947
2461.90568	0.00920
2459.84551	0.00911
2457.78534	0.00927
2455.72516	0.00950
2453.66499	0.00962
2451.60482	0.00958
2449.54465	0.00946
2447.48447	0.00951
2445.42430	0.00971
2443.36413	0.00957
2441.30396	0.00915
2439.24379	0.00893
2437.18361	0.00887
2435.12344	0.00873
2433.06327	0.00870
2431.00310	0.00887
2428.94293	0.00901
2426.88275	0.00898
2424.82258	0.00899
2422.76241	0.00910
2420.70224	0.00927
2418.64207	0.00928
2416.58189	0.00902
2414.52172	0.00882
2412.46155	0.00906
2410.40138	0.00945
2408.34120	0.00949
2406.28103	0.00925
2404.22086	0.00901
2402.16069	0.00874
2400.10052	0.00848
2398.04034	0.00845
2395.98017	0.00861
2393.92000	0.00881
2391.85983	0.00894
2389.79966	0.00902
2387.73948	0.00905
2385.67931	0.00896
2383.61914	0.00874
2381.55897	0.00844
2379.49880	0.00823
2377.43862	0.00818
2375.37845	0.00828
2373.31828	0.00852
2371.25811	0.00890
2369.19793	0.00935
2367.13776	0.00977
2365.07759	0.01000
2363.01742	0.00992
2360.95725	0.00949
2358.89707	0.00878
2356.83690	0.00814
2354.77673	0.00806
2352.71656	0.00867
2350.65639	0.00948
2348.59621	0.00965
2346.53604	0.00888
2344.47587	0.00802
2342.41570	0.00779
2340.35552	0.00834
2338.29535	0.00928
2336.23518	0.01005
2334.17501	0.01041
2332.11484	0.01047
2330.05466	0.01047
2327.99449	0.01054
2325.93432	0.01066
2323.87415	0.01075
2321.81398	0.01081
2319.75380	0.01090
2317.69363	0.01098
2315.63346	0.01085
2313.57329	0.01040
2311.51312	0.00981
2309.45294	0.00934
2307.39277	0.00916
2305.33260	0.00926
2303.27243	0.00951
2301.21225	0.00971
2299.15208	0.00975
2297.09191	0.00968
2295.03174	0.00960
2292.97157	0.00959
2290.91139	0.00957
2288.85122	0.00942
2286.79105	0.00912
2284.73088	0.00877
2282.67071	0.00847
2280.61053	0.00833
2278.55036	0.00835
2276.49019	0.00844
2274.43002	0.00839
2272.36984	0.00809
2270.30967	0.00771
2268.24950	0.00746
2266.18933	0.00730
2264.12916	0.00710
2262.06898	0.00688
2260.00881	0.00682
2257.94864	0.00702
2255.88847	0.00735
2253.82830	0.00759
2251.76812	0.00765
2249.70795	0.00761
2247.64778	0.00762
2245.58761	0.00778
2243.52744	0.00790
2241.46726	0.00782
2239.40709	0.00764
2237.34692	0.00722
2235.28675	0.00662
2233.22657	0.00622
2231.16640	0.00604
2229.10623	0.00595
2227.04606	0.00607
2224.98589	0.00628
2222.92571	0.00632
2220.86554	0.00605
2218.80537	0.00555
2216.74520	0.00539
2214.68503	0.00623
2212.62485	0.00760
2210.56468	0.00826
2208.50451	0.00784
2206.44434	0.00690
2204.38417	0.00589
2202.32399	0.00489
2200.26382	0.00424
2198.20365	0.00445
2196.14348	0.00538
2194.08330	0.00598
2192.02313	0.00586
2189.96296	0.00592
2187.90279	0.00658
2185.84262	0.00699
2183.78244	0.00670
2181.72227	0.00646
2179.66210	0.00651
2177.60193	0.00613
2175.54176	0.00552
2173.48158	0.00595
2171.42141	0.00708
2169.36124	0.00723
2167.30107	0.00623
2165.24089	0.00557
2163.18072	0.00604
2161.12055	0.00642
2159.06038	0.00557
2157.00021	0.00437
2154.94003	0.00404
2152.87986	0.00416
2150.81969	0.00404
2148.75952	0.00414
2146.69935	0.00471
2144.63917	0.00513
2142.57900	0.00532
2140.51883	0.00555
2138.45866	0.00551
2136.39849	0.00506
2134.33831	0.00469
2132.27814	0.00475
2130.21797	0.00521
2128.15780	0.00575
2126.09762	0.00600
2124.03745	0.00609
2121.97728	0.00627
2119.91711	0.00654
2117.85694	0.00681
2115.79676	0.00691
2113.73659	0.00674
2111.67642	0.00658
2109.61625	0.00659
2107.55608	0.00675
2105.49590	0.00705
2103.43573	0.00737
2101.37556	0.00742
2099.31539	0.00717
2097.25521	0.00692
2095.19504	0.00682
2093.13487	0.00672
2091.07470	0.00644
2089.01453	0.00601
2086.95435	0.00564
2084.89418	0.00541
2082.83401	0.00530
2080.77384	0.00541
2078.71367	0.00580
2076.65349	0.00620
2074.59332	0.00629
2072.53315	0.00607
2070.47298	0.00584
2068.41281	0.00586
2066.35263	0.00608
2064.29246	0.00627
2062.23229	0.00629
2060.17212	0.00621
2058.11194	0.00612
2056.05177	0.00616
2053.99160	0.00641
2051.93143	0.00673
2049.87126	0.00691
2047.81108	0.00683
2045.75091	0.00642
2043.69074	0.00575
2041.63057	0.00497
2039.57040	0.00419
2037.51022	0.00343
2035.45005	0.00282
2033.38988	0.00262
2031.32971	0.00291
2029.26954	0.00344
2027.20936	0.00381
2025.14919	0.00394
2023.08902	0.00402
2021.02885	0.00401
2018.96867	0.00366
2016.90850	0.00326
2014.84833	0.00338
2012.78816	0.00398
2010.72799	0.00449
2008.66781	0.00475
2006.60764	0.00488
2004.54747	0.00482
2002.48730	0.00454
2000.42713	0.00419
1998.36695	0.00373
1996.30678	0.00303
1994.24661	0.00221
1992.18644	0.00164
1990.12626	0.00154
1988.06609	0.00193
1986.00592	0.00271
1983.94575	0.00367
1981.88558	0.00452
1979.82540	0.00507
1977.76523	0.00513
1975.70506	0.00462
1973.64489	0.00373
1971.58472	0.00281
1969.52454	0.00224
1967.46437	0.00218
1965.40420	0.00246
1963.34403	0.00283
1961.28386	0.00316
1959.22368	0.00348
1957.16351	0.00384
1955.10334	0.00422
1953.04317	0.00450
1950.98299	0.00459
1948.92282	0.00452
1946.86265	0.00431
1944.80248	0.00395
1942.74231	0.00357
1940.68213	0.00338
1938.62196	0.00343
1936.56179	0.00364
1934.50162	0.00385
1932.44145	0.00391
1930.38127	0.00375
1928.32110	0.00343
1926.26093	0.00306
1924.20076	0.00280
1922.14059	0.00284
1920.08041	0.00318
1918.02024	0.00362
1915.96007	0.00392
1913.89990	0.00402
1911.83972	0.00399
1909.77955	0.00390
1907.71938	0.00383
1905.65921	0.00386
1903.59904	0.00397
1901.53886	0.00408
1899.47869	0.00413
1897.41852	0.00406
1895.35835	0.00384
1893.29818	0.00354
1891.23800	0.00333
1889.17783	0.00330
1887.11766	0.00335
1885.05749	0.00341
1882.99731	0.00341
1880.93714	0.00332
1878.87697	0.00319
1876.81680	0.00309
1874.75663	0.00308
1872.69645	0.00311
1870.63628	0.00311
1868.57611	0.00308
1866.51594	0.00307
1864.45577	0.00306
1862.39559	0.00301
1860.33542	0.00292
1858.27525	0.00286
1856.21508	0.00286
1854.15491	0.00288
1852.09473	0.00287
1850.03456	0.00281
1847.97439	0.00273
1845.91422	0.00268
1843.85404	0.00267
1841.79387	0.00264
1839.73370	0.00264
1837.67353	0.00267
1835.61336	0.00271
1833.55318	0.00271
1831.49301	0.00267
1829.43284	0.00260
1827.37267	0.00249
1825.31250	0.00235
1823.25232	0.00228
1821.19215	0.00230
1819.13198	0.00236
1817.07181	0.00240
1815.01163	0.00240
1812.95146	0.00236
1810.89129	0.00228
1808.83112	0.00218
1806.77095	0.00212
1804.71077	0.00212
1802.65060	0.00216
1800.59043	0.00216
1798.53026	0.00212
1796.47009	0.00203
1794.40991	0.00192
1792.34974	0.00190
1790.28957	0.00199
1788.22940	0.00211
1786.16923	0.00218
1784.10905	0.00217
1782.04888	0.00208
1779.98871	0.00196
1777.92854	0.00185
1775.86836	0.00176
1773.80819	0.00171
1771.74802	0.00172
1769.68785	0.00196
1767.62768	0.00240
1765.56750	0.00298
1763.50733	0.00370
1761.44716	0.00459
1759.38699	0.00569
1757.32682	0.00702
1755.26664	0.00858
1753.20647	0.01027
1751.14630	0.01201
1749.08613	0.01365
1747.02596	0.01507
1744.96578	0.01615
1742.90561	0.01681
1740.84544	0.01704
1738.78527	0.01694
1736.72509	0.01666
1734.66492	0.01634
1732.60475	0.01612
1730.54458	0.01605
1728.48441	0.01609
1726.42423	0.01615
1724.36406	0.01620
1722.30389	0.01620
1720.24372	0.01614
1718.18355	0.01602
1716.12337	0.01593
1714.06320	0.01598
1712.00303	0.01610
1709.94286	0.01606
1707.88268	0.01575
1705.82251	0.01522
1703.76234	0.01464
1701.70217	0.01419
1699.64200	0.01406
1697.58182	0.01436
1695.52165	0.01509
1693.46148	0.01610
1691.40131	0.01723
1689.34114	0.01837
1687.28096	0.01956
1685.22079	0.02098
1683.16062	0.02272
1681.10045	0.02457
1679.04028	0.02621
1676.98010	0.02742
1674.91993	0.02816
1672.85976	0.02847
1670.79959	0.02846
1668.73941	0.02826
1666.67924	0.02799
1664.61907	0.02765
1662.55890	0.02718
1660.49873	0.02653
1658.43855	0.02576
1656.37838	0.02492
1654.31821	0.02415
1652.25804	0.02366
1650.19787	0.02354
1648.13769	0.02373
1646.07752	0.02410
1644.01735	0.02455
1641.95718	0.02495
1639.89701	0.02525
1637.83683	0.02559
1635.77666	0.02614
1633.71649	0.02692
1631.65632	0.02769
1629.59614	0.02829
1627.53597	0.02867
1625.47580	0.02890
1623.41563	0.02906
1621.35546	0.02923
1619.29528	0.02950
1617.23511	0.02997
1615.17494	0.03067
1613.11477	0.03156
1611.05460	0.03258
1608.99442	0.03357
1606.93425	0.03437
1604.87408	0.03471
1602.81391	0.03441
1600.75373	0.03347
1598.69356	0.03210
1596.63339	0.03061
1594.57322	0.02928
1592.51305	0.02826
1590.45287	0.02751
1588.39270	0.02687
1586.33253	0.02618
1584.27236	0.02539
1582.21219	0.02455
1580.15201	0.02371
1578.09184	0.02289
1576.03167	0.02208
1573.97150	0.02130
1571.91133	0.02057
1569.85115	0.01986
1567.79098	0.01915
1565.73081	0.01841
1563.67064	0.01757
1561.61046	0.01659
1559.55029	0.01554
1557.49012	0.01457
1555.42995	0.01381
1553.36978	0.01328
1551.30960	0.01282
1549.24943	0.01229
1547.18926	0.01156
1545.12909	0.01064
1543.06892	0.00962
1541.00874	0.00870
1538.94857	0.00805
1536.88840	0.00767
1534.82823	0.00740
1532.76805	0.00712
1530.70788	0.00683
1528.64771	0.00661
1526.58754	0.00653
1524.52737	0.00668
1522.46719	0.00721
1520.40702	0.00824
1518.34685	0.00955
1516.28668	0.01066
1514.22651	0.01110
1512.16633	0.01069
1510.10616	0.00956
1508.04599	0.00810
1505.98582	0.00679
1503.92565	0.00586
1501.86547	0.00513
1499.80530	0.00439
1497.74513	0.00364
1495.68496	0.00305
1493.62478	0.00265
1491.56461	0.00236
1489.50444	0.00212
1487.44427	0.00199
1485.38410	0.00203
1483.32392	0.00223
1481.26375	0.00260
1479.20358	0.00314
1477.14341	0.00393
1475.08324	0.00509
1473.02306	0.00670
1470.96289	0.00866
1468.90272	0.01067
1466.84255	0.01248
1464.78238	0.01402
1462.72220	0.01525
1460.66203	0.01623
1458.60186	0.01711
1456.54169	0.01799
1454.48151	0.01880
1452.42134	0.01946
1450.36117	0.02005
1448.30100	0.02072
1446.24083	0.02155
1444.18065	0.02247
1442.12048	0.02336
1440.06031	0.02412
1438.00014	0.02475
1435.93997	0.02524
1433.87979	0.02554
1431.81962	0.02562
1429.75945	0.02557
1427.69928	0.02555
1425.63910	0.02560
1423.57893	0.02570
1421.51876	0.02581
1419.45859	0.02594
1417.39842	0.02606
1415.33824	0.02609
1413.27807	0.02594
1411.21790	0.02559
1409.15773	0.02506
1407.09756	0.02441
1405.03738	0.02366
1402.97721	0.02285
1400.91704	0.02202
1398.85687	0.02121
1396.79670	0.02054
1394.73652	0.02011
1392.67635	0.01994
1390.61618	0.01998
1388.55601	0.02020
1386.49583	0.02060
1384.43566	0.02115
1382.37549	0.02181
1380.31532	0.02248
1378.25515	0.02308
1376.19497	0.02357
1374.13480	0.02392
1372.07463	0.02411
1370.01446	0.02409
1367.95429	0.02382
1365.89411	0.02338
1363.83394	0.02287
1361.77377	0.02245
1359.71360	0.02216
1357.65343	0.02200
1355.59325	0.02187
1353.53308	0.02174
1351.47291	0.02161
1349.41274	0.02149
1347.35256	0.02138
1345.29239	0.02125
1343.23222	0.02112
1341.17205	0.02101
1339.11188	0.02091
1337.05170	0.02082
1334.99153	0.02078
1332.93136	0.02084
1330.87119	0.02098
1328.81102	0.02116
1326.75084	0.02132
1324.69067	0.02149
1322.63050	0.02165
1320.57033	0.02175
1318.51015	0.02171
1316.44998	0.02149
1314.38981	0.02114
1312.32964	0.02074
1310.26947	0.02033
1308.20929	0.01989
1306.14912	0.01941
1304.08895	0.01893
1302.02878	0.01849
1299.96861	0.01809
1297.90843	0.01779
1295.84826	0.01762
1293.78809	0.01759
1291.72792	0.01766
1289.66775	0.01780
1287.60757	0.01799
1285.54740	0.01818
1283.48723	0.01832
1281.42706	0.01844
1279.36688	0.01860
1277.30671	0.01880
1275.24654	0.01905
1273.18637	0.01937
1271.12620	0.01982
1269.06602	0.02041
1267.00585	0.02109
1264.94568	0.02181
1262.88551	0.02252
1260.82534	0.02314
1258.76516	0.02368
1256.70499	0.02413
1254.64482	0.02451
1252.58465	0.02485
1250.52447	0.02520
1248.46430	0.02552
1246.40413	0.02577
1244.34396	0.02596
1242.28379	0.02610
1240.22361	0.02614
1238.16344	0.02605
1236.10327	0.02575
1234.04310	0.02524
1231.98293	0.02459
1229.92275	0.02382
1227.86258	0.02294
1225.80241	0.02191
1223.74224	0.02077
1221.68207	0.01957
1219.62189	0.01839
1217.56172	0.01725
1215.50155	0.01615
1213.44138	0.01507
1211.38120	0.01397
1209.32103	0.01284
1207.26086	0.01163
1205.20069	0.01035
1203.14052	0.00904
1201.08034	0.00774
1199.02017	0.00642
1196.96000	0.00516
1194.89983	0.00417
1192.83966	0.00344
1190.77948	0.00285
1188.71931	0.00240
1186.65914	0.00217
1184.59897	0.00207
1182.53880	0.00217
1180.47862	0.00256
1178.41845	0.00337
1176.35828	0.00470
1174.29811	0.00655
1172.23793	0.00871
1170.17776	0.01079
1168.11759	0.01245
1166.05742	0.01357
1163.99725	0.01424
1161.93707	0.01468
1159.87690	0.01512
1157.81673	0.01560
1155.75656	0.01615
1153.69639	0.01689
1151.63621	0.01778
1149.57604	0.01872
1147.51587	0.01967
1145.45570	0.02065
1143.39552	0.02161
1141.33535	0.02249
1139.27518	0.02319
1137.21501	0.02371
1135.15484	0.02421
1133.09466	0.02477
1131.03449	0.02547
1128.97432	0.02639
1126.91415	0.02745
1124.85398	0.02854
1122.79380	0.02965
1120.73363	0.03074
1118.67346	0.03169
1116.61329	0.03259
1114.55312	0.03361
1112.49294	0.03473
1110.43277	0.03583
1108.37260	0.03689
1106.31243	0.03798
1104.25225	0.03914
1102.19208	0.04033
1100.13191	0.04162
1098.07174	0.04321
1096.01157	0.04521
1093.95139	0.04735
1091.89122	0.04928
1089.83105	0.05093
1087.77088	0.05241
1085.71071	0.05390
1083.65053	0.05552
1081.59036	0.05726
1079.53019	0.05899
1077.47002	0.06070
1075.40985	0.06254
1073.34967	0.06458
1071.28950	0.06656
1069.22933	0.06820
1067.16916	0.06949
1065.10898	0.07067
1063.04881	0.07190
1060.98864	0.07313
1058.92847	0.07431
1056.86830	0.07563
1054.80812	0.07727
1052.74795	0.07908
1050.68778	0.08085
1048.62761	0.08280
1046.56744	0.08519
1044.50726	0.08773
1042.44709	0.08998
1040.38692	0.09187
1038.32675	0.09340
1036.26657	0.09447
1034.20640	0.09519
1032.14623	0.09572
1030.08606	0.09599
1028.02589	0.09583
1025.96571	0.09529
1023.90554	0.09466
1021.84537	0.09422
1019.78520	0.09401
1017.72503	0.09384
1015.66485	0.09361
1013.60468	0.09342
1011.54451	0.09342
1009.48434	0.09357
1007.42417	0.09361
1005.36399	0.09342
1003.30382	0.09305
1001.24365	0.09244
999.18348	0.09146
997.12330	0.09008
995.06313	0.08845
993.00296	0.08692
990.94279	0.08567
988.88262	0.08454
986.82244	0.08325
984.76227	0.08169
982.70210	0.08009
980.64193	0.07873
978.58176	0.07756
976.52158	0.07642
974.46141	0.07515
972.40124	0.07359
970.34107	0.07178
968.28089	0.07011
966.22072	0.06876
964.16055	0.06749
962.10038	0.06599
960.04021	0.06434
957.98003	0.06281
955.91986	0.06134
953.85969	0.05982
951.79952	0.05844
949.73935	0.05728
947.67917	0.05615
945.61900	0.05483
943.55883	0.05325
941.49866	0.05123
939.43849	0.04854
937.37831	0.04523
935.31814	0.04171
933.25797	0.03852
931.19780	0.03585
929.13762	0.03354
927.07745	0.03141
925.01728	0.02946
922.95711	0.02778
920.89694	0.02634
918.83676	0.02497
916.77659	0.02348
914.71642	0.02191
912.65625	0.02045
910.59608	0.01916
908.53590	0.01805
906.47573	0.01723
904.41556	0.01661
902.35539	0.01598
900.29522	0.01542
898.23504	0.01526
896.17487	0.01565
894.11470	0.01634
892.05453	0.01677
889.99435	0.01663
887.93418	0.01593
885.87401	0.01488
883.81384	0.01372
881.75367	0.01263
879.69349	0.01172
877.63332	0.01105
875.57315	0.01052
873.51298	0.00998
871.45281	0.00946
869.39263	0.00893
867.33246	0.00840
865.27229	0.00802
863.21212	0.00784
861.15194	0.00771
859.09177	0.00751
857.03160	0.00724
854.97143	0.00705
852.91126	0.00709
850.85108	0.00737
848.79091	0.00781
846.73074	0.00819
844.67057	0.00816
842.61040	0.00761
840.55022	0.00686
838.49005	0.00631
836.42988	0.00602
834.36971	0.00602
832.30954	0.00606
830.24936	0.00578
828.18919	0.00518
826.12902	0.00453
824.06885	0.00399
822.00867	0.00370
819.94850	0.00364
817.88833	0.00368
815.82816	0.00371
813.76799	0.00360
811.70781	0.00332
809.64764	0.00313
807.58747	0.00320
805.52730	0.00340
803.46713	0.00370
801.40695	0.00398
799.34678	0.00400
797.28661	0.00368
795.22644	0.00313
793.16627	0.00264
791.10609	0.00247
789.04592	0.00245
786.98575	0.00228
784.92558	0.00200
782.86540	0.00204
780.80523	0.00254
778.74506	0.00294
776.68489	0.00281
774.62472	0.00252
772.56454	0.00254
770.50437	0.00279
768.44420	0.00296
766.38403	0.00301
764.32386	0.00316
762.26368	0.00341
760.20351	0.00352
758.14334	0.00338
756.08317	0.00311
754.02299	0.00278
751.96282	0.00250
749.90265	0.00210
747.84248	0.00205
745.78231	0.00232
743.72213	0.00247
741.66196	0.00220
739.60179	0.00185
737.54162	0.00184
735.48145	0.00212
733.42127	0.00231
731.36110	0.00217
729.30093	0.00190
727.24076	0.00170
725.18059	0.00174
723.12041	0.00206
721.06024	0.00245
719.00007	0.00275
716.93990	0.00295
714.87972	0.00319
712.81955	0.00362
710.75938	0.00424
708.69921	0.00494
706.63904	0.00550
704.57886	0.00574
702.51869	0.00568
700.45852	0.00549
698.39835	0.00529
696.33818	0.00511
694.27800	0.00494
692.21783	0.00474
690.15766	0.00443
688.09749	0.00398
686.03731	0.00349
683.97714	0.00296
681.91697	0.00234
679.85680	0.00174
677.79663	0.00139
675.73645	0.00134
673.67628	0.00125
671.61611	0.00072
669.55594	0.00000
667.49577	0.00030
665.43559	0.00188
663.37542	0.00306
661.31525	0.00309
659.25508	0.00234
657.19491	0.00147
655.13473	0.00094
653.07456	0.00094
651.01439	0.00136
648.95422	0.00192
646.89404	0.00236
644.83387	0.00267
642.77370	0.00285
640.71353	0.00302
638.65336	0.00335
636.59318	0.00390
634.53301	0.00441
632.47284	0.00444
630.41267	0.00370
628.35250	0.00248
626.29232	0.00138
624.23215	0.00085
622.17198	0.00092
620.11181	0.00136
618.05164	0.00174
615.99146	0.00146
613.93129	0.00051
611.87112	0.00000
609.81095	0.00055
607.75077	0.00155
605.69060	0.00235
603.63043	0.00255
601.57026	0.00173
599.51009	0.00000
