3996.73391,0.00112
3994.67373,0.00092
3992.61356,0.00074
3990.55339,0.00061
3988.49322,0.00048
3986.43305,0.00032
3984.37287,0.00016
3982.31270,0.00005
3980.25253,0.00001
3978.19236,0.00003
3976.13219,0.00011
3974.07201,0.00020
3972.01184,0.00022
3969.95167,0.00018
3967.89150,0.00015
3965.83133,0.00016
3963.77115,0.00014
3961.71098,0.00007
3959.65081,0.00000
3957.59064,0.00005
3955.53046,0.00023
3953.47029,0.00040
3951.41012,0.00045
3949.34995,0.00043
3947.28978,0.00045
3945.22960,0.00052
3943.16943,0.00055
3941.10926,0.00048
3939.04909,0.00036
3936.98892,0.00028
3934.92874,0.00025
3932.86857,0.00023
3930.80840,0.00019
3928.74823,0.00014
3926.68805,0.00014
3924.62788,0.00014
3922.56771,0.00010
3920.50754,0.00010
3918.44737,0.00023
3916.38719,0.00045
3914.32702,0.00069
3912.26685,0.00087
3910.20668,0.00093
3908.14651,0.00085
3906.08633,0.00065
3904.02616,0.00039
3901.96599,0.00018
3899.90582,0.00014
3897.84565,0.00023
3895.78547,0.00041
3893.72530,0.00064
3891.66513,0.00084
3889.60496,0.00098
3887.54478,0.00108
3885.48461,0.00114
3883.42444,0.00112
3881.36427,0.00100
3879.30410,0.00081
3877.24392,0.00062
3875.18375,0.00055
3873.12358,0.00063
3871.06341,0.00072
3869.00324,0.00070
3866.94306,0.00056
3864.88289,0.00045
3862.82272,0.00047
3860.76255,0.00067
3858.70237,0.00098
3856.64220,0.00128
3854.58203,0.00142
3852.52186,0.00128
3850.46169,0.00091
3848.40151,0.00052
3846.34134,0.00026
3844.28117,0.00023
3842.22100,0.00048
3840.16083,0.00095
3838.10065,0.00140
3836.04048,0.00157
3833.98031,0.00143
3831.92014,0.00115
3829.85997,0.00090
3827.79979,0.00075
3825.73962,0.00063
3823.67945,0.00042
3821.61928,0.00019
3819.55910,0.00014
3817.49893,0.00038
3815.43876,0.00078
3813.37859,0.00116
3811.31842,0.00148
3809.25824,0.00163
3807.19807,0.00151
3805.13790,0.00115
3803.07773,0.00074
3801.01756,0.00050
3798.95738,0.00049
3796.89721,0.00061
3794.83704,0.00073
3792.77687,0.00086
3790.71670,0.00101
3788.65652,0.00111
3786.59635,0.00109
3784.53618,0.00095
3782.47601,0.00076
3780.41583,0.00058
3778.35566,0.00046
3776.29549,0.00044
3774.23532,0.00048
3772.17515,0.00054
3770.11497,0.00061
3768.05480,0.00065
3765.99463,0.00071
3763.93446,0.00088
3761.87429,0.00124
3759.81411,0.00163
3757.75394,0.00177
3755.69377,0.00157
3753.63360,0.00129
3751.57342,0.00127
3749.51325,0.00158
3747.45308,0.00194
3745.39291,0.00208
3743.33274,0.00204
3741.27256,0.00203
3739.21239,0.00220
3737.15222,0.00244
3735.09205,0.00254
3733.03188,0.00245
3730.97170,0.00225
3728.91153,0.00198
3726.85136,0.00166
3724.79119,0.00139
3722.73102,0.00124
3720.67084,0.00126
3718.61067,0.00141
3716.55050,0.00157
3714.49033,0.00157
3712.43015,0.00137
3710.36998,0.00116
3708.30981,0.00122
3706.24964,0.00164
3704.18947,0.00215
3702.12929,0.00239
3700.06912,0.00223
3698.00895,0.00193
3695.94878,0.00175
3693.88861,0.00168
3691.82843,0.00155
3689.76826,0.00126
3687.70809,0.00092
3685.64792,0.00080
3683.58775,0.00104
3681.52757,0.00149
3679.46740,0.00191
3677.40723,0.00210
3675.34706,0.00200
3673.28688,0.00178
3671.22671,0.00166
3669.16654,0.00166
3667.10637,0.00163
3665.04620,0.00157
3662.98602,0.00166
3660.92585,0.00202
3658.86568,0.00260
3656.80551,0.00319
3654.74534,0.00364
3652.68516,0.00391
3650.62499,0.00387
3648.56482,0.00351
3646.50465,0.00317
3644.44447,0.00319
3642.38430,0.00346
3640.32413,0.00374
3638.26396,0.00386
3636.20379,0.00381
3634.14361,0.00364
3632.08344,0.00349
3630.02327,0.00355
3627.96310,0.00388
3625.90293,0.00433
3623.84275,0.00469
3621.78258,0.00492
3619.72241,0.00518
3617.66224,0.00560
3615.60207,0.00612
3613.54189,0.00656
3611.48172,0.00675
3609.42155,0.00662
3607.36138,0.00626
3605.30120,0.00596
3603.24103,0.00602
3601.18086,0.00648
3599.12069,0.00710
3597.06052,0.00761
3595.00034,0.00799
3592.94017,0.00839
3590.88000,0.00878
3588.81983,0.00902
3586.75966,0.00913
3584.69948,0.00928
3582.63931,0.00960
3580.57914,0.01010
3578.51897,0.01064
3576.45879,0.01100
3574.39862,0.01112
3572.33845,0.01110
3570.27828,0.01111
3568.21811,0.01127
3566.15793,0.01158
3564.09776,0.01190
3562.03759,0.01214
3559.97742,0.01233
3557.91725,0.01252
3555.85707,0.01271
3553.79690,0.01292
3551.73673,0.01325
3549.67656,0.01376
3547.61639,0.01439
3545.55621,0.01492
3543.49604,0.01516
3541.43587,0.01513
3539.37570,0.01504
3537.31552,0.01507
3535.25535,0.01533
3533.19518,0.01578
3531.13501,0.01627
3529.07484,0.01662
3527.01466,0.01677
3524.95449,0.01681
3522.89432,0.01691
3520.83415,0.01717
3518.77398,0.01751
3516.71380,0.01779
3514.65363,0.01803
3512.59346,0.01832
3510.53329,0.01870
3508.47312,0.01914
3506.41294,0.01957
3504.35277,0.01989
3502.29260,0.02010
3500.23243,0.02026
3498.17225,0.02035
3496.11208,0.02044
3494.05191,0.02062
3491.99174,0.02095
3489.93157,0.02133
3487.87139,0.02165
3485.81122,0.02185
3483.75105,0.02191
3481.69088,0.02185
3479.63071,0.02180
3477.57053,0.02193
3475.51036,0.02229
3473.45019,0.02274
3471.39002,0.02307
3469.32984,0.02324
3467.26967,0.02332
3465.20950,0.02347
3463.14933,0.02375
3461.08916,0.02415
3459.02898,0.02455
3456.96881,0.02489
3454.90864,0.02516
3452.84847,0.02539
3450.78830,0.02562
3448.72812,0.02584
3446.66795,0.02600
3444.60778,0.02608
3442.54761,0.02613
3440.48744,0.02623
3438.42726,0.02643
3436.36709,0.02668
3434.30692,0.02691
3432.24675,0.02712
3430.18657,0.02736
3428.12640,0.02765
3426.06623,0.02794
3424.00606,0.02823
3421.94589,0.02850
3419.88571,0.02875
3417.82554,0.02895
3415.76537,0.02902
3413.70520,0.02896
3411.64503,0.02891
3409.58485,0.02902
3407.52468,0.02935
3405.46451,0.02982
3403.40434,0.03032
3401.34416,0.03068
3399.28399,0.03086
3397.22382,0.03092
3395.16365,0.03097
3393.10348,0.03095
3391.04330,0.03074
3388.98313,0.03041
3386.92296,0.03021
3384.86279,0.03028
3382.80262,0.03052
3380.74244,0.03078
3378.68227,0.03096
3376.62210,0.03106
3374.56193,0.03115
3372.50176,0.03132
3370.44158,0.03152
3368.38141,0.03168
3366.32124,0.03179
3364.26107,0.03188
3362.20089,0.03197
3360.14072,0.03212
3358.08055,0.03234
3356.02038,0.03259
3353.96021,0.03281
3351.90003,0.03295
3349.83986,0.03299
3347.77969,0.03295
3345.71952,0.03284
3343.65935,0.03273
3341.59917,0.03272
3339.53900,0.03287
3337.47883,0.03310
3335.41866,0.03328
3333.35849,0.03335
3331.29831,0.03338
3329.23814,0.03342
3327.17797,0.03348
3325.11780,0.03353
3323.05762,0.03355
3320.99745,0.03353
3318.93728,0.03348
3316.87711,0.03344
3314.81694,0.03343
3312.75676,0.03340
3310.69659,0.03330
3308.63642,0.03319
3306.57625,0.03314
3304.51608,0.03321
3302.45590,0.03338
3300.39573,0.03358
3298.33556,0.03370
3296.27539,0.03366
3294.21521,0.03351
3292.15504,0.03340
3290.09487,0.03341
3288.03470,0.03354
3285.97453,0.03369
3283.91435,0.03381
3281.85418,0.03386
3279.79401,0.03387
3277.73384,0.03390
3275.67367,0.03395
3273.61349,0.03394
3271.55332,0.03394
3269.49315,0.03402
3267.43298,0.03415
3265.37281,0.03425
3263.31263,0.03424
3261.25246,0.03414
3259.19229,0.03393
3257.13212,0.03368
3255.07194,0.03347
3253.01177,0.03332
3250.95160,0.03318
3248.89143,0.03300
3246.83126,0.03286
3244.77108,0.03282
3242.71091,0.03284
3240.65074,0.03285
3238.59057,0.03288
3236.53040,0.03295
3234.47022,0.03292
3232.41005,0.03264
3230.34988,0.03214
3228.28971,0.03158
3226.22954,0.03113
3224.16936,0.03094
3222.10919,0.03105
3220.04902,0.03136
3217.98885,0.03169
3215.92867,0.03192
3213.86850,0.03199
3211.80833,0.03193
3209.74816,0.03184
3207.68799,0.03179
3205.62781,0.03173
3203.56764,0.03157
3201.50747,0.03127
3199.44730,0.03088
3197.38713,0.03049
3195.32695,0.03022
3193.26678,0.03008
3191.20661,0.03000
3189.14644,0.02983
3187.08626,0.02959
3185.02609,0.02936
3182.96592,0.02917
3180.90575,0.02900
3178.84558,0.02889
3176.78540,0.02890
3174.72523,0.02892
3172.66506,0.02880
3170.60489,0.02848
3168.54472,0.02808
3166.48454,0.02768
3164.42437,0.02733
3162.36420,0.02704
3160.30403,0.02684
3158.24386,0.02666
3156.18368,0.02645
3154.12351,0.02625
3152.06334,0.02615
3150.00317,0.02617
3147.94299,0.02616
3145.88282,0.02596
3143.82265,0.02557
3141.76248,0.02514
3139.70231,0.02479
3137.64213,0.02455
3135.58196,0.02439
3133.52179,0.02429
3131.46162,0.02424
3129.40145,0.02425
3127.34127,0.02422
3125.28110,0.02402
3123.22093,0.02365
3121.16076,0.02319
3119.10058,0.02276
3117.04041,0.02239
3114.98024,0.02210
3112.92007,0.02188
3110.85990,0.02172
3108.79972,0.02154
3106.73955,0.02129
3104.67938,0.02100
3102.61921,0.02073
3100.55904,0.02054
3098.49886,0.02042
3096.43869,0.02028
3094.37852,0.02005
3092.31835,0.01978
3090.25818,0.01951
3088.19800,0.01920
3086.13783,0.01881
3084.07766,0.01839
3082.01749,0.01804
3079.95731,0.01782
3077.89714,0.01773
3075.83697,0.01771
3073.77680,0.01770
3071.71663,0.01765
3069.65645,0.01758
3067.59628,0.01754
3065.53611,0.01754
3063.47594,0.01745
3061.41577,0.01722
3059.35559,0.01687
3057.29542,0.01643
3055.23525,0.01595
3053.17508,0.01546
3051.11491,0.01508
3049.05473,0.01486
3046.99456,0.01481
3044.93439,0.01478
3042.87422,0.01470
3040.81404,0.01461
3038.75387,0.01456
3036.69370,0.01453
3034.63353,0.01441
3032.57336,0.01417
3030.51318,0.01389
3028.45301,0.01370
3026.39284,0.01361
3024.33267,0.01356
3022.27250,0.01347
3020.21232,0.01331
3018.15215,0.01311
3016.09198,0.01294
3014.03181,0.01278
3011.97163,0.01263
3009.91146,0.01252
3007.85129,0.01250
3005.79112,0.01257
3003.73095,0.01264
3001.67077,0.01268
2999.61060,0.01268
2997.55043,0.01270
2995.49026,0.01273
2993.43009,0.01270
2991.36991,0.01254
2989.30974,0.01237
2987.24957,0.01245
2985.18940,0.01280
2983.12923,0.01306
2981.06905,0.01301
2979.00888,0.01285
2976.94871,0.01278
2974.88854,0.01286
2972.82836,0.01313
2970.76819,0.01362
2968.70802,0.01409
2966.64785,0.01422
2964.58768,0.01409
2962.52750,0.01404
2960.46733,0.01433
2958.40716,0.01487
2956.34699,0.01537
2954.28682,0.01559
2952.22664,0.01564
2950.16647,0.01586
2948.10630,0.01629
2946.04613,0.01678
2943.98596,0.01721
2941.92578,0.01743
2939.86561,0.01729
2937.80544,0.01695
2935.74527,0.01684
2933.68509,0.01698
2931.62492,0.01708
2929.56475,0.01701
2927.50458,0.01677
2925.44441,0.01646
2923.38423,0.01619
2921.32406,0.01599
2919.26389,0.01586
2917.20372,0.01582
2915.14355,0.01590
2913.08337,0.01606
2911.02320,0.01615
2908.96303,0.01608
2906.90286,0.01592
2904.84268,0.01583
2902.78251,0.01576
2900.72234,0.01568
2898.66217,0.01564
2896.60200,0.01554
2894.54182,0.01533
2892.48165,0.01525
2890.42148,0.01536
2888.36131,0.01536
2886.30114,0.01511
2884.24096,0.01474
2882.18079,0.01443
2880.12062,0.01435
2878.06045,0.01450
2876.00028,0.01456
2873.94010,0.01436
2871.87993,0.01395
2869.81976,0.01342
2867.75959,0.01313
2865.69941,0.01324
2863.63924,0.01334
2861.57907,0.01307
2859.51890,0.01258
2857.45873,0.01225
2855.39855,0.01219
2853.33838,0.01228
2851.27821,0.01235
2849.21804,0.01228
2847.15787,0.01197
2845.09769,0.01153
2843.03752,0.01120
2840.97735,0.01109
2838.91718,0.01118
2836.85700,0.01131
2834.79683,0.01128
2832.73666,0.01104
2830.67649,0.01065
2828.61632,0.01027
2826.55614,0.01002
2824.49597,0.00988
2822.43580,0.00984
2820.37563,0.01004
2818.31546,0.01033
2816.25528,0.01036
2814.19511,0.01013
2812.13494,0.00994
2810.07477,0.01000
2808.01460,0.01013
2805.95442,0.01009
2803.89425,0.00991
2801.83408,0.00972
2799.77391,0.00958
2797.71373,0.00962
2795.65356,0.00981
2793.59339,0.00990
2791.53322,0.00977
2789.47305,0.00952
2787.41287,0.00947
2785.35270,0.00967
2783.29253,0.00978
2781.23236,0.00961
2779.17219,0.00944
2777.11201,0.00947
2775.05184,0.00967
2772.99167,0.00985
2770.93150,0.00986
2768.87133,0.00971
2766.81115,0.00942
2764.75098,0.00896
2762.69081,0.00849
2760.63064,0.00825
2758.57046,0.00825
2756.51029,0.00828
2754.45012,0.00820
2752.38995,0.00810
2750.32978,0.00814
2748.26960,0.00825
2746.20943,0.00824
2744.14926,0.00809
2742.08909,0.00797
2740.02892,0.00804
2737.96874,0.00824
2735.90857,0.00843
2733.84840,0.00846
2731.78823,0.00834
2729.72805,0.00825
2727.66788,0.00828
2725.60771,0.00835
2723.54754,0.00832
2721.48737,0.00815
2719.42719,0.00799
2717.36702,0.00796
2715.30685,0.00803
2713.24668,0.00818
2711.18651,0.00836
2709.12633,0.00841
2707.06616,0.00814
2705.00599,0.00769
2702.94582,0.00742
2700.88565,0.00748
2698.82547,0.00772
2696.76530,0.00790
2694.70513,0.00794
2692.64496,0.00799
2690.58478,0.00811
2688.52461,0.00819
2686.46444,0.00821
2684.40427,0.00817
2682.34410,0.00795
2680.28392,0.00758
2678.22375,0.00731
2676.16358,0.00718
2674.10341,0.00710
2672.04324,0.00704
2669.98306,0.00703
2667.92289,0.00710
2665.86272,0.00723
2663.80255,0.00728
2661.74238,0.00724
2659.68220,0.00718
2657.62203,0.00715
2655.56186,0.00714
2653.50169,0.00725
2651.44151,0.00733
2649.38134,0.00714
2647.32117,0.00677
2645.26100,0.00649
2643.20083,0.00641
2641.14065,0.00646
2639.08048,0.00654
2637.02031,0.00662
2634.96014,0.00672
2632.89997,0.00676
2630.83979,0.00660
2628.77962,0.00631
2626.71945,0.00609
2624.65928,0.00609
2622.59910,0.00621
2620.53893,0.00632
2618.47876,0.00635
2616.41859,0.00631
2614.35842,0.00616
2612.29824,0.00584
2610.23807,0.00550
2608.17790,0.00537
2606.11773,0.00550
2604.05756,0.00571
2601.99738,0.00589
2599.93721,0.00612
2597.87704,0.00641
2595.81687,0.00645
2593.75670,0.00612
2591.69652,0.00569
2589.63635,0.00540
2587.57618,0.00528
2585.51601,0.00534
2583.45583,0.00546
2581.39566,0.00544
2579.33549,0.00530
2577.27532,0.00514
2575.21515,0.00504
2573.15497,0.00517
2571.09480,0.00545
2569.03463,0.00540
2566.97446,0.00491
2564.91429,0.00457
2562.85411,0.00480
2560.79394,0.00523
2558.73377,0.00533
2556.67360,0.00520
2554.61342,0.00524
2552.55325,0.00557
2550.49308,0.00596
2548.43291,0.00602
2546.37274,0.00572
2544.31256,0.00539
2542.25239,0.00516
2540.19222,0.00481
2538.13205,0.00444
2536.07188,0.00432
2534.01170,0.00443
2531.95153,0.00458
2529.89136,0.00466
2527.83119,0.00483
2525.77102,0.00510
2523.71084,0.00514
2521.65067,0.00491
2519.59050,0.00460
2517.53033,0.00425
2515.47015,0.00390
2513.40998,0.00381
2511.34981,0.00414
2509.28964,0.00462
2507.22947,0.00469
2505.16929,0.00433
2503.10912,0.00405
2501.04895,0.00419
2498.98878,0.00449
2496.92861,0.00458
2494.86843,0.00459
2492.80826,0.00468
2490.74809,0.00468
2488.68792,0.00465
2486.62775,0.00484
2484.56757,0.00504
2482.50740,0.00484
2480.44723,0.00445
2478.38706,0.00428
2476.32688,0.00427
2474.26671,0.00419
2472.20654,0.00414
2470.14637,0.00427
2468.08620,0.00451
2466.02602,0.00472
2463.96585,0.00481
2461.90568,0.00477
2459.84551,0.00469
2457.78534,0.00462
2455.72516,0.00448
2453.66499,0.00435
2451.60482,0.00455
2449.54465,0.00500
2447.48447,0.00521
2445.42430,0.00511
2443.36413,0.00494
2441.30396,0.00479
2439.24379,0.00457
2437.18361,0.00418
2435.12344,0.00364
2433.06327,0.00317
2431.00310,0.00299
2428.94293,0.00312
2426.88275,0.00342
2424.82258,0.00384
2422.76241,0.00436
2420.70224,0.00451
2418.64207,0.00412
2416.58189,0.00377
2414.52172,0.00390
2412.46155,0.00429
2410.40138,0.00467
2408.34120,0.00477
2406.28103,0.00449
2404.22086,0.00412
2402.16069,0.00386
2400.10052,0.00377
2398.04034,0.00382
2395.98017,0.00388
2393.92000,0.00385
2391.85983,0.00378
2389.79966,0.00373
2387.73948,0.00376
2385.67931,0.00385
2383.61914,0.00400
2381.55897,0.00418
2379.49880,0.00434
2377.43862,0.00438
2375.37845,0.00428
2373.31828,0.00417
2371.25811,0.00428
2369.19793,0.00448
2367.13776,0.00425
2365.07759,0.00315
2363.01742,0.00159
2360.95725,0.00083
2358.89707,0.00167
2356.83690,0.00363
2354.77673,0.00573
2352.71656,0.00703
2350.65639,0.00724
2348.59621,0.00702
2346.53604,0.00712
2344.47587,0.00743
2342.41570,0.00723
2340.35552,0.00635
2338.29535,0.00561
2336.23518,0.00569
2334.17501,0.00625
2332.11484,0.00650
2330.05466,0.00623
2327.99449,0.00592
2325.93432,0.00592
2323.87415,0.00605
2321.81398,0.00597
2319.75380,0.00567
2317.69363,0.00530
2315.63346,0.00500
2313.57329,0.00479
2311.51312,0.00458
2309.45294,0.00430
2307.39277,0.00404
2305.33260,0.00401
2303.27243,0.00432
2301.21225,0.00483
2299.15208,0.00533
2297.09191,0.00563
2295.03174,0.00576
2292.97157,0.00588
2290.91139,0.00592
2288.85122,0.00572
2286.79105,0.00539
2284.73088,0.00523
2282.67071,0.00533
2280.61053,0.00551
2278.55036,0.00549
2276.49019,0.00518
2274.43002,0.00478
2272.36984,0.00453
2270.30967,0.00443
2268.24950,0.00432
2266.18933,0.00420
2264.12916,0.00425
2262.06898,0.00457
2260.00881,0.00495
2257.94864,0.00507
2255.88847,0.00480
2253.82830,0.00436
2251.76812,0.00401
2249.70795,0.00382
2247.64778,0.00375
2245.58761,0.00376
2243.52744,0.00371
2241.46726,0.00384
2239.40709,0.00404
2237.34692,0.00356
2235.28675,0.00281
2233.22657,0.00303
2231.16640,0.00411
2229.10623,0.00493
2227.04606,0.00497
2224.98589,0.00474
2222.92571,0.00478
2220.86554,0.00493
2218.80537,0.00500
2216.74520,0.00534
2214.68503,0.00590
2212.62485,0.00610
2210.56468,0.00577
2208.50451,0.00515
2206.44434,0.00443
2204.38417,0.00370
2202.32399,0.00290
2200.26382,0.00236
2198.20365,0.00266
2196.14348,0.00349
2194.08330,0.00416
2192.02313,0.00452
2189.96296,0.00458
2187.90279,0.00418
2185.84262,0.00347
2183.78244,0.00321
2181.72227,0.00374
2179.66210,0.00440
2177.60193,0.00489
2175.54176,0.00532
2173.48158,0.00530
2171.42141,0.00489
2169.36124,0.00526
2167.30107,0.00707
2165.24089,0.00907
2163.18072,0.00916
2161.12055,0.00665
2159.06038,0.00320
2157.00021,0.00119
2154.94003,0.00113
2152.87986,0.00179
2150.81969,0.00241
2148.75952,0.00320
2146.69935,0.00387
2144.63917,0.00344
2142.57900,0.00252
2140.51883,0.00233
2138.45866,0.00229
2136.39849,0.00182
2134.33831,0.00163
2132.27814,0.00205
2130.21797,0.00265
2128.15780,0.00306
2126.09762,0.00312
2124.03745,0.00298
2121.97728,0.00323
2119.91711,0.00391
2117.85694,0.00432
2115.79676,0.00440
2113.73659,0.00440
2111.67642,0.00400
2109.61625,0.00317
2107.55608,0.00260
2105.49590,0.00275
2103.43573,0.00319
2101.37556,0.00323
2099.31539,0.00275
2097.25521,0.00215
2095.19504,0.00179
2093.13487,0.00188
2091.07470,0.00242
2089.01453,0.00309
2086.95435,0.00354
2084.89418,0.00366
2082.83401,0.00358
2080.77384,0.00350
2078.71367,0.00360
2076.65349,0.00396
2074.59332,0.00441
2072.53315,0.00472
2070.47298,0.00471
2068.41281,0.00446
2066.35263,0.00427
2064.29246,0.00423
2062.23229,0.00407
2060.17212,0.00375
2058.11194,0.00363
2056.05177,0.00399
2053.99160,0.00465
2051.93143,0.00510
2049.87126,0.00493
2047.81108,0.00437
2045.75091,0.00397
2043.69074,0.00387
2041.63057,0.00383
2039.57040,0.00380
2037.51022,0.00392
2035.45005,0.00414
2033.38988,0.00425
2031.32971,0.00403
2029.26954,0.00331
2027.20936,0.00227
2025.14919,0.00154
2023.08902,0.00151
2021.02885,0.00184
2018.96867,0.00196
2016.90850,0.00174
2014.84833,0.00181
2012.78816,0.00272
2010.72799,0.00400
2008.66781,0.00467
2006.60764,0.00445
2004.54747,0.00404
2002.48730,0.00428
2000.42713,0.00517
1998.36695,0.00601
1996.30678,0.00626
1994.24661,0.00589
1992.18644,0.00514
1990.12626,0.00432
1988.06609,0.00372
1986.00592,0.00338
1983.94575,0.00310
1981.88558,0.00274
1979.82540,0.00217
1977.76523,0.00125
1975.70506,0.00029
1973.64489,0.00000
1971.58472,0.00060
1969.52454,0.00168
1967.46437,0.00270
1965.40420,0.00342
1963.34403,0.00388
1961.28386,0.00413
1959.22368,0.00407
1957.16351,0.00368
1955.10334,0.00310
1953.04317,0.00249
1950.98299,0.00205
1948.92282,0.00185
1946.86265,0.00181
1944.80248,0.00185
1942.74231,0.00193
1940.68213,0.00196
1938.62196,0.00193
1936.56179,0.00195
1934.50162,0.00213
1932.44145,0.00231
1930.38127,0.00227
1928.32110,0.00211
1926.26093,0.00204
1924.20076,0.00205
1922.14059,0.00201
1920.08041,0.00196
1918.02024,0.00186
1915.96007,0.00164
1913.89990,0.00137
1911.83972,0.00127
1909.77955,0.00147
1907.71938,0.00185
1905.65921,0.00228
1903.59904,0.00269
1901.53886,0.00305
1899.47869,0.00323
1897.41852,0.00320
1895.35835,0.00307
1893.29818,0.00293
1891.23800,0.00279
1889.17783,0.00264
1887.11766,0.00250
1885.05749,0.00242
1882.99731,0.00239
1880.93714,0.00238
1878.87697,0.00231
1876.81680,0.00208
1874.75663,0.00174
1872.69645,0.00149
1870.63628,0.00145
1868.57611,0.00151
1866.51594,0.00152
1864.45577,0.00147
1862.39559,0.00156
1860.33542,0.00183
1858.27525,0.00213
1856.21508,0.00233
1854.15491,0.00239
1852.09473,0.00228
1850.03456,0.00207
1847.97439,0.00177
1845.91422,0.00144
1843.85404,0.00117
1841.79387,0.00107
1839.73370,0.00115
1837.67353,0.00130
1835.61336,0.00137
1833.55318,0.00131
1831.49301,0.00123
1829.43284,0.00122
1827.37267,0.00119
1825.31250,0.00109
1823.25232,0.00099
1821.19215,0.00100
1819.13198,0.00116
1817.07181,0.00143
1815.01163,0.00175
1812.95146,0.00202
1810.89129,0.00206
1808.83112,0.00180
1806.77095,0.00138
1804.71077,0.00099
1802.65060,0.00081
1800.59043,0.00087
1798.53026,0.00104
1796.47009,0.00118
1794.40991,0.00123
1792.34974,0.00124
1790.28957,0.00133
1788.22940,0.00152
1786.16923,0.00172
1784.10905,0.00179
1782.04888,0.00172
1779.98871,0.00159
1777.92854,0.00148
1775.86836,0.00151
1773.80819,0.00172
1771.74802,0.00197
1769.68785,0.00207
1767.62768,0.00200
1765.56750,0.00193
1763.50733,0.00202
1761.44716,0.00228
1759.38699,0.00268
1757.32682,0.00318
1755.26664,0.00377
1753.20647,0.00439
1751.14630,0.00495
1749.08613,0.00536
1747.02596,0.00560
1744.96578,0.00576
1742.90561,0.00591
1740.84544,0.00608
1738.78527,0.00627
1736.72509,0.00648
1734.66492,0.00666
1732.60475,0.00677
1730.54458,0.00676
1728.48441,0.00666
1726.42423,0.00656
1724.36406,0.00655
1722.30389,0.00664
1720.24372,0.00670
1718.18355,0.00658
1716.12337,0.00618
1714.06320,0.00560
1712.00303,0.00510
1709.94286,0.00483
1707.88268,0.00476
1705.82251,0.00476
1703.76234,0.00473
1701.70217,0.00456
1699.64200,0.00427
1697.58182,0.00398
1695.52165,0.00380
1693.46148,0.00380
1691.40131,0.00407
1689.34114,0.00456
1687.28096,0.00510
1685.22079,0.00551
1683.16062,0.00573
1681.10045,0.00589
1679.04028,0.00619
1676.98010,0.00667
1674.91993,0.00721
1672.85976,0.00771
1670.79959,0.00815
1668.73941,0.00856
1666.67924,0.00893
1664.61907,0.00929
1662.55890,0.00967
1660.49873,0.01009
1658.43855,0.01058
1656.37838,0.01110
1654.31821,0.01163
1652.25804,0.01213
1650.19787,0.01264
1648.13769,0.01309
1646.07752,0.01333
1644.01735,0.01332
1641.95718,0.01327
1639.89701,0.01336
1637.83683,0.01358
1635.77666,0.01384
1633.71649,0.01412
1631.65632,0.01441
1629.59614,0.01467
1627.53597,0.01480
1625.47580,0.01478
1623.41563,0.01468
1621.35546,0.01457
1619.29528,0.01447
1617.23511,0.01436
1615.17494,0.01420
1613.11477,0.01398
1611.05460,0.01372
1608.99442,0.01338
1606.93425,0.01296
1604.87408,0.01252
1602.81391,0.01206
1600.75373,0.01155
1598.69356,0.01099
1596.63339,0.01041
1594.57322,0.00978
1592.51305,0.00907
1590.45287,0.00831
1588.39270,0.00759
1586.33253,0.00698
1584.27236,0.00649
1582.21219,0.00607
1580.15201,0.00568
1578.09184,0.00525
1576.03167,0.00477
1573.97150,0.00434
1571.91133,0.00409
1569.85115,0.00399
1567.79098,0.00394
1565.73081,0.00391
1563.67064,0.00389
1561.61046,0.00383
1559.55029,0.00358
1557.49012,0.00308
1555.42995,0.00247
1553.36978,0.00200
1551.30960,0.00175
1549.24943,0.00166
1547.18926,0.00166
1545.12909,0.00169
1543.06892,0.00171
1541.00874,0.00166
1538.94857,0.00154
1536.88840,0.00141
1534.82823,0.00132
1532.76805,0.00123
1530.70788,0.00118
1528.64771,0.00126
1526.58754,0.00144
1524.52737,0.00159
1522.46719,0.00159
1520.40702,0.00145
1518.34685,0.00128
1516.28668,0.00118
1514.22651,0.00125
1512.16633,0.00151
1510.10616,0.00180
1508.04599,0.00191
1505.98582,0.00182
1503.92565,0.00167
1501.86547,0.00159
1499.80530,0.00157
1497.74513,0.00155
1495.68496,0.00150
1493.62478,0.00151
1491.56461,0.00162
1489.50444,0.00177
1487.44427,0.00189
1485.38410,0.00201
1483.32392,0.00222
1481.26375,0.00258
1479.20358,0.00308
1477.14341,0.00367
1475.08324,0.00424
1473.02306,0.00469
1470.96289,0.00495
1468.90272,0.00507
1466.84255,0.00521
1464.78238,0.00545
1462.72220,0.00586
1460.66203,0.00641
1458.60186,0.00694
1456.54169,0.00725
1454.48151,0.00724
1452.42134,0.00710
1450.36117,0.00701
1448.30100,0.00707
1446.24083,0.00728
1444.18065,0.00763
1442.12048,0.00808
1440.06031,0.00861
1438.00014,0.00911
1435.93997,0.00952
1433.87979,0.00980
1431.81962,0.00999
1429.75945,0.01013
1427.69928,0.01025
1425.63910,0.01041
1423.57893,0.01061
1421.51876,0.01082
1419.45859,0.01102
1417.39842,0.01119
1415.33824,0.01133
1413.27807,0.01144
1411.21790,0.01149
1409.15773,0.01148
1407.09756,0.01144
1405.03738,0.01134
1402.97721,0.01116
1400.91704,0.01091
1398.85687,0.01059
1396.79670,0.01023
1394.73652,0.00986
1392.67635,0.00954
1390.61618,0.00934
1388.55601,0.00931
1386.49583,0.00947
1384.43566,0.00976
1382.37549,0.01005
1380.31532,0.01031
1378.25515,0.01053
1376.19497,0.01076
1374.13480,0.01103
1372.07463,0.01131
1370.01446,0.01151
1367.95429,0.01153
1365.89411,0.01137
1363.83394,0.01106
1361.77377,0.01068
1359.71360,0.01034
1357.65343,0.01011
1355.59325,0.00999
1353.53308,0.00988
1351.47291,0.00973
1349.41274,0.00949
1347.35256,0.00921
1345.29239,0.00898
1343.23222,0.00890
1341.17205,0.00898
1339.11188,0.00912
1337.05170,0.00923
1334.99153,0.00925
1332.93136,0.00919
1330.87119,0.00912
1328.81102,0.00906
1326.75084,0.00903
1324.69067,0.00902
1322.63050,0.00907
1320.57033,0.00921
1318.51015,0.00938
1316.44998,0.00948
1314.38981,0.00944
1312.32964,0.00927
1310.26947,0.00904
1308.20929,0.00881
1306.14912,0.00862
1304.08895,0.00849
1302.02878,0.00840
1299.96861,0.00828
1297.90843,0.00809
1295.84826,0.00784
1293.78809,0.00759
1291.72792,0.00741
1289.66775,0.00733
1287.60757,0.00732
1285.54740,0.00734
1283.48723,0.00737
1281.42706,0.00740
1279.36688,0.00741
1277.30671,0.00740
1275.24654,0.00739
1273.18637,0.00750
1271.12620,0.00777
1269.06602,0.00814
1267.00585,0.00855
1264.94568,0.00895
1262.88551,0.00936
1260.82534,0.00978
1258.76516,0.01017
1256.70499,0.01050
1254.64482,0.01072
1252.58465,0.01079
1250.52447,0.01074
1248.46430,0.01063
1246.40413,0.01055
1244.34396,0.01049
1242.28379,0.01039
1240.22361,0.01023
1238.16344,0.01003
1236.10327,0.00986
1234.04310,0.00971
1231.98293,0.00954
1229.92275,0.00934
1227.86258,0.00906
1225.80241,0.00871
1223.74224,0.00832
1221.68207,0.00791
1219.62189,0.00746
1217.56172,0.00697
1215.50155,0.00648
1213.44138,0.00601
1211.38120,0.00552
1209.32103,0.00498
1207.26086,0.00435
1205.20069,0.00366
1203.14052,0.00297
1201.08034,0.00230
1199.02017,0.00159
1196.96000,0.00089
1194.89983,0.00037
1192.83966,0.00008
1190.77948,0.00000
1188.71931,0.00008
1186.65914,0.00030
1184.59897,0.00058
1182.53880,0.00084
1180.47862,0.00105
1178.41845,0.00139
1176.35828,0.00193
1174.29811,0.00252
1172.23793,0.00313
1170.17776,0.00388
1168.11759,0.00476
1166.05742,0.00567
1163.99725,0.00643
1161.93707,0.00701
1159.87690,0.00749
1157.81673,0.00799
1155.75656,0.00860
1153.69639,0.00920
1151.63621,0.00964
1149.57604,0.00996
1147.51587,0.01030
1145.45570,0.01075
1143.39552,0.01119
1141.33535,0.01147
1139.27518,0.01168
1137.21501,0.01191
1135.15484,0.01208
1133.09466,0.01215
1131.03449,0.01236
1128.97432,0.01290
1126.91415,0.01363
1124.85398,0.01439
1122.79380,0.01516
1120.73363,0.01593
1118.67346,0.01656
1116.61329,0.01693
1114.55312,0.01721
1112.49294,0.01755
1110.43277,0.01795
1108.37260,0.01840
1106.31243,0.01901
1104.25225,0.01984
1102.19208,0.02069
1100.13191,0.02153
1098.07174,0.02240
1096.01157,0.02322
1093.95139,0.02401
1091.89122,0.02487
1089.83105,0.02569
1087.77088,0.02638
1085.71071,0.02698
1083.65053,0.02763
1081.59036,0.02842
1079.53019,0.02934
1077.47002,0.03018
1075.40985,0.03081
1073.34967,0.03138
1071.28950,0.03209
1069.22933,0.03281
1067.16916,0.03331
1065.10898,0.03355
1063.04881,0.03371
1060.98864,0.03401
1058.92847,0.03441
1056.86830,0.03463
1054.80812,0.03460
1052.74795,0.03470
1050.68778,0.03517
1048.62761,0.03586
1046.56744,0.03646
1044.50726,0.03698
1042.44709,0.03758
1040.38692,0.03821
1038.32675,0.03874
1036.26657,0.03921
1034.20640,0.03964
1032.14623,0.03980
1030.08606,0.03946
1028.02589,0.03891
1025.96571,0.03867
1023.90554,0.03880
1021.84537,0.03897
1019.78520,0.03910
1017.72503,0.03923
1015.66485,0.03930
1013.60468,0.03930
1011.54451,0.03932
1009.48434,0.03939
1007.42417,0.03930
1005.36399,0.03893
1003.30382,0.03850
1001.24365,0.03809
999.18348,0.03748
997.12330,0.03669
995.06313,0.03602
993.00296,0.03573
990.94279,0.03571
988.88262,0.03569
986.82244,0.03549
984.76227,0.03507
982.70210,0.03451
980.64193,0.03405
978.58176,0.03379
976.52158,0.03360
974.46141,0.03333
972.40124,0.03297
970.34107,0.03249
968.28089,0.03195
966.22072,0.03159
964.16055,0.03135
962.10038,0.03093
960.04021,0.03022
957.98003,0.02940
955.91986,0.02862
953.85969,0.02792
951.79952,0.02741
949.73935,0.02696
947.67917,0.02628
945.61900,0.02542
943.55883,0.02463
941.49866,0.02382
939.43849,0.02266
937.37831,0.02103
935.31814,0.01911
933.25797,0.01724
931.19780,0.01552
929.13762,0.01397
927.07745,0.01280
925.01728,0.01205
922.95711,0.01136
920.89694,0.01054
918.83676,0.00982
916.77659,0.00935
914.71642,0.00897
912.65625,0.00859
910.59608,0.00826
908.53590,0.00805
906.47573,0.00787
904.41556,0.00770
902.35539,0.00760
900.29522,0.00746
898.23504,0.00728
896.17487,0.00735
894.11470,0.00776
892.05453,0.00811
889.99435,0.00807
887.93418,0.00776
885.87401,0.00735
883.81384,0.00680
881.75367,0.00613
879.69349,0.00552
877.63332,0.00494
875.57315,0.00425
873.51298,0.00370
871.45281,0.00387
869.39263,0.00478
867.33246,0.00562
865.27229,0.00582
863.21212,0.00533
861.15194,0.00443
859.09177,0.00364
857.03160,0.00333
854.97143,0.00335
852.91126,0.00338
850.85108,0.00322
848.79091,0.00288
846.73074,0.00263
844.67057,0.00266
842.61040,0.00258
840.55022,0.00204
838.49005,0.00142
836.42988,0.00107
834.36971,0.00084
832.30954,0.00059
830.24936,0.00042
828.18919,0.00022
826.12902,0.00009
824.06885,0.00039
822.00867,0.00101
819.94850,0.00155
817.88833,0.00184
815.82816,0.00184
813.76799,0.00175
811.70781,0.00194
809.64764,0.00248
807.58747,0.00294
805.52730,0.00294
803.46713,0.00279
801.40695,0.00281
799.34678,0.00262
797.28661,0.00182
795.22644,0.00069
793.16627,0.00000
791.10609,0.00015
789.04592,0.00073
786.98575,0.00101
784.92558,0.00089
782.86540,0.00078
780.80523,0.00104
778.74506,0.00163
776.68489,0.00238
774.62472,0.00298
772.56454,0.00294
770.50437,0.00214
768.44420,0.00117
766.38403,0.00082
764.32386,0.00109
762.26368,0.00130
760.20351,0.00108
758.14334,0.00070
756.08317,0.00077
754.02299,0.00137
751.96282,0.00199
749.90265,0.00249
747.84248,0.00295
745.78231,0.00310
743.72213,0.00303
741.66196,0.00300
739.60179,0.00281
737.54162,0.00237
735.48145,0.00170
733.42127,0.00069
731.36110,0.00000
729.30093,0.00036
727.24076,0.00130
725.18059,0.00188
723.12041,0.00197
721.06024,0.00178
719.00007,0.00154
716.93990,0.00148
714.87972,0.00177
712.81955,0.00237
710.75938,0.00308
708.69921,0.00364
706.63904,0.00396
704.57886,0.00395
702.51869,0.00368
700.45852,0.00349
698.39835,0.00363
696.33818,0.00384
694.27800,0.00365
692.21783,0.00301
690.15766,0.00236
688.09749,0.00216
686.03731,0.00245
683.97714,0.00288
681.91697,0.00298
679.85680,0.00247
677.79663,0.00152
675.73645,0.00082
673.67628,0.00106
671.61611,0.00225
669.55594,0.00362
667.49577,0.00411
665.43559,0.00371
663.37542,0.00331
661.31525,0.00337
659.25508,0.00353
657.19491,0.00340
655.13473,0.00309
653.07456,0.00303
651.01439,0.00333
648.95422,0.00352
646.89404,0.00314
644.83387,0.00221
642.77370,0.00113
640.71353,0.00035
638.65336,0.00000
636.59318,-0.00033
634.53301,-0.00049
632.47284,-0.00070
630.41267,-0.00090
628.35250,-0.00079
626.29232,-0.00055
624.23215,-0.00097
622.17198,-0.00091
620.11181,0.00019
618.05164,0.00125
615.99146,0.00203
613.93129,0.00239
611.87112,0.00149
609.81095,-0.00088
607.75077,-0.00361
605.69060,-0.00430
603.63043,-0.00239
601.57026,-0.00051
599.51009,0.00000
