3996.73391,0.00079
3994.67373,0.00064
3992.61356,0.00051
3990.55339,0.00045
3988.49322,0.00045
3986.43305,0.00040
3984.37287,0.00026
3982.31270,0.00007
3980.25253,0.00000
3978.19236,0.00016
3976.13219,0.00053
3974.07201,0.00089
3972.01184,0.00107
3969.95167,0.00104
3967.89150,0.00089
3965.83133,0.00073
3963.77115,0.00064
3961.71098,0.00059
3959.65081,0.00058
3957.59064,0.00063
3955.53046,0.00071
3953.47029,0.00073
3951.41012,0.00068
3949.34995,0.00066
3947.28978,0.00072
3945.22960,0.00082
3943.16943,0.00086
3941.10926,0.00081
3939.04909,0.00071
3936.98892,0.00064
3934.92874,0.00060
3932.86857,0.00059
3930.80840,0.00062
3928.74823,0.00068
3926.68805,0.00072
3924.62788,0.00063
3922.56771,0.00047
3920.50754,0.00043
3918.44737,0.00054
3916.38719,0.00073
3914.32702,0.00090
3912.26685,0.00100
3910.20668,0.00102
3908.14651,0.00093
3906.08633,0.00071
3904.02616,0.00042
3901.96599,0.00015
3899.90582,0.00000
3897.84565,0.00002
3895.78547,0.00023
3893.72530,0.00055
3891.66513,0.00080
3889.60496,0.00101
3887.54478,0.00122
3885.48461,0.00137
3883.42444,0.00131
3881.36427,0.00106
3879.30410,0.00072
3877.24392,0.00049
3875.18375,0.00047
3873.12358,0.00063
3871.06341,0.00079
3869.00324,0.00084
3866.94306,0.00072
3864.88289,0.00050
3862.82272,0.00032
3860.76255,0.00036
3858.70237,0.00071
3856.64220,0.00124
3854.58203,0.00165
3852.52186,0.00174
3850.46169,0.00155
3848.40151,0.00122
3846.34134,0.00088
3844.28117,0.00066
3842.22100,0.00070
3840.16083,0.00102
3838.10065,0.00142
3836.04048,0.00163
3833.98031,0.00156
3831.92014,0.00135
3829.85997,0.00121
3827.79979,0.00124
3825.73962,0.00131
3823.67945,0.00126
3821.61928,0.00105
3819.55910,0.00075
3817.49893,0.00048
3815.43876,0.00041
3813.37859,0.00060
3811.31842,0.00093
3809.25824,0.00111
3807.19807,0.00100
3805.13790,0.00079
3803.07773,0.00071
3801.01756,0.00081
3798.95738,0.00100
3796.89721,0.00114
3794.83704,0.00112
3792.77687,0.00097
3790.71670,0.00081
3788.65652,0.00073
3786.59635,0.00076
3784.53618,0.00088
3782.47601,0.00104
3780.41583,0.00116
3778.35566,0.00119
3776.29549,0.00119
3774.23532,0.00121
3772.17515,0.00126
3770.11497,0.00131
3768.05480,0.00133
3765.99463,0.00135
3763.93446,0.00132
3761.87429,0.00131
3759.81411,0.00137
3757.75394,0.00148
3755.69377,0.00150
3753.63360,0.00151
3751.57342,0.00164
3749.51325,0.00189
3747.45308,0.00205
3745.39291,0.00199
3743.33274,0.00181
3741.27256,0.00177
3739.21239,0.00201
3737.15222,0.00244
3735.09205,0.00281
3733.03188,0.00284
3730.97170,0.00258
3728.91153,0.00218
3726.85136,0.00174
3724.79119,0.00136
3722.73102,0.00108
3720.67084,0.00083
3718.61067,0.00065
3716.55050,0.00063
3714.49033,0.00076
3712.43015,0.00090
3710.36998,0.00099
3708.30981,0.00106
3706.24964,0.00118
3704.18947,0.00136
3702.12929,0.00151
3700.06912,0.00157
3698.00895,0.00161
3695.94878,0.00172
3693.88861,0.00186
3691.82843,0.00181
3689.76826,0.00144
3687.70809,0.00087
3685.64792,0.00043
3683.58775,0.00034
3681.52757,0.00050
3679.46740,0.00071
3677.40723,0.00087
3675.34706,0.00104
3673.28688,0.00121
3671.22671,0.00120
3669.16654,0.00096
3667.10637,0.00071
3665.04620,0.00071
3662.98602,0.00097
3660.92585,0.00142
3658.86568,0.00186
3656.80551,0.00208
3654.74534,0.00198
3652.68516,0.00168
3650.62499,0.00141
3648.56482,0.00142
3646.50465,0.00179
3644.44447,0.00237
3642.38430,0.00290
3640.32413,0.00320
3638.26396,0.00312
3636.20379,0.00270
3634.14361,0.00219
3632.08344,0.00190
3630.02327,0.00202
3627.96310,0.00247
3625.90293,0.00293
3623.84275,0.00309
3621.78258,0.00295
3619.72241,0.00279
3617.66224,0.00293
3615.60207,0.00340
3613.54189,0.00393
3611.48172,0.00423
3609.42155,0.00421
3607.36138,0.00394
3605.30120,0.00362
3603.24103,0.00360
3601.18086,0.00414
3599.12069,0.00507
3597.06052,0.00599
3595.00034,0.00658
3592.94017,0.00678
3590.88000,0.00671
3588.81983,0.00656
3586.75966,0.00647
3584.69948,0.00647
3582.63931,0.00663
3580.57914,0.00703
3578.51897,0.00761
3576.45879,0.00814
3574.39862,0.00841
3572.33845,0.00840
3570.27828,0.00820
3568.21811,0.00797
3566.15793,0.00792
3564.09776,0.00817
3562.03759,0.00866
3559.97742,0.00919
3557.91725,0.00956
3555.85707,0.00965
3553.79690,0.00954
3551.73673,0.00944
3549.67656,0.00954
3547.61639,0.00991
3545.55621,0.01041
3543.49604,0.01079
3541.43587,0.01089
3539.37570,0.01086
3537.31552,0.01089
3535.25535,0.01109
3533.19518,0.01145
3531.13501,0.01185
3529.07484,0.01216
3527.01466,0.01238
3524.95449,0.01255
3522.89432,0.01266
3520.83415,0.01268
3518.77398,0.01267
3516.71380,0.01265
3514.65363,0.01265
3512.59346,0.01271
3510.53329,0.01290
3508.47312,0.01326
3506.41294,0.01376
3504.35277,0.01429
3502.29260,0.01473
3500.23243,0.01499
3498.17225,0.01506
3496.11208,0.01511
3494.05191,0.01526
3491.99174,0.01547
3489.93157,0.01558
3487.87139,0.01553
3485.81122,0.01539
3483.75105,0.01528
3481.69088,0.01531
3479.63071,0.01553
3477.57053,0.01591
3475.51036,0.01638
3473.45019,0.01679
3471.39002,0.01701
3469.32984,0.01708
3467.26967,0.01706
3465.20950,0.01705
3463.14933,0.01712
3461.08916,0.01731
3459.02898,0.01759
3456.96881,0.01789
3454.90864,0.01819
3452.84847,0.01840
3450.78830,0.01855
3448.72812,0.01870
3446.66795,0.01887
3444.60778,0.01900
3442.54761,0.01904
3440.48744,0.01898
3438.42726,0.01896
3436.36709,0.01906
3434.30692,0.01921
3432.24675,0.01935
3430.18657,0.01948
3428.12640,0.01962
3426.06623,0.01978
3424.00606,0.01993
3421.94589,0.02006
3419.88571,0.02019
3417.82554,0.02030
3415.76537,0.02038
3413.70520,0.02048
3411.64503,0.02069
3409.58485,0.02103
3407.52468,0.02140
3405.46451,0.02173
3403.40434,0.02192
3401.34416,0.02190
3399.28399,0.02172
3397.22382,0.02154
3395.16365,0.02153
3393.10348,0.02169
3391.04330,0.02190
3388.98313,0.02206
3386.92296,0.02229
3384.86279,0.02261
3382.80262,0.02288
3380.74244,0.02297
3378.68227,0.02285
3376.62210,0.02263
3374.56193,0.02253
3372.50176,0.02267
3370.44158,0.02293
3368.38141,0.02309
3366.32124,0.02308
3364.26107,0.02297
3362.20089,0.02286
3360.14072,0.02284
3358.08055,0.02295
3356.02038,0.02323
3353.96021,0.02364
3351.90003,0.02409
3349.83986,0.02442
3347.77969,0.02458
3345.71952,0.02465
3343.65935,0.02464
3341.59917,0.02454
3339.53900,0.02433
3337.47883,0.02404
3335.41866,0.02376
3333.35849,0.02361
3331.29831,0.02362
3329.23814,0.02378
3327.17797,0.02403
3325.11780,0.02429
3323.05762,0.02451
3320.99745,0.02464
3318.93728,0.02459
3316.87711,0.02432
3314.81694,0.02393
3312.75676,0.02356
3310.69659,0.02339
3308.63642,0.02346
3306.57625,0.02367
3304.51608,0.02388
3302.45590,0.02403
3300.39573,0.02415
3298.33556,0.02425
3296.27539,0.02430
3294.21521,0.02423
3292.15504,0.02407
3290.09487,0.02395
3288.03470,0.02395
3285.97453,0.02405
3283.91435,0.02419
3281.85418,0.02430
3279.79401,0.02431
3277.73384,0.02427
3275.67367,0.02423
3273.61349,0.02422
3271.55332,0.02425
3269.49315,0.02435
3267.43298,0.02449
3265.37281,0.02462
3263.31263,0.02466
3261.25246,0.02448
3259.19229,0.02408
3257.13212,0.02362
3255.07194,0.02336
3253.01177,0.02342
3250.95160,0.02371
3248.89143,0.02399
3246.83126,0.02406
3244.77108,0.02394
3242.71091,0.02371
3240.65074,0.02351
3238.59057,0.02343
3236.53040,0.02343
3234.47022,0.02339
3232.41005,0.02327
3230.34988,0.02310
3228.28971,0.02288
3226.22954,0.02264
3224.16936,0.02252
3222.10919,0.02259
3220.04902,0.02276
3217.98885,0.02288
3215.92867,0.02292
3213.86850,0.02290
3211.80833,0.02279
3209.74816,0.02257
3207.68799,0.02229
3205.62781,0.02208
3203.56764,0.02199
3201.50747,0.02197
3199.44730,0.02191
3197.38713,0.02179
3195.32695,0.02164
3193.26678,0.02152
3191.20661,0.02140
3189.14644,0.02119
3187.08626,0.02088
3185.02609,0.02061
3182.96592,0.02043
3180.90575,0.02032
3178.84558,0.02027
3176.78540,0.02024
3174.72523,0.02016
3172.66506,0.02000
3170.60489,0.01978
3168.54472,0.01960
3166.48454,0.01949
3164.42437,0.01936
3162.36420,0.01915
3160.30403,0.01891
3158.24386,0.01875
3156.18368,0.01864
3154.12351,0.01850
3152.06334,0.01832
3150.00317,0.01813
3147.94299,0.01793
3145.88282,0.01776
3143.82265,0.01762
3141.76248,0.01748
3139.70231,0.01728
3137.64213,0.01701
3135.58196,0.01679
3133.52179,0.01667
3131.46162,0.01659
3129.40145,0.01651
3127.34127,0.01643
3125.28110,0.01633
3123.22093,0.01621
3121.16076,0.01606
3119.10058,0.01590
3117.04041,0.01572
3114.98024,0.01555
3112.92007,0.01540
3110.85990,0.01526
3108.79972,0.01504
3106.73955,0.01467
3104.67938,0.01420
3102.61921,0.01378
3100.55904,0.01357
3098.49886,0.01358
3096.43869,0.01367
3094.37852,0.01370
3092.31835,0.01368
3090.25818,0.01362
3088.19800,0.01349
3086.13783,0.01326
3084.07766,0.01297
3082.01749,0.01272
3079.95731,0.01251
3077.89714,0.01230
3075.83697,0.01207
3073.77680,0.01184
3071.71663,0.01169
3069.65645,0.01170
3067.59628,0.01187
3065.53611,0.01205
3063.47594,0.01204
3061.41577,0.01187
3059.35559,0.01167
3057.29542,0.01150
3055.23525,0.01129
3053.17508,0.01102
3051.11491,0.01074
3049.05473,0.01051
3046.99456,0.01033
3044.93439,0.01018
3042.87422,0.01003
3040.81404,0.00992
3038.75387,0.00986
3036.69370,0.00988
3034.63353,0.00990
3032.57336,0.00990
3030.51318,0.00990
3028.45301,0.00985
3026.39284,0.00972
3024.33267,0.00954
3022.27250,0.00936
3020.21232,0.00921
3018.15215,0.00907
3016.09198,0.00894
3014.03181,0.00887
3011.97163,0.00885
3009.91146,0.00882
3007.85129,0.00872
3005.79112,0.00857
3003.73095,0.00846
3001.67077,0.00844
2999.61060,0.00848
2997.55043,0.00849
2995.49026,0.00839
2993.43009,0.00826
2991.36991,0.00823
2989.30974,0.00831
2987.24957,0.00843
2985.18940,0.00851
2983.12923,0.00852
2981.06905,0.00854
2979.00888,0.00873
2976.94871,0.00910
2974.88854,0.00949
2972.82836,0.00972
2970.76819,0.00981
2968.70802,0.00983
2966.64785,0.00977
2964.58768,0.00962
2962.52750,0.00949
2960.46733,0.00956
2958.40716,0.00992
2956.34699,0.01044
2954.28682,0.01094
2952.22664,0.01135
2950.16647,0.01175
2948.10630,0.01208
2946.04613,0.01227
2943.98596,0.01236
2941.92578,0.01233
2939.86561,0.01215
2937.80544,0.01186
2935.74527,0.01172
2933.68509,0.01191
2931.62492,0.01226
2929.56475,0.01250
2927.50458,0.01255
2925.44441,0.01241
2923.38423,0.01213
2921.32406,0.01175
2919.26389,0.01143
2917.20372,0.01133
2915.14355,0.01148
2913.08337,0.01163
2911.02320,0.01161
2908.96303,0.01148
2906.90286,0.01142
2904.84268,0.01144
2902.78251,0.01136
2900.72234,0.01126
2898.66217,0.01123
2896.60200,0.01112
2894.54182,0.01085
2892.48165,0.01073
2890.42148,0.01093
2888.36131,0.01121
2886.30114,0.01124
2884.24096,0.01093
2882.18079,0.01045
2880.12062,0.01018
2878.06045,0.01025
2876.00028,0.01034
2873.94010,0.01016
2871.87993,0.00975
2869.81976,0.00930
2867.75959,0.00906
2865.69941,0.00907
2863.63924,0.00910
2861.57907,0.00903
2859.51890,0.00892
2857.45873,0.00883
2855.39855,0.00875
2853.33838,0.00864
2851.27821,0.00842
2849.21804,0.00821
2847.15787,0.00816
2845.09769,0.00822
2843.03752,0.00823
2840.97735,0.00818
2838.91718,0.00812
2836.85700,0.00807
2834.79683,0.00800
2832.73666,0.00781
2830.67649,0.00743
2828.61632,0.00696
2826.55614,0.00659
2824.49597,0.00648
2822.43580,0.00667
2820.37563,0.00703
2818.31546,0.00719
2816.25528,0.00702
2814.19511,0.00685
2812.13494,0.00691
2810.07477,0.00711
2808.01460,0.00721
2805.95442,0.00700
2803.89425,0.00664
2801.83408,0.00644
2799.77391,0.00640
2797.71373,0.00640
2795.65356,0.00640
2793.59339,0.00645
2791.53322,0.00652
2789.47305,0.00655
2787.41287,0.00659
2785.35270,0.00664
2783.29253,0.00653
2781.23236,0.00630
2779.17219,0.00624
2777.11201,0.00641
2775.05184,0.00672
2772.99167,0.00700
2770.93150,0.00707
2768.87133,0.00690
2766.81115,0.00656
2764.75098,0.00618
2762.69081,0.00584
2760.63064,0.00557
2758.57046,0.00538
2756.51029,0.00537
2754.45012,0.00554
2752.38995,0.00571
2750.32978,0.00583
2748.26960,0.00596
2746.20943,0.00606
2744.14926,0.00607
2742.08909,0.00607
2740.02892,0.00616
2737.96874,0.00627
2735.90857,0.00628
2733.84840,0.00615
2731.78823,0.00590
2729.72805,0.00572
2727.66788,0.00576
2725.60771,0.00583
2723.54754,0.00573
2721.48737,0.00553
2719.42719,0.00546
2717.36702,0.00554
2715.30685,0.00556
2713.24668,0.00542
2711.18651,0.00526
2709.12633,0.00518
2707.06616,0.00507
2705.00599,0.00490
2702.94582,0.00482
2700.88565,0.00497
2698.82547,0.00524
2696.76530,0.00541
2694.70513,0.00545
2692.64496,0.00553
2690.58478,0.00578
2688.52461,0.00606
2686.46444,0.00616
2684.40427,0.00602
2682.34410,0.00566
2680.28392,0.00522
2678.22375,0.00492
2676.16358,0.00482
2674.10341,0.00481
2672.04324,0.00483
2669.98306,0.00483
2667.92289,0.00485
2665.86272,0.00496
2663.80255,0.00506
2661.74238,0.00503
2659.68220,0.00495
2657.62203,0.00501
2655.56186,0.00523
2653.50169,0.00540
2651.44151,0.00535
2649.38134,0.00516
2647.32117,0.00504
2645.26100,0.00496
2643.20083,0.00482
2641.14065,0.00461
2639.08048,0.00449
2637.02031,0.00464
2634.96014,0.00499
2632.89997,0.00512
2630.83979,0.00487
2628.77962,0.00465
2626.71945,0.00474
2624.65928,0.00493
2622.59910,0.00497
2620.53893,0.00499
2618.47876,0.00499
2616.41859,0.00474
2614.35842,0.00424
2612.29824,0.00386
2610.23807,0.00384
2608.17790,0.00408
2606.11773,0.00444
2604.05756,0.00477
2601.99738,0.00491
2599.93721,0.00492
2597.87704,0.00484
2595.81687,0.00450
2593.75670,0.00386
2591.69652,0.00337
2589.63635,0.00342
2587.57618,0.00379
2585.51601,0.00401
2583.45583,0.00401
2581.39566,0.00404
2579.33549,0.00419
2577.27532,0.00424
2575.21515,0.00408
2573.15497,0.00385
2571.09480,0.00367
2569.03463,0.00357
2566.97446,0.00353
2564.91429,0.00373
2562.85411,0.00420
2560.79394,0.00451
2558.73377,0.00430
2556.67360,0.00392
2554.61342,0.00391
2552.55325,0.00424
2550.49308,0.00443
2548.43291,0.00428
2546.37274,0.00411
2544.31256,0.00406
2542.25239,0.00384
2540.19222,0.00332
2538.13205,0.00294
2536.07188,0.00298
2534.01170,0.00328
2531.95153,0.00360
2529.89136,0.00380
2527.83119,0.00384
2525.77102,0.00361
2523.71084,0.00309
2521.65067,0.00278
2519.59050,0.00298
2517.53033,0.00324
2515.47015,0.00322
2513.40998,0.00317
2511.34981,0.00335
2509.28964,0.00357
2507.22947,0.00357
2505.16929,0.00351
2503.10912,0.00367
2501.04895,0.00401
2498.98878,0.00417
2496.92861,0.00389
2494.86843,0.00348
2492.80826,0.00334
2490.74809,0.00335
2488.68792,0.00335
2486.62775,0.00335
2484.56757,0.00333
2482.50740,0.00344
2480.44723,0.00378
2478.38706,0.00393
2476.32688,0.00357
2474.26671,0.00307
2472.20654,0.00300
2470.14637,0.00330
2468.08620,0.00349
2466.02602,0.00346
2463.96585,0.00344
2461.90568,0.00348
2459.84551,0.00341
2457.78534,0.00319
2455.72516,0.00311
2453.66499,0.00332
2451.60482,0.00359
2449.54465,0.00372
2447.48447,0.00375
2445.42430,0.00373
2443.36413,0.00368
2441.30396,0.00365
2439.24379,0.00360
2437.18361,0.00340
2435.12344,0.00311
2433.06327,0.00302
2431.00310,0.00314
2428.94293,0.00323
2426.88275,0.00319
2424.82258,0.00324
2422.76241,0.00349
2420.70224,0.00373
2418.64207,0.00370
2416.58189,0.00337
2414.52172,0.00301
2412.46155,0.00292
2410.40138,0.00310
2408.34120,0.00332
2406.28103,0.00348
2404.22086,0.00349
2402.16069,0.00329
2400.10052,0.00302
2398.04034,0.00283
2395.98017,0.00275
2393.92000,0.00279
2391.85983,0.00289
2389.79966,0.00296
2387.73948,0.00289
2385.67931,0.00270
2383.61914,0.00251
2381.55897,0.00241
2379.49880,0.00232
2377.43862,0.00214
2375.37845,0.00194
2373.31828,0.00200
2371.25811,0.00263
2369.19793,0.00376
2367.13776,0.00453
2365.07759,0.00399
2363.01742,0.00231
2360.95725,0.00096
2358.89707,0.00084
2356.83690,0.00127
2354.77673,0.00162
2352.71656,0.00195
2350.65639,0.00224
2348.59621,0.00247
2346.53604,0.00293
2344.47587,0.00378
2342.41570,0.00474
2340.35552,0.00542
2338.29535,0.00598
2336.23518,0.00669
2334.17501,0.00736
2332.11484,0.00762
2330.05466,0.00731
2327.99449,0.00662
2325.93432,0.00584
2323.87415,0.00514
2321.81398,0.00449
2319.75380,0.00381
2317.69363,0.00318
2315.63346,0.00279
2313.57329,0.00278
2311.51312,0.00304
2309.45294,0.00335
2307.39277,0.00359
2305.33260,0.00381
2303.27243,0.00407
2301.21225,0.00444
2299.15208,0.00489
2297.09191,0.00519
2295.03174,0.00521
2292.97157,0.00507
2290.91139,0.00486
2288.85122,0.00462
2286.79105,0.00452
2284.73088,0.00465
2282.67071,0.00478
2280.61053,0.00462
2278.55036,0.00431
2276.49019,0.00417
2274.43002,0.00421
2272.36984,0.00421
2270.30967,0.00406
2268.24950,0.00392
2266.18933,0.00401
2264.12916,0.00432
2262.06898,0.00461
2260.00881,0.00470
2257.94864,0.00457
2255.88847,0.00431
2253.82830,0.00407
2251.76812,0.00387
2249.70795,0.00366
2247.64778,0.00344
2245.58761,0.00341
2243.52744,0.00359
2241.46726,0.00393
2239.40709,0.00424
2237.34692,0.00411
2235.28675,0.00345
2233.22657,0.00303
2231.16640,0.00362
2229.10623,0.00449
2227.04606,0.00475
2224.98589,0.00472
2222.92571,0.00474
2220.86554,0.00448
2218.80537,0.00393
2216.74520,0.00358
2214.68503,0.00375
2212.62485,0.00397
2210.56468,0.00372
2208.50451,0.00317
2206.44434,0.00285
2204.38417,0.00292
2202.32399,0.00291
2200.26382,0.00267
2198.20365,0.00280
2196.14348,0.00312
2194.08330,0.00331
2192.02313,0.00363
2189.96296,0.00358
2187.90279,0.00248
2185.84262,0.00097
2183.78244,0.00011
2181.72227,0.00066
2179.66210,0.00229
2177.60193,0.00358
2175.54176,0.00389
2173.48158,0.00358
2171.42141,0.00339
2169.36124,0.00441
2167.30107,0.00649
2165.24089,0.00758
2163.18072,0.00626
2161.12055,0.00335
2159.06038,0.00068
2157.00021,0.00000
2154.94003,0.00153
2152.87986,0.00333
2150.81969,0.00372
2148.75952,0.00327
2146.69935,0.00324
2144.63917,0.00346
2142.57900,0.00338
2140.51883,0.00329
2138.45866,0.00319
2136.39849,0.00238
2134.33831,0.00102
2132.27814,0.00028
2130.21797,0.00072
2128.15780,0.00167
2126.09762,0.00232
2124.03745,0.00268
2121.97728,0.00293
2119.91711,0.00300
2117.85694,0.00302
2115.79676,0.00327
2113.73659,0.00352
2111.67642,0.00326
2109.61625,0.00251
2107.55608,0.00184
2105.49590,0.00178
2103.43573,0.00230
2101.37556,0.00292
2099.31539,0.00317
2097.25521,0.00317
2095.19504,0.00316
2093.13487,0.00321
2091.07470,0.00332
2089.01453,0.00346
2086.95435,0.00364
2084.89418,0.00388
2082.83401,0.00414
2080.77384,0.00432
2078.71367,0.00436
2076.65349,0.00432
2074.59332,0.00422
2072.53315,0.00402
2070.47298,0.00363
2068.41281,0.00308
2066.35263,0.00253
2064.29246,0.00215
2062.23229,0.00195
2060.17212,0.00182
2058.11194,0.00183
2056.05177,0.00214
2053.99160,0.00268
2051.93143,0.00305
2049.87126,0.00282
2047.81108,0.00202
2045.75091,0.00121
2043.69074,0.00093
2041.63057,0.00131
2039.57040,0.00216
2037.51022,0.00294
2035.45005,0.00308
2033.38988,0.00261
2031.32971,0.00200
2029.26954,0.00148
2027.20936,0.00104
2025.14919,0.00073
2023.08902,0.00056
2021.02885,0.00051
2018.96867,0.00044
2016.90850,0.00020
2014.84833,0.00000
2012.78816,0.00013
2010.72799,0.00061
2008.66781,0.00116
2006.60764,0.00164
2004.54747,0.00227
2002.48730,0.00331
2000.42713,0.00449
1998.36695,0.00504
1996.30678,0.00456
1994.24661,0.00351
1992.18644,0.00275
1990.12626,0.00270
1988.06609,0.00306
1986.00592,0.00333
1983.94575,0.00327
1981.88558,0.00294
1979.82540,0.00239
1977.76523,0.00158
1975.70506,0.00066
1973.64489,0.00009
1971.58472,0.00024
1969.52454,0.00091
1967.46437,0.00161
1965.40420,0.00212
1963.34403,0.00256
1961.28386,0.00293
1959.22368,0.00301
1957.16351,0.00271
1955.10334,0.00215
1953.04317,0.00150
1950.98299,0.00093
1948.92282,0.00051
1946.86265,0.00015
1944.80248,-0.00011
1942.74231,-0.00018
1940.68213,-0.00007
1938.62196,0.00010
1936.56179,0.00028
1934.50162,0.00058
1932.44145,0.00101
1930.38127,0.00152
1928.32110,0.00206
1926.26093,0.00264
1924.20076,0.00314
1922.14059,0.00332
1920.08041,0.00298
1918.02024,0.00222
1915.96007,0.00145
1913.89990,0.00102
1911.83972,0.00098
1909.77955,0.00110
1907.71938,0.00114
1905.65921,0.00108
1903.59904,0.00104
1901.53886,0.00105
1899.47869,0.00096
1897.41852,0.00074
1895.35835,0.00062
1893.29818,0.00084
1891.23800,0.00131
1889.17783,0.00173
1887.11766,0.00190
1885.05749,0.00189
1882.99731,0.00181
1880.93714,0.00169
1878.87697,0.00153
1876.81680,0.00133
1874.75663,0.00112
1872.69645,0.00100
1870.63628,0.00108
1868.57611,0.00135
1866.51594,0.00165
1864.45577,0.00179
1862.39559,0.00168
1860.33542,0.00140
1858.27525,0.00113
1856.21508,0.00102
1854.15491,0.00110
1852.09473,0.00128
1850.03456,0.00144
1847.97439,0.00148
1845.91422,0.00138
1843.85404,0.00124
1841.79387,0.00110
1839.73370,0.00093
1837.67353,0.00070
1835.61336,0.00045
1833.55318,0.00025
1831.49301,0.00013
1829.43284,0.00013
1827.37267,0.00024
1825.31250,0.00039
1823.25232,0.00049
1821.19215,0.00056
1819.13198,0.00061
1817.07181,0.00059
1815.01163,0.00052
1812.95146,0.00047
1810.89129,0.00044
1808.83112,0.00038
1806.77095,0.00031
1804.71077,0.00028
1802.65060,0.00028
1800.59043,0.00027
1798.53026,0.00030
1796.47009,0.00044
1794.40991,0.00063
1792.34974,0.00076
1790.28957,0.00074
1788.22940,0.00061
1786.16923,0.00047
1784.10905,0.00044
1782.04888,0.00050
1779.98871,0.00058
1777.92854,0.00064
1775.86836,0.00074
1773.80819,0.00093
1771.74802,0.00111
1769.68785,0.00115
1767.62768,0.00104
1765.56750,0.00094
1763.50733,0.00099
1761.44716,0.00121
1759.38699,0.00151
1757.32682,0.00186
1755.26664,0.00225
1753.20647,0.00272
1751.14630,0.00328
1749.08613,0.00388
1747.02596,0.00446
1744.96578,0.00493
1742.90561,0.00520
1740.84544,0.00523
1738.78527,0.00513
1736.72509,0.00508
1734.66492,0.00511
1732.60475,0.00514
1730.54458,0.00509
1728.48441,0.00498
1726.42423,0.00491
1724.36406,0.00497
1722.30389,0.00516
1720.24372,0.00531
1718.18355,0.00524
1716.12337,0.00485
1714.06320,0.00427
1712.00303,0.00375
1709.94286,0.00343
1707.88268,0.00332
1705.82251,0.00332
1703.76234,0.00326
1701.70217,0.00301
1699.64200,0.00264
1697.58182,0.00233
1695.52165,0.00220
1693.46148,0.00225
1691.40131,0.00249
1689.34114,0.00292
1687.28096,0.00352
1685.22079,0.00411
1683.16062,0.00451
1681.10045,0.00466
1679.04028,0.00474
1676.98010,0.00487
1674.91993,0.00504
1672.85976,0.00524
1670.79959,0.00552
1668.73941,0.00593
1666.67924,0.00642
1664.61907,0.00689
1662.55890,0.00730
1660.49873,0.00768
1658.43855,0.00804
1656.37838,0.00836
1654.31821,0.00867
1652.25804,0.00900
1650.19787,0.00933
1648.13769,0.00962
1646.07752,0.00987
1644.01735,0.01004
1641.95718,0.01017
1639.89701,0.01030
1637.83683,0.01046
1635.77666,0.01062
1633.71649,0.01077
1631.65632,0.01093
1629.59614,0.01115
1627.53597,0.01142
1625.47580,0.01165
1623.41563,0.01176
1621.35546,0.01173
1619.29528,0.01162
1617.23511,0.01145
1615.17494,0.01121
1613.11477,0.01096
1611.05460,0.01072
1608.99442,0.01048
1606.93425,0.01019
1604.87408,0.00983
1602.81391,0.00941
1600.75373,0.00895
1598.69356,0.00849
1596.63339,0.00802
1594.57322,0.00749
1592.51305,0.00685
1590.45287,0.00616
1588.39270,0.00552
1586.33253,0.00500
1584.27236,0.00458
1582.21219,0.00419
1580.15201,0.00383
1578.09184,0.00352
1576.03167,0.00326
1573.97150,0.00302
1571.91133,0.00284
1569.85115,0.00276
1567.79098,0.00274
1565.73081,0.00273
1563.67064,0.00268
1561.61046,0.00251
1559.55029,0.00222
1557.49012,0.00186
1555.42995,0.00157
1553.36978,0.00139
1551.30960,0.00129
1549.24943,0.00120
1547.18926,0.00108
1545.12909,0.00090
1543.06892,0.00069
1541.00874,0.00052
1538.94857,0.00043
1536.88840,0.00049
1534.82823,0.00062
1532.76805,0.00070
1530.70788,0.00070
1528.64771,0.00065
1526.58754,0.00057
1524.52737,0.00044
1522.46719,0.00028
1520.40702,0.00013
1518.34685,0.00004
1516.28668,0.00000
1514.22651,0.00002
1512.16633,0.00012
1510.10616,0.00029
1508.04599,0.00047
1505.98582,0.00056
1503.92565,0.00052
1501.86547,0.00043
1499.80530,0.00037
1497.74513,0.00038
1495.68496,0.00047
1493.62478,0.00059
1491.56461,0.00069
1489.50444,0.00079
1487.44427,0.00089
1485.38410,0.00102
1483.32392,0.00123
1481.26375,0.00157
1479.20358,0.00199
1477.14341,0.00241
1475.08324,0.00277
1473.02306,0.00311
1470.96289,0.00347
1468.90272,0.00380
1466.84255,0.00408
1464.78238,0.00433
1462.72220,0.00461
1460.66203,0.00498
1458.60186,0.00543
1456.54169,0.00577
1454.48151,0.00588
1452.42134,0.00585
1450.36117,0.00579
1448.30100,0.00575
1446.24083,0.00581
1444.18065,0.00599
1442.12048,0.00628
1440.06031,0.00659
1438.00014,0.00691
1435.93997,0.00723
1433.87979,0.00753
1431.81962,0.00778
1429.75945,0.00796
1427.69928,0.00812
1425.63910,0.00834
1423.57893,0.00867
1421.51876,0.00904
1419.45859,0.00935
1417.39842,0.00953
1415.33824,0.00958
1413.27807,0.00956
1411.21790,0.00952
1409.15773,0.00946
1407.09756,0.00941
1405.03738,0.00932
1402.97721,0.00921
1400.91704,0.00908
1398.85687,0.00893
1396.79670,0.00875
1394.73652,0.00851
1392.67635,0.00827
1390.61618,0.00812
1388.55601,0.00808
1386.49583,0.00814
1384.43566,0.00828
1382.37549,0.00851
1380.31532,0.00878
1378.25515,0.00905
1376.19497,0.00927
1374.13480,0.00946
1372.07463,0.00957
1370.01446,0.00959
1367.95429,0.00949
1365.89411,0.00931
1363.83394,0.00908
1361.77377,0.00882
1359.71360,0.00858
1357.65343,0.00845
1355.59325,0.00845
1353.53308,0.00848
1351.47291,0.00837
1349.41274,0.00807
1347.35256,0.00770
1345.29239,0.00743
1343.23222,0.00736
1341.17205,0.00745
1339.11188,0.00759
1337.05170,0.00767
1334.99153,0.00765
1332.93136,0.00760
1330.87119,0.00755
1328.81102,0.00753
1326.75084,0.00755
1324.69067,0.00765
1322.63050,0.00783
1320.57033,0.00805
1318.51015,0.00824
1316.44998,0.00832
1314.38981,0.00829
1312.32964,0.00817
1310.26947,0.00799
1308.20929,0.00779
1306.14912,0.00759
1304.08895,0.00740
1302.02878,0.00725
1299.96861,0.00715
1297.90843,0.00708
1295.84826,0.00697
1293.78809,0.00683
1291.72792,0.00669
1289.66775,0.00662
1287.60757,0.00657
1285.54740,0.00651
1283.48723,0.00647
1281.42706,0.00650
1279.36688,0.00660
1277.30671,0.00668
1275.24654,0.00673
1273.18637,0.00684
1271.12620,0.00707
1269.06602,0.00739
1267.00585,0.00772
1264.94568,0.00802
1262.88551,0.00832
1260.82534,0.00862
1258.76516,0.00892
1256.70499,0.00923
1254.64482,0.00953
1252.58465,0.00978
1250.52447,0.00993
1248.46430,0.01001
1246.40413,0.01003
1244.34396,0.01000
1242.28379,0.00986
1240.22361,0.00961
1238.16344,0.00931
1236.10327,0.00902
1234.04310,0.00877
1231.98293,0.00855
1229.92275,0.00829
1227.86258,0.00799
1225.80241,0.00769
1223.74224,0.00737
1221.68207,0.00699
1219.62189,0.00652
1217.56172,0.00602
1215.50155,0.00556
1213.44138,0.00518
1211.38120,0.00482
1209.32103,0.00441
1207.26086,0.00393
1205.20069,0.00336
1203.14052,0.00274
1201.08034,0.00210
1199.02017,0.00147
1196.96000,0.00097
1194.89983,0.00067
1192.83966,0.00043
1190.77948,0.00017
1188.71931,0.00000
1186.65914,0.00001
1184.59897,0.00027
1182.53880,0.00064
1180.47862,0.00103
1178.41845,0.00149
1176.35828,0.00205
1174.29811,0.00260
1172.23793,0.00310
1170.17776,0.00364
1168.11759,0.00436
1166.05742,0.00529
1163.99725,0.00620
1161.93707,0.00692
1159.87690,0.00749
1157.81673,0.00797
1155.75656,0.00835
1153.69639,0.00870
1151.63621,0.00913
1149.57604,0.00958
1147.51587,0.00994
1145.45570,0.01026
1143.39552,0.01065
1141.33535,0.01103
1139.27518,0.01128
1137.21501,0.01148
1135.15484,0.01174
1133.09466,0.01203
1131.03449,0.01236
1128.97432,0.01287
1126.91415,0.01365
1124.85398,0.01455
1122.79380,0.01534
1120.73363,0.01593
1118.67346,0.01635
1116.61329,0.01663
1114.55312,0.01686
1112.49294,0.01717
1110.43277,0.01763
1108.37260,0.01822
1106.31243,0.01897
1104.25225,0.01983
1102.19208,0.02074
1100.13191,0.02173
1098.07174,0.02273
1096.01157,0.02363
1093.95139,0.02450
1091.89122,0.02533
1089.83105,0.02599
1087.77088,0.02655
1085.71071,0.02712
1083.65053,0.02784
1081.59036,0.02885
1079.53019,0.03003
1077.47002,0.03107
1075.40985,0.03184
1073.34967,0.03238
1071.28950,0.03281
1069.22933,0.03314
1067.16916,0.03338
1065.10898,0.03369
1063.04881,0.03421
1060.98864,0.03478
1058.92847,0.03517
1056.86830,0.03540
1054.80812,0.03567
1052.74795,0.03603
1050.68778,0.03650
1048.62761,0.03710
1046.56744,0.03768
1044.50726,0.03811
1042.44709,0.03855
1040.38692,0.03905
1038.32675,0.03956
1036.26657,0.04012
1034.20640,0.04057
1032.14623,0.04065
1030.08606,0.04040
1028.02589,0.04018
1025.96571,0.04022
1023.90554,0.04036
1021.84537,0.04028
1019.78520,0.04003
1017.72503,0.03994
1015.66485,0.04002
1013.60468,0.04013
1011.54451,0.04025
1009.48434,0.04035
1007.42417,0.04031
1005.36399,0.04005
1003.30382,0.03959
1001.24365,0.03895
999.18348,0.03819
997.12330,0.03744
995.06313,0.03671
993.00296,0.03603
990.94279,0.03556
988.88262,0.03529
986.82244,0.03504
984.76227,0.03466
982.70210,0.03422
980.64193,0.03386
978.58176,0.03360
976.52158,0.03335
974.46141,0.03305
972.40124,0.03262
970.34107,0.03197
968.28089,0.03126
966.22072,0.03067
964.16055,0.03013
962.10038,0.02955
960.04021,0.02889
957.98003,0.02820
955.91986,0.02760
953.85969,0.02718
951.79952,0.02683
949.73935,0.02629
947.67917,0.02553
945.61900,0.02468
943.55883,0.02368
941.49866,0.02249
939.43849,0.02117
937.37831,0.01969
935.31814,0.01784
933.25797,0.01583
931.19780,0.01418
929.13762,0.01299
927.07745,0.01203
925.01728,0.01113
922.95711,0.01016
920.89694,0.00921
918.83676,0.00851
916.77659,0.00802
914.71642,0.00742
912.65625,0.00664
910.59608,0.00610
908.53590,0.00602
906.47573,0.00609
904.41556,0.00613
902.35539,0.00626
900.29522,0.00641
898.23504,0.00632
896.17487,0.00604
894.11470,0.00592
892.05453,0.00600
889.99435,0.00597
887.93418,0.00562
885.87401,0.00518
883.81384,0.00486
881.75367,0.00453
879.69349,0.00404
877.63332,0.00345
875.57315,0.00307
873.51298,0.00312
871.45281,0.00341
869.39263,0.00369
867.33246,0.00387
865.27229,0.00393
863.21212,0.00381
861.15194,0.00344
859.09177,0.00291
857.03160,0.00231
854.97143,0.00178
852.91126,0.00169
850.85108,0.00220
848.79091,0.00273
846.73074,0.00269
844.67057,0.00237
842.61040,0.00209
840.55022,0.00178
838.49005,0.00148
836.42988,0.00132
834.36971,0.00109
832.30954,0.00076
830.24936,0.00050
828.18919,0.00034
826.12902,0.00043
824.06885,0.00102
822.00867,0.00171
819.94850,0.00210
817.88833,0.00237
815.82816,0.00255
813.76799,0.00248
811.70781,0.00241
809.64764,0.00258
807.58747,0.00270
805.52730,0.00251
803.46713,0.00238
801.40695,0.00265
799.34678,0.00283
797.28661,0.00227
795.22644,0.00114
793.16627,0.00023
791.10609,0.00000
789.04592,0.00003
786.98575,0.00014
784.92558,0.00066
782.86540,0.00156
780.80523,0.00233
778.74506,0.00276
776.68489,0.00285
774.62472,0.00246
772.56454,0.00172
770.50437,0.00101
768.44420,0.00066
766.38403,0.00047
764.32386,0.00022
762.26368,0.00024
760.20351,0.00067
758.14334,0.00086
756.08317,0.00040
754.02299,-0.00012
751.96282,0.00000
749.90265,0.00063
747.84248,0.00112
745.78231,0.00115
743.72213,0.00128
741.66196,0.00159
739.60179,0.00139
737.54162,0.00100
735.48145,0.00116
733.42127,0.00133
731.36110,0.00083
729.30093,0.00015
727.24076,-0.00005
725.18059,0.00020
723.12041,0.00046
721.06024,0.00046
719.00007,0.00023
716.93990,0.00005
714.87972,0.00017
712.81955,0.00057
710.75938,0.00111
708.69921,0.00175
706.63904,0.00256
704.57886,0.00341
702.51869,0.00402
700.45852,0.00432
698.39835,0.00433
696.33818,0.00395
694.27800,0.00314
692.21783,0.00220
690.15766,0.00160
688.09749,0.00138
686.03731,0.00126
683.97714,0.00117
681.91697,0.00130
679.85680,0.00175
677.79663,0.00222
675.73645,0.00230
673.67628,0.00194
671.61611,0.00146
669.55594,0.00112
667.49577,0.00107
665.43559,0.00143
663.37542,0.00218
661.31525,0.00309
659.25508,0.00391
657.19491,0.00443
655.13473,0.00450
653.07456,0.00397
651.01439,0.00294
648.95422,0.00198
646.89404,0.00158
644.83387,0.00154
642.77370,0.00138
640.71353,0.00105
638.65336,0.00094
636.59318,0.00149
634.53301,0.00238
632.47284,0.00257
630.41267,0.00166
628.35250,0.00048
626.29232,-0.00015
624.23215,-0.00057
622.17198,-0.00014
620.11181,0.00171
618.05164,0.00397
615.99146,0.00511
613.93129,0.00501
611.87112,0.00493
609.81095,0.00488
607.75077,0.00360
605.69060,0.00102
603.63043,-0.00143
601.57026,-0.00193
599.51009,0.00000
