3996.73391,0.00000
3994.67373,0.00010
3992.61356,0.00028
3990.55339,0.00033
3988.49322,0.00024
3986.43305,0.00023
3984.37287,0.00038
3982.31270,0.00055
3980.25253,0.00053
3978.19236,0.00028
3976.13219,0.00009
3974.07201,0.00021
3972.01184,0.00052
3969.95167,0.00080
3967.89150,0.00095
3965.83133,0.00088
3963.77115,0.00061
3961.71098,0.00037
3959.65081,0.00036
3957.59064,0.00045
3955.53046,0.00046
3953.47029,0.00045
3951.41012,0.00052
3949.34995,0.00058
3947.28978,0.00049
3945.22960,0.00042
3943.16943,0.00051
3941.10926,0.00052
3939.04909,0.00032
3936.98892,0.00015
3934.92874,0.00023
3932.86857,0.00046
3930.80840,0.00057
3928.74823,0.00036
3926.68805,0.00007
3924.62788,0.00018
3922.56771,0.00067
3920.50754,0.00110
3918.44737,0.00115
3916.38719,0.00079
3914.32702,0.00037
3912.26685,0.00025
3910.20668,0.00032
3908.14651,0.00022
3906.08633,0.00007
3904.02616,0.00036
3901.96599,0.00107
3899.90582,0.00160
3897.84565,0.00161
3895.78547,0.00134
3893.72530,0.00114
3891.66513,0.00098
3889.60496,0.00072
3887.54478,0.00054
3885.48461,0.00062
3883.42444,0.00085
3881.36427,0.00107
3879.30410,0.00123
3877.24392,0.00125
3875.18375,0.00116
3873.12358,0.00110
3871.06341,0.00111
3869.00324,0.00105
3866.94306,0.00079
3864.88289,0.00055
3862.82272,0.00058
3860.76255,0.00075
3858.70237,0.00066
3856.64220,0.00020
3854.58203,0.00000
3852.52186,0.00052
3850.46169,0.00084
3848.40151,0.00067
3846.34134,0.00045
3844.28117,0.00048
3842.22100,0.00083
3840.16083,0.00118
3838.10065,0.00115
3836.04048,0.00081
3833.98031,0.00047
3831.92014,0.00039
3829.85997,0.00050
3827.79979,0.00054
3825.73962,0.00060
3823.67945,0.00070
3821.61928,0.00071
3819.55910,0.00073
3817.49893,0.00080
3815.43876,0.00083
3813.37859,0.00080
3811.31842,0.00074
3809.25824,0.00073
3807.19807,0.00089
3805.13790,0.00103
3803.07773,0.00087
3801.01756,0.00068
3798.95738,0.00062
3796.89721,0.00062
3794.83704,0.00085
3792.77687,0.00126
3790.71670,0.00142
3788.65652,0.00126
3786.59635,0.00110
3784.53618,0.00099
3782.47601,0.00088
3780.41583,0.00092
3778.35566,0.00113
3776.29549,0.00131
3774.23532,0.00133
3772.17515,0.00114
3770.11497,0.00084
3768.05480,0.00073
3765.99463,0.00101
3763.93446,0.00134
3761.87429,0.00156
3759.81411,0.00179
3757.75394,0.00188
3755.69377,0.00163
3753.63360,0.00129
3751.57342,0.00118
3749.51325,0.00139
3747.45308,0.00147
3745.39291,0.00124
3743.33274,0.00113
3741.27256,0.00106
3739.21239,0.00087
3737.15222,0.00099
3735.09205,0.00150
3733.03188,0.00189
3730.97170,0.00204
3728.91153,0.00211
3726.85136,0.00217
3724.79119,0.00209
3722.73102,0.00174
3720.67084,0.00136
3718.61067,0.00112
3716.55050,0.00090
3714.49033,0.00075
3712.43015,0.00087
3710.36998,0.00118
3708.30981,0.00139
3706.24964,0.00157
3704.18947,0.00188
3702.12929,0.00205
3700.06912,0.00173
3698.00895,0.00124
3695.94878,0.00107
3693.88861,0.00126
3691.82843,0.00158
3689.76826,0.00189
3687.70809,0.00194
3685.64792,0.00172
3683.58775,0.00149
3681.52757,0.00132
3679.46740,0.00098
3677.40723,0.00072
3675.34706,0.00115
3673.28688,0.00187
3671.22671,0.00197
3669.16654,0.00148
3667.10637,0.00105
3665.04620,0.00104
3662.98602,0.00127
3660.92585,0.00145
3658.86568,0.00142
3656.80551,0.00111
3654.74534,0.00073
3652.68516,0.00082
3650.62499,0.00161
3648.56482,0.00245
3646.50465,0.00243
3644.44447,0.00197
3642.38430,0.00166
3640.32413,0.00156
3638.26396,0.00161
3636.20379,0.00184
3634.14361,0.00214
3632.08344,0.00227
3630.02327,0.00217
3627.96310,0.00194
3625.90293,0.00177
3623.84275,0.00190
3621.78258,0.00236
3619.72241,0.00271
3617.66224,0.00259
3615.60207,0.00232
3613.54189,0.00224
3611.48172,0.00241
3609.42155,0.00274
3607.36138,0.00302
3605.30120,0.00297
3603.24103,0.00268
3601.18086,0.00255
3599.12069,0.00280
3597.06052,0.00311
3595.00034,0.00307
3592.94017,0.00287
3590.88000,0.00288
3588.81983,0.00329
3586.75966,0.00378
3584.69948,0.00374
3582.63931,0.00329
3580.57914,0.00294
3578.51897,0.00292
3576.45879,0.00314
3574.39862,0.00333
3572.33845,0.00343
3570.27828,0.00354
3568.21811,0.00360
3566.15793,0.00358
3564.09776,0.00371
3562.03759,0.00397
3559.97742,0.00411
3557.91725,0.00414
3555.85707,0.00418
3553.79690,0.00421
3551.73673,0.00421
3549.67656,0.00427
3547.61639,0.00440
3545.55621,0.00456
3543.49604,0.00459
3541.43587,0.00444
3539.37570,0.00432
3537.31552,0.00440
3535.25535,0.00456
3533.19518,0.00460
3531.13501,0.00457
3529.07484,0.00447
3527.01466,0.00428
3524.95449,0.00424
3522.89432,0.00456
3520.83415,0.00493
3518.77398,0.00507
3516.71380,0.00514
3514.65363,0.00528
3512.59346,0.00548
3510.53329,0.00556
3508.47312,0.00535
3506.41294,0.00512
3504.35277,0.00513
3502.29260,0.00532
3500.23243,0.00558
3498.17225,0.00587
3496.11208,0.00606
3494.05191,0.00598
3491.99174,0.00572
3489.93157,0.00561
3487.87139,0.00587
3485.81122,0.00628
3483.75105,0.00652
3481.69088,0.00644
3479.63071,0.00624
3477.57053,0.00617
3475.51036,0.00629
3473.45019,0.00645
3471.39002,0.00639
3469.32984,0.00612
3467.26967,0.00608
3465.20950,0.00638
3463.14933,0.00659
3461.08916,0.00652
3459.02898,0.00638
3456.96881,0.00636
3454.90864,0.00643
3452.84847,0.00659
3450.78830,0.00690
3448.72812,0.00714
3446.66795,0.00719
3444.60778,0.00730
3442.54761,0.00751
3440.48744,0.00759
3438.42726,0.00750
3436.36709,0.00738
3434.30692,0.00742
3432.24675,0.00760
3430.18657,0.00761
3428.12640,0.00746
3426.06623,0.00746
3424.00606,0.00763
3421.94589,0.00778
3419.88571,0.00785
3417.82554,0.00789
3415.76537,0.00786
3413.70520,0.00784
3411.64503,0.00791
3409.58485,0.00798
3407.52468,0.00795
3405.46451,0.00799
3403.40434,0.00803
3401.34416,0.00793
3399.28399,0.00793
3397.22382,0.00814
3395.16365,0.00848
3393.10348,0.00874
3391.04330,0.00873
3388.98313,0.00856
3386.92296,0.00844
3384.86279,0.00850
3382.80262,0.00862
3380.74244,0.00849
3378.68227,0.00835
3376.62210,0.00849
3374.56193,0.00852
3372.50176,0.00843
3370.44158,0.00857
3368.38141,0.00864
3366.32124,0.00845
3364.26107,0.00847
3362.20089,0.00878
3360.14072,0.00907
3358.08055,0.00920
3356.02038,0.00917
3353.96021,0.00905
3351.90003,0.00894
3349.83986,0.00884
3347.77969,0.00876
3345.71952,0.00875
3343.65935,0.00868
3341.59917,0.00860
3339.53900,0.00877
3337.47883,0.00927
3335.41866,0.00970
3333.35849,0.00968
3331.29831,0.00929
3329.23814,0.00900
3327.17797,0.00907
3325.11780,0.00922
3323.05762,0.00921
3320.99745,0.00929
3318.93728,0.00956
3316.87711,0.00963
3314.81694,0.00945
3312.75676,0.00929
3310.69659,0.00922
3308.63642,0.00923
3306.57625,0.00934
3304.51608,0.00946
3302.45590,0.00946
3300.39573,0.00944
3298.33556,0.00949
3296.27539,0.00963
3294.21521,0.00972
3292.15504,0.00956
3290.09487,0.00928
3288.03470,0.00930
3285.97453,0.00954
3283.91435,0.00960
3281.85418,0.00943
3279.79401,0.00924
3277.73384,0.00934
3275.67367,0.00968
3273.61349,0.00977
3271.55332,0.00949
3269.49315,0.00917
3267.43298,0.00912
3265.37281,0.00929
3263.31263,0.00940
3261.25246,0.00939
3259.19229,0.00926
3257.13212,0.00902
3255.07194,0.00892
3253.01177,0.00900
3250.95160,0.00905
3248.89143,0.00903
3246.83126,0.00910
3244.77108,0.00926
3242.71091,0.00941
3240.65074,0.00947
3238.59057,0.00934
3236.53040,0.00911
3234.47022,0.00906
3232.41005,0.00915
3230.34988,0.00911
3228.28971,0.00899
3226.22954,0.00899
3224.16936,0.00902
3222.10919,0.00893
3220.04902,0.00884
3217.98885,0.00881
3215.92867,0.00871
3213.86850,0.00862
3211.80833,0.00865
3209.74816,0.00874
3207.68799,0.00886
3205.62781,0.00902
3203.56764,0.00902
3201.50747,0.00878
3199.44730,0.00845
3197.38713,0.00835
3195.32695,0.00856
3193.26678,0.00873
3191.20661,0.00868
3189.14644,0.00854
3187.08626,0.00838
3185.02609,0.00817
3182.96592,0.00798
3180.90575,0.00790
3178.84558,0.00785
3176.78540,0.00789
3174.72523,0.00816
3172.66506,0.00838
3170.60489,0.00836
3168.54472,0.00827
3166.48454,0.00814
3164.42437,0.00797
3162.36420,0.00788
3160.30403,0.00787
3158.24386,0.00791
3156.18368,0.00796
3154.12351,0.00797
3152.06334,0.00783
3150.00317,0.00763
3147.94299,0.00759
3145.88282,0.00765
3143.82265,0.00769
3141.76248,0.00763
3139.70231,0.00743
3137.64213,0.00726
3135.58196,0.00720
3133.52179,0.00722
3131.46162,0.00731
3129.40145,0.00730
3127.34127,0.00715
3125.28110,0.00696
3123.22093,0.00687
3121.16076,0.00698
3119.10058,0.00700
3117.04041,0.00665
3114.98024,0.00634
3112.92007,0.00647
3110.85990,0.00680
3108.79972,0.00706
3106.73955,0.00714
3104.67938,0.00697
3102.61921,0.00679
3100.55904,0.00683
3098.49886,0.00692
3096.43869,0.00676
3094.37852,0.00648
3092.31835,0.00636
3090.25818,0.00642
3088.19800,0.00653
3086.13783,0.00655
3084.07766,0.00643
3082.01749,0.00624
3079.95731,0.00614
3077.89714,0.00610
3075.83697,0.00602
3073.77680,0.00583
3071.71663,0.00563
3069.65645,0.00565
3067.59628,0.00585
3065.53611,0.00598
3063.47594,0.00591
3061.41577,0.00569
3059.35559,0.00556
3057.29542,0.00563
3055.23525,0.00561
3053.17508,0.00541
3051.11491,0.00540
3049.05473,0.00562
3046.99456,0.00576
3044.93439,0.00572
3042.87422,0.00570
3040.81404,0.00579
3038.75387,0.00580
3036.69370,0.00572
3034.63353,0.00568
3032.57336,0.00566
3030.51318,0.00550
3028.45301,0.00529
3026.39284,0.00522
3024.33267,0.00528
3022.27250,0.00530
3020.21232,0.00522
3018.15215,0.00521
3016.09198,0.00537
3014.03181,0.00544
3011.97163,0.00523
3009.91146,0.00504
3007.85129,0.00510
3005.79112,0.00524
3003.73095,0.00525
3001.67077,0.00515
2999.61060,0.00494
2997.55043,0.00472
2995.49026,0.00477
2993.43009,0.00502
2991.36991,0.00510
2989.30974,0.00510
2987.24957,0.00524
2985.18940,0.00534
2983.12923,0.00529
2981.06905,0.00531
2979.00888,0.00537
2976.94871,0.00541
2974.88854,0.00550
2972.82836,0.00551
2970.76819,0.00534
2968.70802,0.00526
2966.64785,0.00538
2964.58768,0.00553
2962.52750,0.00568
2960.46733,0.00588
2958.40716,0.00601
2956.34699,0.00603
2954.28682,0.00600
2952.22664,0.00599
2950.16647,0.00601
2948.10630,0.00608
2946.04613,0.00626
2943.98596,0.00639
2941.92578,0.00639
2939.86561,0.00642
2937.80544,0.00652
2935.74527,0.00656
2933.68509,0.00660
2931.62492,0.00678
2929.56475,0.00693
2927.50458,0.00680
2925.44441,0.00666
2923.38423,0.00676
2921.32406,0.00685
2919.26389,0.00683
2917.20372,0.00687
2915.14355,0.00682
2913.08337,0.00657
2911.02320,0.00628
2908.96303,0.00602
2906.90286,0.00589
2904.84268,0.00591
2902.78251,0.00591
2900.72234,0.00600
2898.66217,0.00629
2896.60200,0.00654
2894.54182,0.00654
2892.48165,0.00628
2890.42148,0.00605
2888.36131,0.00603
2886.30114,0.00600
2884.24096,0.00594
2882.18079,0.00608
2880.12062,0.00626
2878.06045,0.00625
2876.00028,0.00620
2873.94010,0.00616
2871.87993,0.00611
2869.81976,0.00604
2867.75959,0.00590
2865.69941,0.00572
2863.63924,0.00565
2861.57907,0.00572
2859.51890,0.00587
2857.45873,0.00597
2855.39855,0.00589
2853.33838,0.00569
2851.27821,0.00554
2849.21804,0.00548
2847.15787,0.00549
2845.09769,0.00554
2843.03752,0.00550
2840.97735,0.00536
2838.91718,0.00527
2836.85700,0.00516
2834.79683,0.00511
2832.73666,0.00521
2830.67649,0.00526
2828.61632,0.00522
2826.55614,0.00516
2824.49597,0.00506
2822.43580,0.00502
2820.37563,0.00502
2818.31546,0.00501
2816.25528,0.00500
2814.19511,0.00500
2812.13494,0.00495
2810.07477,0.00479
2808.01460,0.00468
2805.95442,0.00468
2803.89425,0.00465
2801.83408,0.00453
2799.77391,0.00454
2797.71373,0.00471
2795.65356,0.00474
2793.59339,0.00472
2791.53322,0.00484
2789.47305,0.00487
2787.41287,0.00475
2785.35270,0.00467
2783.29253,0.00460
2781.23236,0.00448
2779.17219,0.00444
2777.11201,0.00453
2775.05184,0.00452
2772.99167,0.00453
2770.93150,0.00471
2768.87133,0.00478
2766.81115,0.00467
2764.75098,0.00465
2762.69081,0.00471
2760.63064,0.00478
2758.57046,0.00476
2756.51029,0.00457
2754.45012,0.00444
2752.38995,0.00458
2750.32978,0.00477
2748.26960,0.00484
2746.20943,0.00486
2744.14926,0.00486
2742.08909,0.00485
2740.02892,0.00483
2737.96874,0.00470
2735.90857,0.00450
2733.84840,0.00439
2731.78823,0.00448
2729.72805,0.00462
2727.66788,0.00465
2725.60771,0.00466
2723.54754,0.00461
2721.48737,0.00451
2719.42719,0.00447
2717.36702,0.00447
2715.30685,0.00442
2713.24668,0.00427
2711.18651,0.00418
2709.12633,0.00436
2707.06616,0.00456
2705.00599,0.00457
2702.94582,0.00449
2700.88565,0.00442
2698.82547,0.00440
2696.76530,0.00447
2694.70513,0.00452
2692.64496,0.00447
2690.58478,0.00449
2688.52461,0.00455
2686.46444,0.00446
2684.40427,0.00427
2682.34410,0.00422
2680.28392,0.00435
2678.22375,0.00444
2676.16358,0.00440
2674.10341,0.00433
2672.04324,0.00435
2669.98306,0.00444
2667.92289,0.00446
2665.86272,0.00444
2663.80255,0.00439
2661.74238,0.00428
2659.68220,0.00426
2657.62203,0.00435
2655.56186,0.00441
2653.50169,0.00438
2651.44151,0.00436
2649.38134,0.00443
2647.32117,0.00443
2645.26100,0.00442
2643.20083,0.00445
2641.14065,0.00444
2639.08048,0.00451
2637.02031,0.00460
2634.96014,0.00446
2632.89997,0.00418
2630.83979,0.00402
2628.77962,0.00393
2626.71945,0.00387
2624.65928,0.00388
2622.59910,0.00394
2620.53893,0.00409
2618.47876,0.00414
2616.41859,0.00404
2614.35842,0.00416
2612.29824,0.00440
2610.23807,0.00427
2608.17790,0.00389
2606.11773,0.00374
2604.05756,0.00389
2601.99738,0.00406
2599.93721,0.00414
2597.87704,0.00406
2595.81687,0.00396
2593.75670,0.00399
2591.69652,0.00400
2589.63635,0.00386
2587.57618,0.00369
2585.51601,0.00373
2583.45583,0.00393
2581.39566,0.00416
2579.33549,0.00429
2577.27532,0.00408
2575.21515,0.00378
2573.15497,0.00379
2571.09480,0.00385
2569.03463,0.00379
2566.97446,0.00379
2564.91429,0.00382
2562.85411,0.00378
2560.79394,0.00367
2558.73377,0.00361
2556.67360,0.00389
2554.61342,0.00427
2552.55325,0.00421
2550.49308,0.00400
2548.43291,0.00392
2546.37274,0.00375
2544.31256,0.00354
2542.25239,0.00348
2540.19222,0.00348
2538.13205,0.00361
2536.07188,0.00377
2534.01170,0.00372
2531.95153,0.00379
2529.89136,0.00395
2527.83119,0.00390
2525.77102,0.00376
2523.71084,0.00365
2521.65067,0.00378
2519.59050,0.00409
2517.53033,0.00410
2515.47015,0.00375
2513.40998,0.00346
2511.34981,0.00339
2509.28964,0.00352
2507.22947,0.00375
2505.16929,0.00386
2503.10912,0.00384
2501.04895,0.00391
2498.98878,0.00400
2496.92861,0.00382
2494.86843,0.00364
2492.80826,0.00390
2490.74809,0.00433
2488.68792,0.00428
2486.62775,0.00375
2484.56757,0.00335
2482.50740,0.00345
2480.44723,0.00375
2478.38706,0.00380
2476.32688,0.00368
2474.26671,0.00376
2472.20654,0.00399
2470.14637,0.00410
2468.08620,0.00398
2466.02602,0.00368
2463.96585,0.00340
2461.90568,0.00328
2459.84551,0.00333
2457.78534,0.00350
2455.72516,0.00366
2453.66499,0.00380
2451.60482,0.00378
2449.54465,0.00348
2447.48447,0.00341
2445.42430,0.00395
2443.36413,0.00445
2441.30396,0.00439
2439.24379,0.00409
2437.18361,0.00384
2435.12344,0.00366
2433.06327,0.00364
2431.00310,0.00369
2428.94293,0.00363
2426.88275,0.00364
2424.82258,0.00393
2422.76241,0.00417
2420.70224,0.00408
2418.64207,0.00391
2416.58189,0.00383
2414.52172,0.00383
2412.46155,0.00383
2410.40138,0.00371
2408.34120,0.00358
2406.28103,0.00363
2404.22086,0.00366
2402.16069,0.00348
2400.10052,0.00347
2398.04034,0.00354
2395.98017,0.00361
2393.92000,0.00354
2391.85983,0.00347
2389.79966,0.00348
2387.73948,0.00357
2385.67931,0.00375
2383.61914,0.00393
2381.55897,0.00398
2379.49880,0.00400
2377.43862,0.00407
2375.37845,0.00422
2373.31828,0.00398
2371.25811,0.00320
2369.19793,0.00279
2367.13776,0.00327
2365.07759,0.00378
2363.01742,0.00378
2360.95725,0.00310
2358.89707,0.00345
2356.83690,0.00444
2354.77673,0.00494
2352.71656,0.00484
2350.65639,0.00408
2348.59621,0.00373
2346.53604,0.00465
2344.47587,0.00399
2342.41570,0.00350
2340.35552,0.00395
2338.29535,0.00384
2336.23518,0.00297
2334.17501,0.00260
2332.11484,0.00383
2330.05466,0.00570
2327.99449,0.00684
2325.93432,0.00635
2323.87415,0.00501
2321.81398,0.00386
2319.75380,0.00403
2317.69363,0.00431
2315.63346,0.00457
2313.57329,0.00511
2311.51312,0.00551
2309.45294,0.00541
2307.39277,0.00510
2305.33260,0.00502
2303.27243,0.00494
2301.21225,0.00470
2299.15208,0.00436
2297.09191,0.00405
2295.03174,0.00393
2292.97157,0.00409
2290.91139,0.00443
2288.85122,0.00465
2286.79105,0.00464
2284.73088,0.00438
2282.67071,0.00395
2280.61053,0.00379
2278.55036,0.00413
2276.49019,0.00450
2274.43002,0.00436
2272.36984,0.00390
2270.30967,0.00372
2268.24950,0.00398
2266.18933,0.00416
2264.12916,0.00382
2262.06898,0.00320
2260.00881,0.00322
2257.94864,0.00398
2255.88847,0.00447
2253.82830,0.00433
2251.76812,0.00407
2249.70795,0.00373
2247.64778,0.00326
2245.58761,0.00326
2243.52744,0.00347
2241.46726,0.00347
2239.40709,0.00391
2237.34692,0.00455
2235.28675,0.00463
2233.22657,0.00426
2231.16640,0.00364
2229.10623,0.00360
2227.04606,0.00445
2224.98589,0.00515
2222.92571,0.00539
2220.86554,0.00497
2218.80537,0.00393
2216.74520,0.00296
2214.68503,0.00256
2212.62485,0.00329
2210.56468,0.00451
2208.50451,0.00506
2206.44434,0.00475
2204.38417,0.00361
2202.32399,0.00278
2200.26382,0.00312
2198.20365,0.00336
2196.14348,0.00293
2194.08330,0.00306
2192.02313,0.00359
2189.96296,0.00321
2187.90279,0.00289
2185.84262,0.00318
2183.78244,0.00271
2181.72227,0.00260
2179.66210,0.00328
2177.60193,0.00247
2175.54176,0.00101
2173.48158,0.00109
2171.42141,0.00193
2169.36124,0.00255
2167.30107,0.00375
2165.24089,0.00487
2163.18072,0.00433
2161.12055,0.00336
2159.06038,0.00257
2157.00021,0.00130
2154.94003,0.00018
2152.87986,0.00000
2150.81969,0.00087
2148.75952,0.00185
2146.69935,0.00211
2144.63917,0.00196
2142.57900,0.00220
2140.51883,0.00233
2138.45866,0.00187
2136.39849,0.00172
2134.33831,0.00210
2132.27814,0.00252
2130.21797,0.00297
2128.15780,0.00337
2126.09762,0.00354
2124.03745,0.00344
2121.97728,0.00353
2119.91711,0.00400
2117.85694,0.00435
2115.79676,0.00435
2113.73659,0.00411
2111.67642,0.00371
2109.61625,0.00317
2107.55608,0.00284
2105.49590,0.00310
2103.43573,0.00352
2101.37556,0.00347
2099.31539,0.00309
2097.25521,0.00274
2095.19504,0.00273
2093.13487,0.00297
2091.07470,0.00310
2089.01453,0.00333
2086.95435,0.00369
2084.89418,0.00365
2082.83401,0.00327
2080.77384,0.00325
2078.71367,0.00363
2076.65349,0.00383
2074.59332,0.00374
2072.53315,0.00369
2070.47298,0.00336
2068.41281,0.00283
2066.35263,0.00305
2064.29246,0.00367
2062.23229,0.00347
2060.17212,0.00288
2058.11194,0.00275
2056.05177,0.00267
2053.99160,0.00232
2051.93143,0.00218
2049.87126,0.00224
2047.81108,0.00225
2045.75091,0.00229
2043.69074,0.00236
2041.63057,0.00245
2039.57040,0.00269
2037.51022,0.00314
2035.45005,0.00359
2033.38988,0.00359
2031.32971,0.00249
2029.26954,0.00064
2027.20936,0.00000
2025.14919,0.00095
2023.08902,0.00151
2021.02885,0.00126
2018.96867,0.00126
2016.90850,0.00153
2014.84833,0.00217
2012.78816,0.00332
2010.72799,0.00386
2008.66781,0.00316
2006.60764,0.00237
2004.54747,0.00255
2002.48730,0.00348
2000.42713,0.00440
1998.36695,0.00451
1996.30678,0.00372
1994.24661,0.00266
1992.18644,0.00229
1990.12626,0.00287
1988.06609,0.00353
1986.00592,0.00360
1983.94575,0.00292
1981.88558,0.00208
1979.82540,0.00156
1977.76523,0.00100
1975.70506,0.00090
1973.64489,0.00170
1971.58472,0.00257
1969.52454,0.00292
1967.46437,0.00259
1965.40420,0.00183
1963.34403,0.00122
1961.28386,0.00100
1959.22368,0.00164
1957.16351,0.00283
1955.10334,0.00311
1953.04317,0.00257
1950.98299,0.00218
1948.92282,0.00173
1946.86265,0.00081
1944.80248,0.00000
1942.74231,0.00038
1940.68213,0.00156
1938.62196,0.00189
1936.56179,0.00145
1934.50162,0.00142
1932.44145,0.00191
1930.38127,0.00221
1928.32110,0.00211
1926.26093,0.00177
1924.20076,0.00148
1922.14059,0.00150
1920.08041,0.00168
1918.02024,0.00188
1915.96007,0.00206
1913.89990,0.00202
1911.83972,0.00180
1909.77955,0.00165
1907.71938,0.00162
1905.65921,0.00165
1903.59904,0.00174
1901.53886,0.00199
1899.47869,0.00229
1897.41852,0.00226
1895.35835,0.00190
1893.29818,0.00165
1891.23800,0.00177
1889.17783,0.00195
1887.11766,0.00181
1885.05749,0.00151
1882.99731,0.00138
1880.93714,0.00135
1878.87697,0.00127
1876.81680,0.00116
1874.75663,0.00110
1872.69645,0.00108
1870.63628,0.00108
1868.57611,0.00121
1866.51594,0.00149
1864.45577,0.00176
1862.39559,0.00193
1860.33542,0.00199
1858.27525,0.00193
1856.21508,0.00181
1854.15491,0.00165
1852.09473,0.00145
1850.03456,0.00128
1847.97439,0.00121
1845.91422,0.00119
1843.85404,0.00117
1841.79387,0.00126
1839.73370,0.00149
1837.67353,0.00179
1835.61336,0.00199
1833.55318,0.00190
1831.49301,0.00165
1829.43284,0.00161
1827.37267,0.00176
1825.31250,0.00180
1823.25232,0.00161
1821.19215,0.00132
1819.13198,0.00113
1817.07181,0.00112
1815.01163,0.00116
1812.95146,0.00117
1810.89129,0.00127
1808.83112,0.00147
1806.77095,0.00156
1804.71077,0.00156
1802.65060,0.00165
1800.59043,0.00166
1798.53026,0.00151
1796.47009,0.00133
1794.40991,0.00133
1792.34974,0.00150
1790.28957,0.00162
1788.22940,0.00158
1786.16923,0.00140
1784.10905,0.00125
1782.04888,0.00128
1779.98871,0.00148
1777.92854,0.00169
1775.86836,0.00164
1773.80819,0.00123
1771.74802,0.00094
1769.68785,0.00111
1767.62768,0.00139
1765.56750,0.00142
1763.50733,0.00126
1761.44716,0.00118
1759.38699,0.00129
1757.32682,0.00140
1755.26664,0.00151
1753.20647,0.00179
1751.14630,0.00227
1749.08613,0.00265
1747.02596,0.00272
1744.96578,0.00253
1742.90561,0.00233
1740.84544,0.00232
1738.78527,0.00245
1736.72509,0.00258
1734.66492,0.00276
1732.60475,0.00287
1730.54458,0.00273
1728.48441,0.00248
1726.42423,0.00234
1724.36406,0.00235
1722.30389,0.00238
1720.24372,0.00243
1718.18355,0.00258
1716.12337,0.00269
1714.06320,0.00253
1712.00303,0.00224
1709.94286,0.00197
1707.88268,0.00183
1705.82251,0.00181
1703.76234,0.00177
1701.70217,0.00162
1699.64200,0.00146
1697.58182,0.00149
1695.52165,0.00169
1693.46148,0.00185
1691.40131,0.00198
1689.34114,0.00221
1687.28096,0.00237
1685.22079,0.00235
1683.16062,0.00228
1681.10045,0.00225
1679.04028,0.00225
1676.98010,0.00234
1674.91993,0.00250
1672.85976,0.00264
1670.79959,0.00282
1668.73941,0.00302
1666.67924,0.00297
1664.61907,0.00276
1662.55890,0.00267
1660.49873,0.00279
1658.43855,0.00299
1656.37838,0.00320
1654.31821,0.00334
1652.25804,0.00343
1650.19787,0.00361
1648.13769,0.00383
1646.07752,0.00393
1644.01735,0.00387
1641.95718,0.00380
1639.89701,0.00392
1637.83683,0.00428
1635.77666,0.00464
1633.71649,0.00465
1631.65632,0.00445
1629.59614,0.00426
1627.53597,0.00408
1625.47580,0.00402
1623.41563,0.00410
1621.35546,0.00411
1619.29528,0.00400
1617.23511,0.00394
1615.17494,0.00395
1613.11477,0.00391
1611.05460,0.00389
1608.99442,0.00394
1606.93425,0.00400
1604.87408,0.00398
1602.81391,0.00380
1600.75373,0.00342
1598.69356,0.00299
1596.63339,0.00272
1594.57322,0.00266
1592.51305,0.00266
1590.45287,0.00257
1588.39270,0.00238
1586.33253,0.00220
1584.27236,0.00207
1582.21219,0.00190
1580.15201,0.00168
1578.09184,0.00150
1576.03167,0.00136
1573.97150,0.00126
1571.91133,0.00132
1569.85115,0.00147
1567.79098,0.00142
1565.73081,0.00117
1563.67064,0.00092
1561.61046,0.00067
1559.55029,0.00054
1557.49012,0.00076
1555.42995,0.00107
1553.36978,0.00120
1551.30960,0.00119
1549.24943,0.00112
1547.18926,0.00118
1545.12909,0.00143
1543.06892,0.00149
1541.00874,0.00114
1538.94857,0.00082
1536.88840,0.00080
1534.82823,0.00092
1532.76805,0.00099
1530.70788,0.00090
1528.64771,0.00076
1526.58754,0.00065
1524.52737,0.00057
1522.46719,0.00054
1520.40702,0.00053
1518.34685,0.00052
1516.28668,0.00056
1514.22651,0.00065
1512.16633,0.00081
1510.10616,0.00104
1508.04599,0.00114
1505.98582,0.00088
1503.92565,0.00055
1501.86547,0.00043
1499.80530,0.00049
1497.74513,0.00062
1495.68496,0.00061
1493.62478,0.00050
1491.56461,0.00048
1489.50444,0.00051
1487.44427,0.00047
1485.38410,0.00040
1483.32392,0.00037
1481.26375,0.00038
1479.20358,0.00049
1477.14341,0.00075
1475.08324,0.00105
1473.02306,0.00125
1470.96289,0.00123
1468.90272,0.00117
1466.84255,0.00124
1464.78238,0.00141
1462.72220,0.00157
1460.66203,0.00177
1458.60186,0.00209
1456.54169,0.00238
1454.48151,0.00234
1452.42134,0.00212
1450.36117,0.00200
1448.30100,0.00198
1446.24083,0.00191
1444.18065,0.00180
1442.12048,0.00179
1440.06031,0.00196
1438.00014,0.00232
1435.93997,0.00270
1433.87979,0.00289
1431.81962,0.00296
1429.75945,0.00297
1427.69928,0.00295
1425.63910,0.00297
1423.57893,0.00300
1421.51876,0.00301
1419.45859,0.00315
1417.39842,0.00327
1415.33824,0.00309
1413.27807,0.00281
1411.21790,0.00266
1409.15773,0.00264
1407.09756,0.00267
1405.03738,0.00265
1402.97721,0.00247
1400.91704,0.00224
1398.85687,0.00214
1396.79670,0.00220
1394.73652,0.00226
1392.67635,0.00218
1390.61618,0.00207
1388.55601,0.00209
1386.49583,0.00220
1384.43566,0.00225
1382.37549,0.00223
1380.31532,0.00228
1378.25515,0.00241
1376.19497,0.00246
1374.13480,0.00243
1372.07463,0.00240
1370.01446,0.00236
1367.95429,0.00232
1365.89411,0.00235
1363.83394,0.00252
1361.77377,0.00268
1359.71360,0.00266
1357.65343,0.00259
1355.59325,0.00246
1353.53308,0.00221
1351.47291,0.00203
1349.41274,0.00200
1347.35256,0.00192
1345.29239,0.00178
1343.23222,0.00178
1341.17205,0.00197
1339.11188,0.00217
1337.05170,0.00212
1334.99153,0.00188
1332.93136,0.00173
1330.87119,0.00168
1328.81102,0.00163
1326.75084,0.00166
1324.69067,0.00183
1322.63050,0.00193
1320.57033,0.00191
1318.51015,0.00190
1316.44998,0.00189
1314.38981,0.00190
1312.32964,0.00195
1310.26947,0.00194
1308.20929,0.00188
1306.14912,0.00180
1304.08895,0.00161
1302.02878,0.00144
1299.96861,0.00141
1297.90843,0.00139
1295.84826,0.00127
1293.78809,0.00108
1291.72792,0.00093
1289.66775,0.00102
1287.60757,0.00123
1285.54740,0.00129
1283.48723,0.00119
1281.42706,0.00113
1279.36688,0.00114
1277.30671,0.00115
1275.24654,0.00121
1273.18637,0.00134
1271.12620,0.00145
1269.06602,0.00147
1267.00585,0.00148
1264.94568,0.00158
1262.88551,0.00178
1260.82534,0.00200
1258.76516,0.00214
1256.70499,0.00215
1254.64482,0.00213
1252.58465,0.00217
1250.52447,0.00216
1248.46430,0.00205
1246.40413,0.00208
1244.34396,0.00224
1242.28379,0.00224
1240.22361,0.00211
1238.16344,0.00204
1236.10327,0.00195
1234.04310,0.00178
1231.98293,0.00163
1229.92275,0.00155
1227.86258,0.00154
1225.80241,0.00149
1223.74224,0.00133
1221.68207,0.00120
1219.62189,0.00118
1217.56172,0.00113
1215.50155,0.00104
1213.44138,0.00106
1211.38120,0.00109
1209.32103,0.00100
1207.26086,0.00094
1205.20069,0.00090
1203.14052,0.00070
1201.08034,0.00042
1199.02017,0.00015
1196.96000,0.00000
1194.89983,0.00001
1192.83966,0.00012
1190.77948,0.00006
1188.71931,-0.00004
1186.65914,0.00001
1184.59897,0.00017
1182.53880,0.00035
1180.47862,0.00052
1178.41845,0.00067
1176.35828,0.00085
1174.29811,0.00117
1172.23793,0.00157
1170.17776,0.00193
1168.11759,0.00217
1166.05742,0.00237
1163.99725,0.00265
1161.93707,0.00306
1159.87690,0.00334
1157.81673,0.00345
1155.75656,0.00366
1153.69639,0.00399
1151.63621,0.00427
1149.57604,0.00446
1147.51587,0.00463
1145.45570,0.00481
1143.39552,0.00495
1141.33535,0.00507
1139.27518,0.00522
1137.21501,0.00548
1135.15484,0.00579
1133.09466,0.00600
1131.03449,0.00623
1128.97432,0.00663
1126.91415,0.00713
1124.85398,0.00755
1122.79380,0.00784
1120.73363,0.00822
1118.67346,0.00860
1116.61329,0.00881
1114.55312,0.00909
1112.49294,0.00951
1110.43277,0.00991
1108.37260,0.01021
1106.31243,0.01052
1104.25225,0.01095
1102.19208,0.01145
1100.13191,0.01190
1098.07174,0.01228
1096.01157,0.01272
1093.95139,0.01315
1091.89122,0.01346
1089.83105,0.01383
1087.77088,0.01436
1085.71071,0.01478
1083.65053,0.01504
1081.59036,0.01533
1079.53019,0.01575
1077.47002,0.01620
1075.40985,0.01650
1073.34967,0.01671
1071.28950,0.01700
1069.22933,0.01737
1067.16916,0.01772
1065.10898,0.01799
1063.04881,0.01817
1060.98864,0.01833
1058.92847,0.01846
1056.86830,0.01861
1054.80812,0.01885
1052.74795,0.01905
1050.68778,0.01921
1048.62761,0.01945
1046.56744,0.01962
1044.50726,0.01966
1042.44709,0.01976
1040.38692,0.01994
1038.32675,0.02002
1036.26657,0.01993
1034.20640,0.01983
1032.14623,0.01988
1030.08606,0.01990
1028.02589,0.01985
1025.96571,0.01985
1023.90554,0.01982
1021.84537,0.01975
1019.78520,0.01976
1017.72503,0.01975
1015.66485,0.01959
1013.60468,0.01943
1011.54451,0.01939
1009.48434,0.01931
1007.42417,0.01920
1005.36399,0.01911
1003.30382,0.01878
1001.24365,0.01814
999.18348,0.01772
997.12330,0.01764
995.06313,0.01751
993.00296,0.01727
990.94279,0.01710
988.88262,0.01692
986.82244,0.01683
984.76227,0.01691
982.70210,0.01684
980.64193,0.01660
978.58176,0.01650
976.52158,0.01641
974.46141,0.01614
972.40124,0.01584
970.34107,0.01556
968.28089,0.01519
966.22072,0.01490
964.16055,0.01489
962.10038,0.01506
960.04021,0.01511
957.98003,0.01493
955.91986,0.01485
953.85969,0.01493
951.79952,0.01482
949.73935,0.01453
947.67917,0.01425
945.61900,0.01411
943.55883,0.01410
941.49866,0.01405
939.43849,0.01381
937.37831,0.01357
935.31814,0.01340
933.25797,0.01317
931.19780,0.01298
929.13762,0.01284
927.07745,0.01272
925.01728,0.01281
922.95711,0.01295
920.89694,0.01282
918.83676,0.01274
916.77659,0.01306
914.71642,0.01338
912.65625,0.01345
910.59608,0.01352
908.53590,0.01364
906.47573,0.01371
904.41556,0.01382
902.35539,0.01404
900.29522,0.01424
898.23504,0.01438
896.17487,0.01471
894.11470,0.01513
892.05453,0.01533
889.99435,0.01538
887.93418,0.01546
885.87401,0.01560
883.81384,0.01571
881.75367,0.01564
879.69349,0.01545
877.63332,0.01539
875.57315,0.01545
873.51298,0.01549
871.45281,0.01555
869.39263,0.01550
867.33246,0.01512
865.27229,0.01448
863.21212,0.01378
861.15194,0.01311
859.09177,0.01257
857.03160,0.01244
854.97143,0.01239
852.91126,0.01158
850.85108,0.01038
848.79091,0.00965
846.73074,0.00911
844.67057,0.00831
842.61040,0.00730
840.55022,0.00615
838.49005,0.00504
836.42988,0.00407
834.36971,0.00305
832.30954,0.00206
830.24936,0.00123
828.18919,0.00045
826.12902,0.00000
824.06885,0.00010
822.00867,0.00020
819.94850,0.00007
817.88833,0.00008
815.82816,0.00026
813.76799,0.00035
811.70781,0.00054
809.64764,0.00099
807.58747,0.00112
805.52730,0.00083
803.46713,0.00064
801.40695,0.00069
799.34678,0.00119
797.28661,0.00185
795.22644,0.00197
793.16627,0.00192
791.10609,0.00205
789.04592,0.00232
786.98575,0.00280
784.92558,0.00309
782.86540,0.00313
780.80523,0.00354
778.74506,0.00412
776.68489,0.00446
774.62472,0.00463
772.56454,0.00457
770.50437,0.00450
768.44420,0.00508
766.38403,0.00598
764.32386,0.00641
762.26368,0.00630
760.20351,0.00601
758.14334,0.00583
756.08317,0.00578
754.02299,0.00603
751.96282,0.00653
749.90265,0.00668
747.84248,0.00658
745.78231,0.00654
743.72213,0.00659
741.66196,0.00666
739.60179,0.00665
737.54162,0.00672
735.48145,0.00656
733.42127,0.00597
731.36110,0.00584
729.30093,0.00617
727.24076,0.00602
725.18059,0.00537
723.12041,0.00480
721.06024,0.00487
719.00007,0.00527
716.93990,0.00553
714.87972,0.00537
712.81955,0.00519
710.75938,0.00524
708.69921,0.00517
706.63904,0.00519
704.57886,0.00555
702.51869,0.00563
700.45852,0.00511
698.39835,0.00432
696.33818,0.00356
694.27800,0.00314
692.21783,0.00310
690.15766,0.00305
688.09749,0.00262
686.03731,0.00188
683.97714,0.00157
681.91697,0.00227
679.85680,0.00335
677.79663,0.00380
675.73645,0.00326
673.67628,0.00177
671.61611,0.00000
669.55594,0.00082
667.49577,0.00253
665.43559,0.00025
663.37542,0.00143
661.31525,0.00283
659.25508,0.00306
657.19491,0.00263
655.13473,0.00193
653.07456,0.00117
651.01439,0.00073
648.95422,0.00108
646.89404,0.00185
644.83387,0.00255
642.77370,0.00301
640.71353,0.00282
638.65336,0.00145
636.59318,0.00000
634.53301,-0.00005
632.47284,0.00120
630.41267,0.00241
628.35250,0.00296
626.29232,0.00302
624.23215,0.00303
622.17198,0.00390
620.11181,0.00487
618.05164,0.00260
615.99146,-0.00106
613.93129,-0.00127
611.87112,0.00092
609.81095,0.00255
607.75077,0.00213
605.69060,0.00010
603.63043,-0.00141
601.57026,-0.00097
599.51009,0.00000
