3996.73391,0.00007
3994.67373,0.00001
3992.61356,-0.00012
3990.55339,-0.00023
3988.49322,-0.00031
3986.43305,-0.00021
3984.37287,0.00000
3982.31270,0.00018
3980.25253,0.00018
3978.19236,0.00000
3976.13219,-0.00013
3974.07201,-0.00003
3972.01184,0.00015
3969.95167,0.00019
3967.89150,0.00010
3965.83133,0.00003
3963.77115,0.00006
3961.71098,0.00001
3959.65081,0.00000
3957.59064,0.00035
3955.53046,0.00063
3953.47029,0.00048
3951.41012,0.00032
3949.34995,0.00047
3947.28978,0.00067
3945.22960,0.00090
3943.16943,0.00107
3941.10926,0.00066
3939.04909,0.00022
3936.98892,0.00013
3934.92874,0.00035
3932.86857,0.00076
3930.80840,0.00069
3928.74823,0.00018
3926.68805,0.00019
3924.62788,0.00062
3922.56771,0.00087
3920.50754,0.00131
3918.44737,0.00170
3916.38719,0.00133
3914.32702,0.00064
3912.26685,0.00042
3910.20668,0.00033
3908.14651,0.00025
3906.08633,0.00074
3904.02616,0.00129
3901.96599,0.00143
3899.90582,0.00172
3897.84565,0.00131
3895.78547,0.00059
3893.72530,0.00090
3891.66513,0.00141
3889.60496,0.00077
3887.54478,0.00061
3885.48461,0.00082
3883.42444,0.00027
3881.36427,0.00063
3879.30410,0.00065
3877.24392,0.00016
3875.18375,0.00047
3873.12358,0.00068
3871.06341,0.00140
3869.00324,0.00137
3866.94306,0.00052
3864.88289,0.00094
3862.82272,0.00117
3860.76255,0.00064
3858.70237,0.00000
3856.64220,0.00052
3854.58203,0.00269
3852.52186,0.00303
3850.46169,0.00112
3848.40151,0.00018
3846.34134,0.00026
3844.28117,0.00055
3842.22100,0.00061
3840.16083,0.00107
3838.10065,0.00157
3836.04048,0.00116
3833.98031,0.00095
3831.92014,0.00123
3829.85997,0.00115
3827.79979,0.00107
3825.73962,0.00069
3823.67945,0.00087
3821.61928,0.00182
3819.55910,0.00107
3817.49893,0.00111
3815.43876,0.00182
3813.37859,0.00116
3811.31842,0.00077
3809.25824,0.00121
3807.19807,0.00155
3805.13790,0.00090
3803.07773,0.00156
3801.01756,0.00218
3798.95738,0.00123
3796.89721,0.00130
3794.83704,0.00151
3792.77687,0.00157
3790.71670,0.00172
3788.65652,0.00152
3786.59635,0.00144
3784.53618,0.00141
3782.47601,0.00128
3780.41583,0.00180
3778.35566,0.00204
3776.29549,0.00167
3774.23532,0.00148
3772.17515,0.00175
3770.11497,0.00209
3768.05480,0.00184
3765.99463,0.00189
3763.93446,0.00177
3761.87429,0.00192
3759.81411,0.00249
3757.75394,0.00193
3755.69377,0.00081
3753.63360,0.00089
3751.57342,0.00164
3749.51325,0.00088
3747.45308,0.00000
3745.39291,0.00134
3743.33274,0.00150
3741.27256,0.00035
3739.21239,0.00068
3737.15222,0.00208
3735.09205,0.00283
3733.03188,0.00237
3730.97170,0.00161
3728.91153,0.00139
3726.85136,0.00206
3724.79119,0.00244
3722.73102,0.00252
3720.67084,0.00251
3718.61067,0.00200
3716.55050,0.00109
3714.49033,0.00084
3712.43015,0.00155
3710.36998,0.00186
3708.30981,0.00135
3706.24964,0.00107
3704.18947,0.00166
3702.12929,0.00241
3700.06912,0.00219
3698.00895,0.00186
3695.94878,0.00184
3693.88861,0.00168
3691.82843,0.00221
3689.76826,0.00328
3687.70809,0.00309
3685.64792,0.00201
3683.58775,0.00178
3681.52757,0.00184
3679.46740,0.00153
3677.40723,0.00186
3675.34706,0.00226
3673.28688,0.00113
3671.22671,0.00197
3669.16654,0.00303
3667.10637,0.00233
3665.04620,0.00229
3662.98602,0.00282
3660.92585,0.00300
3658.86568,0.00325
3656.80551,0.00332
3654.74534,0.00202
3652.68516,0.00183
3650.62499,0.00418
3648.56482,0.00575
3646.50465,0.00497
3644.44447,0.00392
3642.38430,0.00383
3640.32413,0.00393
3638.26396,0.00393
3636.20379,0.00388
3634.14361,0.00360
3632.08344,0.00356
3630.02327,0.00503
3627.96310,0.00566
3625.90293,0.00451
3623.84275,0.00424
3621.78258,0.00510
3619.72241,0.00595
3617.66224,0.00560
3615.60207,0.00522
3613.54189,0.00568
3611.48172,0.00591
3609.42155,0.00641
3607.36138,0.00685
3605.30120,0.00665
3603.24103,0.00673
3601.18086,0.00693
3599.12069,0.00689
3597.06052,0.00717
3595.00034,0.00774
3592.94017,0.00764
3590.88000,0.00758
3588.81983,0.00862
3586.75966,0.00934
3584.69948,0.00881
3582.63931,0.00866
3580.57914,0.00913
3578.51897,0.00963
3576.45879,0.01012
3574.39862,0.01040
3572.33845,0.01029
3570.27828,0.01049
3568.21811,0.01129
3566.15793,0.01149
3564.09776,0.01111
3562.03759,0.01134
3559.97742,0.01187
3557.91725,0.01202
3555.85707,0.01197
3553.79690,0.01208
3551.73673,0.01215
3549.67656,0.01238
3547.61639,0.01325
3545.55621,0.01391
3543.49604,0.01372
3541.43587,0.01334
3539.37570,0.01338
3537.31552,0.01383
3535.25535,0.01421
3533.19518,0.01438
3531.13501,0.01459
3529.07484,0.01476
3527.01466,0.01472
3524.95449,0.01484
3522.89432,0.01524
3520.83415,0.01562
3518.77398,0.01594
3516.71380,0.01617
3514.65363,0.01644
3512.59346,0.01689
3510.53329,0.01721
3508.47312,0.01703
3506.41294,0.01687
3504.35277,0.01737
3502.29260,0.01774
3500.23243,0.01765
3498.17225,0.01768
3496.11208,0.01790
3494.05191,0.01812
3491.99174,0.01829
3489.93157,0.01861
3487.87139,0.01905
3485.81122,0.01924
3483.75105,0.01943
3481.69088,0.01974
3479.63071,0.01983
3477.57053,0.01999
3475.51036,0.02041
3473.45019,0.02072
3471.39002,0.02079
3469.32984,0.02082
3467.26967,0.02095
3465.20950,0.02114
3463.14933,0.02131
3461.08916,0.02130
3459.02898,0.02129
3456.96881,0.02147
3454.90864,0.02167
3452.84847,0.02185
3450.78830,0.02217
3448.72812,0.02274
3446.66795,0.02297
3444.60778,0.02283
3442.54761,0.02300
3440.48744,0.02307
3438.42726,0.02302
3436.36709,0.02319
3434.30692,0.02355
3432.24675,0.02401
3430.18657,0.02429
3428.12640,0.02436
3426.06623,0.02443
3424.00606,0.02450
3421.94589,0.02458
3419.88571,0.02473
3417.82554,0.02495
3415.76537,0.02512
3413.70520,0.02514
3411.64503,0.02525
3409.58485,0.02537
3407.52468,0.02542
3405.46451,0.02558
3403.40434,0.02578
3401.34416,0.02584
3399.28399,0.02606
3397.22382,0.02643
3395.16365,0.02665
3393.10348,0.02677
3391.04330,0.02683
3388.98313,0.02682
3386.92296,0.02683
3384.86279,0.02696
3382.80262,0.02697
3380.74244,0.02684
3378.68227,0.02693
3376.62210,0.02725
3374.56193,0.02741
3372.50176,0.02744
3370.44158,0.02758
3368.38141,0.02764
3366.32124,0.02761
3364.26107,0.02776
3362.20089,0.02800
3360.14072,0.02808
3358.08055,0.02813
3356.02038,0.02821
3353.96021,0.02818
3351.90003,0.02815
3349.83986,0.02827
3347.77969,0.02847
3345.71952,0.02850
3343.65935,0.02831
3341.59917,0.02822
3339.53900,0.02853
3337.47883,0.02912
3335.41866,0.02949
3333.35849,0.02923
3331.29831,0.02867
3329.23814,0.02851
3327.17797,0.02885
3325.11780,0.02903
3323.05762,0.02880
3320.99745,0.02872
3318.93728,0.02903
3316.87711,0.02924
3314.81694,0.02934
3312.75676,0.02959
3310.69659,0.02973
3308.63642,0.02950
3306.57625,0.02928
3304.51608,0.02942
3302.45590,0.02963
3300.39573,0.02964
3298.33556,0.02950
3296.27539,0.02936
3294.21521,0.02937
3292.15504,0.02944
3290.09487,0.02928
3288.03470,0.02921
3285.97453,0.02944
3283.91435,0.02955
3281.85418,0.02940
3279.79401,0.02931
3277.73384,0.02950
3275.67367,0.02979
3273.61349,0.02985
3271.55332,0.02963
3269.49315,0.02938
3267.43298,0.02930
3265.37281,0.02933
3263.31263,0.02934
3261.25246,0.02938
3259.19229,0.02947
3257.13212,0.02946
3255.07194,0.02927
3253.01177,0.02908
3250.95160,0.02911
3248.89143,0.02929
3246.83126,0.02948
3244.77108,0.02954
3242.71091,0.02939
3240.65074,0.02915
3238.59057,0.02892
3236.53040,0.02871
3234.47022,0.02869
3232.41005,0.02872
3230.34988,0.02864
3228.28971,0.02857
3226.22954,0.02850
3224.16936,0.02842
3222.10919,0.02833
3220.04902,0.02815
3217.98885,0.02795
3215.92867,0.02788
3213.86850,0.02785
3211.80833,0.02770
3209.74816,0.02753
3207.68799,0.02752
3205.62781,0.02768
3203.56764,0.02765
3201.50747,0.02737
3199.44730,0.02710
3197.38713,0.02693
3195.32695,0.02681
3193.26678,0.02663
3191.20661,0.02631
3189.14644,0.02611
3187.08626,0.02614
3185.02609,0.02607
3182.96592,0.02574
3180.90575,0.02539
3178.84558,0.02533
3176.78540,0.02540
3174.72523,0.02548
3172.66506,0.02548
3170.60489,0.02530
3168.54472,0.02508
3166.48454,0.02496
3164.42437,0.02476
3162.36420,0.02431
3160.30403,0.02386
3158.24386,0.02367
3156.18368,0.02363
3154.12351,0.02360
3152.06334,0.02353
3150.00317,0.02336
3147.94299,0.02318
3145.88282,0.02303
3143.82265,0.02284
3141.76248,0.02255
3139.70231,0.02216
3137.64213,0.02181
3135.58196,0.02160
3133.52179,0.02151
3131.46162,0.02149
3129.40145,0.02149
3127.34127,0.02140
3125.28110,0.02125
3123.22093,0.02105
3121.16076,0.02080
3119.10058,0.02051
3117.04041,0.02022
3114.98024,0.02004
3112.92007,0.02000
3110.85990,0.02000
3108.79972,0.01996
3106.73955,0.01990
3104.67938,0.01975
3102.61921,0.01952
3100.55904,0.01930
3098.49886,0.01910
3096.43869,0.01885
3094.37852,0.01853
3092.31835,0.01840
3090.25818,0.01843
3088.19800,0.01837
3086.13783,0.01824
3084.07766,0.01798
3082.01749,0.01763
3079.95731,0.01734
3077.89714,0.01713
3075.83697,0.01699
3073.77680,0.01686
3071.71663,0.01664
3069.65645,0.01650
3067.59628,0.01650
3065.53611,0.01646
3063.47594,0.01635
3061.41577,0.01610
3059.35559,0.01578
3057.29542,0.01564
3055.23525,0.01566
3053.17508,0.01566
3051.11491,0.01560
3049.05473,0.01550
3046.99456,0.01534
3044.93439,0.01508
3042.87422,0.01485
3040.81404,0.01476
3038.75387,0.01470
3036.69370,0.01460
3034.63353,0.01448
3032.57336,0.01436
3030.51318,0.01426
3028.45301,0.01418
3026.39284,0.01409
3024.33267,0.01397
3022.27250,0.01376
3020.21232,0.01360
3018.15215,0.01362
3016.09198,0.01363
3014.03181,0.01344
3011.97163,0.01311
3009.91146,0.01283
3007.85129,0.01285
3005.79112,0.01310
3003.73095,0.01317
3001.67077,0.01299
2999.61060,0.01277
2997.55043,0.01261
2995.49026,0.01261
2993.43009,0.01275
2991.36991,0.01277
2989.30974,0.01267
2987.24957,0.01262
2985.18940,0.01271
2983.12923,0.01286
2981.06905,0.01298
2979.00888,0.01316
2976.94871,0.01340
2974.88854,0.01358
2972.82836,0.01365
2970.76819,0.01374
2968.70802,0.01391
2966.64785,0.01403
2964.58768,0.01414
2962.52750,0.01431
2960.46733,0.01453
2958.40716,0.01479
2956.34699,0.01497
2954.28682,0.01505
2952.22664,0.01521
2950.16647,0.01551
2948.10630,0.01583
2946.04613,0.01612
2943.98596,0.01631
2941.92578,0.01640
2939.86561,0.01654
2937.80544,0.01677
2935.74527,0.01692
2933.68509,0.01697
2931.62492,0.01708
2929.56475,0.01716
2927.50458,0.01705
2925.44441,0.01701
2923.38423,0.01711
2921.32406,0.01706
2919.26389,0.01698
2917.20372,0.01697
2915.14355,0.01675
2913.08337,0.01635
2911.02320,0.01600
2908.96303,0.01580
2906.90286,0.01571
2904.84268,0.01559
2902.78251,0.01545
2900.72234,0.01550
2898.66217,0.01564
2896.60200,0.01568
2894.54182,0.01562
2892.48165,0.01551
2890.42148,0.01537
2888.36131,0.01527
2886.30114,0.01522
2884.24096,0.01517
2882.18079,0.01509
2880.12062,0.01504
2878.06045,0.01504
2876.00028,0.01512
2873.94010,0.01516
2871.87993,0.01503
2869.81976,0.01483
2867.75959,0.01455
2865.69941,0.01408
2863.63924,0.01368
2861.57907,0.01365
2859.51890,0.01378
2857.45873,0.01375
2855.39855,0.01355
2853.33838,0.01334
2851.27821,0.01329
2849.21804,0.01336
2847.15787,0.01333
2845.09769,0.01307
2843.03752,0.01273
2840.97735,0.01256
2838.91718,0.01250
2836.85700,0.01233
2834.79683,0.01207
2832.73666,0.01191
2830.67649,0.01181
2828.61632,0.01176
2826.55614,0.01182
2824.49597,0.01186
2822.43580,0.01170
2820.37563,0.01140
2818.31546,0.01117
2816.25528,0.01115
2814.19511,0.01126
2812.13494,0.01123
2810.07477,0.01105
2808.01460,0.01098
2805.95442,0.01101
2803.89425,0.01102
2801.83408,0.01102
2799.77391,0.01102
2797.71373,0.01095
2795.65356,0.01082
2793.59339,0.01076
2791.53322,0.01075
2789.47305,0.01064
2787.41287,0.01045
2785.35270,0.01026
2783.29253,0.01009
2781.23236,0.01000
2779.17219,0.01000
2777.11201,0.01003
2775.05184,0.01009
2772.99167,0.01015
2770.93150,0.01024
2768.87133,0.01020
2766.81115,0.01004
2764.75098,0.01000
2762.69081,0.01002
2760.63064,0.00989
2758.57046,0.00970
2756.51029,0.00965
2754.45012,0.00974
2752.38995,0.00982
2750.32978,0.00995
2748.26960,0.01003
2746.20943,0.00990
2744.14926,0.00973
2742.08909,0.00975
2740.02892,0.00983
2737.96874,0.00971
2735.90857,0.00946
2733.84840,0.00935
2731.78823,0.00948
2729.72805,0.00962
2727.66788,0.00957
2725.60771,0.00943
2723.54754,0.00932
2721.48737,0.00918
2719.42719,0.00904
2717.36702,0.00904
2715.30685,0.00916
2713.24668,0.00914
2711.18651,0.00901
2709.12633,0.00902
2707.06616,0.00919
2705.00599,0.00928
2702.94582,0.00917
2700.88565,0.00899
2698.82547,0.00896
2696.76530,0.00902
2694.70513,0.00903
2692.64496,0.00894
2690.58478,0.00893
2688.52461,0.00903
2686.46444,0.00905
2684.40427,0.00892
2682.34410,0.00879
2680.28392,0.00885
2678.22375,0.00893
2676.16358,0.00883
2674.10341,0.00868
2672.04324,0.00868
2669.98306,0.00872
2667.92289,0.00865
2665.86272,0.00854
2663.80255,0.00848
2661.74238,0.00847
2659.68220,0.00847
2657.62203,0.00844
2655.56186,0.00840
2653.50169,0.00845
2651.44151,0.00848
2649.38134,0.00835
2647.32117,0.00823
2645.26100,0.00826
2643.20083,0.00827
2641.14065,0.00821
2639.08048,0.00828
2637.02031,0.00832
2634.96014,0.00811
2632.89997,0.00786
2630.83979,0.00786
2628.77962,0.00797
2626.71945,0.00801
2624.65928,0.00801
2622.59910,0.00801
2620.53893,0.00796
2618.47876,0.00767
2616.41859,0.00732
2614.35842,0.00736
2612.29824,0.00762
2610.23807,0.00767
2608.17790,0.00747
2606.11773,0.00728
2604.05756,0.00715
2601.99738,0.00698
2599.93721,0.00692
2597.87704,0.00691
2595.81687,0.00694
2593.75670,0.00694
2591.69652,0.00672
2589.63635,0.00650
2587.57618,0.00656
2585.51601,0.00685
2583.45583,0.00700
2581.39566,0.00689
2579.33549,0.00667
2577.27532,0.00653
2575.21515,0.00661
2573.15497,0.00675
2571.09480,0.00662
2569.03463,0.00646
2566.97446,0.00651
2564.91429,0.00652
2562.85411,0.00652
2560.79394,0.00662
2558.73377,0.00668
2556.67360,0.00679
2554.61342,0.00701
2552.55325,0.00707
2550.49308,0.00688
2548.43291,0.00672
2546.37274,0.00682
2544.31256,0.00692
2542.25239,0.00671
2540.19222,0.00643
2538.13205,0.00650
2536.07188,0.00665
2534.01170,0.00655
2531.95153,0.00657
2529.89136,0.00666
2527.83119,0.00657
2525.77102,0.00649
2523.71084,0.00648
2521.65067,0.00642
2519.59050,0.00626
2517.53033,0.00605
2515.47015,0.00604
2513.40998,0.00635
2511.34981,0.00642
2509.28964,0.00617
2507.22947,0.00611
2505.16929,0.00623
2503.10912,0.00640
2501.04895,0.00655
2498.98878,0.00639
2496.92861,0.00600
2494.86843,0.00585
2492.80826,0.00600
2490.74809,0.00608
2488.68792,0.00595
2486.62775,0.00570
2484.56757,0.00562
2482.50740,0.00592
2480.44723,0.00627
2478.38706,0.00621
2476.32688,0.00591
2474.26671,0.00576
2472.20654,0.00586
2470.14637,0.00608
2468.08620,0.00610
2466.02602,0.00582
2463.96585,0.00560
2461.90568,0.00563
2459.84551,0.00593
2457.78534,0.00626
2455.72516,0.00625
2453.66499,0.00620
2451.60482,0.00623
2449.54465,0.00611
2447.48447,0.00607
2445.42430,0.00613
2443.36413,0.00615
2441.30396,0.00613
2439.24379,0.00602
2437.18361,0.00588
2435.12344,0.00583
2433.06327,0.00584
2431.00310,0.00586
2428.94293,0.00580
2426.88275,0.00572
2424.82258,0.00581
2422.76241,0.00603
2420.70224,0.00607
2418.64207,0.00593
2416.58189,0.00592
2414.52172,0.00598
2412.46155,0.00596
2410.40138,0.00587
2408.34120,0.00569
2406.28103,0.00553
2404.22086,0.00551
2402.16069,0.00566
2400.10052,0.00598
2398.04034,0.00595
2395.98017,0.00573
2393.92000,0.00546
2391.85983,0.00541
2389.79966,0.00560
2387.73948,0.00587
2385.67931,0.00616
2383.61914,0.00625
2381.55897,0.00604
2379.49880,0.00592
2377.43862,0.00618
2375.37845,0.00612
2373.31828,0.00543
2371.25811,0.00406
2369.19793,0.00237
2367.13776,0.00180
2365.07759,0.00226
2363.01742,0.00188
2360.95725,0.00240
2358.89707,0.00282
2356.83690,0.00406
2354.77673,0.00550
2352.71656,0.00635
2350.65639,0.00834
2348.59621,0.00907
2346.53604,0.00511
2344.47587,0.00316
2342.41570,0.00334
2340.35552,0.00464
2338.29535,0.00591
2336.23518,0.00595
2334.17501,0.00559
2332.11484,0.00573
2330.05466,0.00693
2327.99449,0.00760
2325.93432,0.00769
2323.87415,0.00668
2321.81398,0.00617
2319.75380,0.00611
2317.69363,0.00673
2315.63346,0.00687
2313.57329,0.00670
2311.51312,0.00656
2309.45294,0.00636
2307.39277,0.00635
2305.33260,0.00657
2303.27243,0.00679
2301.21225,0.00673
2299.15208,0.00662
2297.09191,0.00635
2295.03174,0.00586
2292.97157,0.00541
2290.91139,0.00519
2288.85122,0.00533
2286.79105,0.00580
2284.73088,0.00616
2282.67071,0.00597
2280.61053,0.00548
2278.55036,0.00536
2276.49019,0.00556
2274.43002,0.00553
2272.36984,0.00528
2270.30967,0.00545
2268.24950,0.00590
2266.18933,0.00602
2264.12916,0.00566
2262.06898,0.00514
2260.00881,0.00512
2257.94864,0.00577
2255.88847,0.00612
2253.82830,0.00580
2251.76812,0.00554
2249.70795,0.00545
2247.64778,0.00521
2245.58761,0.00503
2243.52744,0.00504
2241.46726,0.00529
2239.40709,0.00588
2237.34692,0.00637
2235.28675,0.00652
2233.22657,0.00612
2231.16640,0.00544
2229.10623,0.00546
2227.04606,0.00594
2224.98589,0.00612
2222.92571,0.00606
2220.86554,0.00568
2218.80537,0.00513
2216.74520,0.00492
2214.68503,0.00502
2212.62485,0.00554
2210.56468,0.00595
2208.50451,0.00579
2206.44434,0.00579
2204.38417,0.00570
2202.32399,0.00508
2200.26382,0.00480
2198.20365,0.00462
2196.14348,0.00416
2194.08330,0.00420
2192.02313,0.00423
2189.96296,0.00359
2187.90279,0.00350
2185.84262,0.00431
2183.78244,0.00480
2181.72227,0.00450
2179.66210,0.00408
2177.60193,0.00394
2175.54176,0.00400
2173.48158,0.00406
2171.42141,0.00384
2169.36124,0.00412
2167.30107,0.00514
2165.24089,0.00547
2163.18072,0.00445
2161.12055,0.00282
2159.06038,0.00154
2157.00021,0.00110
2154.94003,0.00114
2152.87986,0.00144
2150.81969,0.00177
2148.75952,0.00233
2146.69935,0.00316
2144.63917,0.00353
2142.57900,0.00370
2140.51883,0.00376
2138.45866,0.00336
2136.39849,0.00291
2134.33831,0.00267
2132.27814,0.00295
2130.21797,0.00350
2128.15780,0.00390
2126.09762,0.00448
2124.03745,0.00509
2121.97728,0.00552
2119.91711,0.00589
2117.85694,0.00605
2115.79676,0.00594
2113.73659,0.00567
2111.67642,0.00545
2109.61625,0.00562
2107.55608,0.00590
2105.49590,0.00578
2103.43573,0.00564
2101.37556,0.00575
2099.31539,0.00558
2097.25521,0.00519
2095.19504,0.00498
2093.13487,0.00499
2091.07470,0.00516
2089.01453,0.00539
2086.95435,0.00558
2084.89418,0.00564
2082.83401,0.00544
2080.77384,0.00523
2078.71367,0.00496
2076.65349,0.00478
2074.59332,0.00525
2072.53315,0.00581
2070.47298,0.00562
2068.41281,0.00491
2066.35263,0.00451
2064.29246,0.00459
2062.23229,0.00487
2060.17212,0.00499
2058.11194,0.00465
2056.05177,0.00442
2053.99160,0.00482
2051.93143,0.00498
2049.87126,0.00413
2047.81108,0.00365
2045.75091,0.00434
2043.69074,0.00508
2041.63057,0.00520
2039.57040,0.00466
2037.51022,0.00381
2035.45005,0.00323
2033.38988,0.00297
2031.32971,0.00174
2029.26954,0.00000
2027.20936,0.00061
2025.14919,0.00312
2023.08902,0.00402
2021.02885,0.00306
2018.96867,0.00263
2016.90850,0.00311
2014.84833,0.00387
2012.78816,0.00481
2010.72799,0.00502
2008.66781,0.00388
2006.60764,0.00206
2004.54747,0.00104
2002.48730,0.00153
2000.42713,0.00286
1998.36695,0.00365
1996.30678,0.00312
1994.24661,0.00237
1992.18644,0.00270
1990.12626,0.00409
1988.06609,0.00568
1986.00592,0.00575
1983.94575,0.00432
1981.88558,0.00290
1979.82540,0.00206
1977.76523,0.00211
1975.70506,0.00320
1973.64489,0.00397
1971.58472,0.00348
1969.52454,0.00244
1967.46437,0.00175
1965.40420,0.00199
1963.34403,0.00294
1961.28386,0.00305
1959.22368,0.00254
1957.16351,0.00294
1955.10334,0.00353
1953.04317,0.00327
1950.98299,0.00278
1948.92282,0.00260
1946.86265,0.00211
1944.80248,0.00145
1942.74231,0.00183
1940.68213,0.00249
1938.62196,0.00256
1936.56179,0.00245
1934.50162,0.00275
1932.44145,0.00327
1930.38127,0.00351
1928.32110,0.00360
1926.26093,0.00350
1924.20076,0.00333
1922.14059,0.00279
1920.08041,0.00226
1918.02024,0.00245
1915.96007,0.00251
1913.89990,0.00267
1911.83972,0.00312
1909.77955,0.00342
1907.71938,0.00320
1905.65921,0.00280
1903.59904,0.00265
1901.53886,0.00272
1899.47869,0.00281
1897.41852,0.00283
1895.35835,0.00268
1893.29818,0.00250
1891.23800,0.00299
1889.17783,0.00327
1887.11766,0.00258
1885.05749,0.00220
1882.99731,0.00227
1880.93714,0.00234
1878.87697,0.00249
1876.81680,0.00268
1874.75663,0.00249
1872.69645,0.00200
1870.63628,0.00221
1868.57611,0.00281
1866.51594,0.00268
1864.45577,0.00235
1862.39559,0.00231
1860.33542,0.00242
1858.27525,0.00259
1856.21508,0.00263
1854.15491,0.00246
1852.09473,0.00225
1850.03456,0.00210
1847.97439,0.00193
1845.91422,0.00216
1843.85404,0.00239
1841.79387,0.00189
1839.73370,0.00192
1837.67353,0.00238
1835.61336,0.00232
1833.55318,0.00196
1831.49301,0.00216
1829.43284,0.00233
1827.37267,0.00217
1825.31250,0.00254
1823.25232,0.00248
1821.19215,0.00198
1819.13198,0.00179
1817.07181,0.00180
1815.01163,0.00174
1812.95146,0.00191
1810.89129,0.00225
1808.83112,0.00226
1806.77095,0.00212
1804.71077,0.00212
1802.65060,0.00235
1800.59043,0.00242
1798.53026,0.00198
1796.47009,0.00162
1794.40991,0.00208
1792.34974,0.00270
1790.28957,0.00203
1788.22940,0.00144
1786.16923,0.00181
1784.10905,0.00196
1782.04888,0.00188
1779.98871,0.00182
1777.92854,0.00146
1775.86836,0.00133
1773.80819,0.00188
1771.74802,0.00220
1769.68785,0.00185
1767.62768,0.00170
1765.56750,0.00139
1763.50733,0.00183
1761.44716,0.00258
1759.38699,0.00279
1757.32682,0.00321
1755.26664,0.00306
1753.20647,0.00333
1751.14630,0.00457
1749.08613,0.00503
1747.02596,0.00475
1744.96578,0.00465
1742.90561,0.00494
1740.84544,0.00549
1738.78527,0.00531
1736.72509,0.00535
1734.66492,0.00697
1732.60475,0.00687
1730.54458,0.00592
1728.48441,0.00578
1726.42423,0.00579
1724.36406,0.00576
1722.30389,0.00515
1720.24372,0.00520
1718.18355,0.00634
1716.12337,0.00609
1714.06320,0.00490
1712.00303,0.00410
1709.94286,0.00379
1707.88268,0.00392
1705.82251,0.00388
1703.76234,0.00308
1701.70217,0.00364
1699.64200,0.00394
1697.58182,0.00330
1695.52165,0.00386
1693.46148,0.00346
1691.40131,0.00355
1689.34114,0.00393
1687.28096,0.00424
1685.22079,0.00603
1683.16062,0.00630
1681.10045,0.00487
1679.04028,0.00468
1676.98010,0.00571
1674.91993,0.00630
1672.85976,0.00593
1670.79959,0.00721
1668.73941,0.00825
1666.67924,0.00753
1664.61907,0.00796
1662.55890,0.00916
1660.49873,0.00893
1658.43855,0.00823
1656.37838,0.00891
1654.31821,0.01163
1652.25804,0.01148
1650.19787,0.00894
1648.13769,0.01011
1646.07752,0.01175
1644.01735,0.01102
1641.95718,0.01046
1639.89701,0.01058
1637.83683,0.01179
1635.77666,0.01337
1633.71649,0.01249
1631.65632,0.01156
1629.59614,0.01214
1627.53597,0.01244
1625.47580,0.01246
1623.41563,0.01277
1621.35546,0.01193
1619.29528,0.01185
1617.23511,0.01326
1615.17494,0.01298
1613.11477,0.01203
1611.05460,0.01222
1608.99442,0.01252
1606.93425,0.01221
1604.87408,0.01169
1602.81391,0.01125
1600.75373,0.01066
1598.69356,0.00998
1596.63339,0.00945
1594.57322,0.00898
1592.51305,0.00848
1590.45287,0.00808
1588.39270,0.00769
1586.33253,0.00725
1584.27236,0.00668
1582.21219,0.00578
1580.15201,0.00490
1578.09184,0.00526
1576.03167,0.00557
1573.97150,0.00379
1571.91133,0.00329
1569.85115,0.00422
1567.79098,0.00347
1565.73081,0.00229
1563.67064,0.00128
1561.61046,0.00183
1559.55029,0.00429
1557.49012,0.00295
1555.42995,0.00123
1553.36978,0.00155
1551.30960,0.00211
1549.24943,0.00202
1547.18926,0.00147
1545.12909,0.00157
1543.06892,0.00189
1541.00874,0.00272
1538.94857,0.00202
1536.88840,0.00018
1534.82823,0.00106
1532.76805,0.00198
1530.70788,0.00095
1528.64771,0.00076
1526.58754,0.00093
1524.52737,0.00061
1522.46719,0.00114
1520.40702,0.00096
1518.34685,0.00053
1516.28668,0.00098
1514.22651,0.00067
1512.16633,0.00028
1510.10616,0.00084
1508.04599,0.00305
1505.98582,0.00326
1503.92565,0.00071
1501.86547,0.00000
1499.80530,0.00111
1497.74513,0.00210
1495.68496,0.00153
1493.62478,0.00042
1491.56461,0.00108
1489.50444,0.00214
1487.44427,0.00182
1485.38410,0.00130
1483.32392,0.00150
1481.26375,0.00186
1479.20358,0.00174
1477.14341,0.00191
1475.08324,0.00279
1473.02306,0.00400
1470.96289,0.00378
1468.90272,0.00322
1466.84255,0.00428
1464.78238,0.00529
1462.72220,0.00458
1460.66203,0.00453
1458.60186,0.00654
1456.54169,0.00753
1454.48151,0.00612
1452.42134,0.00562
1450.36117,0.00636
1448.30100,0.00723
1446.24083,0.00734
1444.18065,0.00711
1442.12048,0.00700
1440.06031,0.00716
1438.00014,0.00844
1435.93997,0.00912
1433.87979,0.00829
1431.81962,0.00843
1429.75945,0.00906
1427.69928,0.00903
1425.63910,0.00917
1423.57893,0.00922
1421.51876,0.00944
1419.45859,0.01054
1417.39842,0.01051
1415.33824,0.00989
1413.27807,0.00996
1411.21790,0.01010
1409.15773,0.00988
1407.09756,0.00990
1405.03738,0.00997
1402.97721,0.00931
1400.91704,0.00890
1398.85687,0.00886
1396.79670,0.00869
1394.73652,0.00873
1392.67635,0.00829
1390.61618,0.00806
1388.55601,0.00870
1386.49583,0.00898
1384.43566,0.00870
1382.37549,0.00876
1380.31532,0.00904
1378.25515,0.00919
1376.19497,0.00949
1374.13480,0.00981
1372.07463,0.00960
1370.01446,0.00960
1367.95429,0.00968
1365.89411,0.00954
1363.83394,0.00977
1361.77377,0.00968
1359.71360,0.00907
1357.65343,0.00889
1355.59325,0.00899
1353.53308,0.00884
1351.47291,0.00858
1349.41274,0.00843
1347.35256,0.00822
1345.29239,0.00790
1343.23222,0.00772
1341.17205,0.00804
1339.11188,0.00834
1337.05170,0.00806
1334.99153,0.00780
1332.93136,0.00781
1330.87119,0.00777
1328.81102,0.00767
1326.75084,0.00770
1324.69067,0.00781
1322.63050,0.00788
1320.57033,0.00802
1318.51015,0.00815
1316.44998,0.00809
1314.38981,0.00809
1312.32964,0.00809
1310.26947,0.00800
1308.20929,0.00797
1306.14912,0.00787
1304.08895,0.00764
1302.02878,0.00736
1299.96861,0.00713
1297.90843,0.00693
1295.84826,0.00677
1293.78809,0.00667
1291.72792,0.00658
1289.66775,0.00658
1287.60757,0.00657
1285.54740,0.00644
1283.48723,0.00634
1281.42706,0.00633
1279.36688,0.00639
1277.30671,0.00648
1275.24654,0.00659
1273.18637,0.00679
1271.12620,0.00709
1269.06602,0.00731
1267.00585,0.00748
1264.94568,0.00775
1262.88551,0.00816
1260.82534,0.00864
1258.76516,0.00898
1256.70499,0.00920
1254.64482,0.00944
1252.58465,0.00966
1250.52447,0.00971
1248.46430,0.00959
1246.40413,0.00955
1244.34396,0.00970
1242.28379,0.00971
1240.22361,0.00953
1238.16344,0.00933
1236.10327,0.00909
1234.04310,0.00873
1231.98293,0.00827
1229.92275,0.00786
1227.86258,0.00757
1225.80241,0.00731
1223.74224,0.00698
1221.68207,0.00662
1219.62189,0.00632
1217.56172,0.00594
1215.50155,0.00545
1213.44138,0.00503
1211.38120,0.00461
1209.32103,0.00409
1207.26086,0.00359
1205.20069,0.00310
1203.14052,0.00251
1201.08034,0.00183
1199.02017,0.00130
1196.96000,0.00094
1194.89983,0.00061
1192.83966,0.00032
1190.77948,0.00011
1188.71931,0.00000
1186.65914,-0.00005
1184.59897,0.00007
1182.53880,0.00042
1180.47862,0.00086
1178.41845,0.00129
1176.35828,0.00177
1174.29811,0.00238
1172.23793,0.00315
1170.17776,0.00398
1168.11759,0.00474
1166.05742,0.00537
1163.99725,0.00596
1161.93707,0.00667
1159.87690,0.00738
1157.81673,0.00797
1155.75656,0.00860
1153.69639,0.00934
1151.63621,0.00998
1149.57604,0.01036
1147.51587,0.01067
1145.45570,0.01105
1143.39552,0.01147
1141.33535,0.01185
1139.27518,0.01215
1137.21501,0.01241
1135.15484,0.01267
1133.09466,0.01302
1131.03449,0.01348
1128.97432,0.01409
1126.91415,0.01481
1124.85398,0.01560
1122.79380,0.01635
1120.73363,0.01693
1118.67346,0.01740
1116.61329,0.01795
1114.55312,0.01864
1112.49294,0.01942
1110.43277,0.02019
1108.37260,0.02095
1106.31243,0.02179
1104.25225,0.02269
1102.19208,0.02353
1100.13191,0.02434
1098.07174,0.02515
1096.01157,0.02608
1093.95139,0.02723
1091.89122,0.02835
1089.83105,0.02921
1087.77088,0.03000
1085.71071,0.03082
1083.65053,0.03169
1081.59036,0.03263
1079.53019,0.03362
1077.47002,0.03461
1075.40985,0.03545
1073.34967,0.03604
1071.28950,0.03662
1069.22933,0.03735
1067.16916,0.03803
1065.10898,0.03849
1063.04881,0.03885
1060.98864,0.03916
1058.92847,0.03947
1056.86830,0.03992
1054.80812,0.04040
1052.74795,0.04084
1050.68778,0.04142
1048.62761,0.04199
1046.56744,0.04252
1044.50726,0.04311
1042.44709,0.04375
1040.38692,0.04434
1038.32675,0.04471
1036.26657,0.04476
1034.20640,0.04477
1032.14623,0.04490
1030.08606,0.04500
1028.02589,0.04501
1025.96571,0.04486
1023.90554,0.04456
1021.84537,0.04433
1019.78520,0.04435
1017.72503,0.04440
1015.66485,0.04415
1013.60468,0.04364
1011.54451,0.04319
1009.48434,0.04289
1007.42417,0.04260
1005.36399,0.04223
1003.30382,0.04151
1001.24365,0.04043
999.18348,0.03947
997.12330,0.03873
995.06313,0.03805
993.00296,0.03748
990.94279,0.03694
988.88262,0.03634
986.82244,0.03586
984.76227,0.03553
982.70210,0.03506
980.64193,0.03456
978.58176,0.03411
976.52158,0.03347
974.46141,0.03276
972.40124,0.03217
970.34107,0.03146
968.28089,0.03047
966.22072,0.02955
964.16055,0.02892
962.10038,0.02830
960.04021,0.02753
957.98003,0.02673
955.91986,0.02603
953.85969,0.02555
951.79952,0.02511
949.73935,0.02441
947.67917,0.02340
945.61900,0.02227
943.55883,0.02120
941.49866,0.02008
939.43849,0.01867
937.37831,0.01716
935.31814,0.01583
933.25797,0.01460
931.19780,0.01343
929.13762,0.01251
927.07745,0.01193
925.01728,0.01137
922.95711,0.01057
920.89694,0.00974
918.83676,0.00913
916.77659,0.00868
914.71642,0.00826
912.65625,0.00790
910.59608,0.00766
908.53590,0.00740
906.47573,0.00704
904.41556,0.00686
902.35539,0.00711
900.29522,0.00760
898.23504,0.00798
896.17487,0.00819
894.11470,0.00829
892.05453,0.00817
889.99435,0.00790
887.93418,0.00779
885.87401,0.00782
883.81384,0.00762
881.75367,0.00713
879.69349,0.00691
877.63332,0.00707
875.57315,0.00725
873.51298,0.00743
871.45281,0.00766
869.39263,0.00775
867.33246,0.00760
865.27229,0.00729
863.21212,0.00682
861.15194,0.00653
859.09177,0.00657
857.03160,0.00671
854.97143,0.00673
852.91126,0.00644
850.85108,0.00603
848.79091,0.00569
846.73074,0.00527
844.67057,0.00487
842.61040,0.00454
840.55022,0.00406
838.49005,0.00353
836.42988,0.00303
834.36971,0.00246
832.30954,0.00183
830.24936,0.00102
828.18919,0.00022
826.12902,0.00000
824.06885,0.00032
822.00867,0.00057
819.94850,0.00040
817.88833,0.00022
815.82816,0.00037
813.76799,0.00060
811.70781,0.00077
809.64764,0.00097
807.58747,0.00089
805.52730,0.00050
803.46713,0.00013
801.40695,0.00000
799.34678,0.00023
797.28661,0.00036
795.22644,0.00007
793.16627,0.00004
791.10609,0.00035
789.04592,0.00047
786.98575,0.00047
784.92558,0.00038
782.86540,0.00037
780.80523,0.00081
778.74506,0.00125
776.68489,0.00118
774.62472,0.00109
772.56454,0.00129
770.50437,0.00123
768.44420,0.00109
766.38403,0.00139
764.32386,0.00160
762.26368,0.00169
760.20351,0.00184
758.14334,0.00171
756.08317,0.00152
754.02299,0.00177
751.96282,0.00222
749.90265,0.00240
747.84248,0.00245
745.78231,0.00243
743.72213,0.00218
741.66196,0.00176
739.60179,0.00160
737.54162,0.00216
735.48145,0.00282
733.42127,0.00288
731.36110,0.00286
729.30093,0.00291
727.24076,0.00260
725.18059,0.00226
723.12041,0.00262
721.06024,0.00241
719.00007,0.00226
716.93990,0.00220
714.87972,0.00261
712.81955,0.00342
710.75938,0.00409
708.69921,0.00437
706.63904,0.00446
704.57886,0.00467
702.51869,0.00480
700.45852,0.00462
698.39835,0.00423
696.33818,0.00404
694.27800,0.00441
692.21783,0.00504
690.15766,0.00536
688.09749,0.00521
686.03731,0.00482
683.97714,0.00455
681.91697,0.00458
679.85680,0.00469
677.79663,0.00476
675.73645,0.00495
673.67628,0.00579
671.61611,0.00703
669.55594,0.00389
667.49577,0.00000
665.43559,0.00559
663.37542,0.00557
661.31525,0.00446
659.25508,0.00404
657.19491,0.00405
655.13473,0.00447
653.07456,0.00521
651.01439,0.00562
648.95422,0.00524
646.89404,0.00482
644.83387,0.00413
642.77370,0.00333
640.71353,0.00262
638.65336,0.00201
636.59318,0.00160
634.53301,0.00148
632.47284,0.00152
630.41267,0.00192
628.35250,0.00279
626.29232,0.00320
624.23215,0.00264
622.17198,0.00258
620.11181,0.00314
618.05164,0.00276
615.99146,0.00170
613.93129,0.00154
611.87112,0.00249
609.81095,0.00439
607.75077,0.00488
605.69060,0.00252
603.63043,0.00021
601.57026,-0.00027
599.51009,0.00000
