3996.73391,0.00060
3994.67373,0.00033
3992.61356,0.00015
3990.55339,0.00008
3988.49322,0.00000
3986.43305,0.00006
3984.37287,0.00026
3982.31270,0.00041
3980.25253,0.00045
3978.19236,0.00036
3976.13219,0.00026
3974.07201,0.00037
3972.01184,0.00055
3969.95167,0.00058
3967.89150,0.00053
3965.83133,0.00044
3963.77115,0.00029
3961.71098,0.00026
3959.65081,0.00047
3957.59064,0.00077
3955.53046,0.00083
3953.47029,0.00060
3951.41012,0.00040
3949.34995,0.00045
3947.28978,0.00067
3945.22960,0.00082
3943.16943,0.00081
3941.10926,0.00076
3939.04909,0.00070
3936.98892,0.00066
3934.92874,0.00061
3932.86857,0.00048
3930.80840,0.00040
3928.74823,0.00037
3926.68805,0.00026
3924.62788,0.00031
3922.56771,0.00068
3920.50754,0.00108
3918.44737,0.00110
3916.38719,0.00072
3914.32702,0.00027
3912.26685,0.00008
3910.20668,0.00021
3908.14651,0.00051
3906.08633,0.00075
3904.02616,0.00092
3901.96599,0.00103
3899.90582,0.00102
3897.84565,0.00093
3895.78547,0.00087
3893.72530,0.00084
3891.66513,0.00080
3889.60496,0.00067
3887.54478,0.00053
3885.48461,0.00049
3883.42444,0.00064
3881.36427,0.00068
3879.30410,0.00060
3877.24392,0.00066
3875.18375,0.00073
3873.12358,0.00072
3871.06341,0.00064
3869.00324,0.00035
3866.94306,0.00005
3864.88289,0.00000
3862.82272,0.00027
3860.76255,0.00072
3858.70237,0.00100
3856.64220,0.00110
3854.58203,0.00108
3852.52186,0.00085
3850.46169,0.00054
3848.40151,0.00041
3846.34134,0.00039
3844.28117,0.00043
3842.22100,0.00050
3840.16083,0.00047
3838.10065,0.00034
3836.04048,0.00021
3833.98031,0.00005
3831.92014,0.00000
3829.85997,0.00019
3827.79979,0.00043
3825.73962,0.00061
3823.67945,0.00074
3821.61928,0.00070
3819.55910,0.00063
3817.49893,0.00070
3815.43876,0.00069
3813.37859,0.00070
3811.31842,0.00085
3809.25824,0.00099
3807.19807,0.00094
3805.13790,0.00080
3803.07773,0.00068
3801.01756,0.00054
3798.95738,0.00047
3796.89721,0.00051
3794.83704,0.00071
3792.77687,0.00092
3790.71670,0.00077
3788.65652,0.00038
3786.59635,0.00019
3784.53618,0.00028
3782.47601,0.00048
3780.41583,0.00066
3778.35566,0.00084
3776.29549,0.00108
3774.23532,0.00116
3772.17515,0.00087
3770.11497,0.00036
3768.05480,0.00012
3765.99463,0.00036
3763.93446,0.00078
3761.87429,0.00114
3759.81411,0.00142
3757.75394,0.00159
3755.69377,0.00159
3753.63360,0.00146
3751.57342,0.00134
3749.51325,0.00145
3747.45308,0.00152
3745.39291,0.00105
3743.33274,0.00043
3741.27256,0.00050
3739.21239,0.00105
3737.15222,0.00143
3735.09205,0.00124
3733.03188,0.00081
3730.97170,0.00101
3728.91153,0.00167
3726.85136,0.00205
3724.79119,0.00181
3722.73102,0.00126
3720.67084,0.00076
3718.61067,0.00032
3716.55050,0.00020
3714.49033,0.00043
3712.43015,0.00043
3710.36998,0.00014
3708.30981,0.00023
3706.24964,0.00073
3704.18947,0.00114
3702.12929,0.00128
3700.06912,0.00128
3698.00895,0.00125
3695.94878,0.00137
3693.88861,0.00175
3691.82843,0.00206
3689.76826,0.00204
3687.70809,0.00183
3685.64792,0.00162
3683.58775,0.00144
3681.52757,0.00132
3679.46740,0.00110
3677.40723,0.00073
3675.34706,0.00061
3673.28688,0.00105
3671.22671,0.00152
3669.16654,0.00142
3667.10637,0.00114
3665.04620,0.00129
3662.98602,0.00179
3660.92585,0.00228
3658.86568,0.00250
3656.80551,0.00229
3654.74534,0.00190
3652.68516,0.00180
3650.62499,0.00202
3648.56482,0.00231
3646.50465,0.00244
3644.44447,0.00253
3642.38430,0.00267
3640.32413,0.00277
3638.26396,0.00282
3636.20379,0.00296
3634.14361,0.00326
3632.08344,0.00353
3630.02327,0.00349
3627.96310,0.00320
3625.90293,0.00328
3623.84275,0.00390
3621.78258,0.00455
3619.72241,0.00480
3617.66224,0.00469
3615.60207,0.00462
3613.54189,0.00476
3611.48172,0.00508
3609.42155,0.00561
3607.36138,0.00615
3605.30120,0.00645
3603.24103,0.00647
3601.18086,0.00626
3599.12069,0.00605
3597.06052,0.00601
3595.00034,0.00621
3592.94017,0.00666
3590.88000,0.00712
3588.81983,0.00749
3586.75966,0.00787
3584.69948,0.00815
3582.63931,0.00823
3580.57914,0.00805
3578.51897,0.00780
3576.45879,0.00791
3574.39862,0.00834
3572.33845,0.00885
3570.27828,0.00924
3568.21811,0.00930
3566.15793,0.00918
3564.09776,0.00936
3562.03759,0.00976
3559.97742,0.01009
3557.91725,0.01028
3555.85707,0.01033
3553.79690,0.01033
3551.73673,0.01048
3549.67656,0.01091
3547.61639,0.01141
3545.55621,0.01182
3543.49604,0.01212
3541.43587,0.01227
3539.37570,0.01232
3537.31552,0.01244
3535.25535,0.01265
3533.19518,0.01293
3531.13501,0.01326
3529.07484,0.01351
3527.01466,0.01358
3524.95449,0.01369
3522.89432,0.01397
3520.83415,0.01431
3518.77398,0.01450
3516.71380,0.01459
3514.65363,0.01481
3512.59346,0.01521
3510.53329,0.01549
3508.47312,0.01550
3506.41294,0.01550
3504.35277,0.01571
3502.29260,0.01603
3500.23243,0.01609
3498.17225,0.01594
3496.11208,0.01602
3494.05191,0.01631
3491.99174,0.01650
3489.93157,0.01666
3487.87139,0.01697
3485.81122,0.01736
3483.75105,0.01766
3481.69088,0.01779
3479.63071,0.01778
3477.57053,0.01789
3475.51036,0.01826
3473.45019,0.01866
3471.39002,0.01886
3469.32984,0.01889
3467.26967,0.01894
3465.20950,0.01915
3463.14933,0.01941
3461.08916,0.01954
3459.02898,0.01955
3456.96881,0.01958
3454.90864,0.01972
3452.84847,0.02006
3450.78830,0.02056
3448.72812,0.02088
3446.66795,0.02093
3444.60778,0.02102
3442.54761,0.02116
3440.48744,0.02104
3438.42726,0.02092
3436.36709,0.02117
3434.30692,0.02167
3432.24675,0.02208
3430.18657,0.02227
3428.12640,0.02230
3426.06623,0.02241
3424.00606,0.02267
3421.94589,0.02276
3419.88571,0.02263
3417.82554,0.02254
3415.76537,0.02254
3413.70520,0.02269
3411.64503,0.02306
3409.58485,0.02330
3407.52468,0.02330
3405.46451,0.02345
3403.40434,0.02374
3401.34416,0.02394
3399.28399,0.02413
3397.22382,0.02426
3395.16365,0.02437
3393.10348,0.02456
3391.04330,0.02479
3388.98313,0.02478
3386.92296,0.02454
3384.86279,0.02455
3382.80262,0.02475
3380.74244,0.02473
3378.68227,0.02475
3376.62210,0.02505
3374.56193,0.02526
3372.50176,0.02532
3370.44158,0.02541
3368.38141,0.02532
3366.32124,0.02519
3364.26107,0.02534
3362.20089,0.02569
3360.14072,0.02599
3358.08055,0.02609
3356.02038,0.02597
3353.96021,0.02583
3351.90003,0.02583
3349.83986,0.02590
3347.77969,0.02595
3345.71952,0.02607
3343.65935,0.02609
3341.59917,0.02601
3339.53900,0.02614
3337.47883,0.02645
3335.41866,0.02665
3333.35849,0.02669
3331.29831,0.02679
3329.23814,0.02692
3327.17797,0.02691
3325.11780,0.02679
3323.05762,0.02666
3320.99745,0.02669
3318.93728,0.02691
3316.87711,0.02701
3314.81694,0.02698
3312.75676,0.02705
3310.69659,0.02705
3308.63642,0.02687
3306.57625,0.02675
3304.51608,0.02689
3302.45590,0.02717
3300.39573,0.02731
3298.33556,0.02728
3296.27539,0.02728
3294.21521,0.02728
3292.15504,0.02729
3290.09487,0.02725
3288.03470,0.02718
3285.97453,0.02714
3283.91435,0.02710
3281.85418,0.02707
3279.79401,0.02702
3277.73384,0.02708
3275.67367,0.02735
3273.61349,0.02757
3271.55332,0.02748
3269.49315,0.02719
3267.43298,0.02682
3265.37281,0.02656
3263.31263,0.02648
3261.25246,0.02653
3259.19229,0.02671
3257.13212,0.02696
3255.07194,0.02702
3253.01177,0.02699
3250.95160,0.02709
3248.89143,0.02707
3246.83126,0.02679
3244.77108,0.02662
3242.71091,0.02676
3240.65074,0.02709
3238.59057,0.02718
3236.53040,0.02683
3234.47022,0.02649
3232.41005,0.02638
3230.34988,0.02623
3228.28971,0.02609
3226.22954,0.02625
3224.16936,0.02651
3222.10919,0.02647
3220.04902,0.02622
3217.98885,0.02596
3215.92867,0.02555
3213.86850,0.02519
3211.80833,0.02516
3209.74816,0.02518
3207.68799,0.02512
3205.62781,0.02518
3203.56764,0.02524
3201.50747,0.02510
3199.44730,0.02482
3197.38713,0.02456
3195.32695,0.02442
3193.26678,0.02432
3191.20661,0.02423
3189.14644,0.02412
3187.08626,0.02393
3185.02609,0.02380
3182.96592,0.02369
3180.90575,0.02340
3178.84558,0.02307
3176.78540,0.02302
3174.72523,0.02320
3172.66506,0.02334
3170.60489,0.02333
3168.54472,0.02319
3166.48454,0.02292
3164.42437,0.02256
3162.36420,0.02218
3160.30403,0.02195
3158.24386,0.02199
3156.18368,0.02206
3154.12351,0.02191
3152.06334,0.02156
3150.00317,0.02121
3147.94299,0.02098
3145.88282,0.02089
3143.82265,0.02075
3141.76248,0.02045
3139.70231,0.02007
3137.64213,0.01974
3135.58196,0.01949
3133.52179,0.01925
3131.46162,0.01906
3129.40145,0.01901
3127.34127,0.01904
3125.28110,0.01904
3123.22093,0.01883
3121.16076,0.01845
3119.10058,0.01815
3117.04041,0.01799
3114.98024,0.01794
3112.92007,0.01795
3110.85990,0.01788
3108.79972,0.01769
3106.73955,0.01753
3104.67938,0.01736
3102.61921,0.01711
3100.55904,0.01689
3098.49886,0.01678
3096.43869,0.01658
3094.37852,0.01633
3092.31835,0.01631
3090.25818,0.01632
3088.19800,0.01609
3086.13783,0.01578
3084.07766,0.01558
3082.01749,0.01544
3079.95731,0.01525
3077.89714,0.01496
3075.83697,0.01472
3073.77680,0.01460
3071.71663,0.01442
3069.65645,0.01420
3067.59628,0.01404
3065.53611,0.01390
3063.47594,0.01362
3061.41577,0.01326
3059.35559,0.01306
3057.29542,0.01312
3055.23525,0.01317
3053.17508,0.01304
3051.11491,0.01292
3049.05473,0.01292
3046.99456,0.01290
3044.93439,0.01276
3042.87422,0.01261
3040.81404,0.01255
3038.75387,0.01249
3036.69370,0.01229
3034.63353,0.01204
3032.57336,0.01185
3030.51318,0.01163
3028.45301,0.01143
3026.39284,0.01141
3024.33267,0.01150
3022.27250,0.01145
3020.21232,0.01127
3018.15215,0.01109
3016.09198,0.01094
3014.03181,0.01079
3011.97163,0.01053
3009.91146,0.01029
3007.85129,0.01039
3005.79112,0.01072
3003.73095,0.01080
3001.67077,0.01063
2999.61060,0.01039
2997.55043,0.01013
2995.49026,0.01007
2993.43009,0.01031
2991.36991,0.01041
2989.30974,0.01034
2987.24957,0.01045
2985.18940,0.01075
2983.12923,0.01093
2981.06905,0.01089
2979.00888,0.01080
2976.94871,0.01087
2974.88854,0.01113
2972.82836,0.01138
2970.76819,0.01143
2968.70802,0.01145
2966.64785,0.01155
2964.58768,0.01166
2962.52750,0.01190
2960.46733,0.01229
2958.40716,0.01275
2956.34699,0.01306
2954.28682,0.01304
2952.22664,0.01296
2950.16647,0.01314
2948.10630,0.01347
2946.04613,0.01378
2943.98596,0.01399
2941.92578,0.01415
2939.86561,0.01433
2937.80544,0.01454
2935.74527,0.01473
2933.68509,0.01490
2931.62492,0.01507
2929.56475,0.01510
2927.50458,0.01486
2925.44441,0.01459
2923.38423,0.01453
2921.32406,0.01454
2919.26389,0.01454
2917.20372,0.01449
2915.14355,0.01424
2913.08337,0.01388
2911.02320,0.01360
2908.96303,0.01328
2906.90286,0.01303
2904.84268,0.01304
2902.78251,0.01315
2900.72234,0.01324
2898.66217,0.01332
2896.60200,0.01329
2894.54182,0.01318
2892.48165,0.01306
2890.42148,0.01287
2888.36131,0.01269
2886.30114,0.01260
2884.24096,0.01258
2882.18079,0.01260
2880.12062,0.01251
2878.06045,0.01233
2876.00028,0.01225
2873.94010,0.01227
2871.87993,0.01220
2869.81976,0.01203
2867.75959,0.01183
2865.69941,0.01156
2863.63924,0.01126
2861.57907,0.01122
2859.51890,0.01136
2857.45873,0.01131
2855.39855,0.01105
2853.33838,0.01085
2851.27821,0.01090
2849.21804,0.01093
2847.15787,0.01081
2845.09769,0.01061
2843.03752,0.01029
2840.97735,0.00998
2838.91718,0.00977
2836.85700,0.00958
2834.79683,0.00946
2832.73666,0.00948
2830.67649,0.00947
2828.61632,0.00941
2826.55614,0.00934
2824.49597,0.00929
2822.43580,0.00923
2820.37563,0.00904
2818.31546,0.00880
2816.25528,0.00870
2814.19511,0.00871
2812.13494,0.00876
2810.07477,0.00881
2808.01460,0.00879
2805.95442,0.00862
2803.89425,0.00836
2801.83408,0.00826
2799.77391,0.00835
2797.71373,0.00833
2795.65356,0.00820
2793.59339,0.00820
2791.53322,0.00826
2789.47305,0.00818
2787.41287,0.00806
2785.35270,0.00801
2783.29253,0.00793
2781.23236,0.00782
2779.17219,0.00776
2777.11201,0.00772
2775.05184,0.00768
2772.99167,0.00775
2770.93150,0.00785
2768.87133,0.00776
2766.81115,0.00765
2764.75098,0.00764
2762.69081,0.00755
2760.63064,0.00741
2758.57046,0.00735
2756.51029,0.00740
2754.45012,0.00751
2752.38995,0.00758
2750.32978,0.00753
2748.26960,0.00740
2746.20943,0.00728
2744.14926,0.00730
2742.08909,0.00741
2740.02892,0.00744
2737.96874,0.00737
2735.90857,0.00727
2733.84840,0.00721
2731.78823,0.00725
2729.72805,0.00730
2727.66788,0.00725
2725.60771,0.00712
2723.54754,0.00698
2721.48737,0.00685
2719.42719,0.00677
2717.36702,0.00686
2715.30685,0.00701
2713.24668,0.00690
2711.18651,0.00668
2709.12633,0.00676
2707.06616,0.00695
2705.00599,0.00694
2702.94582,0.00691
2700.88565,0.00696
2698.82547,0.00693
2696.76530,0.00684
2694.70513,0.00677
2692.64496,0.00673
2690.58478,0.00669
2688.52461,0.00663
2686.46444,0.00661
2684.40427,0.00664
2682.34410,0.00661
2680.28392,0.00648
2678.22375,0.00632
2676.16358,0.00629
2674.10341,0.00640
2672.04324,0.00650
2669.98306,0.00665
2667.92289,0.00675
2665.86272,0.00663
2663.80255,0.00648
2661.74238,0.00642
2659.68220,0.00633
2657.62203,0.00623
2655.56186,0.00615
2653.50169,0.00607
2651.44151,0.00601
2649.38134,0.00605
2647.32117,0.00612
2645.26100,0.00617
2643.20083,0.00619
2641.14065,0.00618
2639.08048,0.00617
2637.02031,0.00610
2634.96014,0.00596
2632.89997,0.00586
2630.83979,0.00591
2628.77962,0.00603
2626.71945,0.00594
2624.65928,0.00578
2622.59910,0.00583
2620.53893,0.00593
2618.47876,0.00579
2616.41859,0.00555
2614.35842,0.00561
2612.29824,0.00587
2610.23807,0.00597
2608.17790,0.00585
2606.11773,0.00567
2604.05756,0.00547
2601.99738,0.00532
2599.93721,0.00517
2597.87704,0.00492
2595.81687,0.00474
2593.75670,0.00492
2591.69652,0.00510
2589.63635,0.00487
2587.57618,0.00470
2585.51601,0.00496
2583.45583,0.00516
2581.39566,0.00508
2579.33549,0.00495
2577.27532,0.00482
2575.21515,0.00477
2573.15497,0.00481
2571.09480,0.00476
2569.03463,0.00481
2566.97446,0.00491
2564.91429,0.00475
2562.85411,0.00458
2560.79394,0.00465
2558.73377,0.00474
2556.67360,0.00486
2554.61342,0.00503
2552.55325,0.00498
2550.49308,0.00463
2548.43291,0.00442
2546.37274,0.00441
2544.31256,0.00444
2542.25239,0.00461
2540.19222,0.00467
2538.13205,0.00464
2536.07188,0.00462
2534.01170,0.00443
2531.95153,0.00451
2529.89136,0.00487
2527.83119,0.00485
2525.77102,0.00446
2523.71084,0.00415
2521.65067,0.00413
2519.59050,0.00436
2517.53033,0.00446
2515.47015,0.00429
2513.40998,0.00424
2511.34981,0.00430
2509.28964,0.00421
2507.22947,0.00406
2505.16929,0.00414
2503.10912,0.00445
2501.04895,0.00460
2498.98878,0.00440
2496.92861,0.00416
2494.86843,0.00420
2492.80826,0.00440
2490.74809,0.00442
2488.68792,0.00409
2486.62775,0.00371
2484.56757,0.00360
2482.50740,0.00377
2480.44723,0.00412
2478.38706,0.00433
2476.32688,0.00427
2474.26671,0.00415
2472.20654,0.00414
2470.14637,0.00409
2468.08620,0.00386
2466.02602,0.00363
2463.96585,0.00366
2461.90568,0.00380
2459.84551,0.00409
2457.78534,0.00450
2455.72516,0.00449
2453.66499,0.00432
2451.60482,0.00425
2449.54465,0.00409
2447.48447,0.00408
2445.42430,0.00423
2443.36413,0.00431
2441.30396,0.00441
2439.24379,0.00442
2437.18361,0.00429
2435.12344,0.00419
2433.06327,0.00409
2431.00310,0.00396
2428.94293,0.00385
2426.88275,0.00384
2424.82258,0.00408
2422.76241,0.00447
2420.70224,0.00459
2418.64207,0.00430
2416.58189,0.00409
2414.52172,0.00412
2412.46155,0.00411
2410.40138,0.00402
2408.34120,0.00392
2406.28103,0.00384
2404.22086,0.00376
2402.16069,0.00375
2400.10052,0.00390
2398.04034,0.00394
2395.98017,0.00385
2393.92000,0.00373
2391.85983,0.00376
2389.79966,0.00392
2387.73948,0.00404
2385.67931,0.00418
2383.61914,0.00456
2381.55897,0.00519
2379.49880,0.00584
2377.43862,0.00619
2375.37845,0.00622
2373.31828,0.00605
2371.25811,0.00564
2369.19793,0.00562
2367.13776,0.00706
2365.07759,0.00870
2363.01742,0.00859
2360.95725,0.00787
2358.89707,0.00801
2356.83690,0.00787
2354.77673,0.00694
2352.71656,0.00641
2350.65639,0.00669
2348.59621,0.00715
2346.53604,0.00714
2344.47587,0.00655
2342.41570,0.00599
2340.35552,0.00607
2338.29535,0.00653
2336.23518,0.00672
2334.17501,0.00663
2332.11484,0.00685
2330.05466,0.00772
2327.99449,0.00880
2325.93432,0.00917
2323.87415,0.00836
2321.81398,0.00721
2319.75380,0.00660
2317.69363,0.00625
2315.63346,0.00611
2313.57329,0.00650
2311.51312,0.00679
2309.45294,0.00639
2307.39277,0.00575
2305.33260,0.00550
2303.27243,0.00552
2301.21225,0.00552
2299.15208,0.00545
2297.09191,0.00532
2295.03174,0.00525
2292.97157,0.00535
2290.91139,0.00540
2288.85122,0.00518
2286.79105,0.00482
2284.73088,0.00448
2282.67071,0.00415
2280.61053,0.00397
2278.55036,0.00417
2276.49019,0.00456
2274.43002,0.00468
2272.36984,0.00438
2270.30967,0.00413
2268.24950,0.00436
2266.18933,0.00455
2264.12916,0.00403
2262.06898,0.00328
2260.00881,0.00340
2257.94864,0.00424
2255.88847,0.00443
2253.82830,0.00397
2251.76812,0.00391
2249.70795,0.00392
2247.64778,0.00368
2245.58761,0.00420
2243.52744,0.00476
2241.46726,0.00442
2239.40709,0.00418
2237.34692,0.00435
2235.28675,0.00454
2233.22657,0.00447
2231.16640,0.00391
2229.10623,0.00376
2227.04606,0.00428
2224.98589,0.00436
2222.92571,0.00373
2220.86554,0.00294
2218.80537,0.00253
2216.74520,0.00249
2214.68503,0.00240
2212.62485,0.00269
2210.56468,0.00344
2208.50451,0.00405
2206.44434,0.00427
2204.38417,0.00386
2202.32399,0.00363
2200.26382,0.00397
2198.20365,0.00390
2196.14348,0.00348
2194.08330,0.00387
2192.02313,0.00494
2189.96296,0.00513
2187.90279,0.00460
2185.84262,0.00419
2183.78244,0.00348
2181.72227,0.00300
2179.66210,0.00285
2177.60193,0.00212
2175.54176,0.00143
2173.48158,0.00128
2171.42141,0.00154
2169.36124,0.00305
2167.30107,0.00508
2165.24089,0.00511
2163.18072,0.00338
2161.12055,0.00216
2159.06038,0.00155
2157.00021,0.00105
2154.94003,0.00124
2152.87986,0.00190
2150.81969,0.00233
2148.75952,0.00219
2146.69935,0.00184
2144.63917,0.00191
2142.57900,0.00261
2140.51883,0.00317
2138.45866,0.00298
2136.39849,0.00281
2134.33831,0.00299
2132.27814,0.00319
2130.21797,0.00318
2128.15780,0.00300
2126.09762,0.00316
2124.03745,0.00360
2121.97728,0.00388
2119.91711,0.00388
2117.85694,0.00399
2115.79676,0.00419
2113.73659,0.00393
2111.67642,0.00367
2109.61625,0.00399
2107.55608,0.00439
2105.49590,0.00439
2103.43573,0.00421
2101.37556,0.00411
2099.31539,0.00400
2097.25521,0.00399
2095.19504,0.00416
2093.13487,0.00422
2091.07470,0.00408
2089.01453,0.00411
2086.95435,0.00428
2084.89418,0.00420
2082.83401,0.00383
2080.77384,0.00366
2078.71367,0.00376
2076.65349,0.00390
2074.59332,0.00445
2072.53315,0.00513
2070.47298,0.00474
2068.41281,0.00327
2066.35263,0.00207
2064.29246,0.00192
2062.23229,0.00285
2060.17212,0.00406
2058.11194,0.00433
2056.05177,0.00375
2053.99160,0.00341
2051.93143,0.00332
2049.87126,0.00278
2047.81108,0.00222
2045.75091,0.00228
2043.69074,0.00247
2041.63057,0.00288
2039.57040,0.00365
2037.51022,0.00346
2035.45005,0.00236
2033.38988,0.00180
2031.32971,0.00109
2029.26954,0.00000
2027.20936,0.00058
2025.14919,0.00230
2023.08902,0.00247
2021.02885,0.00197
2018.96867,0.00273
2016.90850,0.00362
2014.84833,0.00419
2012.78816,0.00506
2010.72799,0.00497
2008.66781,0.00341
2006.60764,0.00203
2004.54747,0.00175
2002.48730,0.00240
2000.42713,0.00347
1998.36695,0.00417
1996.30678,0.00393
1994.24661,0.00272
1992.18644,0.00176
1990.12626,0.00219
1988.06609,0.00322
1986.00592,0.00356
1983.94575,0.00312
1981.88558,0.00249
1979.82540,0.00213
1977.76523,0.00227
1975.70506,0.00248
1973.64489,0.00218
1971.58472,0.00170
1969.52454,0.00161
1967.46437,0.00190
1965.40420,0.00203
1963.34403,0.00157
1961.28386,0.00121
1959.22368,0.00179
1957.16351,0.00276
1955.10334,0.00325
1953.04317,0.00317
1950.98299,0.00266
1948.92282,0.00182
1946.86265,0.00099
1944.80248,0.00082
1942.74231,0.00152
1940.68213,0.00224
1938.62196,0.00209
1936.56179,0.00168
1934.50162,0.00184
1932.44145,0.00210
1930.38127,0.00185
1928.32110,0.00141
1926.26093,0.00117
1924.20076,0.00118
1922.14059,0.00134
1920.08041,0.00151
1918.02024,0.00194
1915.96007,0.00262
1913.89990,0.00279
1911.83972,0.00209
1909.77955,0.00124
1907.71938,0.00103
1905.65921,0.00130
1903.59904,0.00160
1901.53886,0.00183
1899.47869,0.00200
1897.41852,0.00200
1895.35835,0.00187
1893.29818,0.00195
1891.23800,0.00233
1889.17783,0.00242
1887.11766,0.00204
1885.05749,0.00184
1882.99731,0.00207
1880.93714,0.00222
1878.87697,0.00195
1876.81680,0.00150
1874.75663,0.00126
1872.69645,0.00127
1870.63628,0.00135
1868.57611,0.00143
1866.51594,0.00160
1864.45577,0.00185
1862.39559,0.00205
1860.33542,0.00208
1858.27525,0.00198
1856.21508,0.00181
1854.15491,0.00154
1852.09473,0.00127
1850.03456,0.00106
1847.97439,0.00093
1845.91422,0.00089
1843.85404,0.00089
1841.79387,0.00101
1839.73370,0.00123
1837.67353,0.00142
1835.61336,0.00142
1833.55318,0.00119
1831.49301,0.00092
1829.43284,0.00082
1827.37267,0.00091
1825.31250,0.00104
1823.25232,0.00108
1821.19215,0.00093
1819.13198,0.00058
1817.07181,0.00038
1815.01163,0.00052
1812.95146,0.00076
1810.89129,0.00094
1808.83112,0.00114
1806.77095,0.00128
1804.71077,0.00128
1802.65060,0.00119
1800.59043,0.00106
1798.53026,0.00096
1796.47009,0.00093
1794.40991,0.00093
1792.34974,0.00090
1790.28957,0.00094
1788.22940,0.00108
1786.16923,0.00116
1784.10905,0.00110
1782.04888,0.00095
1779.98871,0.00087
1777.92854,0.00093
1775.86836,0.00094
1773.80819,0.00071
1771.74802,0.00047
1769.68785,0.00062
1767.62768,0.00098
1765.56750,0.00116
1763.50733,0.00119
1761.44716,0.00137
1759.38699,0.00179
1757.32682,0.00218
1755.26664,0.00246
1753.20647,0.00274
1751.14630,0.00315
1749.08613,0.00365
1747.02596,0.00413
1744.96578,0.00434
1742.90561,0.00429
1740.84544,0.00436
1738.78527,0.00474
1736.72509,0.00520
1734.66492,0.00548
1732.60475,0.00551
1730.54458,0.00544
1728.48441,0.00527
1726.42423,0.00499
1724.36406,0.00476
1722.30389,0.00471
1720.24372,0.00478
1718.18355,0.00477
1716.12337,0.00459
1714.06320,0.00427
1712.00303,0.00393
1709.94286,0.00361
1707.88268,0.00335
1705.82251,0.00321
1703.76234,0.00320
1701.70217,0.00312
1699.64200,0.00274
1697.58182,0.00236
1695.52165,0.00237
1693.46148,0.00271
1691.40131,0.00313
1689.34114,0.00349
1687.28096,0.00369
1685.22079,0.00367
1683.16062,0.00378
1681.10045,0.00420
1679.04028,0.00464
1676.98010,0.00499
1674.91993,0.00532
1672.85976,0.00559
1670.79959,0.00582
1668.73941,0.00612
1666.67924,0.00642
1664.61907,0.00671
1662.55890,0.00716
1660.49873,0.00778
1658.43855,0.00830
1656.37838,0.00853
1654.31821,0.00858
1652.25804,0.00878
1650.19787,0.00910
1648.13769,0.00933
1646.07752,0.00966
1644.01735,0.01013
1641.95718,0.01046
1639.89701,0.01060
1637.83683,0.01066
1635.77666,0.01073
1633.71649,0.01087
1631.65632,0.01107
1629.59614,0.01114
1627.53597,0.01103
1625.47580,0.01096
1623.41563,0.01109
1621.35546,0.01123
1619.29528,0.01122
1617.23511,0.01113
1615.17494,0.01111
1613.11477,0.01115
1611.05460,0.01111
1608.99442,0.01099
1606.93425,0.01081
1604.87408,0.01056
1602.81391,0.01020
1600.75373,0.00966
1598.69356,0.00894
1596.63339,0.00823
1594.57322,0.00769
1592.51305,0.00725
1590.45287,0.00673
1588.39270,0.00620
1586.33253,0.00575
1584.27236,0.00536
1582.21219,0.00494
1580.15201,0.00444
1578.09184,0.00383
1576.03167,0.00323
1573.97150,0.00293
1571.91133,0.00282
1569.85115,0.00263
1567.79098,0.00235
1565.73081,0.00202
1563.67064,0.00171
1561.61046,0.00137
1559.55029,0.00089
1557.49012,0.00067
1555.42995,0.00092
1553.36978,0.00120
1551.30960,0.00134
1549.24943,0.00140
1547.18926,0.00144
1545.12909,0.00140
1543.06892,0.00105
1541.00874,0.00049
1538.94857,0.00033
1536.88840,0.00061
1534.82823,0.00084
1532.76805,0.00082
1530.70788,0.00077
1528.64771,0.00081
1526.58754,0.00072
1524.52737,0.00041
1522.46719,0.00010
1520.40702,0.00000
1518.34685,0.00012
1516.28668,0.00035
1514.22651,0.00062
1512.16633,0.00089
1510.10616,0.00110
1508.04599,0.00104
1505.98582,0.00068
1503.92565,0.00058
1501.86547,0.00073
1499.80530,0.00078
1497.74513,0.00070
1495.68496,0.00073
1493.62478,0.00086
1491.56461,0.00086
1489.50444,0.00075
1487.44427,0.00080
1485.38410,0.00105
1483.32392,0.00130
1481.26375,0.00147
1479.20358,0.00172
1477.14341,0.00211
1475.08324,0.00249
1473.02306,0.00276
1470.96289,0.00307
1468.90272,0.00352
1466.84255,0.00402
1464.78238,0.00447
1462.72220,0.00485
1460.66203,0.00506
1458.60186,0.00507
1456.54169,0.00517
1454.48151,0.00549
1452.42134,0.00578
1450.36117,0.00596
1448.30100,0.00609
1446.24083,0.00622
1444.18065,0.00637
1442.12048,0.00654
1440.06031,0.00677
1438.00014,0.00712
1435.93997,0.00752
1433.87979,0.00782
1431.81962,0.00806
1429.75945,0.00830
1427.69928,0.00853
1425.63910,0.00871
1423.57893,0.00891
1421.51876,0.00914
1419.45859,0.00942
1417.39842,0.00964
1415.33824,0.00968
1413.27807,0.00957
1411.21790,0.00948
1409.15773,0.00945
1407.09756,0.00939
1405.03738,0.00917
1402.97721,0.00879
1400.91704,0.00840
1398.85687,0.00814
1396.79670,0.00798
1394.73652,0.00783
1392.67635,0.00780
1390.61618,0.00793
1388.55601,0.00809
1386.49583,0.00819
1384.43566,0.00828
1382.37549,0.00842
1380.31532,0.00861
1378.25515,0.00877
1376.19497,0.00885
1374.13480,0.00892
1372.07463,0.00904
1370.01446,0.00912
1367.95429,0.00909
1365.89411,0.00905
1363.83394,0.00900
1361.77377,0.00888
1359.71360,0.00877
1357.65343,0.00871
1355.59325,0.00859
1353.53308,0.00842
1351.47291,0.00829
1349.41274,0.00817
1347.35256,0.00795
1345.29239,0.00764
1343.23222,0.00741
1341.17205,0.00746
1339.11188,0.00765
1337.05170,0.00773
1334.99153,0.00767
1332.93136,0.00760
1330.87119,0.00749
1328.81102,0.00741
1326.75084,0.00750
1324.69067,0.00768
1322.63050,0.00776
1320.57033,0.00775
1318.51015,0.00776
1316.44998,0.00779
1314.38981,0.00778
1312.32964,0.00775
1310.26947,0.00777
1308.20929,0.00779
1306.14912,0.00760
1304.08895,0.00725
1302.02878,0.00698
1299.96861,0.00688
1297.90843,0.00682
1295.84826,0.00674
1293.78809,0.00660
1291.72792,0.00640
1289.66775,0.00624
1287.60757,0.00614
1285.54740,0.00610
1283.48723,0.00610
1281.42706,0.00614
1279.36688,0.00618
1277.30671,0.00626
1275.24654,0.00643
1273.18637,0.00670
1271.12620,0.00698
1269.06602,0.00718
1267.00585,0.00737
1264.94568,0.00764
1262.88551,0.00805
1260.82534,0.00850
1258.76516,0.00878
1256.70499,0.00892
1254.64482,0.00914
1252.58465,0.00941
1250.52447,0.00944
1248.46430,0.00932
1246.40413,0.00941
1244.34396,0.00957
1242.28379,0.00942
1240.22361,0.00909
1238.16344,0.00887
1236.10327,0.00866
1234.04310,0.00835
1231.98293,0.00798
1229.92275,0.00766
1227.86258,0.00740
1225.80241,0.00709
1223.74224,0.00669
1221.68207,0.00634
1219.62189,0.00608
1217.56172,0.00582
1215.50155,0.00552
1213.44138,0.00511
1211.38120,0.00456
1209.32103,0.00398
1207.26086,0.00353
1205.20069,0.00306
1203.14052,0.00246
1201.08034,0.00180
1199.02017,0.00123
1196.96000,0.00083
1194.89983,0.00055
1192.83966,0.00031
1190.77948,0.00013
1188.71931,0.00000
1186.65914,-0.00010
1184.59897,0.00004
1182.53880,0.00035
1180.47862,0.00073
1178.41845,0.00120
1176.35828,0.00173
1174.29811,0.00228
1172.23793,0.00297
1170.17776,0.00375
1168.11759,0.00447
1166.05742,0.00516
1163.99725,0.00581
1161.93707,0.00645
1159.87690,0.00702
1157.81673,0.00751
1155.75656,0.00812
1153.69639,0.00881
1151.63621,0.00941
1149.57604,0.00990
1147.51587,0.01030
1145.45570,0.01065
1143.39552,0.01105
1141.33535,0.01140
1139.27518,0.01159
1137.21501,0.01179
1135.15484,0.01207
1133.09466,0.01239
1131.03449,0.01284
1128.97432,0.01351
1126.91415,0.01423
1124.85398,0.01485
1122.79380,0.01550
1120.73363,0.01634
1118.67346,0.01702
1116.61329,0.01749
1114.55312,0.01808
1112.49294,0.01879
1110.43277,0.01935
1108.37260,0.01977
1106.31243,0.02029
1104.25225,0.02105
1102.19208,0.02197
1100.13191,0.02295
1098.07174,0.02398
1096.01157,0.02505
1093.95139,0.02609
1091.89122,0.02705
1089.83105,0.02795
1087.77088,0.02883
1085.71071,0.02963
1083.65053,0.03035
1081.59036,0.03118
1079.53019,0.03210
1077.47002,0.03293
1075.40985,0.03370
1073.34967,0.03448
1071.28950,0.03516
1069.22933,0.03576
1067.16916,0.03631
1065.10898,0.03679
1063.04881,0.03719
1060.98864,0.03758
1058.92847,0.03802
1056.86830,0.03848
1054.80812,0.03893
1052.74795,0.03939
1050.68778,0.03987
1048.62761,0.04033
1046.56744,0.04084
1044.50726,0.04153
1042.44709,0.04230
1040.38692,0.04285
1038.32675,0.04305
1036.26657,0.04309
1034.20640,0.04303
1032.14623,0.04286
1030.08606,0.04264
1028.02589,0.04248
1025.96571,0.04236
1023.90554,0.04228
1021.84537,0.04220
1019.78520,0.04212
1017.72503,0.04206
1015.66485,0.04190
1013.60468,0.04151
1011.54451,0.04108
1009.48434,0.04066
1007.42417,0.04024
1005.36399,0.03981
1003.30382,0.03914
1001.24365,0.03817
999.18348,0.03720
997.12330,0.03640
995.06313,0.03580
993.00296,0.03532
990.94279,0.03483
988.88262,0.03430
986.82244,0.03390
984.76227,0.03362
982.70210,0.03314
980.64193,0.03260
978.58176,0.03216
976.52158,0.03153
974.46141,0.03077
972.40124,0.03017
970.34107,0.02961
968.28089,0.02885
966.22072,0.02801
964.16055,0.02738
962.10038,0.02683
960.04021,0.02612
957.98003,0.02544
955.91986,0.02503
953.85969,0.02464
951.79952,0.02397
949.73935,0.02320
947.67917,0.02238
945.61900,0.02132
943.55883,0.02026
941.49866,0.01920
939.43849,0.01779
937.37831,0.01624
935.31814,0.01482
933.25797,0.01335
931.19780,0.01210
929.13762,0.01123
927.07745,0.01043
925.01728,0.00973
922.95711,0.00918
920.89694,0.00863
918.83676,0.00818
916.77659,0.00789
914.71642,0.00760
912.65625,0.00722
910.59608,0.00679
908.53590,0.00640
906.47573,0.00618
904.41556,0.00624
902.35539,0.00656
900.29522,0.00692
898.23504,0.00728
896.17487,0.00768
894.11470,0.00788
892.05453,0.00778
889.99435,0.00767
887.93418,0.00758
885.87401,0.00747
883.81384,0.00731
881.75367,0.00706
879.69349,0.00689
877.63332,0.00670
875.57315,0.00653
873.51298,0.00677
871.45281,0.00719
869.39263,0.00737
867.33246,0.00717
865.27229,0.00674
863.21212,0.00642
861.15194,0.00621
859.09177,0.00599
857.03160,0.00607
854.97143,0.00638
852.91126,0.00621
850.85108,0.00560
848.79091,0.00521
846.73074,0.00500
844.67057,0.00455
842.61040,0.00403
840.55022,0.00364
838.49005,0.00312
836.42988,0.00236
834.36971,0.00167
832.30954,0.00115
830.24936,0.00066
828.18919,0.00023
826.12902,0.00000
824.06885,0.00000
822.00867,-0.00006
819.94850,-0.00027
817.88833,-0.00026
815.82816,0.00009
813.76799,0.00044
811.70781,0.00064
809.64764,0.00075
807.58747,0.00068
805.52730,0.00034
803.46713,0.00000
801.40695,-0.00020
799.34678,-0.00012
797.28661,-0.00005
795.22644,-0.00033
793.16627,-0.00030
791.10609,0.00023
789.04592,0.00037
786.98575,0.00010
784.92558,-0.00022
782.86540,-0.00046
780.80523,-0.00025
778.74506,0.00006
776.68489,-0.00004
774.62472,-0.00007
772.56454,0.00009
770.50437,0.00016
768.44420,0.00042
766.38403,0.00074
764.32386,0.00063
762.26368,0.00019
760.20351,-0.00018
758.14334,-0.00012
756.08317,0.00023
754.02299,0.00048
751.96282,0.00071
749.90265,0.00088
747.84248,0.00072
745.78231,0.00057
743.72213,0.00056
741.66196,0.00018
739.60179,-0.00041
737.54162,-0.00050
735.48145,-0.00018
733.42127,0.00013
731.36110,0.00074
729.30093,0.00134
727.24076,0.00128
725.18059,0.00099
723.12041,0.00080
721.06024,0.00057
719.00007,0.00066
716.93990,0.00112
714.87972,0.00151
712.81955,0.00157
710.75938,0.00163
708.69921,0.00190
706.63904,0.00222
704.57886,0.00242
702.51869,0.00228
700.45852,0.00173
698.39835,0.00106
696.33818,0.00083
694.27800,0.00136
692.21783,0.00209
690.15766,0.00233
688.09749,0.00207
686.03731,0.00159
683.97714,0.00113
681.91697,0.00085
679.85680,0.00078
677.79663,0.00111
675.73645,0.00165
673.67628,0.00170
671.61611,0.00105
669.55594,0.00002
667.49577,-0.00058
665.43559,-0.00019
663.37542,0.00092
661.31525,0.00173
659.25508,0.00195
657.19491,0.00218
655.13473,0.00271
653.07456,0.00300
651.01439,0.00272
648.95422,0.00220
646.89404,0.00121
644.83387,0.00000
642.77370,-0.00030
640.71353,0.00023
638.65336,0.00055
636.59318,0.00049
634.53301,0.00033
632.47284,0.00011
630.41267,0.00003
628.35250,0.00051
626.29232,0.00126
624.23215,0.00123
622.17198,0.00118
620.11181,0.00224
618.05164,0.00290
615.99146,0.00198
613.93129,0.00140
611.87112,0.00127
609.81095,0.00088
607.75077,0.00021
605.69060,-0.00166
603.63043,-0.00324
601.57026,-0.00193
599.51009,0.00000
