3996.73391,0.00107
3994.67373,0.00050
3992.61356,0.00029
3990.55339,0.00062
3988.49322,0.00126
3986.43305,0.00161
3984.37287,0.00117
3982.31270,0.00055
3980.25253,0.00050
3978.19236,0.00068
3976.13219,0.00048
3974.07201,0.00021
3972.01184,0.00048
3969.95167,0.00097
3967.89150,0.00106
3965.83133,0.00084
3963.77115,0.00072
3961.71098,0.00077
3959.65081,0.00083
3957.59064,0.00106
3955.53046,0.00147
3953.47029,0.00143
3951.41012,0.00069
3949.34995,-0.00002
3947.28978,0.00000
3945.22960,0.00040
3943.16943,0.00058
3941.10926,0.00064
3939.04909,0.00093
3936.98892,0.00111
3934.92874,0.00090
3932.86857,0.00091
3930.80840,0.00140
3928.74823,0.00174
3926.68805,0.00163
3924.62788,0.00160
3922.56771,0.00210
3920.50754,0.00276
3918.44737,0.00308
3916.38719,0.00308
3914.32702,0.00287
3912.26685,0.00253
3910.20668,0.00222
3908.14651,0.00201
3906.08633,0.00170
3904.02616,0.00122
3901.96599,0.00062
3899.90582,-0.00002
3897.84565,0.00000
3895.78547,0.00083
3893.72530,0.00186
3891.66513,0.00258
3889.60496,0.00273
3887.54478,0.00257
3885.48461,0.00289
3883.42444,0.00369
3881.36427,0.00412
3879.30410,0.00379
3877.24392,0.00296
3875.18375,0.00205
3873.12358,0.00152
3871.06341,0.00168
3869.00324,0.00230
3866.94306,0.00262
3864.88289,0.00232
3862.82272,0.00189
3860.76255,0.00173
3858.70237,0.00157
3856.64220,0.00133
3854.58203,0.00133
3852.52186,0.00161
3850.46169,0.00198
3848.40151,0.00249
3846.34134,0.00288
3844.28117,0.00278
3842.22100,0.00211
3840.16083,0.00121
3838.10065,0.00069
3836.04048,0.00100
3833.98031,0.00181
3831.92014,0.00239
3829.85997,0.00258
3827.79979,0.00274
3825.73962,0.00287
3823.67945,0.00259
3821.61928,0.00200
3819.55910,0.00138
3817.49893,0.00042
3815.43876,0.00001
3813.37859,0.00128
3811.31842,0.00285
3809.25824,0.00331
3807.19807,0.00262
3805.13790,0.00146
3803.07773,0.00103
3801.01756,0.00180
3798.95738,0.00259
3796.89721,0.00240
3794.83704,0.00180
3792.77687,0.00149
3790.71670,0.00146
3788.65652,0.00135
3786.59635,0.00105
3784.53618,0.00123
3782.47601,0.00218
3780.41583,0.00295
3778.35566,0.00314
3776.29549,0.00332
3774.23532,0.00336
3772.17515,0.00275
3770.11497,0.00174
3768.05480,0.00110
3765.99463,0.00144
3763.93446,0.00252
3761.87429,0.00298
3759.81411,0.00227
3757.75394,0.00186
3755.69377,0.00239
3753.63360,0.00237
3751.57342,0.00111
3749.51325,0.00000
3747.45308,0.00016
3745.39291,0.00054
3743.33274,0.00035
3741.27256,0.00024
3739.21239,0.00038
3737.15222,0.00067
3735.09205,0.00127
3733.03188,0.00173
3730.97170,0.00172
3728.91153,0.00191
3726.85136,0.00230
3724.79119,0.00213
3722.73102,0.00142
3720.67084,0.00085
3718.61067,0.00073
3716.55050,0.00104
3714.49033,0.00192
3712.43015,0.00318
3710.36998,0.00339
3708.30981,0.00223
3706.24964,0.00107
3704.18947,0.00063
3702.12929,0.00102
3700.06912,0.00182
3698.00895,0.00211
3695.94878,0.00158
3693.88861,0.00082
3691.82843,0.00038
3689.76826,0.00026
3687.70809,0.00085
3685.64792,0.00215
3683.58775,0.00299
3681.52757,0.00275
3679.46740,0.00185
3677.40723,0.00104
3675.34706,0.00102
3673.28688,0.00188
3671.22671,0.00245
3669.16654,0.00213
3667.10637,0.00148
3665.04620,0.00120
3662.98602,0.00161
3660.92585,0.00260
3658.86568,0.00347
3656.80551,0.00362
3654.74534,0.00329
3652.68516,0.00301
3650.62499,0.00249
3648.56482,0.00189
3646.50465,0.00228
3644.44447,0.00309
3642.38430,0.00333
3640.32413,0.00330
3638.26396,0.00368
3636.20379,0.00422
3634.14361,0.00404
3632.08344,0.00308
3630.02327,0.00267
3627.96310,0.00384
3625.90293,0.00531
3623.84275,0.00556
3621.78258,0.00478
3619.72241,0.00394
3617.66224,0.00365
3615.60207,0.00328
3613.54189,0.00250
3611.48172,0.00220
3609.42155,0.00288
3607.36138,0.00415
3605.30120,0.00518
3603.24103,0.00540
3601.18086,0.00525
3599.12069,0.00550
3597.06052,0.00639
3595.00034,0.00756
3592.94017,0.00858
3590.88000,0.00863
3588.81983,0.00776
3586.75966,0.00750
3584.69948,0.00816
3582.63931,0.00842
3580.57914,0.00849
3578.51897,0.00893
3576.45879,0.00934
3574.39862,0.00968
3572.33845,0.01030
3570.27828,0.01079
3568.21811,0.01059
3566.15793,0.00999
3564.09776,0.00987
3562.03759,0.01077
3559.97742,0.01231
3557.91725,0.01356
3555.85707,0.01431
3553.79690,0.01492
3551.73673,0.01518
3549.67656,0.01482
3547.61639,0.01445
3545.55621,0.01479
3543.49604,0.01581
3541.43587,0.01679
3539.37570,0.01722
3537.31552,0.01710
3535.25535,0.01681
3533.19518,0.01677
3531.13501,0.01696
3529.07484,0.01726
3527.01466,0.01762
3524.95449,0.01797
3522.89432,0.01842
3520.83415,0.01934
3518.77398,0.02032
3516.71380,0.02069
3514.65363,0.02078
3512.59346,0.02110
3510.53329,0.02146
3508.47312,0.02179
3506.41294,0.02233
3504.35277,0.02281
3502.29260,0.02315
3500.23243,0.02372
3498.17225,0.02453
3496.11208,0.02518
3494.05191,0.02531
3491.99174,0.02524
3489.93157,0.02538
3487.87139,0.02582
3485.81122,0.02664
3483.75105,0.02769
3481.69088,0.02837
3479.63071,0.02850
3477.57053,0.02853
3475.51036,0.02882
3473.45019,0.02909
3471.39002,0.02890
3469.32984,0.02875
3467.26967,0.02939
3465.20950,0.03030
3463.14933,0.03079
3461.08916,0.03137
3459.02898,0.03218
3456.96881,0.03269
3454.90864,0.03332
3452.84847,0.03411
3450.78830,0.03412
3448.72812,0.03375
3446.66795,0.03393
3444.60778,0.03446
3442.54761,0.03502
3440.48744,0.03573
3438.42726,0.03657
3436.36709,0.03716
3434.30692,0.03725
3432.24675,0.03697
3430.18657,0.03687
3428.12640,0.03754
3426.06623,0.03864
3424.00606,0.03935
3421.94589,0.03929
3419.88571,0.03879
3417.82554,0.03839
3415.76537,0.03849
3413.70520,0.03918
3411.64503,0.04004
3409.58485,0.04067
3407.52468,0.04075
3405.46451,0.04072
3403.40434,0.04158
3401.34416,0.04287
3399.28399,0.04340
3397.22382,0.04314
3395.16365,0.04308
3393.10348,0.04363
3391.04330,0.04426
3388.98313,0.04447
3386.92296,0.04456
3384.86279,0.04471
3382.80262,0.04478
3380.74244,0.04480
3378.68227,0.04480
3376.62210,0.04493
3374.56193,0.04544
3372.50176,0.04616
3370.44158,0.04655
3368.38141,0.04647
3366.32124,0.04643
3364.26107,0.04664
3362.20089,0.04687
3360.14072,0.04697
3358.08055,0.04677
3356.02038,0.04641
3353.96021,0.04651
3351.90003,0.04731
3349.83986,0.04828
3347.77969,0.04861
3345.71952,0.04832
3343.65935,0.04822
3341.59917,0.04855
3339.53900,0.04876
3337.47883,0.04860
3335.41866,0.04842
3333.35849,0.04847
3331.29831,0.04854
3329.23814,0.04849
3327.17797,0.04836
3325.11780,0.04826
3323.05762,0.04823
3320.99745,0.04837
3318.93728,0.04878
3316.87711,0.04926
3314.81694,0.04948
3312.75676,0.04961
3310.69659,0.04978
3308.63642,0.04959
3306.57625,0.04913
3304.51608,0.04897
3302.45590,0.04914
3300.39573,0.04951
3298.33556,0.05019
3296.27539,0.05074
3294.21521,0.05035
3292.15504,0.04951
3290.09487,0.04966
3288.03470,0.05050
3285.97453,0.05067
3283.91435,0.05024
3281.85418,0.05009
3279.79401,0.05022
3277.73384,0.05033
3275.67367,0.05038
3273.61349,0.05025
3271.55332,0.05019
3269.49315,0.05036
3267.43298,0.05052
3265.37281,0.05029
3263.31263,0.04962
3261.25246,0.04927
3259.19229,0.04945
3257.13212,0.04947
3255.07194,0.04924
3253.01177,0.04910
3250.95160,0.04913
3248.89143,0.04944
3246.83126,0.04989
3244.77108,0.05012
3242.71091,0.05014
3240.65074,0.04996
3238.59057,0.04965
3236.53040,0.04953
3234.47022,0.04943
3232.41005,0.04913
3230.34988,0.04909
3228.28971,0.04951
3226.22954,0.04971
3224.16936,0.04939
3222.10919,0.04909
3220.04902,0.04882
3217.98885,0.04830
3215.92867,0.04797
3213.86850,0.04789
3211.80833,0.04765
3209.74816,0.04708
3207.68799,0.04640
3205.62781,0.04622
3203.56764,0.04666
3201.50747,0.04721
3199.44730,0.04747
3197.38713,0.04723
3195.32695,0.04673
3193.26678,0.04647
3191.20661,0.04644
3189.14644,0.04639
3187.08626,0.04600
3185.02609,0.04535
3182.96592,0.04498
3180.90575,0.04484
3178.84558,0.04446
3176.78540,0.04374
3174.72523,0.04299
3172.66506,0.04289
3170.60489,0.04337
3168.54472,0.04344
3166.48454,0.04312
3164.42437,0.04314
3162.36420,0.04323
3160.30403,0.04280
3158.24386,0.04207
3156.18368,0.04155
3154.12351,0.04128
3152.06334,0.04101
3150.00317,0.04079
3147.94299,0.04084
3145.88282,0.04121
3143.82265,0.04153
3141.76248,0.04119
3139.70231,0.04028
3137.64213,0.03971
3135.58196,0.03954
3133.52179,0.03910
3131.46162,0.03849
3129.40145,0.03813
3127.34127,0.03798
3125.28110,0.03798
3123.22093,0.03790
3121.16076,0.03743
3119.10058,0.03669
3117.04041,0.03625
3114.98024,0.03641
3112.92007,0.03686
3110.85990,0.03698
3108.79972,0.03647
3106.73955,0.03573
3104.67938,0.03528
3102.61921,0.03536
3100.55904,0.03573
3098.49886,0.03559
3096.43869,0.03474
3094.37852,0.03396
3092.31835,0.03365
3090.25818,0.03355
3088.19800,0.03342
3086.13783,0.03336
3084.07766,0.03356
3082.01749,0.03351
3079.95731,0.03294
3077.89714,0.03251
3075.83697,0.03249
3073.77680,0.03241
3071.71663,0.03214
3069.65645,0.03187
3067.59628,0.03160
3065.53611,0.03117
3063.47594,0.03049
3061.41577,0.02971
3059.35559,0.02926
3057.29542,0.02935
3055.23525,0.02962
3053.17508,0.02971
3051.11491,0.02955
3049.05473,0.02903
3046.99456,0.02840
3044.93439,0.02821
3042.87422,0.02840
3040.81404,0.02854
3038.75387,0.02821
3036.69370,0.02746
3034.63353,0.02666
3032.57336,0.02619
3030.51318,0.02629
3028.45301,0.02657
3026.39284,0.02657
3024.33267,0.02630
3022.27250,0.02602
3020.21232,0.02586
3018.15215,0.02598
3016.09198,0.02639
3014.03181,0.02654
3011.97163,0.02621
3009.91146,0.02561
3007.85129,0.02497
3005.79112,0.02458
3003.73095,0.02440
3001.67077,0.02413
2999.61060,0.02377
2997.55043,0.02380
2995.49026,0.02418
2993.43009,0.02414
2991.36991,0.02358
2989.30974,0.02321
2987.24957,0.02339
2985.18940,0.02366
2983.12923,0.02400
2981.06905,0.02452
2979.00888,0.02489
2976.94871,0.02518
2974.88854,0.02558
2972.82836,0.02597
2970.76819,0.02623
2968.70802,0.02683
2966.64785,0.02808
2964.58768,0.02931
2962.52750,0.03014
2960.46733,0.03099
2958.40716,0.03235
2956.34699,0.03403
2954.28682,0.03534
2952.22664,0.03657
2950.16647,0.03829
2948.10630,0.04055
2946.04613,0.04318
2943.98596,0.04546
2941.92578,0.04719
2939.86561,0.04900
2937.80544,0.05097
2935.74527,0.05301
2933.68509,0.05518
2931.62492,0.05742
2929.56475,0.05934
2927.50458,0.06098
2925.44441,0.06254
2923.38423,0.06364
2921.32406,0.06431
2919.26389,0.06485
2917.20372,0.06470
2915.14355,0.06324
2913.08337,0.06081
2911.02320,0.05827
2908.96303,0.05620
2906.90286,0.05448
2904.84268,0.05297
2902.78251,0.05168
2900.72234,0.05034
2898.66217,0.04905
2896.60200,0.04798
2894.54182,0.04671
2892.48165,0.04531
2890.42148,0.04416
2888.36131,0.04323
2886.30114,0.04252
2884.24096,0.04209
2882.18079,0.04161
2880.12062,0.04097
2878.06045,0.04080
2876.00028,0.04133
2873.94010,0.04201
2871.87993,0.04225
2869.81976,0.04211
2867.75959,0.04213
2865.69941,0.04272
2863.63924,0.04401
2861.57907,0.04568
2859.51890,0.04733
2857.45873,0.04881
2855.39855,0.05013
2853.33838,0.05126
2851.27821,0.05214
2849.21804,0.05209
2847.15787,0.05030
2845.09769,0.04726
2843.03752,0.04404
2840.97735,0.04145
2838.91718,0.03976
2836.85700,0.03827
2834.79683,0.03662
2832.73666,0.03539
2830.67649,0.03466
2828.61632,0.03391
2826.55614,0.03313
2824.49597,0.03256
2822.43580,0.03209
2820.37563,0.03150
2818.31546,0.03081
2816.25528,0.03017
2814.19511,0.02961
2812.13494,0.02935
2810.07477,0.02930
2808.01460,0.02909
2805.95442,0.02883
2803.89425,0.02858
2801.83408,0.02811
2799.77391,0.02764
2797.71373,0.02742
2795.65356,0.02725
2793.59339,0.02710
2791.53322,0.02705
2789.47305,0.02692
2787.41287,0.02669
2785.35270,0.02647
2783.29253,0.02617
2781.23236,0.02600
2779.17219,0.02609
2777.11201,0.02596
2775.05184,0.02556
2772.99167,0.02523
2770.93150,0.02507
2768.87133,0.02503
2766.81115,0.02491
2764.75098,0.02482
2762.69081,0.02487
2760.63064,0.02478
2758.57046,0.02456
2756.51029,0.02420
2754.45012,0.02377
2752.38995,0.02362
2750.32978,0.02382
2748.26960,0.02399
2746.20943,0.02389
2744.14926,0.02372
2742.08909,0.02352
2740.02892,0.02333
2737.96874,0.02350
2735.90857,0.02379
2733.84840,0.02368
2731.78823,0.02342
2729.72805,0.02347
2727.66788,0.02370
2725.60771,0.02380
2723.54754,0.02363
2721.48737,0.02313
2719.42719,0.02266
2717.36702,0.02265
2715.30685,0.02261
2713.24668,0.02241
2711.18651,0.02257
2709.12633,0.02269
2707.06616,0.02239
2705.00599,0.02239
2702.94582,0.02284
2700.88565,0.02295
2698.82547,0.02269
2696.76530,0.02261
2694.70513,0.02288
2692.64496,0.02300
2690.58478,0.02263
2688.52461,0.02245
2686.46444,0.02261
2684.40427,0.02254
2682.34410,0.02231
2680.28392,0.02209
2678.22375,0.02184
2676.16358,0.02186
2674.10341,0.02209
2672.04324,0.02211
2669.98306,0.02185
2667.92289,0.02161
2665.86272,0.02175
2663.80255,0.02203
2661.74238,0.02210
2659.68220,0.02209
2657.62203,0.02206
2655.56186,0.02178
2653.50169,0.02141
2651.44151,0.02145
2649.38134,0.02162
2647.32117,0.02125
2645.26100,0.02058
2643.20083,0.02018
2641.14065,0.02005
2639.08048,0.02006
2637.02031,0.02022
2634.96014,0.02060
2632.89997,0.02084
2630.83979,0.02049
2628.77962,0.02004
2626.71945,0.02010
2624.65928,0.02042
2622.59910,0.02037
2620.53893,0.01974
2618.47876,0.01919
2616.41859,0.01919
2614.35842,0.01920
2612.29824,0.01895
2610.23807,0.01879
2608.17790,0.01892
2606.11773,0.01922
2604.05756,0.01938
2601.99738,0.01915
2599.93721,0.01903
2597.87704,0.01937
2595.81687,0.01955
2593.75670,0.01914
2591.69652,0.01825
2589.63635,0.01752
2587.57618,0.01749
2585.51601,0.01771
2583.45583,0.01787
2581.39566,0.01823
2579.33549,0.01877
2577.27532,0.01891
2575.21515,0.01836
2573.15497,0.01775
2571.09480,0.01734
2569.03463,0.01667
2566.97446,0.01606
2564.91429,0.01648
2562.85411,0.01765
2560.79394,0.01827
2558.73377,0.01791
2556.67360,0.01706
2554.61342,0.01624
2552.55325,0.01578
2550.49308,0.01572
2548.43291,0.01604
2546.37274,0.01636
2544.31256,0.01620
2542.25239,0.01597
2540.19222,0.01633
2538.13205,0.01695
2536.07188,0.01704
2534.01170,0.01636
2531.95153,0.01527
2529.89136,0.01455
2527.83119,0.01481
2525.77102,0.01569
2523.71084,0.01620
2521.65067,0.01615
2519.59050,0.01630
2517.53033,0.01652
2515.47015,0.01608
2513.40998,0.01570
2511.34981,0.01595
2509.28964,0.01594
2507.22947,0.01554
2505.16929,0.01525
2503.10912,0.01488
2501.04895,0.01439
2498.98878,0.01434
2496.92861,0.01446
2494.86843,0.01399
2492.80826,0.01365
2490.74809,0.01452
2488.68792,0.01571
2486.62775,0.01577
2484.56757,0.01507
2482.50740,0.01410
2480.44723,0.01362
2478.38706,0.01390
2476.32688,0.01393
2474.26671,0.01373
2472.20654,0.01371
2470.14637,0.01375
2468.08620,0.01390
2466.02602,0.01389
2463.96585,0.01366
2461.90568,0.01378
2459.84551,0.01398
2457.78534,0.01418
2455.72516,0.01522
2453.66499,0.01635
2451.60482,0.01625
2449.54465,0.01546
2447.48447,0.01488
2445.42430,0.01472
2443.36413,0.01488
2441.30396,0.01507
2439.24379,0.01512
2437.18361,0.01499
2435.12344,0.01439
2433.06327,0.01389
2431.00310,0.01438
2428.94293,0.01500
2426.88275,0.01464
2424.82258,0.01386
2422.76241,0.01377
2420.70224,0.01440
2418.64207,0.01477
2416.58189,0.01449
2414.52172,0.01364
2412.46155,0.01300
2410.40138,0.01339
2408.34120,0.01397
2406.28103,0.01423
2404.22086,0.01426
2402.16069,0.01383
2400.10052,0.01342
2398.04034,0.01351
2395.98017,0.01370
2393.92000,0.01394
2391.85983,0.01424
2389.79966,0.01438
2387.73948,0.01412
2385.67931,0.01356
2383.61914,0.01325
2381.55897,0.01365
2379.49880,0.01461
2377.43862,0.01545
2375.37845,0.01545
2373.31828,0.01477
2371.25811,0.01487
2369.19793,0.01576
2367.13776,0.01523
2365.07759,0.01298
2363.01742,0.01143
2360.95725,0.01074
2358.89707,0.01053
2356.83690,0.01023
2354.77673,0.01054
2352.71656,0.01136
2350.65639,0.01154
2348.59621,0.01241
2346.53604,0.01415
2344.47587,0.01338
2342.41570,0.01238
2340.35552,0.01327
2338.29535,0.01370
2336.23518,0.01231
2334.17501,0.01082
2332.11484,0.01111
2330.05466,0.01268
2327.99449,0.01452
2325.93432,0.01549
2323.87415,0.01523
2321.81398,0.01385
2319.75380,0.01265
2317.69363,0.01208
2315.63346,0.01206
2313.57329,0.01218
2311.51312,0.01241
2309.45294,0.01281
2307.39277,0.01281
2305.33260,0.01219
2303.27243,0.01194
2301.21225,0.01274
2299.15208,0.01371
2297.09191,0.01388
2295.03174,0.01332
2292.97157,0.01260
2290.91139,0.01218
2288.85122,0.01219
2286.79105,0.01241
2284.73088,0.01254
2282.67071,0.01234
2280.61053,0.01195
2278.55036,0.01175
2276.49019,0.01161
2274.43002,0.01121
2272.36984,0.01103
2270.30967,0.01101
2268.24950,0.01045
2266.18933,0.01000
2264.12916,0.01047
2262.06898,0.01166
2260.00881,0.01280
2257.94864,0.01290
2255.88847,0.01216
2253.82830,0.01147
2251.76812,0.01102
2249.70795,0.01021
2247.64778,0.00897
2245.58761,0.00909
2243.52744,0.01064
2241.46726,0.01187
2239.40709,0.01165
2237.34692,0.00975
2235.28675,0.00778
2233.22657,0.00742
2231.16640,0.00863
2229.10623,0.00987
2227.04606,0.01051
2224.98589,0.01169
2222.92571,0.01222
2220.86554,0.01065
2218.80537,0.00871
2216.74520,0.00744
2214.68503,0.00709
2212.62485,0.00806
2210.56468,0.00849
2208.50451,0.00781
2206.44434,0.00766
2204.38417,0.00820
2202.32399,0.00889
2200.26382,0.00974
2198.20365,0.01020
2196.14348,0.00953
2194.08330,0.00873
2192.02313,0.00894
2189.96296,0.00932
2187.90279,0.01003
2185.84262,0.01082
2183.78244,0.00935
2181.72227,0.00668
2179.66210,0.00554
2177.60193,0.00682
2175.54176,0.00993
2173.48158,0.01135
2171.42141,0.01051
2169.36124,0.00983
2167.30107,0.00891
2165.24089,0.00824
2163.18072,0.00742
2161.12055,0.00373
2159.06038,0.00074
2157.00021,0.00206
2154.94003,0.00378
2152.87986,0.00405
2150.81969,0.00423
2148.75952,0.00508
2146.69935,0.00634
2144.63917,0.00706
2142.57900,0.00707
2140.51883,0.00690
2138.45866,0.00749
2136.39849,0.00860
2134.33831,0.00854
2132.27814,0.00738
2130.21797,0.00690
2128.15780,0.00810
2126.09762,0.00950
2124.03745,0.00935
2121.97728,0.00856
2119.91711,0.00873
2117.85694,0.00881
2115.79676,0.00802
2113.73659,0.00812
2111.67642,0.00900
2109.61625,0.00938
2107.55608,0.00978
2105.49590,0.00946
2103.43573,0.00808
2101.37556,0.00813
2099.31539,0.00926
2097.25521,0.00911
2095.19504,0.00842
2093.13487,0.00816
2091.07470,0.00794
2089.01453,0.00834
2086.95435,0.00893
2084.89418,0.00870
2082.83401,0.00849
2080.77384,0.00916
2078.71367,0.01010
2076.65349,0.01037
2074.59332,0.00971
2072.53315,0.00913
2070.47298,0.00962
2068.41281,0.00982
2066.35263,0.00889
2064.29246,0.00865
2062.23229,0.00953
2060.17212,0.00921
2058.11194,0.00738
2056.05177,0.00664
2053.99160,0.00751
2051.93143,0.00794
2049.87126,0.00750
2047.81108,0.00743
2045.75091,0.00719
2043.69074,0.00584
2041.63057,0.00523
2039.57040,0.00598
2037.51022,0.00635
2035.45005,0.00640
2033.38988,0.00694
2031.32971,0.00750
2029.26954,0.00804
2027.20936,0.00738
2025.14919,0.00423
2023.08902,0.00192
2021.02885,0.00297
2018.96867,0.00511
2016.90850,0.00636
2014.84833,0.00628
2012.78816,0.00391
2010.72799,0.00068
2008.66781,0.00000
2006.60764,0.00168
2004.54747,0.00299
2002.48730,0.00287
2000.42713,0.00301
1998.36695,0.00517
1996.30678,0.00714
1994.24661,0.00672
1992.18644,0.00557
1990.12626,0.00481
1988.06609,0.00437
1986.00592,0.00529
1983.94575,0.00684
1981.88558,0.00603
1979.82540,0.00274
1977.76523,0.00058
1975.70506,0.00136
1973.64489,0.00325
1971.58472,0.00505
1969.52454,0.00582
1967.46437,0.00413
1965.40420,0.00224
1963.34403,0.00282
1961.28386,0.00401
1959.22368,0.00456
1957.16351,0.00566
1955.10334,0.00675
1953.04317,0.00625
1950.98299,0.00457
1948.92282,0.00341
1946.86265,0.00389
1944.80248,0.00542
1942.74231,0.00653
1940.68213,0.00669
1938.62196,0.00592
1936.56179,0.00461
1934.50162,0.00406
1932.44145,0.00464
1930.38127,0.00538
1928.32110,0.00573
1926.26093,0.00567
1924.20076,0.00553
1922.14059,0.00587
1920.08041,0.00648
1918.02024,0.00655
1915.96007,0.00627
1913.89990,0.00625
1911.83972,0.00605
1909.77955,0.00562
1907.71938,0.00547
1905.65921,0.00519
1903.59904,0.00462
1901.53886,0.00445
1899.47869,0.00463
1897.41852,0.00479
1895.35835,0.00503
1893.29818,0.00495
1891.23800,0.00409
1889.17783,0.00363
1887.11766,0.00434
1885.05749,0.00500
1882.99731,0.00488
1880.93714,0.00468
1878.87697,0.00463
1876.81680,0.00425
1874.75663,0.00378
1872.69645,0.00372
1870.63628,0.00366
1868.57611,0.00337
1866.51594,0.00345
1864.45577,0.00385
1862.39559,0.00389
1860.33542,0.00335
1858.27525,0.00274
1856.21508,0.00275
1854.15491,0.00324
1852.09473,0.00352
1850.03456,0.00347
1847.97439,0.00296
1845.91422,0.00198
1843.85404,0.00143
1841.79387,0.00193
1839.73370,0.00254
1837.67353,0.00262
1835.61336,0.00262
1833.55318,0.00273
1831.49301,0.00249
1829.43284,0.00210
1827.37267,0.00227
1825.31250,0.00282
1823.25232,0.00315
1821.19215,0.00316
1819.13198,0.00295
1817.07181,0.00257
1815.01163,0.00220
1812.95146,0.00220
1810.89129,0.00264
1808.83112,0.00299
1806.77095,0.00297
1804.71077,0.00262
1802.65060,0.00207
1800.59043,0.00163
1798.53026,0.00138
1796.47009,0.00108
1794.40991,0.00088
1792.34974,0.00113
1790.28957,0.00160
1788.22940,0.00167
1786.16923,0.00133
1784.10905,0.00096
1782.04888,0.00090
1779.98871,0.00106
1777.92854,0.00097
1775.86836,0.00043
1773.80819,0.00000
1771.74802,0.00020
1769.68785,0.00066
1767.62768,0.00083
1765.56750,0.00113
1763.50733,0.00177
1761.44716,0.00246
1759.38699,0.00312
1757.32682,0.00380
1755.26664,0.00462
1753.20647,0.00554
1751.14630,0.00673
1749.08613,0.00837
1747.02596,0.00993
1744.96578,0.01084
1742.90561,0.01122
1740.84544,0.01174
1738.78527,0.01278
1736.72509,0.01384
1734.66492,0.01416
1732.60475,0.01385
1730.54458,0.01396
1728.48441,0.01475
1726.42423,0.01557
1724.36406,0.01582
1722.30389,0.01552
1720.24372,0.01492
1718.18355,0.01419
1716.12337,0.01408
1714.06320,0.01496
1712.00303,0.01587
1709.94286,0.01612
1707.88268,0.01579
1705.82251,0.01508
1703.76234,0.01410
1701.70217,0.01303
1699.64200,0.01254
1697.58182,0.01343
1695.52165,0.01509
1693.46148,0.01646
1691.40131,0.01748
1689.34114,0.01866
1687.28096,0.02006
1685.22079,0.02147
1683.16062,0.02307
1681.10045,0.02493
1679.04028,0.02692
1676.98010,0.02872
1674.91993,0.02996
1672.85976,0.03060
1670.79959,0.03074
1668.73941,0.03057
1666.67924,0.03031
1664.61907,0.02978
1662.55890,0.02908
1660.49873,0.02884
1658.43855,0.02881
1656.37838,0.02812
1654.31821,0.02691
1652.25804,0.02641
1650.19787,0.02649
1648.13769,0.02626
1646.07752,0.02637
1644.01735,0.02722
1641.95718,0.02799
1639.89701,0.02823
1637.83683,0.02811
1635.77666,0.02841
1633.71649,0.02964
1631.65632,0.03100
1629.59614,0.03197
1627.53597,0.03246
1625.47580,0.03254
1623.41563,0.03251
1621.35546,0.03255
1619.29528,0.03245
1617.23511,0.03218
1615.17494,0.03257
1613.11477,0.03387
1611.05460,0.03547
1608.99442,0.03716
1606.93425,0.03884
1604.87408,0.03995
1602.81391,0.03989
1600.75373,0.03875
1598.69356,0.03704
1596.63339,0.03527
1594.57322,0.03389
1592.51305,0.03303
1590.45287,0.03246
1588.39270,0.03185
1586.33253,0.03095
1584.27236,0.02992
1582.21219,0.02901
1580.15201,0.02798
1578.09184,0.02658
1576.03167,0.02557
1573.97150,0.02567
1571.91133,0.02577
1569.85115,0.02501
1567.79098,0.02392
1565.73081,0.02303
1563.67064,0.02208
1561.61046,0.02067
1559.55029,0.01832
1557.49012,0.01638
1555.42995,0.01634
1553.36978,0.01648
1551.30960,0.01583
1549.24943,0.01492
1547.18926,0.01413
1545.12909,0.01326
1543.06892,0.01198
1541.00874,0.01037
1538.94857,0.00969
1536.88840,0.01003
1534.82823,0.00999
1532.76805,0.00949
1530.70788,0.00922
1528.64771,0.00892
1526.58754,0.00812
1524.52737,0.00722
1522.46719,0.00713
1520.40702,0.00851
1518.34685,0.01066
1516.28668,0.01267
1514.22651,0.01389
1512.16633,0.01379
1510.10616,0.01243
1508.04599,0.01037
1505.98582,0.00859
1503.92565,0.00772
1501.86547,0.00694
1499.80530,0.00576
1497.74513,0.00468
1495.68496,0.00420
1493.62478,0.00386
1491.56461,0.00299
1489.50444,0.00187
1487.44427,0.00143
1485.38410,0.00155
1483.32392,0.00179
1481.26375,0.00220
1479.20358,0.00261
1477.14341,0.00269
1475.08324,0.00278
1473.02306,0.00412
1470.96289,0.00687
1468.90272,0.00940
1466.84255,0.01120
1464.78238,0.01293
1462.72220,0.01455
1460.66203,0.01536
1458.60186,0.01550
1456.54169,0.01621
1454.48151,0.01787
1452.42134,0.01937
1450.36117,0.02028
1448.30100,0.02104
1446.24083,0.02214
1444.18065,0.02337
1442.12048,0.02430
1440.06031,0.02494
1438.00014,0.02545
1435.93997,0.02599
1433.87979,0.02643
1431.81962,0.02650
1429.75945,0.02650
1427.69928,0.02672
1425.63910,0.02675
1423.57893,0.02657
1421.51876,0.02657
1419.45859,0.02657
1417.39842,0.02661
1415.33824,0.02706
1413.27807,0.02753
1411.21790,0.02758
1409.15773,0.02706
1407.09756,0.02596
1405.03738,0.02469
1402.97721,0.02374
1400.91704,0.02305
1398.85687,0.02230
1396.79670,0.02153
1394.73652,0.02101
1392.67635,0.02095
1390.61618,0.02119
1388.55601,0.02137
1386.49583,0.02161
1384.43566,0.02218
1382.37549,0.02288
1380.31532,0.02350
1378.25515,0.02402
1376.19497,0.02451
1374.13480,0.02499
1372.07463,0.02524
1370.01446,0.02523
1367.95429,0.02536
1365.89411,0.02545
1363.83394,0.02492
1361.77377,0.02405
1359.71360,0.02368
1357.65343,0.02368
1355.59325,0.02356
1353.53308,0.02338
1351.47291,0.02325
1349.41274,0.02307
1347.35256,0.02281
1345.29239,0.02250
1343.23222,0.02224
1341.17205,0.02216
1339.11188,0.02227
1337.05170,0.02242
1334.99153,0.02245
1332.93136,0.02237
1330.87119,0.02246
1328.81102,0.02285
1326.75084,0.02322
1324.69067,0.02331
1322.63050,0.02317
1320.57033,0.02286
1318.51015,0.02254
1316.44998,0.02249
1314.38981,0.02253
1312.32964,0.02234
1310.26947,0.02196
1308.20929,0.02149
1306.14912,0.02087
1304.08895,0.02015
1302.02878,0.01956
1299.96861,0.01915
1297.90843,0.01880
1295.84826,0.01862
1293.78809,0.01869
1291.72792,0.01881
1289.66775,0.01883
1287.60757,0.01893
1285.54740,0.01929
1283.48723,0.01966
1281.42706,0.01976
1279.36688,0.01969
1277.30671,0.01969
1275.24654,0.01968
1273.18637,0.01958
1271.12620,0.01958
1269.06602,0.01999
1267.00585,0.02088
1264.94568,0.02203
1262.88551,0.02323
1260.82534,0.02434
1258.76516,0.02495
1256.70499,0.02500
1254.64482,0.02513
1252.58465,0.02560
1250.52447,0.02615
1248.46430,0.02668
1246.40413,0.02713
1244.34396,0.02755
1242.28379,0.02792
1240.22361,0.02796
1238.16344,0.02769
1236.10327,0.02741
1234.04310,0.02708
1231.98293,0.02648
1229.92275,0.02559
1227.86258,0.02466
1225.80241,0.02388
1223.74224,0.02281
1221.68207,0.02144
1219.62189,0.02020
1217.56172,0.01897
1215.50155,0.01761
1213.44138,0.01622
1211.38120,0.01510
1209.32103,0.01417
1207.26086,0.01278
1205.20069,0.01104
1203.14052,0.00945
1201.08034,0.00794
1199.02017,0.00652
1196.96000,0.00502
1194.89983,0.00358
1192.83966,0.00260
1190.77948,0.00185
1188.71931,0.00098
1186.65914,0.00022
1184.59897,0.00000
1182.53880,0.00020
1180.47862,0.00045
1178.41845,0.00076
1176.35828,0.00164
1174.29811,0.00326
1172.23793,0.00548
1170.17776,0.00791
1168.11759,0.00989
1166.05742,0.01117
1163.99725,0.01180
1161.93707,0.01210
1159.87690,0.01265
1157.81673,0.01338
1155.75656,0.01378
1153.69639,0.01422
1151.63621,0.01497
1149.57604,0.01593
1147.51587,0.01728
1145.45570,0.01889
1143.39552,0.02023
1141.33535,0.02105
1139.27518,0.02145
1137.21501,0.02171
1135.15484,0.02219
1133.09466,0.02292
1131.03449,0.02372
1128.97432,0.02455
1126.91415,0.02552
1124.85398,0.02666
1122.79380,0.02793
1120.73363,0.02925
1118.67346,0.03053
1116.61329,0.03212
1114.55312,0.03387
1112.49294,0.03513
1110.43277,0.03595
1108.37260,0.03663
1106.31243,0.03762
1104.25225,0.03921
1102.19208,0.04076
1100.13191,0.04193
1098.07174,0.04323
1096.01157,0.04506
1093.95139,0.04732
1091.89122,0.04961
1089.83105,0.05152
1087.77088,0.05316
1085.71071,0.05503
1083.65053,0.05681
1081.59036,0.05836
1079.53019,0.06043
1077.47002,0.06311
1075.40985,0.06605
1073.34967,0.06873
1071.28950,0.07055
1069.22933,0.07188
1067.16916,0.07358
1065.10898,0.07536
1063.04881,0.07653
1060.98864,0.07726
1058.92847,0.07848
1056.86830,0.08049
1054.80812,0.08278
1052.74795,0.08506
1050.68778,0.08705
1048.62761,0.08896
1046.56744,0.09146
1044.50726,0.09421
1042.44709,0.09662
1040.38692,0.09877
1038.32675,0.10067
1036.26657,0.10230
1034.20640,0.10366
1032.14623,0.10460
1030.08606,0.10511
1028.02589,0.10523
1025.96571,0.10500
1023.90554,0.10444
1021.84537,0.10393
1019.78520,0.10386
1017.72503,0.10384
1015.66485,0.10384
1013.60468,0.10421
1011.54451,0.10478
1009.48434,0.10512
1007.42417,0.10508
1005.36399,0.10481
1003.30382,0.10431
1001.24365,0.10336
999.18348,0.10192
997.12330,0.10024
995.06313,0.09839
993.00296,0.09665
990.94279,0.09516
988.88262,0.09330
986.82244,0.09112
984.76227,0.08920
982.70210,0.08781
980.64193,0.08707
978.58176,0.08642
976.52158,0.08523
974.46141,0.08352
972.40124,0.08168
970.34107,0.08010
968.28089,0.07856
966.22072,0.07649
964.16055,0.07404
962.10038,0.07188
960.04021,0.07019
957.98003,0.06853
955.91986,0.06662
953.85969,0.06486
951.79952,0.06366
949.73935,0.06257
947.67917,0.06111
945.61900,0.05986
943.55883,0.05873
941.49866,0.05673
939.43849,0.05388
937.37831,0.05060
935.31814,0.04691
933.25797,0.04334
931.19780,0.04029
929.13762,0.03782
927.07745,0.03587
925.01728,0.03392
922.95711,0.03179
920.89694,0.02992
918.83676,0.02786
916.77659,0.02549
914.71642,0.02359
912.65625,0.02224
910.59608,0.02106
908.53590,0.01999
906.47573,0.01939
904.41556,0.01931
902.35539,0.01868
900.29522,0.01721
898.23504,0.01636
896.17487,0.01642
894.11470,0.01627
892.05453,0.01606
889.99435,0.01627
887.93418,0.01637
885.87401,0.01589
883.81384,0.01520
881.75367,0.01454
879.69349,0.01365
877.63332,0.01279
875.57315,0.01222
873.51298,0.01137
871.45281,0.01034
869.39263,0.00964
867.33246,0.00906
865.27229,0.00874
863.21212,0.00842
861.15194,0.00745
859.09177,0.00652
857.03160,0.00621
854.97143,0.00617
852.91126,0.00654
850.85108,0.00696
848.79091,0.00675
846.73074,0.00617
844.67057,0.00592
842.61040,0.00640
840.55022,0.00701
838.49005,0.00676
836.42988,0.00586
834.36971,0.00494
832.30954,0.00385
830.24936,0.00304
828.18919,0.00343
826.12902,0.00432
824.06885,0.00434
822.00867,0.00392
819.94850,0.00368
817.88833,0.00325
815.82816,0.00279
813.76799,0.00283
811.70781,0.00326
809.64764,0.00329
807.58747,0.00279
805.52730,0.00263
803.46713,0.00313
801.40695,0.00329
799.34678,0.00269
797.28661,0.00213
795.22644,0.00111
793.16627,0.00000
791.10609,0.00065
789.04592,0.00243
786.98575,0.00298
784.92558,0.00219
782.86540,0.00114
780.80523,0.00013
778.74506,0.00024
776.68489,0.00147
774.62472,0.00234
772.56454,0.00318
770.50437,0.00358
768.44420,0.00211
766.38403,0.00063
764.32386,0.00117
762.26368,0.00188
760.20351,0.00129
758.14334,0.00091
756.08317,0.00133
754.02299,0.00178
751.96282,0.00257
749.90265,0.00339
747.84248,0.00364
745.78231,0.00388
743.72213,0.00368
741.66196,0.00273
739.60179,0.00149
737.54162,0.00000
735.48145,-0.00020
733.42127,0.00169
731.36110,0.00276
729.30093,0.00223
727.24076,0.00174
725.18059,0.00201
723.12041,0.00213
721.06024,0.00221
719.00007,0.00235
716.93990,0.00307
714.87972,0.00425
712.81955,0.00500
710.75938,0.00550
708.69921,0.00679
706.63904,0.00890
704.57886,0.01009
702.51869,0.00857
700.45852,0.00527
698.39835,0.00248
696.33818,0.00121
694.27800,0.00170
692.21783,0.00369
690.15766,0.00588
688.09749,0.00654
686.03731,0.00572
683.97714,0.00502
681.91697,0.00473
679.85680,0.00383
677.79663,0.00220
675.73645,0.00137
673.67628,0.00272
671.61611,0.00661
669.55594,0.01214
667.49577,0.01245
665.43559,0.00661
663.37542,0.00494
661.31525,0.00515
659.25508,0.00451
657.19491,0.00283
655.13473,0.00304
653.07456,0.00589
651.01439,0.00915
648.95422,0.01218
646.89404,0.01381
644.83387,0.01259
642.77370,0.01019
640.71353,0.00920
638.65336,0.00908
636.59318,0.00916
634.53301,0.00893
632.47284,0.00606
630.41267,0.00141
628.35250,0.00000
626.29232,0.00449
624.23215,0.00978
622.17198,0.00770
620.11181,0.00244
618.05164,0.00215
615.99146,0.00564
613.93129,0.00725
611.87112,0.00506
609.81095,0.00194
607.75077,0.00220
605.69060,0.00215
603.63043,-0.00229
601.57026,-0.00370
599.51009,0.00000
