3996.73391,0.00183
3994.67373,0.00174
3992.61356,0.00173
3990.55339,0.00184
3988.49322,0.00212
3986.43305,0.00218
3984.37287,0.00175
3982.31270,0.00130
3980.25253,0.00142
3978.19236,0.00179
3976.13219,0.00184
3974.07201,0.00175
3972.01184,0.00186
3969.95167,0.00198
3967.89150,0.00195
3965.83133,0.00194
3963.77115,0.00194
3961.71098,0.00191
3959.65081,0.00215
3957.59064,0.00263
3955.53046,0.00266
3953.47029,0.00177
3951.41012,0.00053
3949.34995,0.00000
3947.28978,0.00054
3945.22960,0.00142
3943.16943,0.00191
3941.10926,0.00198
3939.04909,0.00196
3936.98892,0.00187
3934.92874,0.00158
3932.86857,0.00138
3930.80840,0.00149
3928.74823,0.00151
3926.68805,0.00125
3924.62788,0.00117
3922.56771,0.00153
3920.50754,0.00193
3918.44737,0.00215
3916.38719,0.00235
3914.32702,0.00244
3912.26685,0.00221
3910.20668,0.00187
3908.14651,0.00172
3906.08633,0.00175
3904.02616,0.00194
3901.96599,0.00201
3899.90582,0.00145
3897.84565,0.00084
3895.78547,0.00088
3893.72530,0.00126
3891.66513,0.00179
3889.60496,0.00228
3887.54478,0.00243
3885.48461,0.00253
3883.42444,0.00279
3881.36427,0.00294
3879.30410,0.00289
3877.24392,0.00263
3875.18375,0.00221
3873.12358,0.00203
3871.06341,0.00248
3869.00324,0.00333
3866.94306,0.00378
3864.88289,0.00345
3862.82272,0.00277
3860.76255,0.00237
3858.70237,0.00226
3856.64220,0.00236
3854.58203,0.00252
3852.52186,0.00222
3850.46169,0.00177
3848.40151,0.00180
3846.34134,0.00207
3844.28117,0.00223
3842.22100,0.00208
3840.16083,0.00160
3838.10065,0.00116
3836.04048,0.00150
3833.98031,0.00238
3831.92014,0.00291
3829.85997,0.00309
3827.79979,0.00308
3825.73962,0.00262
3823.67945,0.00220
3821.61928,0.00244
3819.55910,0.00255
3817.49893,0.00162
3815.43876,0.00071
3813.37859,0.00112
3811.31842,0.00210
3809.25824,0.00247
3807.19807,0.00181
3805.13790,0.00071
3803.07773,0.00055
3801.01756,0.00171
3798.95738,0.00263
3796.89721,0.00245
3794.83704,0.00201
3792.77687,0.00164
3790.71670,0.00115
3788.65652,0.00072
3786.59635,0.00060
3784.53618,0.00095
3782.47601,0.00163
3780.41583,0.00227
3778.35566,0.00264
3776.29549,0.00266
3774.23532,0.00245
3772.17515,0.00230
3770.11497,0.00215
3768.05480,0.00165
3765.99463,0.00123
3763.93446,0.00155
3761.87429,0.00193
3759.81411,0.00173
3757.75394,0.00179
3755.69377,0.00234
3753.63360,0.00227
3751.57342,0.00161
3749.51325,0.00162
3747.45308,0.00220
3745.39291,0.00211
3743.33274,0.00128
3741.27256,0.00073
3739.21239,0.00077
3737.15222,0.00106
3735.09205,0.00107
3733.03188,0.00069
3730.97170,0.00084
3728.91153,0.00170
3726.85136,0.00255
3724.79119,0.00272
3722.73102,0.00232
3720.67084,0.00190
3718.61067,0.00146
3716.55050,0.00113
3714.49033,0.00135
3712.43015,0.00215
3710.36998,0.00307
3708.30981,0.00331
3706.24964,0.00271
3704.18947,0.00190
3702.12929,0.00169
3700.06912,0.00202
3698.00895,0.00205
3695.94878,0.00134
3693.88861,0.00036
3691.82843,0.00000
3689.76826,0.00061
3687.70809,0.00164
3685.64792,0.00220
3683.58775,0.00247
3681.52757,0.00274
3679.46740,0.00269
3677.40723,0.00201
3675.34706,0.00127
3673.28688,0.00147
3671.22671,0.00234
3669.16654,0.00269
3667.10637,0.00219
3665.04620,0.00166
3662.98602,0.00183
3660.92585,0.00246
3658.86568,0.00279
3656.80551,0.00253
3654.74534,0.00200
3652.68516,0.00163
3650.62499,0.00146
3648.56482,0.00161
3646.50465,0.00226
3644.44447,0.00281
3642.38430,0.00301
3640.32413,0.00311
3638.26396,0.00329
3636.20379,0.00343
3634.14361,0.00320
3632.08344,0.00268
3630.02327,0.00288
3627.96310,0.00447
3625.90293,0.00586
3623.84275,0.00590
3621.78258,0.00506
3619.72241,0.00436
3617.66224,0.00443
3615.60207,0.00460
3613.54189,0.00445
3611.48172,0.00437
3609.42155,0.00440
3607.36138,0.00469
3605.30120,0.00543
3603.24103,0.00624
3601.18086,0.00664
3599.12069,0.00682
3597.06052,0.00723
3595.00034,0.00786
3592.94017,0.00830
3590.88000,0.00836
3588.81983,0.00816
3586.75966,0.00835
3584.69948,0.00888
3582.63931,0.00890
3580.57914,0.00857
3578.51897,0.00843
3576.45879,0.00867
3574.39862,0.00938
3572.33845,0.01018
3570.27828,0.01038
3568.21811,0.01007
3566.15793,0.01022
3564.09776,0.01104
3562.03759,0.01187
3559.97742,0.01260
3557.91725,0.01325
3555.85707,0.01379
3553.79690,0.01439
3551.73673,0.01490
3549.67656,0.01508
3547.61639,0.01542
3545.55621,0.01614
3543.49604,0.01676
3541.43587,0.01712
3539.37570,0.01724
3537.31552,0.01714
3535.25535,0.01712
3533.19518,0.01745
3531.13501,0.01800
3529.07484,0.01836
3527.01466,0.01845
3524.95449,0.01859
3522.89432,0.01905
3520.83415,0.01980
3518.77398,0.02048
3516.71380,0.02082
3514.65363,0.02099
3512.59346,0.02127
3510.53329,0.02172
3508.47312,0.02211
3506.41294,0.02244
3504.35277,0.02279
3502.29260,0.02320
3500.23243,0.02377
3498.17225,0.02431
3496.11208,0.02456
3494.05191,0.02472
3491.99174,0.02523
3489.93157,0.02596
3487.87139,0.02648
3485.81122,0.02671
3483.75105,0.02691
3481.69088,0.02732
3479.63071,0.02795
3477.57053,0.02871
3475.51036,0.02943
3473.45019,0.02969
3471.39002,0.02938
3469.32984,0.02920
3467.26967,0.02973
3465.20950,0.03047
3463.14933,0.03090
3461.08916,0.03125
3459.02898,0.03165
3456.96881,0.03193
3454.90864,0.03257
3452.84847,0.03366
3450.78830,0.03413
3448.72812,0.03383
3446.66795,0.03388
3444.60778,0.03457
3442.54761,0.03527
3440.48744,0.03574
3438.42726,0.03620
3436.36709,0.03666
3434.30692,0.03711
3432.24675,0.03761
3430.18657,0.03799
3428.12640,0.03812
3426.06623,0.03828
3424.00606,0.03856
3421.94589,0.03859
3419.88571,0.03857
3417.82554,0.03887
3415.76537,0.03928
3413.70520,0.03974
3411.64503,0.04047
3409.58485,0.04114
3407.52468,0.04121
3405.46451,0.04131
3403.40434,0.04210
3401.34416,0.04296
3399.28399,0.04329
3397.22382,0.04351
3395.16365,0.04385
3393.10348,0.04418
3391.04330,0.04437
3388.98313,0.04439
3386.92296,0.04453
3384.86279,0.04484
3382.80262,0.04505
3380.74244,0.04521
3378.68227,0.04546
3376.62210,0.04583
3374.56193,0.04624
3372.50176,0.04652
3370.44158,0.04659
3368.38141,0.04650
3366.32124,0.04654
3364.26107,0.04678
3362.20089,0.04714
3360.14072,0.04757
3358.08055,0.04762
3356.02038,0.04715
3353.96021,0.04695
3351.90003,0.04754
3349.83986,0.04821
3347.77969,0.04840
3345.71952,0.04819
3343.65935,0.04785
3341.59917,0.04789
3339.53900,0.04823
3337.47883,0.04830
3335.41866,0.04835
3333.35849,0.04872
3331.29831,0.04898
3329.23814,0.04907
3327.17797,0.04917
3325.11780,0.04929
3323.05762,0.04940
3320.99745,0.04943
3318.93728,0.04976
3316.87711,0.05020
3314.81694,0.05004
3312.75676,0.04982
3310.69659,0.05013
3308.63642,0.05038
3306.57625,0.05017
3304.51608,0.04980
3302.45590,0.04948
3300.39573,0.04925
3298.33556,0.04937
3296.27539,0.04996
3294.21521,0.05043
3292.15504,0.05037
3290.09487,0.05024
3288.03470,0.05024
3285.97453,0.05000
3283.91435,0.04966
3281.85418,0.04968
3279.79401,0.04995
3277.73384,0.05005
3275.67367,0.05001
3273.61349,0.05020
3271.55332,0.05053
3269.49315,0.05055
3267.43298,0.05026
3265.37281,0.04989
3263.31263,0.04951
3261.25246,0.04926
3259.19229,0.04917
3257.13212,0.04941
3255.07194,0.04978
3253.01177,0.04972
3250.95160,0.04958
3248.89143,0.04990
3246.83126,0.05021
3244.77108,0.05005
3242.71091,0.04990
3240.65074,0.05007
3238.59057,0.05006
3236.53040,0.04965
3234.47022,0.04913
3232.41005,0.04878
3230.34988,0.04899
3228.28971,0.04949
3226.22954,0.04943
3224.16936,0.04899
3222.10919,0.04866
3220.04902,0.04815
3217.98885,0.04767
3215.92867,0.04786
3213.86850,0.04822
3211.80833,0.04797
3209.74816,0.04726
3207.68799,0.04665
3205.62781,0.04641
3203.56764,0.04631
3201.50747,0.04623
3199.44730,0.04630
3197.38713,0.04619
3195.32695,0.04576
3193.26678,0.04565
3191.20661,0.04599
3189.14644,0.04609
3187.08626,0.04548
3185.02609,0.04477
3182.96592,0.04453
3180.90575,0.04414
3178.84558,0.04357
3176.78540,0.04348
3174.72523,0.04364
3172.66506,0.04358
3170.60489,0.04328
3168.54472,0.04298
3166.48454,0.04310
3164.42437,0.04334
3162.36420,0.04299
3160.30403,0.04237
3158.24386,0.04186
3156.18368,0.04139
3154.12351,0.04104
3152.06334,0.04076
3150.00317,0.04047
3147.94299,0.04026
3145.88282,0.04022
3143.82265,0.04032
3141.76248,0.04021
3139.70231,0.03972
3137.64213,0.03914
3135.58196,0.03873
3133.52179,0.03838
3131.46162,0.03806
3129.40145,0.03793
3127.34127,0.03786
3125.28110,0.03762
3123.22093,0.03719
3121.16076,0.03661
3119.10058,0.03602
3117.04041,0.03568
3114.98024,0.03558
3112.92007,0.03564
3110.85990,0.03580
3108.79972,0.03576
3106.73955,0.03535
3104.67938,0.03482
3102.61921,0.03463
3100.55904,0.03485
3098.49886,0.03474
3096.43869,0.03398
3094.37852,0.03332
3092.31835,0.03327
3090.25818,0.03335
3088.19800,0.03318
3086.13783,0.03292
3084.07766,0.03271
3082.01749,0.03248
3079.95731,0.03223
3077.89714,0.03206
3075.83697,0.03191
3073.77680,0.03177
3071.71663,0.03173
3069.65645,0.03170
3067.59628,0.03132
3065.53611,0.03060
3063.47594,0.02996
3061.41577,0.02945
3059.35559,0.02902
3057.29542,0.02901
3055.23525,0.02919
3053.17508,0.02902
3051.11491,0.02861
3049.05473,0.02823
3046.99456,0.02793
3044.93439,0.02772
3042.87422,0.02753
3040.81404,0.02732
3038.75387,0.02716
3036.69370,0.02711
3034.63353,0.02680
3032.57336,0.02636
3030.51318,0.02643
3028.45301,0.02652
3026.39284,0.02598
3024.33267,0.02530
3022.27250,0.02502
3020.21232,0.02490
3018.15215,0.02473
3016.09198,0.02474
3014.03181,0.02492
3011.97163,0.02489
3009.91146,0.02450
3007.85129,0.02399
3005.79112,0.02358
3003.73095,0.02324
3001.67077,0.02293
2999.61060,0.02273
2997.55043,0.02275
2995.49026,0.02311
2993.43009,0.02340
2991.36991,0.02318
2989.30974,0.02280
2987.24957,0.02267
2985.18940,0.02270
2983.12923,0.02302
2981.06905,0.02361
2979.00888,0.02412
2976.94871,0.02445
2974.88854,0.02473
2972.82836,0.02511
2970.76819,0.02560
2968.70802,0.02631
2966.64785,0.02749
2964.58768,0.02888
2962.52750,0.03007
2960.46733,0.03120
2958.40716,0.03243
2956.34699,0.03361
2954.28682,0.03481
2952.22664,0.03624
2950.16647,0.03803
2948.10630,0.04030
2946.04613,0.04291
2943.98596,0.04529
2941.92578,0.04731
2939.86561,0.04922
2937.80544,0.05105
2935.74527,0.05289
2933.68509,0.05505
2931.62492,0.05743
2929.56475,0.05960
2927.50458,0.06144
2925.44441,0.06292
2923.38423,0.06399
2921.32406,0.06484
2919.26389,0.06563
2917.20372,0.06581
2915.14355,0.06452
2913.08337,0.06196
2911.02320,0.05931
2908.96303,0.05707
2906.90286,0.05500
2904.84268,0.05341
2902.78251,0.05221
2900.72234,0.05076
2898.66217,0.04914
2896.60200,0.04766
2894.54182,0.04634
2892.48165,0.04515
2890.42148,0.04401
2888.36131,0.04287
2886.30114,0.04203
2884.24096,0.04159
2882.18079,0.04116
2880.12062,0.04069
2878.06045,0.04054
2876.00028,0.04086
2873.94010,0.04138
2871.87993,0.04169
2869.81976,0.04186
2867.75959,0.04209
2865.69941,0.04250
2863.63924,0.04356
2861.57907,0.04525
2859.51890,0.04701
2857.45873,0.04845
2855.39855,0.04967
2853.33838,0.05118
2851.27821,0.05262
2849.21804,0.05271
2847.15787,0.05068
2845.09769,0.04727
2843.03752,0.04383
2840.97735,0.04096
2838.91718,0.03886
2836.85700,0.03727
2834.79683,0.03574
2832.73666,0.03457
2830.67649,0.03383
2828.61632,0.03299
2826.55614,0.03207
2824.49597,0.03135
2822.43580,0.03076
2820.37563,0.03014
2818.31546,0.02952
2816.25528,0.02898
2814.19511,0.02848
2812.13494,0.02806
2810.07477,0.02789
2808.01460,0.02774
2805.95442,0.02741
2803.89425,0.02709
2801.83408,0.02669
2799.77391,0.02615
2797.71373,0.02595
2795.65356,0.02601
2793.59339,0.02585
2791.53322,0.02559
2789.47305,0.02540
2787.41287,0.02514
2785.35270,0.02473
2783.29253,0.02431
2781.23236,0.02436
2779.17219,0.02474
2777.11201,0.02480
2775.05184,0.02447
2772.99167,0.02409
2770.93150,0.02380
2768.87133,0.02355
2766.81115,0.02329
2764.75098,0.02326
2762.69081,0.02347
2760.63064,0.02362
2758.57046,0.02348
2756.51029,0.02300
2754.45012,0.02256
2752.38995,0.02246
2750.32978,0.02266
2748.26960,0.02281
2746.20943,0.02264
2744.14926,0.02237
2742.08909,0.02216
2740.02892,0.02213
2737.96874,0.02245
2735.90857,0.02274
2733.84840,0.02267
2731.78823,0.02242
2729.72805,0.02224
2727.66788,0.02217
2725.60771,0.02202
2723.54754,0.02180
2721.48737,0.02165
2719.42719,0.02158
2717.36702,0.02145
2715.30685,0.02110
2713.24668,0.02108
2711.18651,0.02159
2709.12633,0.02172
2707.06616,0.02126
2705.00599,0.02103
2702.94582,0.02132
2700.88565,0.02156
2698.82547,0.02125
2696.76530,0.02067
2694.70513,0.02049
2692.64496,0.02066
2690.58478,0.02066
2688.52461,0.02049
2686.46444,0.02041
2684.40427,0.02039
2682.34410,0.02039
2680.28392,0.02036
2678.22375,0.02025
2676.16358,0.02023
2674.10341,0.02036
2672.04324,0.02055
2669.98306,0.02061
2667.92289,0.02044
2665.86272,0.02036
2663.80255,0.02041
2661.74238,0.02035
2659.68220,0.02020
2657.62203,0.02006
2655.56186,0.01994
2653.50169,0.01978
2651.44151,0.01962
2649.38134,0.01959
2647.32117,0.01955
2645.26100,0.01932
2643.20083,0.01918
2641.14065,0.01923
2639.08048,0.01909
2637.02031,0.01871
2634.96014,0.01857
2632.89997,0.01868
2630.83979,0.01864
2628.77962,0.01860
2626.71945,0.01879
2624.65928,0.01903
2622.59910,0.01905
2620.53893,0.01865
2618.47876,0.01813
2616.41859,0.01780
2614.35842,0.01757
2612.29824,0.01746
2610.23807,0.01709
2608.17790,0.01648
2606.11773,0.01631
2604.05756,0.01650
2601.99738,0.01673
2599.93721,0.01694
2597.87704,0.01699
2595.81687,0.01689
2593.75670,0.01669
2591.69652,0.01613
2589.63635,0.01579
2587.57618,0.01630
2585.51601,0.01680
2583.45583,0.01678
2581.39566,0.01671
2579.33549,0.01672
2577.27532,0.01667
2575.21515,0.01648
2573.15497,0.01618
2571.09480,0.01591
2569.03463,0.01548
2566.97446,0.01484
2564.91429,0.01463
2562.85411,0.01499
2560.79394,0.01525
2558.73377,0.01496
2556.67360,0.01470
2554.61342,0.01511
2552.55325,0.01552
2550.49308,0.01491
2548.43291,0.01388
2546.37274,0.01389
2544.31256,0.01455
2542.25239,0.01480
2540.19222,0.01493
2538.13205,0.01494
2536.07188,0.01458
2534.01170,0.01422
2531.95153,0.01420
2529.89136,0.01422
2527.83119,0.01398
2525.77102,0.01381
2523.71084,0.01386
2521.65067,0.01420
2519.59050,0.01493
2517.53033,0.01536
2515.47015,0.01471
2513.40998,0.01378
2511.34981,0.01359
2509.28964,0.01364
2507.22947,0.01350
2505.16929,0.01355
2503.10912,0.01368
2501.04895,0.01322
2498.98878,0.01255
2496.92861,0.01253
2494.86843,0.01264
2492.80826,0.01257
2490.74809,0.01286
2488.68792,0.01305
2486.62775,0.01258
2484.56757,0.01211
2482.50740,0.01187
2480.44723,0.01173
2478.38706,0.01169
2476.32688,0.01174
2474.26671,0.01199
2472.20654,0.01217
2470.14637,0.01218
2468.08620,0.01216
2466.02602,0.01201
2463.96585,0.01205
2461.90568,0.01236
2459.84551,0.01244
2457.78534,0.01215
2455.72516,0.01221
2453.66499,0.01317
2451.60482,0.01412
2449.54465,0.01362
2447.48447,0.01229
2445.42430,0.01150
2443.36413,0.01135
2441.30396,0.01177
2439.24379,0.01219
2437.18361,0.01187
2435.12344,0.01139
2433.06327,0.01141
2431.00310,0.01183
2428.94293,0.01215
2426.88275,0.01193
2424.82258,0.01140
2422.76241,0.01135
2420.70224,0.01188
2418.64207,0.01205
2416.58189,0.01171
2414.52172,0.01127
2412.46155,0.01103
2410.40138,0.01131
2408.34120,0.01151
2406.28103,0.01138
2404.22086,0.01123
2402.16069,0.01092
2400.10052,0.01067
2398.04034,0.01074
2395.98017,0.01104
2393.92000,0.01134
2391.85983,0.01146
2389.79966,0.01139
2387.73948,0.01141
2385.67931,0.01169
2383.61914,0.01194
2381.55897,0.01179
2379.49880,0.01144
2377.43862,0.01168
2375.37845,0.01240
2373.31828,0.01336
2371.25811,0.01431
2369.19793,0.01477
2367.13776,0.01507
2365.07759,0.01427
2363.01742,0.01141
2360.95725,0.01014
2358.89707,0.01006
2356.83690,0.01041
2354.77673,0.01027
2352.71656,0.01001
2350.65639,0.01205
2348.59621,0.01351
2346.53604,0.01060
2344.47587,0.00970
2342.41570,0.01114
2340.35552,0.01231
2338.29535,0.01235
2336.23518,0.01175
2334.17501,0.01147
2332.11484,0.01130
2330.05466,0.01162
2327.99449,0.01206
2325.93432,0.01230
2323.87415,0.01105
2321.81398,0.00982
2319.75380,0.00962
2317.69363,0.01066
2315.63346,0.01080
2313.57329,0.00986
2311.51312,0.00910
2309.45294,0.00897
2307.39277,0.00906
2305.33260,0.00914
2303.27243,0.00948
2301.21225,0.01006
2299.15208,0.01060
2297.09191,0.01040
2295.03174,0.00964
2292.97157,0.00924
2290.91139,0.00944
2288.85122,0.00976
2286.79105,0.00988
2284.73088,0.00982
2282.67071,0.00953
2280.61053,0.00906
2278.55036,0.00878
2276.49019,0.00879
2274.43002,0.00902
2272.36984,0.00936
2270.30967,0.00903
2268.24950,0.00756
2266.18933,0.00624
2264.12916,0.00648
2262.06898,0.00808
2260.00881,0.00952
2257.94864,0.00960
2255.88847,0.00841
2253.82830,0.00716
2251.76812,0.00727
2249.70795,0.00838
2247.64778,0.00856
2245.58761,0.00776
2243.52744,0.00756
2241.46726,0.00785
2239.40709,0.00765
2237.34692,0.00718
2235.28675,0.00687
2233.22657,0.00659
2231.16640,0.00660
2229.10623,0.00690
2227.04606,0.00725
2224.98589,0.00749
2222.92571,0.00737
2220.86554,0.00743
2218.80537,0.00712
2216.74520,0.00580
2214.68503,0.00547
2212.62485,0.00663
2210.56468,0.00685
2208.50451,0.00613
2206.44434,0.00614
2204.38417,0.00718
2202.32399,0.00868
2200.26382,0.00921
2198.20365,0.00841
2196.14348,0.00699
2194.08330,0.00547
2192.02313,0.00436
2189.96296,0.00430
2187.90279,0.00521
2185.84262,0.00616
2183.78244,0.00567
2181.72227,0.00358
2179.66210,0.00194
2177.60193,0.00215
2175.54176,0.00502
2173.48158,0.00805
2171.42141,0.00761
2169.36124,0.00614
2167.30107,0.00662
2165.24089,0.00810
2163.18072,0.00851
2161.12055,0.00610
2159.06038,0.00252
2157.00021,0.00134
2154.94003,0.00232
2152.87986,0.00429
2150.81969,0.00542
2148.75952,0.00520
2146.69935,0.00519
2144.63917,0.00517
2142.57900,0.00452
2140.51883,0.00409
2138.45866,0.00541
2136.39849,0.00743
2134.33831,0.00764
2132.27814,0.00623
2130.21797,0.00484
2128.15780,0.00480
2126.09762,0.00599
2124.03745,0.00624
2121.97728,0.00542
2119.91711,0.00559
2117.85694,0.00630
2115.79676,0.00641
2113.73659,0.00625
2111.67642,0.00566
2109.61625,0.00505
2107.55608,0.00516
2105.49590,0.00546
2103.43573,0.00546
2101.37556,0.00566
2099.31539,0.00627
2097.25521,0.00695
2095.19504,0.00735
2093.13487,0.00712
2091.07470,0.00632
2089.01453,0.00552
2086.95435,0.00501
2084.89418,0.00490
2082.83401,0.00550
2080.77384,0.00625
2078.71367,0.00608
2076.65349,0.00563
2074.59332,0.00542
2072.53315,0.00487
2070.47298,0.00488
2068.41281,0.00545
2066.35263,0.00501
2064.29246,0.00446
2062.23229,0.00480
2060.17212,0.00443
2058.11194,0.00348
2056.05177,0.00390
2053.99160,0.00526
2051.93143,0.00631
2049.87126,0.00668
2047.81108,0.00593
2045.75091,0.00421
2043.69074,0.00265
2041.63057,0.00280
2039.57040,0.00452
2037.51022,0.00544
2035.45005,0.00489
2033.38988,0.00440
2031.32971,0.00453
2029.26954,0.00556
2027.20936,0.00645
2025.14919,0.00551
2023.08902,0.00350
2021.02885,0.00208
2018.96867,0.00238
2016.90850,0.00341
2014.84833,0.00329
2012.78816,0.00265
2010.72799,0.00279
2008.66781,0.00309
2006.60764,0.00215
2004.54747,0.00099
2002.48730,0.00070
2000.42713,0.00071
1998.36695,0.00170
1996.30678,0.00311
1994.24661,0.00331
1992.18644,0.00368
1990.12626,0.00427
1988.06609,0.00367
1986.00592,0.00328
1983.94575,0.00373
1981.88558,0.00369
1979.82540,0.00273
1977.76523,0.00176
1975.70506,0.00138
1973.64489,0.00130
1971.58472,0.00204
1969.52454,0.00344
1967.46437,0.00335
1965.40420,0.00225
1963.34403,0.00336
1961.28386,0.00577
1959.22368,0.00659
1957.16351,0.00600
1955.10334,0.00488
1953.04317,0.00350
1950.98299,0.00294
1948.92282,0.00330
1946.86265,0.00351
1944.80248,0.00312
1942.74231,0.00239
1940.68213,0.00204
1938.62196,0.00203
1936.56179,0.00202
1934.50162,0.00222
1932.44145,0.00248
1930.38127,0.00281
1928.32110,0.00323
1926.26093,0.00304
1924.20076,0.00261
1922.14059,0.00356
1920.08041,0.00515
1918.02024,0.00530
1915.96007,0.00471
1913.89990,0.00469
1911.83972,0.00466
1909.77955,0.00424
1907.71938,0.00388
1905.65921,0.00363
1903.59904,0.00351
1901.53886,0.00346
1899.47869,0.00332
1897.41852,0.00315
1895.35835,0.00322
1893.29818,0.00332
1891.23800,0.00286
1889.17783,0.00250
1887.11766,0.00300
1885.05749,0.00360
1882.99731,0.00372
1880.93714,0.00374
1878.87697,0.00366
1876.81680,0.00313
1874.75663,0.00258
1872.69645,0.00241
1870.63628,0.00218
1868.57611,0.00174
1866.51594,0.00191
1864.45577,0.00264
1862.39559,0.00310
1860.33542,0.00297
1858.27525,0.00258
1856.21508,0.00241
1854.15491,0.00259
1852.09473,0.00292
1850.03456,0.00312
1847.97439,0.00285
1845.91422,0.00216
1843.85404,0.00186
1841.79387,0.00219
1839.73370,0.00254
1837.67353,0.00257
1835.61336,0.00240
1833.55318,0.00225
1831.49301,0.00212
1829.43284,0.00193
1827.37267,0.00195
1825.31250,0.00223
1823.25232,0.00243
1821.19215,0.00221
1819.13198,0.00163
1817.07181,0.00104
1815.01163,0.00070
1812.95146,0.00070
1810.89129,0.00107
1808.83112,0.00149
1806.77095,0.00158
1804.71077,0.00140
1802.65060,0.00118
1800.59043,0.00112
1798.53026,0.00133
1796.47009,0.00157
1794.40991,0.00168
1792.34974,0.00177
1790.28957,0.00173
1788.22940,0.00142
1786.16923,0.00110
1784.10905,0.00096
1782.04888,0.00083
1779.98871,0.00045
1777.92854,0.00000
1775.86836,-0.00002
1773.80819,0.00059
1771.74802,0.00111
1769.68785,0.00090
1767.62768,0.00048
1765.56750,0.00066
1763.50733,0.00142
1761.44716,0.00241
1759.38699,0.00339
1757.32682,0.00420
1755.26664,0.00503
1753.20647,0.00608
1751.14630,0.00728
1749.08613,0.00857
1747.02596,0.00981
1744.96578,0.01080
1742.90561,0.01163
1740.84544,0.01271
1738.78527,0.01405
1736.72509,0.01506
1734.66492,0.01549
1732.60475,0.01553
1730.54458,0.01543
1728.48441,0.01531
1726.42423,0.01538
1724.36406,0.01564
1722.30389,0.01582
1720.24372,0.01568
1718.18355,0.01530
1716.12337,0.01513
1714.06320,0.01552
1712.00303,0.01606
1709.94286,0.01632
1707.88268,0.01610
1705.82251,0.01544
1703.76234,0.01489
1701.70217,0.01481
1699.64200,0.01531
1697.58182,0.01624
1695.52165,0.01690
1693.46148,0.01714
1691.40131,0.01754
1689.34114,0.01845
1687.28096,0.01975
1685.22079,0.02125
1683.16062,0.02317
1681.10045,0.02542
1679.04028,0.02763
1676.98010,0.02949
1674.91993,0.03087
1672.85976,0.03187
1670.79959,0.03234
1668.73941,0.03192
1666.67924,0.03107
1664.61907,0.03029
1662.55890,0.02948
1660.49873,0.02894
1658.43855,0.02899
1656.37838,0.02920
1654.31821,0.02904
1652.25804,0.02843
1650.19787,0.02775
1648.13769,0.02716
1646.07752,0.02695
1644.01735,0.02729
1641.95718,0.02789
1639.89701,0.02851
1637.83683,0.02901
1635.77666,0.02951
1633.71649,0.03034
1631.65632,0.03127
1629.59614,0.03200
1627.53597,0.03244
1625.47580,0.03268
1623.41563,0.03282
1621.35546,0.03295
1619.29528,0.03318
1617.23511,0.03350
1615.17494,0.03408
1613.11477,0.03518
1611.05460,0.03669
1608.99442,0.03834
1606.93425,0.03971
1604.87408,0.04035
1602.81391,0.03998
1600.75373,0.03885
1598.69356,0.03748
1596.63339,0.03614
1594.57322,0.03483
1592.51305,0.03356
1590.45287,0.03244
1588.39270,0.03156
1586.33253,0.03086
1584.27236,0.03019
1582.21219,0.02933
1580.15201,0.02823
1578.09184,0.02708
1576.03167,0.02627
1573.97150,0.02609
1571.91133,0.02598
1569.85115,0.02535
1567.79098,0.02417
1565.73081,0.02288
1563.67064,0.02180
1561.61046,0.02094
1559.55029,0.01977
1557.49012,0.01845
1555.42995,0.01781
1553.36978,0.01737
1551.30960,0.01664
1549.24943,0.01566
1547.18926,0.01474
1545.12909,0.01401
1543.06892,0.01328
1541.00874,0.01220
1538.94857,0.01120
1536.88840,0.01081
1534.82823,0.01056
1532.76805,0.01005
1530.70788,0.00947
1528.64771,0.00911
1526.58754,0.00897
1524.52737,0.00903
1522.46719,0.00939
1520.40702,0.01034
1518.34685,0.01173
1516.28668,0.01308
1514.22651,0.01388
1512.16633,0.01372
1510.10616,0.01262
1508.04599,0.01082
1505.98582,0.00893
1503.92565,0.00768
1501.86547,0.00690
1499.80530,0.00629
1497.74513,0.00551
1495.68496,0.00451
1493.62478,0.00368
1491.56461,0.00302
1489.50444,0.00226
1487.44427,0.00162
1485.38410,0.00142
1483.32392,0.00165
1481.26375,0.00208
1479.20358,0.00242
1477.14341,0.00266
1475.08324,0.00324
1473.02306,0.00493
1470.96289,0.00748
1468.90272,0.00974
1466.84255,0.01167
1464.78238,0.01350
1462.72220,0.01494
1460.66203,0.01582
1458.60186,0.01642
1456.54169,0.01729
1454.48151,0.01858
1452.42134,0.01967
1450.36117,0.02035
1448.30100,0.02104
1446.24083,0.02220
1444.18065,0.02359
1442.12048,0.02483
1440.06031,0.02578
1438.00014,0.02649
1435.93997,0.02701
1433.87979,0.02738
1431.81962,0.02771
1429.75945,0.02799
1427.69928,0.02808
1425.63910,0.02793
1423.57893,0.02775
1421.51876,0.02778
1419.45859,0.02791
1417.39842,0.02806
1415.33824,0.02834
1413.27807,0.02840
1411.21790,0.02800
1409.15773,0.02726
1407.09756,0.02637
1405.03738,0.02548
1402.97721,0.02478
1400.91704,0.02416
1398.85687,0.02336
1396.79670,0.02251
1394.73652,0.02184
1392.67635,0.02152
1390.61618,0.02141
1388.55601,0.02133
1386.49583,0.02155
1384.43566,0.02233
1382.37549,0.02333
1380.31532,0.02418
1378.25515,0.02483
1376.19497,0.02550
1374.13480,0.02619
1372.07463,0.02646
1370.01446,0.02623
1367.95429,0.02594
1365.89411,0.02566
1363.83394,0.02509
1361.77377,0.02440
1359.71360,0.02413
1357.65343,0.02414
1355.59325,0.02402
1353.53308,0.02384
1351.47291,0.02374
1349.41274,0.02372
1347.35256,0.02369
1345.29239,0.02358
1343.23222,0.02350
1341.17205,0.02344
1339.11188,0.02319
1337.05170,0.02284
1334.99153,0.02269
1332.93136,0.02292
1330.87119,0.02344
1328.81102,0.02381
1326.75084,0.02370
1324.69067,0.02338
1322.63050,0.02334
1320.57033,0.02345
1318.51015,0.02336
1316.44998,0.02317
1314.38981,0.02293
1312.32964,0.02258
1310.26947,0.02235
1308.20929,0.02222
1306.14912,0.02173
1304.08895,0.02097
1302.02878,0.02038
1299.96861,0.02003
1297.90843,0.01960
1295.84826,0.01903
1293.78809,0.01867
1291.72792,0.01883
1289.66775,0.01921
1287.60757,0.01943
1285.54740,0.01960
1283.48723,0.01993
1281.42706,0.02019
1279.36688,0.02019
1277.30671,0.02012
1275.24654,0.02016
1273.18637,0.02026
1271.12620,0.02045
1269.06602,0.02096
1267.00585,0.02184
1264.94568,0.02292
1262.88551,0.02403
1260.82534,0.02492
1258.76516,0.02555
1256.70499,0.02605
1254.64482,0.02637
1252.58465,0.02652
1250.52447,0.02689
1248.46430,0.02761
1246.40413,0.02844
1244.34396,0.02895
1242.28379,0.02898
1240.22361,0.02876
1238.16344,0.02858
1236.10327,0.02846
1234.04310,0.02807
1231.98293,0.02723
1229.92275,0.02619
1227.86258,0.02510
1225.80241,0.02405
1223.74224,0.02308
1221.68207,0.02202
1219.62189,0.02080
1217.56172,0.01949
1215.50155,0.01815
1213.44138,0.01694
1211.38120,0.01589
1209.32103,0.01480
1207.26086,0.01345
1205.20069,0.01183
1203.14052,0.01023
1201.08034,0.00871
1199.02017,0.00710
1196.96000,0.00549
1194.89983,0.00384
1192.83966,0.00229
1190.77948,0.00118
1188.71931,0.00040
1186.65914,0.00000
1184.59897,0.00007
1182.53880,0.00040
1180.47862,0.00070
1178.41845,0.00115
1176.35828,0.00208
1174.29811,0.00369
1172.23793,0.00591
1170.17776,0.00821
1168.11759,0.01008
1166.05742,0.01142
1163.99725,0.01240
1161.93707,0.01284
1159.87690,0.01305
1157.81673,0.01362
1155.75656,0.01425
1153.69639,0.01476
1151.63621,0.01546
1149.57604,0.01648
1147.51587,0.01781
1145.45570,0.01918
1143.39552,0.02032
1141.33535,0.02129
1139.27518,0.02183
1137.21501,0.02212
1135.15484,0.02275
1133.09466,0.02376
1131.03449,0.02485
1128.97432,0.02592
1126.91415,0.02712
1124.85398,0.02843
1122.79380,0.02962
1120.73363,0.03078
1118.67346,0.03196
1116.61329,0.03314
1114.55312,0.03462
1112.49294,0.03614
1110.43277,0.03706
1108.37260,0.03767
1106.31243,0.03875
1104.25225,0.04038
1102.19208,0.04197
1100.13191,0.04337
1098.07174,0.04505
1096.01157,0.04728
1093.95139,0.04956
1091.89122,0.05157
1089.83105,0.05346
1087.77088,0.05524
1085.71071,0.05694
1083.65053,0.05858
1081.59036,0.06044
1079.53019,0.06269
1077.47002,0.06525
1075.40985,0.06823
1073.34967,0.07104
1071.28950,0.07313
1069.22933,0.07487
1067.16916,0.07647
1065.10898,0.07785
1063.04881,0.07909
1060.98864,0.08034
1058.92847,0.08184
1056.86830,0.08363
1054.80812,0.08552
1052.74795,0.08748
1050.68778,0.08970
1048.62761,0.09238
1046.56744,0.09544
1044.50726,0.09827
1042.44709,0.10057
1040.38692,0.10273
1038.32675,0.10488
1036.26657,0.10682
1034.20640,0.10829
1032.14623,0.10918
1030.08606,0.10942
1028.02589,0.10894
1025.96571,0.10836
1023.90554,0.10815
1021.84537,0.10820
1019.78520,0.10805
1017.72503,0.10773
1015.66485,0.10771
1013.60468,0.10788
1011.54451,0.10823
1009.48434,0.10905
1007.42417,0.10977
1005.36399,0.10933
1003.30382,0.10786
1001.24365,0.10635
999.18348,0.10501
997.12330,0.10360
995.06313,0.10215
993.00296,0.10050
990.94279,0.09844
988.88262,0.09644
986.82244,0.09492
984.76227,0.09354
982.70210,0.09216
980.64193,0.09110
978.58176,0.08988
976.52158,0.08815
974.46141,0.08647
972.40124,0.08492
970.34107,0.08321
968.28089,0.08127
966.22072,0.07907
964.16055,0.07661
962.10038,0.07427
960.04021,0.07270
957.98003,0.07156
955.91986,0.07002
953.85969,0.06836
951.79952,0.06723
949.73935,0.06624
947.67917,0.06473
945.61900,0.06279
943.55883,0.06068
941.49866,0.05840
939.43849,0.05568
937.37831,0.05222
935.31814,0.04844
933.25797,0.04500
931.19780,0.04206
929.13762,0.03959
927.07745,0.03720
925.01728,0.03463
922.95711,0.03230
920.89694,0.03036
918.83676,0.02845
916.77659,0.02652
914.71642,0.02479
912.65625,0.02334
910.59608,0.02215
908.53590,0.02092
906.47573,0.01963
904.41556,0.01861
902.35539,0.01788
900.29522,0.01719
898.23504,0.01703
896.17487,0.01748
894.11470,0.01774
892.05453,0.01803
889.99435,0.01850
887.93418,0.01830
885.87401,0.01722
883.81384,0.01607
881.75367,0.01501
879.69349,0.01338
877.63332,0.01117
875.57315,0.00942
873.51298,0.00905
871.45281,0.00950
869.39263,0.00965
867.33246,0.00954
865.27229,0.00907
863.21212,0.00771
861.15194,0.00637
859.09177,0.00600
857.03160,0.00566
854.97143,0.00535
852.91126,0.00605
850.85108,0.00710
848.79091,0.00750
846.73074,0.00698
844.67057,0.00599
842.61040,0.00568
840.55022,0.00615
838.49005,0.00615
836.42988,0.00531
834.36971,0.00481
832.30954,0.00470
830.24936,0.00439
828.18919,0.00400
826.12902,0.00313
824.06885,0.00210
822.00867,0.00211
819.94850,0.00223
817.88833,0.00163
815.82816,0.00190
813.76799,0.00338
811.70781,0.00432
809.64764,0.00377
807.58747,0.00270
805.52730,0.00214
803.46713,0.00198
801.40695,0.00151
799.34678,0.00072
797.28661,0.00000
795.22644,-0.00021
793.16627,0.00040
791.10609,0.00079
789.04592,0.00080
786.98575,0.00107
784.92558,0.00088
782.86540,-0.00004
780.80523,-0.00056
778.74506,-0.00013
776.68489,-0.00011
774.62472,-0.00085
772.56454,-0.00058
770.50437,0.00077
768.44420,0.00185
766.38403,0.00242
764.32386,0.00235
762.26368,0.00129
760.20351,0.00022
758.14334,0.00027
756.08317,0.00078
754.02299,0.00137
751.96282,0.00220
749.90265,0.00240
747.84248,0.00192
745.78231,0.00168
743.72213,0.00156
741.66196,0.00102
739.60179,0.00039
737.54162,0.00000
735.48145,-0.00023
733.42127,-0.00022
731.36110,-0.00041
729.30093,-0.00022
727.24076,0.00024
725.18059,0.00075
723.12041,0.00198
721.06024,0.00306
719.00007,0.00404
716.93990,0.00445
714.87972,0.00469
712.81955,0.00507
710.75938,0.00494
708.69921,0.00464
706.63904,0.00541
704.57886,0.00711
702.51869,0.00761
700.45852,0.00586
698.39835,0.00382
696.33818,0.00343
694.27800,0.00379
692.21783,0.00363
690.15766,0.00381
688.09749,0.00455
686.03731,0.00459
683.97714,0.00308
681.91697,0.00094
679.85680,0.00006
677.79663,0.00028
675.73645,0.00115
673.67628,0.00429
671.61611,0.00881
669.55594,0.00737
667.49577,0.00288
665.43559,0.00548
663.37542,0.00281
661.31525,0.00027
659.25508,-0.00062
657.19491,-0.00097
655.13473,-0.00018
653.07456,0.00122
651.01439,0.00096
648.95422,0.00000
646.89404,0.00161
644.83387,0.00504
642.77370,0.00604
640.71353,0.00397
638.65336,0.00299
636.59318,0.00491
634.53301,0.00652
632.47284,0.00493
630.41267,0.00128
628.35250,-0.00143
626.29232,-0.00115
624.23215,-0.00136
622.17198,-0.00554
620.11181,-0.00961
618.05164,-0.00901
615.99146,-0.00330
613.93129,0.00199
611.87112,0.00168
609.81095,-0.00096
607.75077,-0.00133
605.69060,0.00058
603.63043,0.00303
601.57026,0.00325
599.51009,0.00000
