3996.73391,0.00012
3994.67373,0.00002
3992.61356,-0.00003
3990.55339,0.00000
3988.49322,0.00014
3986.43305,0.00039
3984.37287,0.00071
3982.31270,0.00094
3980.25253,0.00098
3978.19236,0.00088
3976.13219,0.00084
3974.07201,0.00098
3972.01184,0.00118
3969.95167,0.00127
3967.89150,0.00122
3965.83133,0.00112
3963.77115,0.00108
3961.71098,0.00116
3959.65081,0.00130
3957.59064,0.00139
3955.53046,0.00143
3953.47029,0.00151
3951.41012,0.00161
3949.34995,0.00159
3947.28978,0.00141
3945.22960,0.00118
3943.16943,0.00112
3941.10926,0.00129
3939.04909,0.00149
3936.98892,0.00157
3934.92874,0.00150
3932.86857,0.00134
3930.80840,0.00118
3928.74823,0.00109
3926.68805,0.00109
3924.62788,0.00118
3922.56771,0.00134
3920.50754,0.00150
3918.44737,0.00164
3916.38719,0.00176
3914.32702,0.00173
3912.26685,0.00151
3910.20668,0.00121
3908.14651,0.00084
3906.08633,0.00040
3904.02616,0.00005
3901.96599,0.00000
3899.90582,0.00021
3897.84565,0.00054
3895.78547,0.00080
3893.72530,0.00093
3891.66513,0.00097
3889.60496,0.00094
3887.54478,0.00081
3885.48461,0.00078
3883.42444,0.00100
3881.36427,0.00140
3879.30410,0.00176
3877.24392,0.00182
3875.18375,0.00156
3873.12358,0.00126
3871.06341,0.00117
3869.00324,0.00130
3866.94306,0.00147
3864.88289,0.00158
3862.82272,0.00173
3860.76255,0.00191
3858.70237,0.00199
3856.64220,0.00199
3854.58203,0.00210
3852.52186,0.00241
3850.46169,0.00265
3848.40151,0.00257
3846.34134,0.00223
3844.28117,0.00184
3842.22100,0.00159
3840.16083,0.00154
3838.10065,0.00169
3836.04048,0.00186
3833.98031,0.00184
3831.92014,0.00155
3829.85997,0.00109
3827.79979,0.00063
3825.73962,0.00030
3823.67945,0.00019
3821.61928,0.00040
3819.55910,0.00095
3817.49893,0.00157
3815.43876,0.00209
3813.37859,0.00244
3811.31842,0.00251
3809.25824,0.00236
3807.19807,0.00221
3805.13790,0.00213
3803.07773,0.00204
3801.01756,0.00200
3798.95738,0.00205
3796.89721,0.00218
3794.83704,0.00244
3792.77687,0.00277
3790.71670,0.00303
3788.65652,0.00310
3786.59635,0.00292
3784.53618,0.00264
3782.47601,0.00250
3780.41583,0.00266
3778.35566,0.00302
3776.29549,0.00334
3774.23532,0.00341
3772.17515,0.00324
3770.11497,0.00308
3768.05480,0.00310
3765.99463,0.00315
3763.93446,0.00302
3761.87429,0.00273
3759.81411,0.00250
3757.75394,0.00231
3755.69377,0.00183
3753.63360,0.00097
3751.57342,0.00018
3749.51325,0.00000
3747.45308,0.00030
3745.39291,0.00083
3743.33274,0.00152
3741.27256,0.00215
3739.21239,0.00247
3737.15222,0.00259
3735.09205,0.00287
3733.03188,0.00342
3730.97170,0.00394
3728.91153,0.00421
3726.85136,0.00429
3724.79119,0.00435
3722.73102,0.00439
3720.67084,0.00432
3718.61067,0.00406
3716.55050,0.00358
3714.49033,0.00297
3712.43015,0.00263
3710.36998,0.00295
3708.30981,0.00370
3706.24964,0.00431
3704.18947,0.00461
3702.12929,0.00472
3700.06912,0.00468
3698.00895,0.00446
3695.94878,0.00413
3693.88861,0.00385
3691.82843,0.00371
3689.76826,0.00386
3687.70809,0.00425
3685.64792,0.00450
3683.58775,0.00437
3681.52757,0.00391
3679.46740,0.00326
3677.40723,0.00267
3675.34706,0.00242
3673.28688,0.00261
3671.22671,0.00305
3669.16654,0.00366
3667.10637,0.00430
3665.04620,0.00469
3662.98602,0.00470
3660.92585,0.00442
3658.86568,0.00402
3656.80551,0.00365
3654.74534,0.00338
3652.68516,0.00318
3650.62499,0.00326
3648.56482,0.00389
3646.50465,0.00483
3644.44447,0.00550
3642.38430,0.00566
3640.32413,0.00549
3638.26396,0.00524
3636.20379,0.00504
3634.14361,0.00489
3632.08344,0.00489
3630.02327,0.00525
3627.96310,0.00606
3625.90293,0.00695
3623.84275,0.00736
3621.78258,0.00719
3619.72241,0.00686
3617.66224,0.00675
3615.60207,0.00685
3613.54189,0.00695
3611.48172,0.00705
3609.42155,0.00728
3607.36138,0.00755
3605.30120,0.00768
3603.24103,0.00774
3601.18086,0.00800
3599.12069,0.00856
3597.06052,0.00927
3595.00034,0.00995
3592.94017,0.01042
3590.88000,0.01060
3588.81983,0.01057
3586.75966,0.01056
3584.69948,0.01063
3582.63931,0.01075
3580.57914,0.01093
3578.51897,0.01116
3576.45879,0.01138
3574.39862,0.01156
3572.33845,0.01175
3570.27828,0.01199
3568.21811,0.01226
3566.15793,0.01262
3564.09776,0.01315
3562.03759,0.01370
3559.97742,0.01412
3557.91725,0.01434
3555.85707,0.01449
3553.79690,0.01474
3551.73673,0.01516
3549.67656,0.01563
3547.61639,0.01600
3545.55621,0.01619
3543.49604,0.01619
3541.43587,0.01603
3539.37570,0.01580
3537.31552,0.01563
3535.25535,0.01561
3533.19518,0.01570
3531.13501,0.01579
3529.07484,0.01592
3527.01466,0.01621
3524.95449,0.01668
3522.89432,0.01721
3520.83415,0.01771
3518.77398,0.01811
3516.71380,0.01837
3514.65363,0.01843
3512.59346,0.01836
3510.53329,0.01843
3508.47312,0.01878
3506.41294,0.01926
3504.35277,0.01966
3502.29260,0.01999
3500.23243,0.02035
3498.17225,0.02066
3496.11208,0.02073
3494.05191,0.02052
3491.99174,0.02019
3489.93157,0.02003
3487.87139,0.02023
3485.81122,0.02071
3483.75105,0.02122
3481.69088,0.02157
3479.63071,0.02177
3477.57053,0.02189
3475.51036,0.02201
3473.45019,0.02219
3471.39002,0.02244
3469.32984,0.02263
3467.26967,0.02269
3465.20950,0.02269
3463.14933,0.02278
3461.08916,0.02306
3459.02898,0.02354
3456.96881,0.02412
3454.90864,0.02467
3452.84847,0.02502
3450.78830,0.02513
3448.72812,0.02512
3446.66795,0.02516
3444.60778,0.02528
3442.54761,0.02534
3440.48744,0.02532
3438.42726,0.02532
3436.36709,0.02545
3434.30692,0.02571
3432.24675,0.02595
3430.18657,0.02610
3428.12640,0.02620
3426.06623,0.02637
3424.00606,0.02669
3421.94589,0.02712
3419.88571,0.02755
3417.82554,0.02779
3415.76537,0.02781
3413.70520,0.02778
3411.64503,0.02797
3409.58485,0.02843
3407.52468,0.02900
3405.46451,0.02937
3403.40434,0.02939
3401.34416,0.02917
3399.28399,0.02899
3397.22382,0.02905
3395.16365,0.02936
3393.10348,0.02979
3391.04330,0.03022
3388.98313,0.03054
3386.92296,0.03068
3384.86279,0.03064
3382.80262,0.03048
3380.74244,0.03035
3378.68227,0.03034
3376.62210,0.03045
3374.56193,0.03058
3372.50176,0.03070
3370.44158,0.03082
3368.38141,0.03099
3366.32124,0.03123
3364.26107,0.03145
3362.20089,0.03153
3360.14072,0.03144
3358.08055,0.03130
3356.02038,0.03130
3353.96021,0.03152
3351.90003,0.03192
3349.83986,0.03232
3347.77969,0.03254
3345.71952,0.03255
3343.65935,0.03248
3341.59917,0.03239
3339.53900,0.03236
3337.47883,0.03244
3335.41866,0.03268
3333.35849,0.03299
3331.29831,0.03323
3329.23814,0.03331
3327.17797,0.03327
3325.11780,0.03321
3323.05762,0.03315
3320.99745,0.03316
3318.93728,0.03327
3316.87711,0.03344
3314.81694,0.03355
3312.75676,0.03354
3310.69659,0.03345
3308.63642,0.03341
3306.57625,0.03347
3304.51608,0.03359
3302.45590,0.03369
3300.39573,0.03376
3298.33556,0.03379
3296.27539,0.03380
3294.21521,0.03384
3292.15504,0.03395
3290.09487,0.03410
3288.03470,0.03420
3285.97453,0.03421
3283.91435,0.03417
3281.85418,0.03413
3279.79401,0.03406
3277.73384,0.03396
3275.67367,0.03385
3273.61349,0.03368
3271.55332,0.03342
3269.49315,0.03315
3267.43298,0.03305
3265.37281,0.03312
3263.31263,0.03327
3261.25246,0.03342
3259.19229,0.03352
3257.13212,0.03358
3255.07194,0.03368
3253.01177,0.03383
3250.95160,0.03395
3248.89143,0.03400
3246.83126,0.03398
3244.77108,0.03393
3242.71091,0.03383
3240.65074,0.03369
3238.59057,0.03354
3236.53040,0.03340
3234.47022,0.03329
3232.41005,0.03323
3230.34988,0.03314
3228.28971,0.03294
3226.22954,0.03264
3224.16936,0.03238
3222.10919,0.03227
3220.04902,0.03232
3217.98885,0.03240
3215.92867,0.03239
3213.86850,0.03224
3211.80833,0.03203
3209.74816,0.03187
3207.68799,0.03178
3205.62781,0.03176
3203.56764,0.03173
3201.50747,0.03165
3199.44730,0.03151
3197.38713,0.03130
3195.32695,0.03103
3193.26678,0.03078
3191.20661,0.03058
3189.14644,0.03046
3187.08626,0.03043
3185.02609,0.03048
3182.96592,0.03051
3180.90575,0.03045
3178.84558,0.03036
3176.78540,0.03025
3174.72523,0.03003
3172.66506,0.02959
3170.60489,0.02906
3168.54472,0.02865
3166.48454,0.02841
3164.42437,0.02826
3162.36420,0.02813
3160.30403,0.02795
3158.24386,0.02769
3156.18368,0.02740
3154.12351,0.02716
3152.06334,0.02696
3150.00317,0.02673
3147.94299,0.02645
3145.88282,0.02623
3143.82265,0.02620
3141.76248,0.02633
3139.70231,0.02645
3137.64213,0.02638
3135.58196,0.02608
3133.52179,0.02568
3131.46162,0.02526
3129.40145,0.02491
3127.34127,0.02465
3125.28110,0.02443
3123.22093,0.02427
3121.16076,0.02417
3119.10058,0.02409
3117.04041,0.02393
3114.98024,0.02374
3112.92007,0.02361
3110.85990,0.02348
3108.79972,0.02324
3106.73955,0.02289
3104.67938,0.02256
3102.61921,0.02240
3100.55904,0.02242
3098.49886,0.02248
3096.43869,0.02241
3094.37852,0.02224
3092.31835,0.02200
3090.25818,0.02172
3088.19800,0.02134
3086.13783,0.02085
3084.07766,0.02030
3082.01749,0.01985
3079.95731,0.01957
3077.89714,0.01944
3075.83697,0.01931
3073.77680,0.01916
3071.71663,0.01907
3069.65645,0.01908
3067.59628,0.01909
3065.53611,0.01898
3063.47594,0.01871
3061.41577,0.01834
3059.35559,0.01794
3057.29542,0.01757
3055.23525,0.01732
3053.17508,0.01722
3051.11491,0.01721
3049.05473,0.01715
3046.99456,0.01700
3044.93439,0.01682
3042.87422,0.01669
3040.81404,0.01662
3038.75387,0.01655
3036.69370,0.01641
3034.63353,0.01619
3032.57336,0.01593
3030.51318,0.01576
3028.45301,0.01573
3026.39284,0.01576
3024.33267,0.01571
3022.27250,0.01555
3020.21232,0.01533
3018.15215,0.01505
3016.09198,0.01473
3014.03181,0.01449
3011.97163,0.01442
3009.91146,0.01449
3007.85129,0.01461
3005.79112,0.01474
3003.73095,0.01485
3001.67077,0.01489
2999.61060,0.01484
2997.55043,0.01471
2995.49026,0.01458
2993.43009,0.01447
2991.36991,0.01431
2989.30974,0.01418
2987.24957,0.01415
2985.18940,0.01419
2983.12923,0.01430
2981.06905,0.01442
2979.00888,0.01453
2976.94871,0.01470
2974.88854,0.01503
2972.82836,0.01549
2970.76819,0.01575
2968.70802,0.01556
2966.64785,0.01533
2964.58768,0.01558
2962.52750,0.01625
2960.46733,0.01687
2958.40716,0.01720
2956.34699,0.01728
2954.28682,0.01734
2952.22664,0.01761
2950.16647,0.01807
2948.10630,0.01848
2946.04613,0.01867
2943.98596,0.01868
2941.92578,0.01866
2939.86561,0.01875
2937.80544,0.01897
2935.74527,0.01921
2933.68509,0.01939
2931.62492,0.01943
2929.56475,0.01927
2927.50458,0.01909
2925.44441,0.01909
2923.38423,0.01921
2921.32406,0.01933
2919.26389,0.01919
2917.20372,0.01879
2915.14355,0.01840
2913.08337,0.01832
2911.02320,0.01849
2908.96303,0.01855
2906.90286,0.01828
2904.84268,0.01795
2902.78251,0.01785
2900.72234,0.01794
2898.66217,0.01810
2896.60200,0.01822
2894.54182,0.01823
2892.48165,0.01814
2890.42148,0.01794
2888.36131,0.01765
2886.30114,0.01744
2884.24096,0.01746
2882.18079,0.01765
2880.12062,0.01780
2878.06045,0.01770
2876.00028,0.01729
2873.94010,0.01671
2871.87993,0.01616
2869.81976,0.01584
2867.75959,0.01569
2865.69941,0.01556
2863.63924,0.01531
2861.57907,0.01493
2859.51890,0.01462
2857.45873,0.01466
2855.39855,0.01497
2853.33838,0.01522
2851.27821,0.01519
2849.21804,0.01494
2847.15787,0.01465
2845.09769,0.01448
2843.03752,0.01444
2840.97735,0.01444
2838.91718,0.01443
2836.85700,0.01444
2834.79683,0.01440
2832.73666,0.01427
2830.67649,0.01409
2828.61632,0.01388
2826.55614,0.01362
2824.49597,0.01325
2822.43580,0.01285
2820.37563,0.01264
2818.31546,0.01268
2816.25528,0.01276
2814.19511,0.01278
2812.13494,0.01267
2810.07477,0.01239
2808.01460,0.01213
2805.95442,0.01209
2803.89425,0.01218
2801.83408,0.01229
2799.77391,0.01246
2797.71373,0.01261
2795.65356,0.01255
2793.59339,0.01233
2791.53322,0.01217
2789.47305,0.01220
2787.41287,0.01237
2785.35270,0.01245
2783.29253,0.01230
2781.23236,0.01201
2779.17219,0.01176
2777.11201,0.01170
2775.05184,0.01181
2772.99167,0.01183
2770.93150,0.01169
2768.87133,0.01155
2766.81115,0.01151
2764.75098,0.01149
2762.69081,0.01146
2760.63064,0.01137
2758.57046,0.01132
2756.51029,0.01139
2754.45012,0.01149
2752.38995,0.01150
2750.32978,0.01138
2748.26960,0.01117
2746.20943,0.01102
2744.14926,0.01104
2742.08909,0.01114
2740.02892,0.01116
2737.96874,0.01112
2735.90857,0.01114
2733.84840,0.01121
2731.78823,0.01125
2729.72805,0.01124
2727.66788,0.01118
2725.60771,0.01102
2723.54754,0.01076
2721.48737,0.01057
2719.42719,0.01058
2717.36702,0.01068
2715.30685,0.01071
2713.24668,0.01061
2711.18651,0.01051
2709.12633,0.01055
2707.06616,0.01064
2705.00599,0.01061
2702.94582,0.01061
2700.88565,0.01078
2698.82547,0.01095
2696.76530,0.01084
2694.70513,0.01049
2692.64496,0.01027
2690.58478,0.01047
2688.52461,0.01092
2686.46444,0.01110
2684.40427,0.01088
2682.34410,0.01053
2680.28392,0.01025
2678.22375,0.01001
2676.16358,0.00977
2674.10341,0.00960
2672.04324,0.00960
2669.98306,0.00976
2667.92289,0.01001
2665.86272,0.01022
2663.80255,0.01029
2661.74238,0.01015
2659.68220,0.00995
2657.62203,0.00992
2655.56186,0.01005
2653.50169,0.01007
2651.44151,0.01001
2649.38134,0.01004
2647.32117,0.01008
2645.26100,0.00992
2643.20083,0.00956
2641.14065,0.00929
2639.08048,0.00937
2637.02031,0.00960
2634.96014,0.00952
2632.89997,0.00913
2630.83979,0.00890
2628.77962,0.00903
2626.71945,0.00912
2624.65928,0.00886
2622.59910,0.00856
2620.53893,0.00856
2618.47876,0.00874
2616.41859,0.00882
2614.35842,0.00862
2612.29824,0.00820
2610.23807,0.00780
2608.17790,0.00759
2606.11773,0.00765
2604.05756,0.00777
2601.99738,0.00770
2599.93721,0.00761
2597.87704,0.00790
2595.81687,0.00850
2593.75670,0.00892
2591.69652,0.00906
2589.63635,0.00919
2587.57618,0.00934
2585.51601,0.00924
2583.45583,0.00888
2581.39566,0.00844
2579.33549,0.00801
2577.27532,0.00764
2575.21515,0.00745
2573.15497,0.00739
2571.09480,0.00751
2569.03463,0.00778
2566.97446,0.00782
2564.91429,0.00757
2562.85411,0.00744
2560.79394,0.00752
2558.73377,0.00758
2556.67360,0.00760
2554.61342,0.00766
2552.55325,0.00759
2550.49308,0.00726
2548.43291,0.00686
2546.37274,0.00669
2544.31256,0.00683
2542.25239,0.00685
2540.19222,0.00646
2538.13205,0.00604
2536.07188,0.00605
2534.01170,0.00645
2531.95153,0.00701
2529.89136,0.00752
2527.83119,0.00760
2525.77102,0.00732
2523.71084,0.00710
2521.65067,0.00713
2519.59050,0.00725
2517.53033,0.00721
2515.47015,0.00697
2513.40998,0.00691
2511.34981,0.00717
2509.28964,0.00740
2507.22947,0.00745
2505.16929,0.00736
2503.10912,0.00714
2501.04895,0.00694
2498.98878,0.00680
2496.92861,0.00663
2494.86843,0.00644
2492.80826,0.00626
2490.74809,0.00628
2488.68792,0.00672
2486.62775,0.00736
2484.56757,0.00760
2482.50740,0.00742
2480.44723,0.00728
2478.38706,0.00721
2476.32688,0.00696
2474.26671,0.00656
2472.20654,0.00631
2470.14637,0.00650
2468.08620,0.00696
2466.02602,0.00718
2463.96585,0.00704
2461.90568,0.00675
2459.84551,0.00655
2457.78534,0.00659
2455.72516,0.00669
2453.66499,0.00663
2451.60482,0.00640
2449.54465,0.00624
2447.48447,0.00632
2445.42430,0.00652
2443.36413,0.00659
2441.30396,0.00657
2439.24379,0.00688
2437.18361,0.00752
2435.12344,0.00790
2433.06327,0.00779
2431.00310,0.00736
2428.94293,0.00689
2426.88275,0.00667
2424.82258,0.00670
2422.76241,0.00675
2420.70224,0.00665
2418.64207,0.00656
2416.58189,0.00662
2414.52172,0.00670
2412.46155,0.00665
2410.40138,0.00649
2408.34120,0.00644
2406.28103,0.00659
2404.22086,0.00674
2402.16069,0.00675
2400.10052,0.00673
2398.04034,0.00665
2395.98017,0.00643
2393.92000,0.00612
2391.85983,0.00591
2389.79966,0.00596
2387.73948,0.00628
2385.67931,0.00669
2383.61914,0.00708
2381.55897,0.00735
2379.49880,0.00742
2377.43862,0.00721
2375.37845,0.00681
2373.31828,0.00638
2371.25811,0.00600
2369.19793,0.00561
2367.13776,0.00527
2365.07759,0.00533
2363.01742,0.00603
2360.95725,0.00699
2358.89707,0.00759
2356.83690,0.00762
2354.77673,0.00752
2352.71656,0.00777
2350.65639,0.00817
2348.59621,0.00826
2346.53604,0.00789
2344.47587,0.00726
2342.41570,0.00677
2340.35552,0.00679
2338.29535,0.00713
2336.23518,0.00729
2334.17501,0.00703
2332.11484,0.00671
2330.05466,0.00678
2327.99449,0.00722
2325.93432,0.00765
2323.87415,0.00793
2321.81398,0.00817
2319.75380,0.00840
2317.69363,0.00850
2315.63346,0.00843
2313.57329,0.00834
2311.51312,0.00838
2309.45294,0.00851
2307.39277,0.00860
2305.33260,0.00853
2303.27243,0.00820
2301.21225,0.00759
2299.15208,0.00688
2297.09191,0.00641
2295.03174,0.00626
2292.97157,0.00631
2290.91139,0.00648
2288.85122,0.00674
2286.79105,0.00704
2284.73088,0.00726
2282.67071,0.00723
2280.61053,0.00692
2278.55036,0.00650
2276.49019,0.00620
2274.43002,0.00614
2272.36984,0.00625
2270.30967,0.00644
2268.24950,0.00668
2266.18933,0.00694
2264.12916,0.00718
2262.06898,0.00730
2260.00881,0.00712
2257.94864,0.00650
2255.88847,0.00566
2253.82830,0.00508
2251.76812,0.00510
2249.70795,0.00556
2247.64778,0.00599
2245.58761,0.00634
2243.52744,0.00704
2241.46726,0.00789
2239.40709,0.00839
2237.34692,0.00832
2235.28675,0.00779
2233.22657,0.00710
2231.16640,0.00637
2229.10623,0.00565
2227.04606,0.00499
2224.98589,0.00474
2222.92571,0.00555
2220.86554,0.00689
2218.80537,0.00758
2216.74520,0.00737
2214.68503,0.00658
2212.62485,0.00585
2210.56468,0.00595
2208.50451,0.00654
2206.44434,0.00679
2204.38417,0.00657
2202.32399,0.00614
2200.26382,0.00557
2198.20365,0.00480
2196.14348,0.00422
2194.08330,0.00471
2192.02313,0.00611
2189.96296,0.00682
2187.90279,0.00605
2185.84262,0.00483
2183.78244,0.00431
2181.72227,0.00426
2179.66210,0.00406
2177.60193,0.00378
2175.54176,0.00379
2173.48158,0.00450
2171.42141,0.00576
2169.36124,0.00639
2167.30107,0.00588
2165.24089,0.00540
2163.18072,0.00569
2161.12055,0.00588
2159.06038,0.00491
2157.00021,0.00269
2154.94003,0.00074
2152.87986,0.00071
2150.81969,0.00211
2148.75952,0.00346
2146.69935,0.00433
2144.63917,0.00487
2142.57900,0.00511
2140.51883,0.00501
2138.45866,0.00424
2136.39849,0.00309
2134.33831,0.00285
2132.27814,0.00392
2130.21797,0.00501
2128.15780,0.00519
2126.09762,0.00485
2124.03745,0.00462
2121.97728,0.00497
2119.91711,0.00609
2117.85694,0.00731
2115.79676,0.00756
2113.73659,0.00676
2111.67642,0.00609
2109.61625,0.00611
2107.55608,0.00610
2105.49590,0.00585
2103.43573,0.00608
2101.37556,0.00670
2099.31539,0.00690
2097.25521,0.00675
2095.19504,0.00659
2093.13487,0.00643
2091.07470,0.00614
2089.01453,0.00574
2086.95435,0.00548
2084.89418,0.00568
2082.83401,0.00636
2080.77384,0.00715
2078.71367,0.00757
2076.65349,0.00745
2074.59332,0.00700
2072.53315,0.00646
2070.47298,0.00600
2068.41281,0.00562
2066.35263,0.00512
2064.29246,0.00431
2062.23229,0.00335
2060.17212,0.00275
2058.11194,0.00293
2056.05177,0.00389
2053.99160,0.00522
2051.93143,0.00644
2049.87126,0.00725
2047.81108,0.00770
2045.75091,0.00797
2043.69074,0.00809
2041.63057,0.00777
2039.57040,0.00697
2037.51022,0.00621
2035.45005,0.00606
2033.38988,0.00646
2031.32971,0.00683
2029.26954,0.00691
2027.20936,0.00691
2025.14919,0.00694
2023.08902,0.00673
2021.02885,0.00602
2018.96867,0.00490
2016.90850,0.00367
2014.84833,0.00267
2012.78816,0.00238
2010.72799,0.00304
2008.66781,0.00426
2006.60764,0.00531
2004.54747,0.00554
2002.48730,0.00476
2000.42713,0.00322
1998.36695,0.00151
1996.30678,0.00031
1994.24661,0.00000
1992.18644,0.00062
1990.12626,0.00211
1988.06609,0.00412
1986.00592,0.00601
1983.94575,0.00720
1981.88558,0.00729
1979.82540,0.00611
1977.76523,0.00403
1975.70506,0.00207
1973.64489,0.00111
1971.58472,0.00138
1969.52454,0.00273
1967.46437,0.00465
1965.40420,0.00619
1963.34403,0.00648
1961.28386,0.00543
1959.22368,0.00373
1957.16351,0.00233
1955.10334,0.00173
1953.04317,0.00195
1950.98299,0.00267
1948.92282,0.00342
1946.86265,0.00390
1944.80248,0.00412
1942.74231,0.00417
1940.68213,0.00407
1938.62196,0.00371
1936.56179,0.00323
1934.50162,0.00305
1932.44145,0.00334
1930.38127,0.00385
1928.32110,0.00420
1926.26093,0.00424
1924.20076,0.00404
1922.14059,0.00375
1920.08041,0.00349
1918.02024,0.00344
1915.96007,0.00375
1913.89990,0.00425
1911.83972,0.00464
1909.77955,0.00477
1907.71938,0.00460
1905.65921,0.00424
1903.59904,0.00388
1901.53886,0.00370
1899.47869,0.00368
1897.41852,0.00351
1895.35835,0.00304
1893.29818,0.00256
1891.23800,0.00253
1889.17783,0.00309
1887.11766,0.00389
1885.05749,0.00453
1882.99731,0.00485
1880.93714,0.00481
1878.87697,0.00448
1876.81680,0.00414
1874.75663,0.00404
1872.69645,0.00414
1870.63628,0.00426
1868.57611,0.00428
1866.51594,0.00423
1864.45577,0.00401
1862.39559,0.00361
1860.33542,0.00324
1858.27525,0.00316
1856.21508,0.00338
1854.15491,0.00366
1852.09473,0.00381
1850.03456,0.00383
1847.97439,0.00380
1845.91422,0.00379
1843.85404,0.00388
1841.79387,0.00402
1839.73370,0.00407
1837.67353,0.00394
1835.61336,0.00363
1833.55318,0.00328
1831.49301,0.00301
1829.43284,0.00287
1827.37267,0.00279
1825.31250,0.00272
1823.25232,0.00278
1821.19215,0.00305
1819.13198,0.00343
1817.07181,0.00375
1815.01163,0.00387
1812.95146,0.00385
1810.89129,0.00378
1808.83112,0.00373
1806.77095,0.00366
1804.71077,0.00357
1802.65060,0.00348
1800.59043,0.00339
1798.53026,0.00322
1796.47009,0.00291
1794.40991,0.00255
1792.34974,0.00244
1790.28957,0.00272
1788.22940,0.00316
1786.16923,0.00345
1784.10905,0.00344
1782.04888,0.00319
1779.98871,0.00290
1777.92854,0.00268
1775.86836,0.00250
1773.80819,0.00242
1771.74802,0.00255
1769.68785,0.00291
1767.62768,0.00337
1765.56750,0.00384
1763.50733,0.00431
1761.44716,0.00481
1759.38699,0.00534
1757.32682,0.00580
1755.26664,0.00607
1753.20647,0.00612
1751.14630,0.00610
1749.08613,0.00625
1747.02596,0.00664
1744.96578,0.00717
1742.90561,0.00763
1740.84544,0.00789
1738.78527,0.00793
1736.72509,0.00781
1734.66492,0.00776
1732.60475,0.00804
1730.54458,0.00859
1728.48441,0.00912
1726.42423,0.00939
1724.36406,0.00928
1722.30389,0.00879
1720.24372,0.00797
1718.18355,0.00708
1716.12337,0.00654
1714.06320,0.00644
1712.00303,0.00648
1709.94286,0.00628
1707.88268,0.00571
1705.82251,0.00485
1703.76234,0.00392
1701.70217,0.00315
1699.64200,0.00283
1697.58182,0.00314
1695.52165,0.00386
1693.46148,0.00454
1691.40131,0.00478
1689.34114,0.00460
1687.28096,0.00429
1685.22079,0.00420
1683.16062,0.00456
1681.10045,0.00516
1679.04028,0.00563
1676.98010,0.00584
1674.91993,0.00598
1672.85976,0.00622
1670.79959,0.00660
1668.73941,0.00719
1666.67924,0.00795
1664.61907,0.00869
1662.55890,0.00939
1660.49873,0.00996
1658.43855,0.01024
1656.37838,0.01021
1654.31821,0.01019
1652.25804,0.01055
1650.19787,0.01118
1648.13769,0.01183
1646.07752,0.01256
1644.01735,0.01329
1641.95718,0.01364
1639.89701,0.01341
1637.83683,0.01289
1635.77666,0.01259
1633.71649,0.01280
1631.65632,0.01320
1629.59614,0.01350
1627.53597,0.01367
1625.47580,0.01377
1623.41563,0.01388
1621.35546,0.01400
1619.29528,0.01406
1617.23511,0.01412
1615.17494,0.01427
1613.11477,0.01436
1611.05460,0.01422
1608.99442,0.01387
1606.93425,0.01343
1604.87408,0.01288
1602.81391,0.01220
1600.75373,0.01143
1598.69356,0.01063
1596.63339,0.00981
1594.57322,0.00897
1592.51305,0.00817
1590.45287,0.00743
1588.39270,0.00675
1586.33253,0.00612
1584.27236,0.00548
1582.21219,0.00479
1580.15201,0.00405
1578.09184,0.00343
1576.03167,0.00312
1573.97150,0.00312
1571.91133,0.00312
1569.85115,0.00303
1567.79098,0.00293
1565.73081,0.00269
1563.67064,0.00210
1561.61046,0.00126
1559.55029,0.00070
1557.49012,0.00099
1555.42995,0.00185
1553.36978,0.00265
1551.30960,0.00301
1549.24943,0.00283
1547.18926,0.00217
1545.12909,0.00121
1543.06892,0.00033
1541.00874,0.00000
1538.94857,0.00036
1536.88840,0.00100
1534.82823,0.00143
1532.76805,0.00156
1530.70788,0.00151
1528.64771,0.00127
1526.58754,0.00089
1524.52737,0.00043
1522.46719,0.00006
1520.40702,0.00001
1518.34685,0.00035
1516.28668,0.00083
1514.22651,0.00116
1512.16633,0.00109
1510.10616,0.00069
1508.04599,0.00041
1505.98582,0.00075
1503.92565,0.00158
1501.86547,0.00233
1499.80530,0.00269
1497.74513,0.00275
1495.68496,0.00269
1493.62478,0.00253
1491.56461,0.00231
1489.50444,0.00225
1487.44427,0.00248
1485.38410,0.00288
1483.32392,0.00324
1481.26375,0.00344
1479.20358,0.00345
1477.14341,0.00331
1475.08324,0.00325
1473.02306,0.00361
1470.96289,0.00446
1468.90272,0.00540
1466.84255,0.00608
1464.78238,0.00646
1462.72220,0.00660
1460.66203,0.00652
1458.60186,0.00649
1456.54169,0.00688
1454.48151,0.00765
1452.42134,0.00845
1450.36117,0.00909
1448.30100,0.00961
1446.24083,0.01006
1444.18065,0.01043
1442.12048,0.01068
1440.06031,0.01079
1438.00014,0.01080
1435.93997,0.01083
1433.87979,0.01096
1431.81962,0.01121
1429.75945,0.01160
1427.69928,0.01206
1425.63910,0.01244
1423.57893,0.01267
1421.51876,0.01284
1419.45859,0.01305
1417.39842,0.01338
1415.33824,0.01371
1413.27807,0.01387
1411.21790,0.01383
1409.15773,0.01365
1407.09756,0.01337
1405.03738,0.01304
1402.97721,0.01270
1400.91704,0.01236
1398.85687,0.01208
1396.79670,0.01194
1394.73652,0.01191
1392.67635,0.01192
1390.61618,0.01188
1388.55601,0.01183
1386.49583,0.01186
1384.43566,0.01201
1382.37549,0.01221
1380.31532,0.01234
1378.25515,0.01237
1376.19497,0.01236
1374.13480,0.01243
1372.07463,0.01265
1370.01446,0.01290
1367.95429,0.01303
1365.89411,0.01297
1363.83394,0.01275
1361.77377,0.01249
1359.71360,0.01223
1357.65343,0.01196
1355.59325,0.01171
1353.53308,0.01158
1351.47291,0.01163
1349.41274,0.01176
1347.35256,0.01183
1345.29239,0.01172
1343.23222,0.01142
1341.17205,0.01106
1339.11188,0.01083
1337.05170,0.01080
1334.99153,0.01089
1332.93136,0.01099
1330.87119,0.01106
1328.81102,0.01107
1326.75084,0.01102
1324.69067,0.01089
1322.63050,0.01073
1320.57033,0.01064
1318.51015,0.01068
1316.44998,0.01077
1314.38981,0.01081
1312.32964,0.01074
1310.26947,0.01059
1308.20929,0.01045
1306.14912,0.01039
1304.08895,0.01034
1302.02878,0.01024
1299.96861,0.01009
1297.90843,0.00994
1295.84826,0.00982
1293.78809,0.00968
1291.72792,0.00947
1289.66775,0.00922
1287.60757,0.00899
1285.54740,0.00882
1283.48723,0.00869
1281.42706,0.00858
1279.36688,0.00850
1277.30671,0.00853
1275.24654,0.00872
1273.18637,0.00903
1271.12620,0.00943
1269.06602,0.00991
1267.00585,0.01045
1264.94568,0.01099
1262.88551,0.01142
1260.82534,0.01173
1258.76516,0.01197
1256.70499,0.01222
1254.64482,0.01249
1252.58465,0.01273
1250.52447,0.01288
1248.46430,0.01291
1246.40413,0.01287
1244.34396,0.01277
1242.28379,0.01261
1240.22361,0.01241
1238.16344,0.01220
1236.10327,0.01198
1234.04310,0.01169
1231.98293,0.01135
1229.92275,0.01099
1227.86258,0.01058
1225.80241,0.01011
1223.74224,0.00960
1221.68207,0.00910
1219.62189,0.00862
1217.56172,0.00817
1215.50155,0.00771
1213.44138,0.00719
1211.38120,0.00659
1209.32103,0.00592
1207.26086,0.00520
1205.20069,0.00441
1203.14052,0.00355
1201.08034,0.00264
1199.02017,0.00182
1196.96000,0.00117
1194.89983,0.00067
1192.83966,0.00033
1190.77948,0.00011
1188.71931,0.00000
1186.65914,-0.00001
1184.59897,0.00008
1182.53880,0.00023
1180.47862,0.00056
1178.41845,0.00119
1176.35828,0.00197
1174.29811,0.00282
1172.23793,0.00392
1170.17776,0.00517
1168.11759,0.00628
1166.05742,0.00707
1163.99725,0.00768
1161.93707,0.00839
1159.87690,0.00925
1157.81673,0.01009
1155.75656,0.01083
1153.69639,0.01145
1151.63621,0.01201
1149.57604,0.01257
1147.51587,0.01309
1145.45570,0.01348
1143.39552,0.01365
1141.33535,0.01368
1139.27518,0.01382
1137.21501,0.01422
1135.15484,0.01473
1133.09466,0.01514
1131.03449,0.01540
1128.97432,0.01566
1126.91415,0.01613
1124.85398,0.01687
1122.79380,0.01772
1120.73363,0.01856
1118.67346,0.01937
1116.61329,0.02022
1114.55312,0.02118
1112.49294,0.02213
1110.43277,0.02286
1108.37260,0.02340
1106.31243,0.02402
1104.25225,0.02495
1102.19208,0.02612
1100.13191,0.02731
1098.07174,0.02833
1096.01157,0.02925
1093.95139,0.03023
1091.89122,0.03139
1089.83105,0.03260
1087.77088,0.03371
1085.71071,0.03470
1083.65053,0.03566
1081.59036,0.03664
1079.53019,0.03768
1077.47002,0.03879
1075.40985,0.03976
1073.34967,0.04051
1071.28950,0.04121
1069.22933,0.04194
1067.16916,0.04270
1065.10898,0.04342
1063.04881,0.04384
1060.98864,0.04391
1058.92847,0.04397
1056.86830,0.04428
1054.80812,0.04478
1052.74795,0.04544
1050.68778,0.04628
1048.62761,0.04710
1046.56744,0.04777
1044.50726,0.04836
1042.44709,0.04891
1040.38692,0.04945
1038.32675,0.05004
1036.26657,0.05058
1034.20640,0.05096
1032.14623,0.05135
1030.08606,0.05184
1028.02589,0.05216
1025.96571,0.05228
1023.90554,0.05243
1021.84537,0.05263
1019.78520,0.05266
1017.72503,0.05236
1015.66485,0.05204
1013.60468,0.05215
1011.54451,0.05259
1009.48434,0.05281
1007.42417,0.05259
1005.36399,0.05206
1003.30382,0.05136
1001.24365,0.05065
999.18348,0.04995
997.12330,0.04914
995.06313,0.04840
993.00296,0.04799
990.94279,0.04772
988.88262,0.04728
986.82244,0.04674
984.76227,0.04631
982.70210,0.04598
980.64193,0.04560
978.58176,0.04500
976.52158,0.04409
974.46141,0.04304
972.40124,0.04227
970.34107,0.04201
968.28089,0.04206
966.22072,0.04192
964.16055,0.04142
962.10038,0.04056
960.04021,0.03954
957.98003,0.03878
955.91986,0.03839
953.85969,0.03804
951.79952,0.03756
949.73935,0.03692
947.67917,0.03598
945.61900,0.03464
943.55883,0.03308
941.49866,0.03140
939.43849,0.02940
937.37831,0.02710
935.31814,0.02487
933.25797,0.02294
931.19780,0.02128
929.13762,0.01981
927.07745,0.01850
925.01728,0.01718
922.95711,0.01576
920.89694,0.01444
918.83676,0.01353
916.77659,0.01297
914.71642,0.01230
912.65625,0.01127
910.59608,0.01035
908.53590,0.00999
906.47573,0.00990
904.41556,0.00959
902.35539,0.00908
900.29522,0.00884
898.23504,0.00914
896.17487,0.00966
894.11470,0.00981
892.05453,0.00943
889.99435,0.00874
887.93418,0.00814
885.87401,0.00793
883.81384,0.00793
881.75367,0.00777
879.69349,0.00734
877.63332,0.00678
875.57315,0.00635
873.51298,0.00616
871.45281,0.00595
869.39263,0.00572
867.33246,0.00561
865.27229,0.00540
863.21212,0.00480
861.15194,0.00394
859.09177,0.00324
857.03160,0.00295
854.97143,0.00288
852.91126,0.00291
850.85108,0.00316
848.79091,0.00353
846.73074,0.00369
844.67057,0.00345
842.61040,0.00280
840.55022,0.00190
838.49005,0.00130
836.42988,0.00132
834.36971,0.00150
832.30954,0.00136
830.24936,0.00106
828.18919,0.00088
826.12902,0.00085
824.06885,0.00096
822.00867,0.00115
819.94850,0.00143
817.88833,0.00183
815.82816,0.00216
813.76799,0.00221
811.70781,0.00232
809.64764,0.00294
807.58747,0.00376
805.52730,0.00415
803.46713,0.00401
801.40695,0.00371
799.34678,0.00333
797.28661,0.00263
795.22644,0.00178
793.16627,0.00135
791.10609,0.00162
789.04592,0.00232
786.98575,0.00282
784.92558,0.00272
782.86540,0.00220
780.80523,0.00178
778.74506,0.00166
776.68489,0.00178
774.62472,0.00205
772.56454,0.00252
770.50437,0.00287
768.44420,0.00282
766.38403,0.00276
764.32386,0.00308
762.26368,0.00364
760.20351,0.00410
758.14334,0.00432
756.08317,0.00441
754.02299,0.00418
751.96282,0.00346
749.90265,0.00257
747.84248,0.00227
745.78231,0.00255
743.72213,0.00221
741.66196,0.00088
739.60179,0.00000
737.54162,0.00031
735.48145,0.00127
733.42127,0.00228
731.36110,0.00328
729.30093,0.00399
727.24076,0.00397
725.18059,0.00343
723.12041,0.00299
721.06024,0.00283
719.00007,0.00284
716.93990,0.00287
714.87972,0.00291
712.81955,0.00307
710.75938,0.00336
708.69921,0.00368
706.63904,0.00395
704.57886,0.00409
702.51869,0.00418
700.45852,0.00444
698.39835,0.00486
696.33818,0.00509
694.27800,0.00496
692.21783,0.00459
690.15766,0.00402
688.09749,0.00320
686.03731,0.00230
683.97714,0.00183
681.91697,0.00213
679.85680,0.00298
677.79663,0.00375
675.73645,0.00396
673.67628,0.00382
671.61611,0.00378
669.55594,0.00381
667.49577,0.00345
665.43559,0.00240
663.37542,0.00102
661.31525,0.00006
659.25508,0.00011
657.19491,0.00112
655.13473,0.00229
653.07456,0.00283
651.01439,0.00265
648.95422,0.00209
646.89404,0.00161
644.83387,0.00171
642.77370,0.00254
640.71353,0.00365
638.65336,0.00428
636.59318,0.00394
634.53301,0.00277
632.47284,0.00134
630.41267,0.00042
628.35250,0.00071
626.29232,0.00242
624.23215,0.00464
622.17198,0.00607
620.11181,0.00533
618.05164,0.00248
615.99146,0.00021
613.93129,0.00022
611.87112,0.00134
609.81095,0.00208
607.75077,0.00254
605.69060,0.00347
603.63043,0.00425
601.57026,0.00320
599.51009,0.00000
