3996.73391,0.00001
3994.67373,0.00006
3992.61356,0.00025
3990.55339,0.00036
3988.49322,0.00022
3986.43305,0.00001
3984.37287,0.00000
3982.31270,0.00018
3980.25253,0.00033
3978.19236,0.00028
3976.13219,0.00019
3974.07201,0.00024
3972.01184,0.00034
3969.95167,0.00046
3967.89150,0.00059
3965.83133,0.00061
3963.77115,0.00050
3961.71098,0.00044
3959.65081,0.00050
3957.59064,0.00061
3955.53046,0.00062
3953.47029,0.00054
3951.41012,0.00052
3949.34995,0.00062
3947.28978,0.00072
3945.22960,0.00063
3943.16943,0.00030
3941.10926,0.00000
3939.04909,-0.00000
3936.98892,0.00017
3934.92874,0.00022
3932.86857,0.00011
3930.80840,0.00007
3928.74823,0.00026
3926.68805,0.00045
3924.62788,0.00041
3922.56771,0.00028
3920.50754,0.00033
3918.44737,0.00055
3916.38719,0.00073
3914.32702,0.00079
3912.26685,0.00076
3910.20668,0.00073
3908.14651,0.00073
3906.08633,0.00072
3904.02616,0.00066
3901.96599,0.00050
3899.90582,0.00021
3897.84565,0.00002
3895.78547,0.00022
3893.72530,0.00071
3891.66513,0.00097
3889.60496,0.00080
3887.54478,0.00050
3885.48461,0.00035
3883.42444,0.00048
3881.36427,0.00077
3879.30410,0.00087
3877.24392,0.00084
3875.18375,0.00080
3873.12358,0.00081
3871.06341,0.00101
3869.00324,0.00120
3866.94306,0.00103
3864.88289,0.00070
3862.82272,0.00059
3860.76255,0.00069
3858.70237,0.00080
3856.64220,0.00082
3854.58203,0.00067
3852.52186,0.00041
3850.46169,0.00037
3848.40151,0.00054
3846.34134,0.00060
3844.28117,0.00031
3842.22100,0.00009
3840.16083,0.00049
3838.10065,0.00105
3836.04048,0.00110
3833.98031,0.00079
3831.92014,0.00040
3829.85997,0.00012
3827.79979,0.00021
3825.73962,0.00068
3823.67945,0.00111
3821.61928,0.00111
3819.55910,0.00096
3817.49893,0.00097
3815.43876,0.00078
3813.37859,0.00040
3811.31842,0.00023
3809.25824,0.00019
3807.19807,0.00011
3805.13790,0.00018
3803.07773,0.00025
3801.01756,0.00010
3798.95738,0.00012
3796.89721,0.00039
3794.83704,0.00050
3792.77687,0.00042
3790.71670,0.00032
3788.65652,0.00027
3786.59635,0.00030
3784.53618,0.00043
3782.47601,0.00061
3780.41583,0.00060
3778.35566,0.00031
3776.29549,0.00000
3774.23532,0.00002
3772.17515,0.00037
3770.11497,0.00076
3768.05480,0.00084
3765.99463,0.00063
3763.93446,0.00043
3761.87429,0.00051
3759.81411,0.00072
3757.75394,0.00074
3755.69377,0.00066
3753.63360,0.00058
3751.57342,0.00055
3749.51325,0.00072
3747.45308,0.00114
3745.39291,0.00134
3743.33274,0.00107
3741.27256,0.00080
3739.21239,0.00088
3737.15222,0.00118
3735.09205,0.00142
3733.03188,0.00139
3730.97170,0.00131
3728.91153,0.00142
3726.85136,0.00151
3724.79119,0.00128
3722.73102,0.00089
3720.67084,0.00079
3718.61067,0.00092
3716.55050,0.00109
3714.49033,0.00140
3712.43015,0.00162
3710.36998,0.00141
3708.30981,0.00115
3706.24964,0.00114
3704.18947,0.00116
3702.12929,0.00109
3700.06912,0.00107
3698.00895,0.00112
3695.94878,0.00113
3693.88861,0.00120
3691.82843,0.00128
3689.76826,0.00111
3687.70809,0.00096
3685.64792,0.00127
3683.58775,0.00178
3681.52757,0.00208
3679.46740,0.00206
3677.40723,0.00193
3675.34706,0.00215
3673.28688,0.00268
3671.22671,0.00283
3669.16654,0.00258
3667.10637,0.00272
3665.04620,0.00319
3662.98602,0.00329
3660.92585,0.00309
3658.86568,0.00326
3656.80551,0.00376
3654.74534,0.00402
3652.68516,0.00407
3650.62499,0.00419
3648.56482,0.00426
3646.50465,0.00430
3644.44447,0.00467
3642.38430,0.00523
3640.32413,0.00554
3638.26396,0.00553
3636.20379,0.00553
3634.14361,0.00585
3632.08344,0.00653
3630.02327,0.00737
3627.96310,0.00780
3625.90293,0.00790
3623.84275,0.00825
3621.78258,0.00887
3619.72241,0.00943
3617.66224,0.00975
3615.60207,0.00988
3613.54189,0.00999
3611.48172,0.01011
3609.42155,0.01022
3607.36138,0.01045
3605.30120,0.01093
3603.24103,0.01152
3601.18086,0.01197
3599.12069,0.01234
3597.06052,0.01282
3595.00034,0.01346
3592.94017,0.01409
3590.88000,0.01444
3588.81983,0.01464
3586.75966,0.01494
3584.69948,0.01523
3582.63931,0.01553
3580.57914,0.01597
3578.51897,0.01649
3576.45879,0.01698
3574.39862,0.01747
3572.33845,0.01790
3570.27828,0.01829
3568.21811,0.01881
3566.15793,0.01937
3564.09776,0.01972
3562.03759,0.02003
3559.97742,0.02044
3557.91725,0.02083
3555.85707,0.02122
3553.79690,0.02163
3551.73673,0.02202
3549.67656,0.02235
3547.61639,0.02272
3545.55621,0.02326
3543.49604,0.02384
3541.43587,0.02416
3539.37570,0.02428
3537.31552,0.02447
3535.25535,0.02490
3533.19518,0.02551
3531.13501,0.02611
3529.07484,0.02651
3527.01466,0.02674
3524.95449,0.02693
3522.89432,0.02721
3520.83415,0.02763
3518.77398,0.02807
3516.71380,0.02842
3514.65363,0.02877
3512.59346,0.02913
3510.53329,0.02936
3508.47312,0.02953
3506.41294,0.02988
3504.35277,0.03041
3502.29260,0.03081
3500.23243,0.03101
3498.17225,0.03126
3496.11208,0.03173
3494.05191,0.03228
3491.99174,0.03265
3489.93157,0.03277
3487.87139,0.03288
3485.81122,0.03326
3483.75105,0.03382
3481.69088,0.03429
3479.63071,0.03455
3477.57053,0.03471
3475.51036,0.03496
3473.45019,0.03547
3471.39002,0.03615
3469.32984,0.03654
3467.26967,0.03657
3465.20950,0.03674
3463.14933,0.03724
3461.08916,0.03770
3459.02898,0.03793
3456.96881,0.03815
3454.90864,0.03849
3452.84847,0.03893
3450.78830,0.03930
3448.72812,0.03957
3446.66795,0.03969
3444.60778,0.03961
3442.54761,0.03967
3440.48744,0.04012
3438.42726,0.04073
3436.36709,0.04113
3434.30692,0.04126
3432.24675,0.04135
3430.18657,0.04164
3428.12640,0.04201
3426.06623,0.04228
3424.00606,0.04251
3421.94589,0.04285
3419.88571,0.04330
3417.82554,0.04355
3415.76537,0.04351
3413.70520,0.04356
3411.64503,0.04388
3409.58485,0.04419
3407.52468,0.04431
3405.46451,0.04451
3403.40434,0.04487
3401.34416,0.04513
3399.28399,0.04527
3397.22382,0.04553
3395.16365,0.04590
3393.10348,0.04617
3391.04330,0.04634
3388.98313,0.04659
3386.92296,0.04686
3384.86279,0.04694
3382.80262,0.04682
3380.74244,0.04695
3378.68227,0.04729
3376.62210,0.04737
3374.56193,0.04724
3372.50176,0.04726
3370.44158,0.04749
3368.38141,0.04777
3366.32124,0.04789
3364.26107,0.04796
3362.20089,0.04816
3360.14072,0.04829
3358.08055,0.04827
3356.02038,0.04835
3353.96021,0.04860
3351.90003,0.04877
3349.83986,0.04882
3347.77969,0.04889
3345.71952,0.04887
3343.65935,0.04871
3341.59917,0.04846
3339.53900,0.04833
3337.47883,0.04848
3335.41866,0.04882
3333.35849,0.04898
3331.29831,0.04886
3329.23814,0.04876
3327.17797,0.04894
3325.11780,0.04926
3323.05762,0.04940
3320.99745,0.04937
3318.93728,0.04944
3316.87711,0.04950
3314.81694,0.04938
3312.75676,0.04929
3310.69659,0.04930
3308.63642,0.04925
3306.57625,0.04915
3304.51608,0.04909
3302.45590,0.04909
3300.39573,0.04921
3298.33556,0.04935
3296.27539,0.04944
3294.21521,0.04953
3292.15504,0.04960
3290.09487,0.04953
3288.03470,0.04935
3285.97453,0.04923
3283.91435,0.04918
3281.85418,0.04912
3279.79401,0.04911
3277.73384,0.04921
3275.67367,0.04930
3273.61349,0.04928
3271.55332,0.04917
3269.49315,0.04898
3267.43298,0.04887
3265.37281,0.04896
3263.31263,0.04899
3261.25246,0.04889
3259.19229,0.04888
3257.13212,0.04885
3255.07194,0.04859
3253.01177,0.04831
3250.95160,0.04817
3248.89143,0.04814
3246.83126,0.04813
3244.77108,0.04810
3242.71091,0.04800
3240.65074,0.04792
3238.59057,0.04793
3236.53040,0.04793
3234.47022,0.04766
3232.41005,0.04712
3230.34988,0.04665
3228.28971,0.04654
3226.22954,0.04676
3224.16936,0.04685
3222.10919,0.04653
3220.04902,0.04614
3217.98885,0.04600
3215.92867,0.04600
3213.86850,0.04577
3211.80833,0.04526
3209.74816,0.04497
3207.68799,0.04491
3205.62781,0.04473
3203.56764,0.04447
3201.50747,0.04427
3199.44730,0.04399
3197.38713,0.04367
3195.32695,0.04344
3193.26678,0.04315
3191.20661,0.04280
3189.14644,0.04252
3187.08626,0.04220
3185.02609,0.04177
3182.96592,0.04154
3180.90575,0.04147
3178.84558,0.04127
3176.78540,0.04093
3174.72523,0.04060
3172.66506,0.04036
3170.60489,0.04013
3168.54472,0.03985
3166.48454,0.03953
3164.42437,0.03915
3162.36420,0.03869
3160.30403,0.03824
3158.24386,0.03791
3156.18368,0.03768
3154.12351,0.03746
3152.06334,0.03708
3150.00317,0.03651
3147.94299,0.03603
3145.88282,0.03575
3143.82265,0.03549
3141.76248,0.03521
3139.70231,0.03501
3137.64213,0.03481
3135.58196,0.03438
3133.52179,0.03384
3131.46162,0.03349
3129.40145,0.03322
3127.34127,0.03286
3125.28110,0.03248
3123.22093,0.03216
3121.16076,0.03188
3119.10058,0.03161
3117.04041,0.03127
3114.98024,0.03090
3112.92007,0.03061
3110.85990,0.03036
3108.79972,0.03006
3106.73955,0.02964
3104.67938,0.02922
3102.61921,0.02886
3100.55904,0.02849
3098.49886,0.02810
3096.43869,0.02771
3094.37852,0.02737
3092.31835,0.02711
3090.25818,0.02688
3088.19800,0.02662
3086.13783,0.02632
3084.07766,0.02595
3082.01749,0.02558
3079.95731,0.02536
3077.89714,0.02519
3075.83697,0.02491
3073.77680,0.02451
3071.71663,0.02409
3069.65645,0.02383
3067.59628,0.02377
3065.53611,0.02362
3063.47594,0.02328
3061.41577,0.02292
3059.35559,0.02260
3057.29542,0.02229
3055.23525,0.02203
3053.17508,0.02167
3051.11491,0.02120
3049.05473,0.02086
3046.99456,0.02074
3044.93439,0.02053
3042.87422,0.02019
3040.81404,0.01998
3038.75387,0.01990
3036.69370,0.01975
3034.63353,0.01955
3032.57336,0.01929
3030.51318,0.01902
3028.45301,0.01884
3026.39284,0.01865
3024.33267,0.01839
3022.27250,0.01815
3020.21232,0.01795
3018.15215,0.01774
3016.09198,0.01749
3014.03181,0.01726
3011.97163,0.01714
3009.91146,0.01701
3007.85129,0.01686
3005.79112,0.01682
3003.73095,0.01684
3001.67077,0.01680
2999.61060,0.01670
2997.55043,0.01662
2995.49026,0.01649
2993.43009,0.01631
2991.36991,0.01627
2989.30974,0.01627
2987.24957,0.01629
2985.18940,0.01645
2983.12923,0.01659
2981.06905,0.01659
2979.00888,0.01668
2976.94871,0.01692
2974.88854,0.01700
2972.82836,0.01702
2970.76819,0.01741
2968.70802,0.01784
2966.64785,0.01799
2964.58768,0.01819
2962.52750,0.01858
2960.46733,0.01895
2958.40716,0.01918
2956.34699,0.01936
2954.28682,0.01969
2952.22664,0.02018
2950.16647,0.02067
2948.10630,0.02100
2946.04613,0.02128
2943.98596,0.02156
2941.92578,0.02175
2939.86561,0.02194
2937.80544,0.02231
2935.74527,0.02260
2933.68509,0.02267
2931.62492,0.02268
2929.56475,0.02254
2927.50458,0.02227
2925.44441,0.02215
2923.38423,0.02216
2921.32406,0.02206
2919.26389,0.02181
2917.20372,0.02158
2915.14355,0.02145
2913.08337,0.02117
2911.02320,0.02066
2908.96303,0.02027
2906.90286,0.02015
2904.84268,0.02005
2902.78251,0.01994
2900.72234,0.01991
2898.66217,0.01988
2896.60200,0.01985
2894.54182,0.01985
2892.48165,0.01979
2890.42148,0.01964
2888.36131,0.01945
2886.30114,0.01933
2884.24096,0.01925
2882.18079,0.01908
2880.12062,0.01886
2878.06045,0.01876
2876.00028,0.01872
2873.94010,0.01864
2871.87993,0.01837
2869.81976,0.01791
2867.75959,0.01748
2865.69941,0.01719
2863.63924,0.01694
2861.57907,0.01663
2859.51890,0.01638
2857.45873,0.01621
2855.39855,0.01600
2853.33838,0.01567
2851.27821,0.01521
2849.21804,0.01476
2847.15787,0.01450
2845.09769,0.01439
2843.03752,0.01437
2840.97735,0.01424
2838.91718,0.01390
2836.85700,0.01354
2834.79683,0.01338
2832.73666,0.01335
2830.67649,0.01326
2828.61632,0.01306
2826.55614,0.01287
2824.49597,0.01276
2822.43580,0.01257
2820.37563,0.01233
2818.31546,0.01227
2816.25528,0.01229
2814.19511,0.01213
2812.13494,0.01194
2810.07477,0.01190
2808.01460,0.01184
2805.95442,0.01165
2803.89425,0.01143
2801.83408,0.01132
2799.77391,0.01130
2797.71373,0.01116
2795.65356,0.01099
2793.59339,0.01097
2791.53322,0.01092
2789.47305,0.01082
2787.41287,0.01076
2785.35270,0.01075
2783.29253,0.01079
2781.23236,0.01074
2779.17219,0.01051
2777.11201,0.01030
2775.05184,0.01017
2772.99167,0.01010
2770.93150,0.01008
2768.87133,0.01006
2766.81115,0.01001
2764.75098,0.00998
2762.69081,0.00993
2760.63064,0.00981
2758.57046,0.00971
2756.51029,0.00962
2754.45012,0.00953
2752.38995,0.00942
2750.32978,0.00930
2748.26960,0.00925
2746.20943,0.00930
2744.14926,0.00927
2742.08909,0.00919
2740.02892,0.00920
2737.96874,0.00926
2735.90857,0.00925
2733.84840,0.00919
2731.78823,0.00920
2729.72805,0.00920
2727.66788,0.00913
2725.60771,0.00901
2723.54754,0.00885
2721.48737,0.00874
2719.42719,0.00867
2717.36702,0.00863
2715.30685,0.00860
2713.24668,0.00855
2711.18651,0.00849
2709.12633,0.00839
2707.06616,0.00835
2705.00599,0.00837
2702.94582,0.00826
2700.88565,0.00814
2698.82547,0.00817
2696.76530,0.00825
2694.70513,0.00834
2692.64496,0.00838
2690.58478,0.00828
2688.52461,0.00820
2686.46444,0.00817
2684.40427,0.00806
2682.34410,0.00795
2680.28392,0.00796
2678.22375,0.00804
2676.16358,0.00805
2674.10341,0.00792
2672.04324,0.00772
2669.98306,0.00763
2667.92289,0.00762
2665.86272,0.00759
2663.80255,0.00759
2661.74238,0.00759
2659.68220,0.00750
2657.62203,0.00747
2655.56186,0.00746
2653.50169,0.00733
2651.44151,0.00715
2649.38134,0.00708
2647.32117,0.00708
2645.26100,0.00702
2643.20083,0.00695
2641.14065,0.00694
2639.08048,0.00680
2637.02031,0.00657
2634.96014,0.00651
2632.89997,0.00657
2630.83979,0.00647
2628.77962,0.00625
2626.71945,0.00604
2624.65928,0.00587
2622.59910,0.00584
2620.53893,0.00591
2618.47876,0.00586
2616.41859,0.00574
2614.35842,0.00568
2612.29824,0.00576
2610.23807,0.00579
2608.17790,0.00569
2606.11773,0.00582
2604.05756,0.00606
2601.99738,0.00604
2599.93721,0.00576
2597.87704,0.00532
2595.81687,0.00502
2593.75670,0.00500
2591.69652,0.00498
2589.63635,0.00489
2587.57618,0.00476
2585.51601,0.00464
2583.45583,0.00462
2581.39566,0.00469
2579.33549,0.00477
2577.27532,0.00484
2575.21515,0.00489
2573.15497,0.00499
2571.09480,0.00508
2569.03463,0.00501
2566.97446,0.00475
2564.91429,0.00448
2562.85411,0.00434
2560.79394,0.00440
2558.73377,0.00458
2556.67360,0.00464
2554.61342,0.00450
2552.55325,0.00433
2550.49308,0.00429
2548.43291,0.00427
2546.37274,0.00418
2544.31256,0.00409
2542.25239,0.00417
2540.19222,0.00437
2538.13205,0.00439
2536.07188,0.00427
2534.01170,0.00429
2531.95153,0.00430
2529.89136,0.00419
2527.83119,0.00406
2525.77102,0.00399
2523.71084,0.00406
2521.65067,0.00424
2519.59050,0.00428
2517.53033,0.00409
2515.47015,0.00401
2513.40998,0.00417
2511.34981,0.00440
2509.28964,0.00450
2507.22947,0.00433
2505.16929,0.00399
2503.10912,0.00382
2501.04895,0.00404
2498.98878,0.00444
2496.92861,0.00455
2494.86843,0.00415
2492.80826,0.00378
2490.74809,0.00381
2488.68792,0.00387
2486.62775,0.00401
2484.56757,0.00435
2482.50740,0.00446
2480.44723,0.00425
2478.38706,0.00389
2476.32688,0.00361
2474.26671,0.00354
2472.20654,0.00359
2470.14637,0.00375
2468.08620,0.00382
2466.02602,0.00360
2463.96585,0.00330
2461.90568,0.00319
2459.84551,0.00335
2457.78534,0.00364
2455.72516,0.00387
2453.66499,0.00393
2451.60482,0.00388
2449.54465,0.00379
2447.48447,0.00376
2445.42430,0.00387
2443.36413,0.00381
2441.30396,0.00349
2439.24379,0.00324
2437.18361,0.00319
2435.12344,0.00309
2433.06327,0.00293
2431.00310,0.00293
2428.94293,0.00300
2426.88275,0.00310
2424.82258,0.00320
2422.76241,0.00335
2420.70224,0.00359
2418.64207,0.00369
2416.58189,0.00360
2414.52172,0.00351
2412.46155,0.00351
2410.40138,0.00351
2408.34120,0.00347
2406.28103,0.00343
2404.22086,0.00338
2402.16069,0.00334
2400.10052,0.00318
2398.04034,0.00295
2395.98017,0.00286
2393.92000,0.00295
2391.85983,0.00308
2389.79966,0.00315
2387.73948,0.00315
2385.67931,0.00306
2383.61914,0.00302
2381.55897,0.00326
2379.49880,0.00384
2377.43862,0.00439
2375.37845,0.00454
2373.31828,0.00437
2371.25811,0.00433
2369.19793,0.00469
2367.13776,0.00533
2365.07759,0.00556
2363.01742,0.00491
2360.95725,0.00399
2358.89707,0.00344
2356.83690,0.00341
2354.77673,0.00391
2352.71656,0.00429
2350.65639,0.00432
2348.59621,0.00429
2346.53604,0.00412
2344.47587,0.00387
2342.41570,0.00389
2340.35552,0.00409
2338.29535,0.00435
2336.23518,0.00475
2334.17501,0.00505
2332.11484,0.00506
2330.05466,0.00501
2327.99449,0.00515
2325.93432,0.00516
2323.87415,0.00464
2321.81398,0.00394
2319.75380,0.00365
2317.69363,0.00383
2315.63346,0.00408
2313.57329,0.00408
2311.51312,0.00389
2309.45294,0.00379
2307.39277,0.00392
2305.33260,0.00410
2303.27243,0.00413
2301.21225,0.00396
2299.15208,0.00367
2297.09191,0.00341
2295.03174,0.00328
2292.97157,0.00341
2290.91139,0.00383
2288.85122,0.00426
2286.79105,0.00436
2284.73088,0.00413
2282.67071,0.00382
2280.61053,0.00363
2278.55036,0.00363
2276.49019,0.00365
2274.43002,0.00343
2272.36984,0.00304
2270.30967,0.00288
2268.24950,0.00301
2266.18933,0.00311
2264.12916,0.00306
2262.06898,0.00303
2260.00881,0.00308
2257.94864,0.00298
2255.88847,0.00275
2253.82830,0.00284
2251.76812,0.00345
2249.70795,0.00412
2247.64778,0.00424
2245.58761,0.00389
2243.52744,0.00360
2241.46726,0.00339
2239.40709,0.00302
2237.34692,0.00283
2235.28675,0.00298
2233.22657,0.00272
2231.16640,0.00209
2229.10623,0.00182
2227.04606,0.00204
2224.98589,0.00206
2222.92571,0.00191
2220.86554,0.00246
2218.80537,0.00326
2216.74520,0.00348
2214.68503,0.00337
2212.62485,0.00300
2210.56468,0.00222
2208.50451,0.00196
2206.44434,0.00229
2204.38417,0.00172
2202.32399,0.00057
2200.26382,0.00087
2198.20365,0.00218
2196.14348,0.00290
2194.08330,0.00268
2192.02313,0.00199
2189.96296,0.00199
2187.90279,0.00281
2185.84262,0.00317
2183.78244,0.00244
2181.72227,0.00206
2179.66210,0.00345
2177.60193,0.00453
2175.54176,0.00367
2173.48158,0.00271
2171.42141,0.00286
2169.36124,0.00339
2167.30107,0.00360
2165.24089,0.00332
2163.18072,0.00237
2161.12055,0.00102
2159.06038,0.00042
2157.00021,0.00084
2154.94003,0.00127
2152.87986,0.00158
2150.81969,0.00195
2148.75952,0.00199
2146.69935,0.00173
2144.63917,0.00138
2142.57900,0.00132
2140.51883,0.00173
2138.45866,0.00182
2136.39849,0.00134
2134.33831,0.00107
2132.27814,0.00165
2130.21797,0.00238
2128.15780,0.00233
2126.09762,0.00212
2124.03745,0.00264
2121.97728,0.00344
2119.91711,0.00378
2117.85694,0.00373
2115.79676,0.00375
2113.73659,0.00390
2111.67642,0.00390
2109.61625,0.00379
2107.55608,0.00389
2105.49590,0.00400
2103.43573,0.00361
2101.37556,0.00289
2099.31539,0.00248
2097.25521,0.00258
2095.19504,0.00280
2093.13487,0.00273
2091.07470,0.00259
2089.01453,0.00278
2086.95435,0.00315
2084.89418,0.00332
2082.83401,0.00323
2080.77384,0.00323
2078.71367,0.00330
2076.65349,0.00301
2074.59332,0.00255
2072.53315,0.00247
2070.47298,0.00243
2068.41281,0.00207
2066.35263,0.00182
2064.29246,0.00198
2062.23229,0.00242
2060.17212,0.00294
2058.11194,0.00331
2056.05177,0.00356
2053.99160,0.00366
2051.93143,0.00340
2049.87126,0.00302
2047.81108,0.00287
2045.75091,0.00247
2043.69074,0.00191
2041.63057,0.00202
2039.57040,0.00229
2037.51022,0.00210
2035.45005,0.00192
2033.38988,0.00192
2031.32971,0.00201
2029.26954,0.00176
2027.20936,0.00127
2025.14919,0.00144
2023.08902,0.00162
2021.02885,0.00088
2018.96867,0.00000
2016.90850,0.00009
2014.84833,0.00122
2012.78816,0.00228
2010.72799,0.00266
2008.66781,0.00267
2006.60764,0.00237
2004.54747,0.00184
2002.48730,0.00145
2000.42713,0.00160
1998.36695,0.00228
1996.30678,0.00276
1994.24661,0.00253
1992.18644,0.00181
1990.12626,0.00175
1988.06609,0.00285
1986.00592,0.00378
1983.94575,0.00369
1981.88558,0.00297
1979.82540,0.00203
1977.76523,0.00147
1975.70506,0.00139
1973.64489,0.00109
1971.58472,0.00067
1969.52454,0.00041
1967.46437,0.00074
1965.40420,0.00214
1963.34403,0.00301
1961.28386,0.00205
1959.22368,0.00059
1957.16351,0.00000
1955.10334,0.00018
1953.04317,0.00079
1950.98299,0.00141
1948.92282,0.00186
1946.86265,0.00199
1944.80248,0.00157
1942.74231,0.00111
1940.68213,0.00106
1938.62196,0.00103
1936.56179,0.00099
1934.50162,0.00119
1932.44145,0.00145
1930.38127,0.00149
1928.32110,0.00137
1926.26093,0.00127
1924.20076,0.00130
1922.14059,0.00163
1920.08041,0.00216
1918.02024,0.00249
1915.96007,0.00251
1913.89990,0.00237
1911.83972,0.00221
1909.77955,0.00203
1907.71938,0.00173
1905.65921,0.00140
1903.59904,0.00124
1901.53886,0.00125
1899.47869,0.00122
1897.41852,0.00127
1895.35835,0.00152
1893.29818,0.00159
1891.23800,0.00121
1889.17783,0.00080
1887.11766,0.00077
1885.05749,0.00088
1882.99731,0.00097
1880.93714,0.00117
1878.87697,0.00135
1876.81680,0.00125
1874.75663,0.00102
1872.69645,0.00090
1870.63628,0.00100
1868.57611,0.00123
1866.51594,0.00130
1864.45577,0.00113
1862.39559,0.00089
1860.33542,0.00065
1858.27525,0.00047
1856.21508,0.00043
1854.15491,0.00050
1852.09473,0.00054
1850.03456,0.00063
1847.97439,0.00085
1845.91422,0.00096
1843.85404,0.00085
1841.79387,0.00076
1839.73370,0.00069
1837.67353,0.00054
1835.61336,0.00046
1833.55318,0.00051
1831.49301,0.00057
1829.43284,0.00057
1827.37267,0.00059
1825.31250,0.00069
1823.25232,0.00076
1821.19215,0.00066
1819.13198,0.00048
1817.07181,0.00043
1815.01163,0.00048
1812.95146,0.00041
1810.89129,0.00018
1808.83112,0.00000
1806.77095,0.00006
1804.71077,0.00022
1802.65060,0.00023
1800.59043,0.00008
1798.53026,-0.00003
1796.47009,-0.00002
1794.40991,0.00001
1792.34974,0.00000
1790.28957,0.00006
1788.22940,0.00020
1786.16923,0.00033
1784.10905,0.00042
1782.04888,0.00047
1779.98871,0.00039
1777.92854,0.00021
1775.86836,0.00012
1773.80819,0.00021
1771.74802,0.00041
1769.68785,0.00069
1767.62768,0.00099
1765.56750,0.00125
1763.50733,0.00155
1761.44716,0.00194
1759.38699,0.00233
1757.32682,0.00270
1755.26664,0.00313
1753.20647,0.00364
1751.14630,0.00418
1749.08613,0.00470
1747.02596,0.00519
1744.96578,0.00567
1742.90561,0.00611
1740.84544,0.00648
1738.78527,0.00677
1736.72509,0.00702
1734.66492,0.00728
1732.60475,0.00749
1730.54458,0.00756
1728.48441,0.00754
1726.42423,0.00746
1724.36406,0.00734
1722.30389,0.00721
1720.24372,0.00704
1718.18355,0.00677
1716.12337,0.00643
1714.06320,0.00609
1712.00303,0.00576
1709.94286,0.00543
1707.88268,0.00513
1705.82251,0.00494
1703.76234,0.00488
1701.70217,0.00497
1699.64200,0.00511
1697.58182,0.00516
1695.52165,0.00513
1693.46148,0.00508
1691.40131,0.00511
1689.34114,0.00533
1687.28096,0.00579
1685.22079,0.00640
1683.16062,0.00710
1681.10045,0.00775
1679.04028,0.00830
1676.98010,0.00883
1674.91993,0.00954
1672.85976,0.01045
1670.79959,0.01136
1668.73941,0.01215
1666.67924,0.01274
1664.61907,0.01334
1662.55890,0.01416
1660.49873,0.01503
1658.43855,0.01573
1656.37838,0.01628
1654.31821,0.01682
1652.25804,0.01742
1650.19787,0.01782
1648.13769,0.01817
1646.07752,0.01865
1644.01735,0.01905
1641.95718,0.01933
1639.89701,0.01957
1637.83683,0.01979
1635.77666,0.01994
1633.71649,0.01997
1631.65632,0.01991
1629.59614,0.01980
1627.53597,0.01969
1625.47580,0.01971
1623.41563,0.01977
1621.35546,0.01974
1619.29528,0.01963
1617.23511,0.01950
1615.17494,0.01941
1613.11477,0.01929
1611.05460,0.01900
1608.99442,0.01856
1606.93425,0.01807
1604.87408,0.01751
1602.81391,0.01683
1600.75373,0.01606
1598.69356,0.01527
1596.63339,0.01446
1594.57322,0.01356
1592.51305,0.01255
1590.45287,0.01147
1588.39270,0.01042
1586.33253,0.00950
1584.27236,0.00869
1582.21219,0.00800
1580.15201,0.00744
1578.09184,0.00688
1576.03167,0.00613
1573.97150,0.00541
1571.91133,0.00498
1569.85115,0.00466
1567.79098,0.00431
1565.73081,0.00394
1563.67064,0.00362
1561.61046,0.00346
1559.55029,0.00333
1557.49012,0.00304
1555.42995,0.00269
1553.36978,0.00237
1551.30960,0.00209
1549.24943,0.00183
1547.18926,0.00161
1545.12909,0.00146
1543.06892,0.00133
1541.00874,0.00123
1538.94857,0.00115
1536.88840,0.00103
1534.82823,0.00084
1532.76805,0.00058
1530.70788,0.00036
1528.64771,0.00034
1526.58754,0.00047
1524.52737,0.00058
1522.46719,0.00055
1520.40702,0.00042
1518.34685,0.00042
1516.28668,0.00059
1514.22651,0.00073
1512.16633,0.00074
1510.10616,0.00074
1508.04599,0.00076
1505.98582,0.00072
1503.92565,0.00066
1501.86547,0.00065
1499.80530,0.00075
1497.74513,0.00087
1495.68496,0.00087
1493.62478,0.00081
1491.56461,0.00085
1489.50444,0.00105
1487.44427,0.00133
1485.38410,0.00163
1483.32392,0.00190
1481.26375,0.00215
1479.20358,0.00246
1477.14341,0.00288
1475.08324,0.00346
1473.02306,0.00427
1470.96289,0.00513
1468.90272,0.00577
1466.84255,0.00630
1464.78238,0.00683
1462.72220,0.00735
1460.66203,0.00786
1458.60186,0.00849
1456.54169,0.00903
1454.48151,0.00916
1452.42134,0.00911
1450.36117,0.00925
1448.30100,0.00956
1446.24083,0.00988
1444.18065,0.01017
1442.12048,0.01045
1440.06031,0.01067
1438.00014,0.01092
1435.93997,0.01128
1433.87979,0.01166
1431.81962,0.01205
1429.75945,0.01257
1427.69928,0.01311
1425.63910,0.01348
1423.57893,0.01377
1421.51876,0.01415
1419.45859,0.01458
1417.39842,0.01496
1415.33824,0.01519
1413.27807,0.01521
1411.21790,0.01502
1409.15773,0.01476
1407.09756,0.01453
1405.03738,0.01423
1402.97721,0.01383
1400.91704,0.01348
1398.85687,0.01317
1396.79670,0.01280
1394.73652,0.01241
1392.67635,0.01218
1390.61618,0.01210
1388.55601,0.01205
1386.49583,0.01209
1384.43566,0.01230
1382.37549,0.01268
1380.31532,0.01316
1378.25515,0.01360
1376.19497,0.01394
1374.13480,0.01423
1372.07463,0.01439
1370.01446,0.01437
1367.95429,0.01418
1365.89411,0.01393
1363.83394,0.01373
1361.77377,0.01358
1359.71360,0.01340
1357.65343,0.01316
1355.59325,0.01292
1353.53308,0.01276
1351.47291,0.01269
1349.41274,0.01258
1347.35256,0.01232
1345.29239,0.01200
1343.23222,0.01174
1341.17205,0.01157
1339.11188,0.01150
1337.05170,0.01152
1334.99153,0.01157
1332.93136,0.01157
1330.87119,0.01158
1328.81102,0.01167
1326.75084,0.01180
1324.69067,0.01193
1322.63050,0.01203
1320.57033,0.01216
1318.51015,0.01230
1316.44998,0.01238
1314.38981,0.01241
1312.32964,0.01239
1310.26947,0.01220
1308.20929,0.01190
1306.14912,0.01157
1304.08895,0.01128
1302.02878,0.01101
1299.96861,0.01068
1297.90843,0.01033
1295.84826,0.01011
1293.78809,0.01001
1291.72792,0.00994
1289.66775,0.00982
1287.60757,0.00969
1285.54740,0.00966
1283.48723,0.00972
1281.42706,0.00973
1279.36688,0.00967
1277.30671,0.00968
1275.24654,0.00982
1273.18637,0.01012
1271.12620,0.01050
1269.06602,0.01084
1267.00585,0.01128
1264.94568,0.01197
1262.88551,0.01274
1260.82534,0.01335
1258.76516,0.01374
1256.70499,0.01407
1254.64482,0.01445
1252.58465,0.01483
1250.52447,0.01512
1248.46430,0.01519
1246.40413,0.01506
1244.34396,0.01492
1242.28379,0.01475
1240.22361,0.01443
1238.16344,0.01407
1236.10327,0.01376
1234.04310,0.01338
1231.98293,0.01286
1229.92275,0.01229
1227.86258,0.01167
1225.80241,0.01109
1223.74224,0.01065
1221.68207,0.01020
1219.62189,0.00964
1217.56172,0.00905
1215.50155,0.00844
1213.44138,0.00778
1211.38120,0.00709
1209.32103,0.00633
1207.26086,0.00543
1205.20069,0.00448
1203.14052,0.00364
1201.08034,0.00285
1199.02017,0.00203
1196.96000,0.00125
1194.89983,0.00064
1192.83966,0.00028
1190.77948,0.00009
1188.71931,0.00000
1186.65914,-0.00002
1184.59897,0.00016
1182.53880,0.00053
1180.47862,0.00107
1178.41845,0.00168
1176.35828,0.00239
1174.29811,0.00330
1172.23793,0.00437
1170.17776,0.00548
1168.11759,0.00658
1166.05742,0.00777
1163.99725,0.00897
1161.93707,0.01006
1159.87690,0.01108
1157.81673,0.01213
1155.75656,0.01318
1153.69639,0.01411
1151.63621,0.01490
1149.57604,0.01568
1147.51587,0.01643
1145.45570,0.01702
1143.39552,0.01737
1141.33535,0.01756
1139.27518,0.01782
1137.21501,0.01820
1135.15484,0.01857
1133.09466,0.01893
1131.03449,0.01947
1128.97432,0.02023
1126.91415,0.02111
1124.85398,0.02208
1122.79380,0.02307
1120.73363,0.02394
1118.67346,0.02468
1116.61329,0.02539
1114.55312,0.02615
1112.49294,0.02698
1110.43277,0.02783
1108.37260,0.02872
1106.31243,0.02967
1104.25225,0.03067
1102.19208,0.03180
1100.13191,0.03313
1098.07174,0.03464
1096.01157,0.03614
1093.95139,0.03753
1091.89122,0.03894
1089.83105,0.04039
1087.77088,0.04160
1085.71071,0.04245
1083.65053,0.04333
1081.59036,0.04450
1079.53019,0.04581
1077.47002,0.04711
1075.40985,0.04828
1073.34967,0.04928
1071.28950,0.05015
1069.22933,0.05094
1067.16916,0.05160
1065.10898,0.05223
1063.04881,0.05279
1060.98864,0.05317
1058.92847,0.05352
1056.86830,0.05394
1054.80812,0.05443
1052.74795,0.05506
1050.68778,0.05580
1048.62761,0.05659
1046.56744,0.05743
1044.50726,0.05837
1042.44709,0.05936
1040.38692,0.06015
1038.32675,0.06061
1036.26657,0.06092
1034.20640,0.06118
1032.14623,0.06135
1030.08606,0.06138
1028.02589,0.06128
1025.96571,0.06107
1023.90554,0.06077
1021.84537,0.06055
1019.78520,0.06049
1017.72503,0.06048
1015.66485,0.06047
1013.60468,0.06041
1011.54451,0.06025
1009.48434,0.05998
1007.42417,0.05949
1005.36399,0.05881
1003.30382,0.05805
1001.24365,0.05717
999.18348,0.05617
997.12330,0.05513
995.06313,0.05422
993.00296,0.05347
990.94279,0.05272
988.88262,0.05202
986.82244,0.05146
984.76227,0.05083
982.70210,0.05007
980.64193,0.04931
978.58176,0.04866
976.52158,0.04801
974.46141,0.04733
972.40124,0.04656
970.34107,0.04554
968.28089,0.04438
966.22072,0.04336
964.16055,0.04247
962.10038,0.04162
960.04021,0.04075
957.98003,0.03982
955.91986,0.03897
953.85969,0.03817
951.79952,0.03726
949.73935,0.03615
947.67917,0.03470
945.61900,0.03298
943.55883,0.03129
941.49866,0.02956
939.43849,0.02748
937.37831,0.02504
935.31814,0.02254
933.25797,0.02010
931.19780,0.01800
929.13762,0.01642
927.07745,0.01495
925.01728,0.01347
922.95711,0.01223
920.89694,0.01136
918.83676,0.01065
916.77659,0.00988
914.71642,0.00909
912.65625,0.00832
910.59608,0.00758
908.53590,0.00694
906.47573,0.00644
904.41556,0.00615
902.35539,0.00623
900.29522,0.00661
898.23504,0.00681
896.17487,0.00688
894.11470,0.00707
892.05453,0.00715
889.99435,0.00696
887.93418,0.00654
885.87401,0.00590
883.81384,0.00515
881.75367,0.00471
879.69349,0.00478
877.63332,0.00475
875.57315,0.00432
873.51298,0.00391
871.45281,0.00377
869.39263,0.00368
867.33246,0.00347
865.27229,0.00315
863.21212,0.00281
861.15194,0.00271
859.09177,0.00291
857.03160,0.00312
854.97143,0.00317
852.91126,0.00305
850.85108,0.00278
848.79091,0.00250
846.73074,0.00226
844.67057,0.00206
842.61040,0.00187
840.55022,0.00148
838.49005,0.00103
836.42988,0.00064
834.36971,0.00024
832.30954,0.00000
830.24936,0.00007
828.18919,0.00044
826.12902,0.00073
824.06885,0.00069
822.00867,0.00054
819.94850,0.00055
817.88833,0.00050
815.82816,0.00025
813.76799,0.00031
811.70781,0.00072
809.64764,0.00110
807.58747,0.00148
805.52730,0.00181
803.46713,0.00194
801.40695,0.00186
799.34678,0.00159
797.28661,0.00131
795.22644,0.00115
793.16627,0.00098
791.10609,0.00073
789.04592,0.00058
786.98575,0.00059
784.92558,0.00050
782.86540,0.00035
780.80523,0.00055
778.74506,0.00077
776.68489,0.00063
774.62472,0.00040
772.56454,0.00036
770.50437,0.00060
768.44420,0.00075
766.38403,0.00056
764.32386,0.00047
762.26368,0.00062
760.20351,0.00079
758.14334,0.00091
756.08317,0.00077
754.02299,0.00035
751.96282,0.00000
749.90265,-0.00017
747.84248,-0.00010
745.78231,-0.00009
743.72213,-0.00029
741.66196,-0.00031
739.60179,-0.00012
737.54162,-0.00017
735.48145,-0.00028
733.42127,-0.00005
731.36110,0.00020
729.30093,0.00004
727.24076,-0.00022
725.18059,0.00001
723.12041,0.00031
721.06024,0.00055
719.00007,0.00086
716.93990,0.00095
714.87972,0.00089
712.81955,0.00117
710.75938,0.00173
708.69921,0.00219
706.63904,0.00258
704.57886,0.00308
702.51869,0.00345
700.45852,0.00332
698.39835,0.00277
696.33818,0.00207
694.27800,0.00132
692.21783,0.00064
690.15766,0.00030
688.09749,0.00059
686.03731,0.00122
683.97714,0.00152
681.91697,0.00121
679.85680,0.00069
677.79663,0.00040
675.73645,0.00035
673.67628,0.00046
671.61611,0.00050
669.55594,0.00051
667.49577,0.00080
665.43559,0.00076
663.37542,0.00040
661.31525,0.00064
659.25508,0.00148
657.19491,0.00205
655.13473,0.00199
653.07456,0.00127
651.01439,0.00045
648.95422,0.00045
646.89404,0.00110
644.83387,0.00166
642.77370,0.00207
640.71353,0.00261
638.65336,0.00313
636.59318,0.00308
634.53301,0.00232
632.47284,0.00157
630.41267,0.00192
628.35250,0.00345
626.29232,0.00485
624.23215,0.00509
622.17198,0.00484
620.11181,0.00405
618.05164,0.00333
615.99146,0.00383
613.93129,0.00409
611.87112,0.00268
609.81095,0.00123
607.75077,0.00142
605.69060,0.00220
603.63043,0.00179
601.57026,0.00056
599.51009,0.00000
