3996.73391	0.00088
3994.67373	0.00089
3992.61356	0.00079
3990.55339	0.00056
3988.49322	0.00023
3986.43305	0.00000
3984.37287	0.00001
3982.31270	0.00028
3980.25253	0.00070
3978.19236	0.00111
3976.13219	0.00141
3974.07201	0.00158
3972.01184	0.00158
3969.95167	0.00142
3967.89150	0.00115
3965.83133	0.00089
3963.77115	0.00075
3961.71098	0.00076
3959.65081	0.00086
3957.59064	0.00102
3955.53046	0.00123
3953.47029	0.00143
3951.41012	0.00153
3949.34995	0.00157
3947.28978	0.00162
3945.22960	0.00159
3943.16943	0.00142
3941.10926	0.00123
3939.04909	0.00119
3936.98892	0.00129
3934.92874	0.00142
3932.86857	0.00150
3930.80840	0.00156
3928.74823	0.00162
3926.68805	0.00163
3924.62788	0.00163
3922.56771	0.00166
3920.50754	0.00160
3918.44737	0.00140
3916.38719	0.00121
3914.32702	0.00123
3912.26685	0.00149
3910.20668	0.00186
3908.14651	0.00214
3906.08633	0.00218
3904.02616	0.00195
3901.96599	0.00157
3899.90582	0.00122
3897.84565	0.00112
3895.78547	0.00130
3893.72530	0.00159
3891.66513	0.00180
3889.60496	0.00187
3887.54478	0.00179
3885.48461	0.00158
3883.42444	0.00127
3881.36427	0.00096
3879.30410	0.00081
3877.24392	0.00086
3875.18375	0.00108
3873.12358	0.00143
3871.06341	0.00174
3869.00324	0.00185
3866.94306	0.00164
3864.88289	0.00123
3862.82272	0.00095
3860.76255	0.00097
3858.70237	0.00107
3856.64220	0.00105
3854.58203	0.00096
3852.52186	0.00105
3850.46169	0.00151
3848.40151	0.00212
3846.34134	0.00255
3844.28117	0.00256
3842.22100	0.00220
3840.16083	0.00181
3838.10065	0.00181
3836.04048	0.00216
3833.98031	0.00251
3831.92014	0.00255
3829.85997	0.00227
3827.79979	0.00175
3825.73962	0.00115
3823.67945	0.00068
3821.61928	0.00045
3819.55910	0.00052
3817.49893	0.00093
3815.43876	0.00153
3813.37859	0.00204
3811.31842	0.00221
3809.25824	0.00200
3807.19807	0.00171
3805.13790	0.00159
3803.07773	0.00163
3801.01756	0.00179
3798.95738	0.00203
3796.89721	0.00223
3794.83704	0.00236
3792.77687	0.00246
3790.71670	0.00260
3788.65652	0.00277
3786.59635	0.00291
3784.53618	0.00299
3782.47601	0.00294
3780.41583	0.00273
3778.35566	0.00244
3776.29549	0.00228
3774.23532	0.00229
3772.17515	0.00238
3770.11497	0.00240
3768.05480	0.00237
3765.99463	0.00237
3763.93446	0.00241
3761.87429	0.00240
3759.81411	0.00228
3757.75394	0.00211
3755.69377	0.00190
3753.63360	0.00157
3751.57342	0.00116
3749.51325	0.00101
3747.45308	0.00131
3745.39291	0.00187
3743.33274	0.00221
3741.27256	0.00200
3739.21239	0.00137
3737.15222	0.00077
3735.09205	0.00073
3733.03188	0.00140
3730.97170	0.00235
3728.91153	0.00301
3726.85136	0.00320
3724.79119	0.00306
3722.73102	0.00284
3720.67084	0.00271
3718.61067	0.00269
3716.55050	0.00258
3714.49033	0.00222
3712.43015	0.00179
3710.36998	0.00167
3708.30981	0.00197
3706.24964	0.00245
3704.18947	0.00287
3702.12929	0.00311
3700.06912	0.00314
3698.00895	0.00301
3695.94878	0.00279
3693.88861	0.00254
3691.82843	0.00237
3689.76826	0.00237
3687.70809	0.00251
3685.64792	0.00253
3683.58775	0.00225
3681.52757	0.00177
3679.46740	0.00128
3677.40723	0.00092
3675.34706	0.00084
3673.28688	0.00111
3671.22671	0.00160
3669.16654	0.00218
3667.10637	0.00285
3665.04620	0.00349
3662.98602	0.00399
3660.92585	0.00430
3658.86568	0.00445
3656.80551	0.00445
3654.74534	0.00423
3652.68516	0.00378
3650.62499	0.00324
3648.56482	0.00297
3646.50465	0.00321
3644.44447	0.00383
3642.38430	0.00448
3640.32413	0.00490
3638.26396	0.00503
3636.20379	0.00499
3634.14361	0.00490
3632.08344	0.00489
3630.02327	0.00506
3627.96310	0.00542
3625.90293	0.00584
3623.84275	0.00616
3621.78258	0.00635
3619.72241	0.00657
3617.66224	0.00700
3615.60207	0.00757
3613.54189	0.00801
3611.48172	0.00810
3609.42155	0.00788
3607.36138	0.00764
3605.30120	0.00768
3603.24103	0.00807
3601.18086	0.00870
3599.12069	0.00937
3597.06052	0.00982
3595.00034	0.00985
3592.94017	0.00958
3590.88000	0.00934
3588.81983	0.00949
3586.75966	0.01017
3584.69948	0.01127
3582.63931	0.01237
3580.57914	0.01309
3578.51897	0.01333
3576.45879	0.01329
3574.39862	0.01325
3572.33845	0.01336
3570.27828	0.01364
3568.21811	0.01404
3566.15793	0.01444
3564.09776	0.01480
3562.03759	0.01513
3559.97742	0.01548
3557.91725	0.01596
3555.85707	0.01659
3553.79690	0.01732
3551.73673	0.01799
3549.67656	0.01844
3547.61639	0.01873
3545.55621	0.01905
3543.49604	0.01950
3541.43587	0.02003
3539.37570	0.02062
3537.31552	0.02136
3535.25535	0.02224
3533.19518	0.02310
3531.13501	0.02380
3529.07484	0.02433
3527.01466	0.02477
3524.95449	0.02520
3522.89432	0.02565
3520.83415	0.02611
3518.77398	0.02664
3516.71380	0.02724
3514.65363	0.02780
3512.59346	0.02815
3510.53329	0.02833
3508.47312	0.02852
3506.41294	0.02889
3504.35277	0.02943
3502.29260	0.02998
3500.23243	0.03041
3498.17225	0.03070
3496.11208	0.03099
3494.05191	0.03147
3491.99174	0.03216
3489.93157	0.03286
3487.87139	0.03338
3485.81122	0.03374
3483.75105	0.03412
3481.69088	0.03457
3479.63071	0.03503
3477.57053	0.03542
3475.51036	0.03576
3473.45019	0.03615
3471.39002	0.03666
3469.32984	0.03732
3467.26967	0.03808
3465.20950	0.03881
3463.14933	0.03937
3461.08916	0.03974
3459.02898	0.03999
3456.96881	0.04018
3454.90864	0.04033
3452.84847	0.04051
3450.78830	0.04079
3448.72812	0.04123
3446.66795	0.04189
3444.60778	0.04271
3442.54761	0.04358
3440.48744	0.04440
3438.42726	0.04506
3436.36709	0.04545
3434.30692	0.04561
3432.24675	0.04578
3430.18657	0.04617
3428.12640	0.04673
3426.06623	0.04725
3424.00606	0.04764
3421.94589	0.04795
3419.88571	0.04824
3417.82554	0.04853
3415.76537	0.04881
3413.70520	0.04907
3411.64503	0.04925
3409.58485	0.04935
3407.52468	0.04943
3405.46451	0.04954
3403.40434	0.04962
3401.34416	0.04973
3399.28399	0.05002
3397.22382	0.05059
3395.16365	0.05134
3393.10348	0.05195
3391.04330	0.05226
3388.98313	0.05239
3386.92296	0.05254
3384.86279	0.05284
3382.80262	0.05324
3380.74244	0.05357
3378.68227	0.05375
3376.62210	0.05389
3374.56193	0.05407
3372.50176	0.05431
3370.44158	0.05457
3368.38141	0.05481
3366.32124	0.05503
3364.26107	0.05530
3362.20089	0.05561
3360.14072	0.05593
3358.08055	0.05622
3356.02038	0.05641
3353.96021	0.05649
3351.90003	0.05653
3349.83986	0.05663
3347.77969	0.05681
3345.71952	0.05700
3343.65935	0.05710
3341.59917	0.05710
3339.53900	0.05707
3337.47883	0.05706
3335.41866	0.05712
3333.35849	0.05726
3331.29831	0.05748
3329.23814	0.05775
3327.17797	0.05801
3325.11780	0.05819
3323.05762	0.05821
3320.99745	0.05803
3318.93728	0.05777
3316.87711	0.05763
3314.81694	0.05777
3312.75676	0.05814
3310.69659	0.05854
3308.63642	0.05873
3306.57625	0.05859
3304.51608	0.05826
3302.45590	0.05800
3300.39573	0.05796
3298.33556	0.05810
3296.27539	0.05825
3294.21521	0.05831
3292.15504	0.05824
3290.09487	0.05811
3288.03470	0.05805
3285.97453	0.05807
3283.91435	0.05808
3281.85418	0.05800
3279.79401	0.05792
3277.73384	0.05786
3275.67367	0.05780
3273.61349	0.05772
3271.55332	0.05762
3269.49315	0.05749
3267.43298	0.05733
3265.37281	0.05716
3263.31263	0.05697
3261.25246	0.05683
3259.19229	0.05673
3257.13212	0.05670
3255.07194	0.05679
3253.01177	0.05697
3250.95160	0.05711
3248.89143	0.05709
3246.83126	0.05686
3244.77108	0.05650
3242.71091	0.05618
3240.65074	0.05600
3238.59057	0.05591
3236.53040	0.05579
3234.47022	0.05563
3232.41005	0.05545
3230.34988	0.05531
3228.28971	0.05521
3226.22954	0.05514
3224.16936	0.05506
3222.10919	0.05486
3220.04902	0.05450
3217.98885	0.05404
3215.92867	0.05361
3213.86850	0.05338
3211.80833	0.05337
3209.74816	0.05346
3207.68799	0.05350
3205.62781	0.05341
3203.56764	0.05323
3201.50747	0.05297
3199.44730	0.05264
3197.38713	0.05223
3195.32695	0.05177
3193.26678	0.05130
3191.20661	0.05081
3189.14644	0.05031
3187.08626	0.04988
3185.02609	0.04961
3182.96592	0.04953
3180.90575	0.04956
3178.84558	0.04957
3176.78540	0.04947
3174.72523	0.04921
3172.66506	0.04885
3170.60489	0.04849
3168.54472	0.04820
3166.48454	0.04798
3164.42437	0.04776
3162.36420	0.04749
3160.30403	0.04709
3158.24386	0.04657
3156.18368	0.04603
3154.12351	0.04552
3152.06334	0.04505
3150.00317	0.04466
3147.94299	0.04439
3145.88282	0.04420
3143.82265	0.04409
3141.76248	0.04403
3139.70231	0.04392
3137.64213	0.04361
3135.58196	0.04310
3133.52179	0.04248
3131.46162	0.04194
3129.40145	0.04155
3127.34127	0.04128
3125.28110	0.04103
3123.22093	0.04076
3121.16076	0.04045
3119.10058	0.04010
3117.04041	0.03968
3114.98024	0.03922
3112.92007	0.03883
3110.85990	0.03862
3108.79972	0.03854
3106.73955	0.03846
3104.67938	0.03832
3102.61921	0.03812
3100.55904	0.03789
3098.49886	0.03764
3096.43869	0.03732
3094.37852	0.03693
3092.31835	0.03651
3090.25818	0.03609
3088.19800	0.03570
3086.13783	0.03539
3084.07766	0.03521
3082.01749	0.03510
3079.95731	0.03500
3077.89714	0.03488
3075.83697	0.03474
3073.77680	0.03452
3071.71663	0.03412
3069.65645	0.03360
3067.59628	0.03310
3065.53611	0.03270
3063.47594	0.03240
3061.41577	0.03220
3059.35559	0.03204
3057.29542	0.03186
3055.23525	0.03161
3053.17508	0.03134
3051.11491	0.03105
3049.05473	0.03074
3046.99456	0.03045
3044.93439	0.03024
3042.87422	0.03014
3040.81404	0.03004
3038.75387	0.02982
3036.69370	0.02947
3034.63353	0.02905
3032.57336	0.02871
3030.51318	0.02849
3028.45301	0.02834
3026.39284	0.02819
3024.33267	0.02808
3022.27250	0.02810
3020.21232	0.02826
3018.15215	0.02849
3016.09198	0.02870
3014.03181	0.02883
3011.97163	0.02884
3009.91146	0.02873
3007.85129	0.02849
3005.79112	0.02812
3003.73095	0.02764
3001.67077	0.02716
2999.61060	0.02684
2997.55043	0.02678
2995.49026	0.02682
2993.43009	0.02675
2991.36991	0.02659
2989.30974	0.02651
2987.24957	0.02666
2985.18940	0.02697
2983.12923	0.02734
2981.06905	0.02778
2979.00888	0.02831
2976.94871	0.02890
2974.88854	0.02959
2972.82836	0.03038
2970.76819	0.03119
2968.70802	0.03206
2966.64785	0.03321
2964.58768	0.03475
2962.52750	0.03670
2960.46733	0.03885
2958.40716	0.04085
2956.34699	0.04254
2954.28682	0.04404
2952.22664	0.04547
2950.16647	0.04698
2948.10630	0.04885
2946.04613	0.05118
2943.98596	0.05375
2941.92578	0.05644
2939.86561	0.05927
2937.80544	0.06218
2935.74527	0.06503
2933.68509	0.06778
2931.62492	0.07045
2929.56475	0.07288
2927.50458	0.07496
2925.44441	0.07660
2923.38423	0.07757
2921.32406	0.07760
2919.26389	0.07686
2917.20372	0.07561
2915.14355	0.07377
2913.08337	0.07135
2911.02320	0.06867
2908.96303	0.06606
2906.90286	0.06362
2904.84268	0.06146
2902.78251	0.05962
2900.72234	0.05793
2898.66217	0.05625
2896.60200	0.05460
2894.54182	0.05302
2892.48165	0.05163
2890.42148	0.05055
2888.36131	0.04963
2886.30114	0.04862
2884.24096	0.04761
2882.18079	0.04692
2880.12062	0.04651
2878.06045	0.04622
2876.00028	0.04623
2873.94010	0.04677
2871.87993	0.04755
2869.81976	0.04812
2867.75959	0.04850
2865.69941	0.04905
2863.63924	0.05015
2861.57907	0.05202
2859.51890	0.05442
2857.45873	0.05685
2855.39855	0.05886
2853.33838	0.06016
2851.27821	0.06031
2849.21804	0.05891
2847.15787	0.05597
2845.09769	0.05205
2843.03752	0.04815
2840.97735	0.04500
2838.91718	0.04265
2836.85700	0.04075
2834.79683	0.03899
2832.73666	0.03736
2830.67649	0.03608
2828.61632	0.03521
2826.55614	0.03450
2824.49597	0.03368
2822.43580	0.03279
2820.37563	0.03201
2818.31546	0.03150
2816.25528	0.03120
2814.19511	0.03087
2812.13494	0.03041
2810.07477	0.03000
2808.01460	0.02981
2805.95442	0.02967
2803.89425	0.02933
2801.83408	0.02884
2799.77391	0.02835
2797.71373	0.02791
2795.65356	0.02753
2793.59339	0.02732
2791.53322	0.02736
2789.47305	0.02749
2787.41287	0.02743
2785.35270	0.02708
2783.29253	0.02653
2781.23236	0.02602
2779.17219	0.02578
2777.11201	0.02580
2775.05184	0.02580
2772.99167	0.02561
2770.93150	0.02541
2768.87133	0.02531
2766.81115	0.02522
2764.75098	0.02518
2762.69081	0.02518
2760.63064	0.02514
2758.57046	0.02506
2756.51029	0.02498
2754.45012	0.02488
2752.38995	0.02482
2750.32978	0.02480
2748.26960	0.02473
2746.20943	0.02461
2744.14926	0.02452
2742.08909	0.02441
2740.02892	0.02422
2737.96874	0.02399
2735.90857	0.02382
2733.84840	0.02380
2731.78823	0.02393
2729.72805	0.02409
2727.66788	0.02407
2725.60771	0.02389
2723.54754	0.02374
2721.48737	0.02374
2719.42719	0.02378
2717.36702	0.02377
2715.30685	0.02370
2713.24668	0.02353
2711.18651	0.02328
2709.12633	0.02305
2707.06616	0.02293
2705.00599	0.02300
2702.94582	0.02322
2700.88565	0.02342
2698.82547	0.02333
2696.76530	0.02300
2694.70513	0.02274
2692.64496	0.02268
2690.58478	0.02272
2688.52461	0.02271
2686.46444	0.02266
2684.40427	0.02266
2682.34410	0.02269
2680.28392	0.02266
2678.22375	0.02255
2676.16358	0.02252
2674.10341	0.02254
2672.04324	0.02244
2669.98306	0.02216
2667.92289	0.02189
2665.86272	0.02182
2663.80255	0.02198
2661.74238	0.02226
2659.68220	0.02246
2657.62203	0.02234
2655.56186	0.02195
2653.50169	0.02165
2651.44151	0.02164
2649.38134	0.02174
2647.32117	0.02169
2645.26100	0.02145
2643.20083	0.02118
2641.14065	0.02083
2639.08048	0.02051
2637.02031	0.02048
2634.96014	0.02066
2632.89997	0.02058
2630.83979	0.02022
2628.77962	0.02000
2626.71945	0.02006
2624.65928	0.02016
2622.59910	0.02016
2620.53893	0.02018
2618.47876	0.02013
2616.41859	0.01982
2614.35842	0.01938
2612.29824	0.01916
2610.23807	0.01922
2608.17790	0.01932
2606.11773	0.01938
2604.05756	0.01946
2601.99738	0.01939
2599.93721	0.01908
2597.87704	0.01872
2595.81687	0.01859
2593.75670	0.01871
2591.69652	0.01886
2589.63635	0.01877
2587.57618	0.01842
2585.51601	0.01807
2583.45583	0.01779
2581.39566	0.01733
2579.33549	0.01687
2577.27532	0.01685
2575.21515	0.01724
2573.15497	0.01749
2571.09480	0.01728
2569.03463	0.01694
2566.97446	0.01698
2564.91429	0.01741
2562.85411	0.01781
2560.79394	0.01790
2558.73377	0.01784
2556.67360	0.01781
2554.61342	0.01754
2552.55325	0.01696
2550.49308	0.01644
2548.43291	0.01627
2546.37274	0.01643
2544.31256	0.01671
2542.25239	0.01697
2540.19222	0.01715
2538.13205	0.01716
2536.07188	0.01696
2534.01170	0.01656
2531.95153	0.01607
2529.89136	0.01576
2527.83119	0.01578
2525.77102	0.01584
2523.71084	0.01577
2521.65067	0.01583
2519.59050	0.01620
2517.53033	0.01649
2515.47015	0.01623
2513.40998	0.01572
2511.34981	0.01557
2509.28964	0.01583
2507.22947	0.01615
2505.16929	0.01630
2503.10912	0.01617
2501.04895	0.01574
2498.98878	0.01517
2496.92861	0.01488
2494.86843	0.01512
2492.80826	0.01554
2490.74809	0.01568
2488.68792	0.01561
2486.62775	0.01542
2484.56757	0.01499
2482.50740	0.01455
2480.44723	0.01457
2478.38706	0.01502
2476.32688	0.01536
2474.26671	0.01523
2472.20654	0.01495
2470.14637	0.01491
2468.08620	0.01507
2466.02602	0.01518
2463.96585	0.01501
2461.90568	0.01460
2459.84551	0.01439
2457.78534	0.01453
2455.72516	0.01474
2453.66499	0.01482
2451.60482	0.01470
2449.54465	0.01446
2447.48447	0.01443
2445.42430	0.01463
2443.36413	0.01443
2441.30396	0.01383
2439.24379	0.01345
2437.18361	0.01350
2435.12344	0.01368
2433.06327	0.01376
2431.00310	0.01375
2428.94293	0.01375
2426.88275	0.01373
2424.82258	0.01359
2422.76241	0.01339
2420.70224	0.01342
2418.64207	0.01370
2416.58189	0.01390
2414.52172	0.01394
2412.46155	0.01399
2410.40138	0.01400
2408.34120	0.01392
2406.28103	0.01387
2404.22086	0.01376
2402.16069	0.01340
2400.10052	0.01301
2398.04034	0.01298
2395.98017	0.01325
2393.92000	0.01357
2391.85983	0.01373
2389.79966	0.01372
2387.73948	0.01360
2385.67931	0.01338
2383.61914	0.01308
2381.55897	0.01280
2379.49880	0.01279
2377.43862	0.01312
2375.37845	0.01351
2373.31828	0.01369
2371.25811	0.01380
2369.19793	0.01417
2367.13776	0.01477
2365.07759	0.01508
2363.01742	0.01466
2360.95725	0.01363
2358.89707	0.01243
2356.83690	0.01163
2354.77673	0.01171
2352.71656	0.01261
2350.65639	0.01363
2348.59621	0.01392
2346.53604	0.01333
2344.47587	0.01253
2342.41570	0.01213
2340.35552	0.01227
2338.29535	0.01267
2336.23518	0.01301
2334.17501	0.01315
2332.11484	0.01321
2330.05466	0.01339
2327.99449	0.01379
2325.93432	0.01427
2323.87415	0.01467
2321.81398	0.01494
2319.75380	0.01505
2317.69363	0.01485
2315.63346	0.01425
2313.57329	0.01346
2311.51312	0.01283
2309.45294	0.01262
2307.39277	0.01280
2305.33260	0.01313
2303.27243	0.01337
2301.21225	0.01344
2299.15208	0.01346
2297.09191	0.01358
2295.03174	0.01376
2292.97157	0.01385
2290.91139	0.01377
2288.85122	0.01354
2286.79105	0.01319
2284.73088	0.01263
2282.67071	0.01192
2280.61053	0.01138
2278.55036	0.01132
2276.49019	0.01161
2274.43002	0.01187
2272.36984	0.01189
2270.30967	0.01187
2268.24950	0.01197
2266.18933	0.01211
2264.12916	0.01214
2262.06898	0.01195
2260.00881	0.01156
2257.94864	0.01118
2255.88847	0.01104
2253.82830	0.01116
2251.76812	0.01138
2249.70795	0.01168
2247.64778	0.01213
2245.58761	0.01249
2243.52744	0.01217
2241.46726	0.01136
2239.40709	0.01081
2237.34692	0.01072
2235.28675	0.01087
2233.22657	0.01097
2231.16640	0.01058
2229.10623	0.01009
2227.04606	0.01035
2224.98589	0.01120
2222.92571	0.01175
2220.86554	0.01170
2218.80537	0.01125
2216.74520	0.01057
2214.68503	0.01003
2212.62485	0.01019
2210.56468	0.01079
2208.50451	0.01089
2206.44434	0.01042
2204.38417	0.00996
2202.32399	0.00951
2200.26382	0.00904
2198.20365	0.00882
2196.14348	0.00904
2194.08330	0.00940
2192.02313	0.00926
2189.96296	0.00893
2187.90279	0.00921
2185.84262	0.00976
2183.78244	0.01009
2181.72227	0.01039
2179.66210	0.01046
2177.60193	0.00963
2175.54176	0.00864
2173.48158	0.00918
2171.42141	0.01101
2169.36124	0.01212
2167.30107	0.01174
2165.24089	0.01082
2163.18072	0.01015
2161.12055	0.00926
2159.06038	0.00736
2157.00021	0.00528
2154.94003	0.00504
2152.87986	0.00625
2150.81969	0.00711
2148.75952	0.00766
2146.69935	0.00867
2144.63917	0.00964
2142.57900	0.01019
2140.51883	0.01065
2138.45866	0.01068
2136.39849	0.00981
2134.33831	0.00890
2132.27814	0.00879
2130.21797	0.00923
2128.15780	0.00988
2126.09762	0.01056
2124.03745	0.01094
2121.97728	0.01086
2119.91711	0.01070
2117.85694	0.01074
2115.79676	0.01073
2113.73659	0.01058
2111.67642	0.01058
2109.61625	0.01061
2107.55608	0.01054
2105.49590	0.01063
2103.43573	0.01102
2101.37556	0.01128
2099.31539	0.01124
2097.25521	0.01101
2095.19504	0.01066
2093.13487	0.01024
2091.07470	0.00995
2089.01453	0.01000
2086.95435	0.01029
2084.89418	0.01042
2082.83401	0.01014
2080.77384	0.00966
2078.71367	0.00933
2076.65349	0.00927
2074.59332	0.00936
2072.53315	0.00948
2070.47298	0.00957
2068.41281	0.00971
2066.35263	0.00999
2064.29246	0.01037
2062.23229	0.01062
2060.17212	0.01059
2058.11194	0.01040
2056.05177	0.01027
2053.99160	0.01032
2051.93143	0.01041
2049.87126	0.01026
2047.81108	0.00975
2045.75091	0.00918
2043.69074	0.00899
2041.63057	0.00923
2039.57040	0.00944
2037.51022	0.00926
2035.45005	0.00877
2033.38988	0.00836
2031.32971	0.00836
2029.26954	0.00868
2027.20936	0.00879
2025.14919	0.00837
2023.08902	0.00767
2021.02885	0.00708
2018.96867	0.00686
2016.90850	0.00724
2014.84833	0.00822
2012.78816	0.00914
2010.72799	0.00922
2008.66781	0.00857
2006.60764	0.00783
2004.54747	0.00736
2002.48730	0.00717
2000.42713	0.00719
1998.36695	0.00728
1996.30678	0.00735
1994.24661	0.00743
1992.18644	0.00753
1990.12626	0.00765
1988.06609	0.00798
1986.00592	0.00872
1983.94575	0.00963
1981.88558	0.01018
1979.82540	0.01000
1977.76523	0.00919
1975.70506	0.00815
1973.64489	0.00727
1971.58472	0.00672
1969.52454	0.00634
1967.46437	0.00596
1965.40420	0.00562
1963.34403	0.00544
1961.28386	0.00556
1959.22368	0.00621
1957.16351	0.00732
1955.10334	0.00845
1953.04317	0.00920
1950.98299	0.00952
1948.92282	0.00956
1946.86265	0.00940
1944.80248	0.00908
1942.74231	0.00866
1940.68213	0.00828
1938.62196	0.00802
1936.56179	0.00789
1934.50162	0.00789
1932.44145	0.00793
1930.38127	0.00790
1928.32110	0.00775
1926.26093	0.00755
1924.20076	0.00741
1922.14059	0.00741
1920.08041	0.00754
1918.02024	0.00763
1915.96007	0.00764
1913.89990	0.00768
1911.83972	0.00786
1909.77955	0.00807
1907.71938	0.00815
1905.65921	0.00810
1903.59904	0.00807
1901.53886	0.00818
1899.47869	0.00840
1897.41852	0.00855
1895.35835	0.00853
1893.29818	0.00840
1891.23800	0.00823
1889.17783	0.00796
1887.11766	0.00761
1885.05749	0.00735
1882.99731	0.00728
1880.93714	0.00732
1878.87697	0.00742
1876.81680	0.00762
1874.75663	0.00792
1872.69645	0.00816
1870.63628	0.00820
1868.57611	0.00807
1866.51594	0.00788
1864.45577	0.00763
1862.39559	0.00732
1860.33542	0.00706
1858.27525	0.00699
1856.21508	0.00709
1854.15491	0.00718
1852.09473	0.00706
1850.03456	0.00679
1847.97439	0.00654
1845.91422	0.00645
1843.85404	0.00652
1841.79387	0.00670
1839.73370	0.00693
1837.67353	0.00717
1835.61336	0.00737
1833.55318	0.00747
1831.49301	0.00741
1829.43284	0.00721
1827.37267	0.00696
1825.31250	0.00671
1823.25232	0.00657
1821.19215	0.00656
1819.13198	0.00659
1817.07181	0.00663
1815.01163	0.00670
1812.95146	0.00678
1810.89129	0.00685
1808.83112	0.00686
1806.77095	0.00678
1804.71077	0.00666
1802.65060	0.00657
1800.59043	0.00651
1798.53026	0.00645
1796.47009	0.00635
1794.40991	0.00625
1792.34974	0.00626
1790.28957	0.00646
1788.22940	0.00675
1786.16923	0.00693
1784.10905	0.00696
1782.04888	0.00686
1779.98871	0.00668
1777.92854	0.00645
1775.86836	0.00617
1773.80819	0.00594
1771.74802	0.00589
1769.68785	0.00627
1767.62768	0.00702
1765.56750	0.00797
1763.50733	0.00904
1761.44716	0.01027
1759.38699	0.01179
1757.32682	0.01368
1755.26664	0.01591
1753.20647	0.01834
1751.14630	0.02081
1749.08613	0.02321
1747.02596	0.02533
1744.96578	0.02696
1742.90561	0.02804
1740.84544	0.02858
1738.78527	0.02858
1736.72509	0.02809
1734.66492	0.02733
1732.60475	0.02667
1730.54458	0.02638
1728.48441	0.02642
1726.42423	0.02658
1724.36406	0.02669
1722.30389	0.02667
1720.24372	0.02643
1718.18355	0.02603
1716.12337	0.02573
1714.06320	0.02567
1712.00303	0.02572
1709.94286	0.02567
1707.88268	0.02540
1705.82251	0.02493
1703.76234	0.02434
1701.70217	0.02379
1699.64200	0.02352
1697.58182	0.02374
1695.52165	0.02444
1693.46148	0.02546
1691.40131	0.02656
1689.34114	0.02767
1687.28096	0.02893
1685.22079	0.03054
1683.16062	0.03260
1681.10045	0.03484
1679.04028	0.03689
1676.98010	0.03850
1674.91993	0.03961
1672.85976	0.04020
1670.79959	0.04028
1668.73941	0.04003
1666.67924	0.03965
1664.61907	0.03918
1662.55890	0.03865
1660.49873	0.03808
1658.43855	0.03740
1656.37838	0.03652
1654.31821	0.03554
1652.25804	0.03478
1650.19787	0.03446
1648.13769	0.03452
1646.07752	0.03495
1644.01735	0.03564
1641.95718	0.03638
1639.89701	0.03699
1637.83683	0.03752
1635.77666	0.03817
1633.71649	0.03904
1631.65632	0.03994
1629.59614	0.04067
1627.53597	0.04118
1625.47580	0.04155
1623.41563	0.04186
1621.35546	0.04221
1619.29528	0.04264
1617.23511	0.04322
1615.17494	0.04408
1613.11477	0.04520
1611.05460	0.04645
1608.99442	0.04763
1606.93425	0.04850
1604.87408	0.04878
1602.81391	0.04831
1600.75373	0.04715
1598.69356	0.04551
1596.63339	0.04370
1594.57322	0.04197
1592.51305	0.04050
1590.45287	0.03932
1588.39270	0.03831
1586.33253	0.03733
1584.27236	0.03628
1582.21219	0.03514
1580.15201	0.03395
1578.09184	0.03273
1576.03167	0.03161
1573.97150	0.03068
1571.91133	0.02984
1569.85115	0.02898
1567.79098	0.02812
1565.73081	0.02717
1563.67064	0.02592
1561.61046	0.02425
1559.55029	0.02238
1557.49012	0.02090
1555.42995	0.02014
1553.36978	0.01985
1551.30960	0.01962
1549.24943	0.01913
1547.18926	0.01827
1545.12909	0.01708
1543.06892	0.01571
1541.00874	0.01446
1538.94857	0.01369
1536.88840	0.01345
1534.82823	0.01342
1532.76805	0.01335
1530.70788	0.01319
1528.64771	0.01297
1526.58754	0.01279
1524.52737	0.01283
1522.46719	0.01333
1520.40702	0.01444
1518.34685	0.01584
1516.28668	0.01700
1514.22651	0.01743
1512.16633	0.01690
1510.10616	0.01551
1508.04599	0.01371
1505.98582	0.01217
1503.92565	0.01116
1501.86547	0.01040
1499.80530	0.00957
1497.74513	0.00873
1495.68496	0.00804
1493.62478	0.00751
1491.56461	0.00705
1489.50444	0.00671
1487.44427	0.00665
1485.38410	0.00689
1483.32392	0.00728
1481.26375	0.00774
1479.20358	0.00833
1477.14341	0.00921
1475.08324	0.01062
1473.02306	0.01278
1470.96289	0.01556
1468.90272	0.01845
1466.84255	0.02101
1464.78238	0.02308
1462.72220	0.02459
1460.66203	0.02561
1458.60186	0.02642
1456.54169	0.02737
1454.48151	0.02850
1452.42134	0.02961
1450.36117	0.03065
1448.30100	0.03168
1446.24083	0.03279
1444.18065	0.03389
1442.12048	0.03482
1440.06031	0.03553
1438.00014	0.03607
1435.93997	0.03658
1433.87979	0.03700
1431.81962	0.03723
1429.75945	0.03728
1427.69928	0.03727
1425.63910	0.03725
1423.57893	0.03727
1421.51876	0.03735
1419.45859	0.03758
1417.39842	0.03795
1415.33824	0.03826
1413.27807	0.03825
1411.21790	0.03786
1409.15773	0.03718
1407.09756	0.03629
1405.03738	0.03528
1402.97721	0.03421
1400.91704	0.03309
1398.85687	0.03200
1396.79670	0.03110
1394.73652	0.03048
1392.67635	0.03016
1390.61618	0.03008
1388.55601	0.03023
1386.49583	0.03068
1384.43566	0.03144
1382.37549	0.03237
1380.31532	0.03332
1378.25515	0.03413
1376.19497	0.03473
1374.13480	0.03514
1372.07463	0.03538
1370.01446	0.03539
1367.95429	0.03513
1365.89411	0.03465
1363.83394	0.03408
1361.77377	0.03359
1359.71360	0.03327
1357.65343	0.03308
1355.59325	0.03292
1353.53308	0.03275
1351.47291	0.03256
1349.41274	0.03237
1347.35256	0.03221
1345.29239	0.03206
1343.23222	0.03190
1341.17205	0.03175
1339.11188	0.03163
1337.05170	0.03155
1334.99153	0.03153
1332.93136	0.03153
1330.87119	0.03157
1328.81102	0.03163
1326.75084	0.03172
1324.69067	0.03186
1322.63050	0.03202
1320.57033	0.03215
1318.51015	0.03214
1316.44998	0.03197
1314.38981	0.03166
1312.32964	0.03129
1310.26947	0.03085
1308.20929	0.03028
1306.14912	0.02959
1304.08895	0.02884
1302.02878	0.02813
1299.96861	0.02751
1297.90843	0.02705
1295.84826	0.02684
1293.78809	0.02688
1291.72792	0.02709
1289.66775	0.02740
1287.60757	0.02773
1285.54740	0.02803
1283.48723	0.02824
1281.42706	0.02839
1279.36688	0.02858
1277.30671	0.02888
1275.24654	0.02930
1273.18637	0.02984
1271.12620	0.03052
1269.06602	0.03135
1267.00585	0.03228
1264.94568	0.03322
1262.88551	0.03411
1260.82534	0.03494
1258.76516	0.03571
1256.70499	0.03642
1254.64482	0.03709
1252.58465	0.03771
1250.52447	0.03830
1248.46430	0.03883
1246.40413	0.03923
1244.34396	0.03947
1242.28379	0.03955
1240.22361	0.03947
1238.16344	0.03920
1236.10327	0.03875
1234.04310	0.03813
1231.98293	0.03735
1229.92275	0.03637
1227.86258	0.03516
1225.80241	0.03375
1223.74224	0.03219
1221.68207	0.03054
1219.62189	0.02888
1217.56172	0.02726
1215.50155	0.02570
1213.44138	0.02417
1211.38120	0.02269
1209.32103	0.02126
1207.26086	0.01982
1205.20069	0.01829
1203.14052	0.01664
1201.08034	0.01491
1199.02017	0.01318
1196.96000	0.01155
1194.89983	0.01012
1192.83966	0.00892
1190.77948	0.00803
1188.71931	0.00751
1186.65914	0.00731
1184.59897	0.00739
1182.53880	0.00762
1180.47862	0.00808
1178.41845	0.00908
1176.35828	0.01083
1174.29811	0.01321
1172.23793	0.01596
1170.17776	0.01867
1168.11759	0.02093
1166.05742	0.02259
1163.99725	0.02378
1161.93707	0.02471
1159.87690	0.02550
1157.81673	0.02624
1155.75656	0.02702
1153.69639	0.02794
1151.63621	0.02907
1149.57604	0.03036
1147.51587	0.03173
1145.45570	0.03302
1143.39552	0.03407
1141.33535	0.03498
1139.27518	0.03594
1137.21501	0.03688
1135.15484	0.03760
1133.09466	0.03817
1131.03449	0.03889
1128.97432	0.04007
1126.91415	0.04168
1124.85398	0.04349
1122.79380	0.04515
1120.73363	0.04652
1118.67346	0.04785
1116.61329	0.04941
1114.55312	0.05107
1112.49294	0.05252
1110.43277	0.05373
1108.37260	0.05488
1106.31243	0.05622
1104.25225	0.05791
1102.19208	0.05985
1100.13191	0.06184
1098.07174	0.06411
1096.01157	0.06689
1093.95139	0.06990
1091.89122	0.07259
1089.83105	0.07474
1087.77088	0.07660
1085.71071	0.07860
1083.65053	0.08079
1081.59036	0.08302
1079.53019	0.08535
1077.47002	0.08788
1075.40985	0.09055
1073.34967	0.09321
1071.28950	0.09572
1069.22933	0.09789
1067.16916	0.09972
1065.10898	0.10138
1063.04881	0.10296
1060.98864	0.10458
1058.92847	0.10641
1056.86830	0.10855
1054.80812	0.11083
1052.74795	0.11297
1050.68778	0.11510
1048.62761	0.11771
1046.56744	0.12081
1044.50726	0.12387
1042.44709	0.12665
1040.38692	0.12921
1038.32675	0.13147
1036.26657	0.13316
1034.20640	0.13428
1032.14623	0.13498
1030.08606	0.13533
1028.02589	0.13531
1025.96571	0.13486
1023.90554	0.13409
1021.84537	0.13335
1019.78520	0.13293
1017.72503	0.13278
1015.66485	0.13276
1013.60468	0.13287
1011.54451	0.13311
1009.48434	0.13328
1007.42417	0.13317
1005.36399	0.13282
1003.30382	0.13220
1001.24365	0.13116
999.18348	0.12964
997.12330	0.12764
995.06313	0.12542
993.00296	0.12343
990.94279	0.12167
988.88262	0.11991
986.82244	0.11813
984.76227	0.11624
982.70210	0.11407
980.64193	0.11189
978.58176	0.11001
976.52158	0.10832
974.46141	0.10649
972.40124	0.10438
970.34107	0.10215
968.28089	0.10019
966.22072	0.09851
964.16055	0.09659
962.10038	0.09409
960.04021	0.09137
957.98003	0.08902
955.91986	0.08707
953.85969	0.08524
951.79952	0.08350
949.73935	0.08198
947.67917	0.08053
945.61900	0.07882
943.55883	0.07654
941.49866	0.07342
939.43849	0.06951
937.37831	0.06511
935.31814	0.06063
933.25797	0.05652
931.19780	0.05307
929.13762	0.05010
927.07745	0.04744
925.01728	0.04512
922.95711	0.04306
920.89694	0.04091
918.83676	0.03854
916.77659	0.03616
914.71642	0.03405
912.65625	0.03226
910.59608	0.03065
908.53590	0.02919
906.47573	0.02804
904.41556	0.02725
902.35539	0.02667
900.29522	0.02632
898.23504	0.02648
896.17487	0.02709
894.11470	0.02765
892.05453	0.02763
889.99435	0.02706
887.93418	0.02620
885.87401	0.02509
883.81384	0.02382
881.75367	0.02246
879.69349	0.02108
877.63332	0.01991
875.57315	0.01892
873.51298	0.01797
871.45281	0.01730
869.39263	0.01704
867.33246	0.01694
865.27229	0.01672
863.21212	0.01624
861.15194	0.01552
859.09177	0.01493
857.03160	0.01473
854.97143	0.01491
852.91126	0.01533
850.85108	0.01572
848.79091	0.01587
846.73074	0.01576
844.67057	0.01546
842.61040	0.01497
840.55022	0.01439
838.49005	0.01378
836.42988	0.01320
834.36971	0.01291
832.30954	0.01292
830.24936	0.01276
828.18919	0.01230
826.12902	0.01164
824.06885	0.01097
822.00867	0.01066
819.94850	0.01084
817.88833	0.01096
815.82816	0.01071
813.76799	0.01042
811.70781	0.01027
809.64764	0.01022
807.58747	0.01024
805.52730	0.01025
803.46713	0.01027
801.40695	0.01031
799.34678	0.01016
797.28661	0.00983
795.22644	0.00955
793.16627	0.00934
791.10609	0.00916
789.04592	0.00890
786.98575	0.00859
784.92558	0.00851
782.86540	0.00896
780.80523	0.00978
778.74506	0.01038
776.68489	0.01031
774.62472	0.00997
772.56454	0.00995
770.50437	0.01018
768.44420	0.01023
766.38403	0.00992
764.32386	0.00961
762.26368	0.00974
760.20351	0.01017
758.14334	0.01035
756.08317	0.01009
754.02299	0.00978
751.96282	0.00952
749.90265	0.00904
747.84248	0.00870
745.78231	0.00845
743.72213	0.00832
741.66196	0.00785
739.60179	0.00746
737.54162	0.00764
735.48145	0.00825
733.42127	0.00901
731.36110	0.00959
729.30093	0.00968
727.24076	0.00940
725.18059	0.00936
723.12041	0.00984
721.06024	0.01050
719.00007	0.01099
716.93990	0.01112
714.87972	0.01100
712.81955	0.01112
710.75938	0.01184
708.69921	0.01304
706.63904	0.01417
704.57886	0.01483
702.51869	0.01493
700.45852	0.01465
698.39835	0.01413
696.33818	0.01339
694.27800	0.01251
692.21783	0.01163
690.15766	0.01085
688.09749	0.01026
686.03731	0.00998
683.97714	0.01008
681.91697	0.01039
679.85680	0.01056
677.79663	0.01045
675.73645	0.01020
673.67628	0.00988
671.61611	0.00945
669.55594	0.00892
667.49577	0.00866
665.43559	0.00890
663.37542	0.00923
661.31525	0.00916
659.25508	0.00849
657.19491	0.00754
655.13473	0.00688
653.07456	0.00699
651.01439	0.00786
648.95422	0.00896
646.89404	0.00977
644.83387	0.01042
642.77370	0.01096
640.71353	0.01127
638.65336	0.01120
636.59318	0.01070
634.53301	0.00996
632.47284	0.00929
630.41267	0.00895
628.35250	0.00890
626.29232	0.00838
624.23215	0.00630
622.17198	0.00425
620.11181	0.00420
618.05164	0.00648
615.99146	0.00890
613.93129	0.00942
611.87112	0.00787
609.81095	0.00540
607.75077	0.00287
605.69060	0.00097
603.63043	0.00053
601.57026	0.00000
599.51009	0.00000
