3996.73391,0.00043
3994.67373,0.00052
3992.61356,0.00041
3990.55339,0.00016
3988.49322,0.00003
3986.43305,0.00023
3984.37287,0.00062
3982.31270,0.00092
3980.25253,0.00092
3978.19236,0.00073
3976.13219,0.00049
3974.07201,0.00019
3972.01184,0.00000
3969.95167,0.00008
3967.89150,0.00033
3965.83133,0.00064
3963.77115,0.00082
3961.71098,0.00070
3959.65081,0.00047
3957.59064,0.00040
3955.53046,0.00043
3953.47029,0.00042
3951.41012,0.00037
3949.34995,0.00041
3947.28978,0.00051
3945.22960,0.00050
3943.16943,0.00038
3941.10926,0.00030
3939.04909,0.00038
3936.98892,0.00053
3934.92874,0.00064
3932.86857,0.00069
3930.80840,0.00064
3928.74823,0.00060
3926.68805,0.00074
3924.62788,0.00091
3922.56771,0.00090
3920.50754,0.00075
3918.44737,0.00060
3916.38719,0.00058
3914.32702,0.00066
3912.26685,0.00073
3910.20668,0.00076
3908.14651,0.00079
3906.08633,0.00074
3904.02616,0.00057
3901.96599,0.00044
3899.90582,0.00045
3897.84565,0.00053
3895.78547,0.00059
3893.72530,0.00061
3891.66513,0.00059
3889.60496,0.00058
3887.54478,0.00073
3885.48461,0.00103
3883.42444,0.00118
3881.36427,0.00104
3879.30410,0.00076
3877.24392,0.00067
3875.18375,0.00068
3873.12358,0.00057
3871.06341,0.00052
3869.00324,0.00071
3866.94306,0.00089
3864.88289,0.00092
3862.82272,0.00081
3860.76255,0.00057
3858.70237,0.00048
3856.64220,0.00074
3854.58203,0.00107
3852.52186,0.00109
3850.46169,0.00089
3848.40151,0.00076
3846.34134,0.00081
3844.28117,0.00098
3842.22100,0.00105
3840.16083,0.00083
3838.10065,0.00060
3836.04048,0.00068
3833.98031,0.00089
3831.92014,0.00097
3829.85997,0.00080
3827.79979,0.00042
3825.73962,0.00007
3823.67945,0.00000
3821.61928,0.00016
3819.55910,0.00028
3817.49893,0.00032
3815.43876,0.00041
3813.37859,0.00052
3811.31842,0.00063
3809.25824,0.00074
3807.19807,0.00078
3805.13790,0.00076
3803.07773,0.00076
3801.01756,0.00080
3798.95738,0.00081
3796.89721,0.00080
3794.83704,0.00075
3792.77687,0.00075
3790.71670,0.00076
3788.65652,0.00057
3786.59635,0.00025
3784.53618,0.00020
3782.47601,0.00040
3780.41583,0.00055
3778.35566,0.00063
3776.29549,0.00073
3774.23532,0.00072
3772.17515,0.00065
3770.11497,0.00074
3768.05480,0.00090
3765.99463,0.00091
3763.93446,0.00083
3761.87429,0.00075
3759.81411,0.00063
3757.75394,0.00050
3755.69377,0.00047
3753.63360,0.00056
3751.57342,0.00079
3749.51325,0.00098
3747.45308,0.00080
3745.39291,0.00052
3743.33274,0.00043
3741.27256,0.00055
3739.21239,0.00083
3737.15222,0.00107
3735.09205,0.00107
3733.03188,0.00100
3730.97170,0.00092
3728.91153,0.00072
3726.85136,0.00059
3724.79119,0.00067
3722.73102,0.00071
3720.67084,0.00060
3718.61067,0.00062
3716.55050,0.00092
3714.49033,0.00117
3712.43015,0.00105
3710.36998,0.00072
3708.30981,0.00051
3706.24964,0.00053
3704.18947,0.00073
3702.12929,0.00094
3700.06912,0.00095
3698.00895,0.00083
3695.94878,0.00067
3693.88861,0.00035
3691.82843,0.00001
3689.76826,0.00010
3687.70809,0.00068
3685.64792,0.00102
3683.58775,0.00099
3681.52757,0.00103
3679.46740,0.00144
3677.40723,0.00189
3675.34706,0.00173
3673.28688,0.00112
3671.22671,0.00097
3669.16654,0.00133
3667.10637,0.00165
3665.04620,0.00168
3662.98602,0.00153
3660.92585,0.00155
3658.86568,0.00188
3656.80551,0.00211
3654.74534,0.00201
3652.68516,0.00199
3650.62499,0.00230
3648.56482,0.00245
3646.50465,0.00208
3644.44447,0.00193
3642.38430,0.00236
3640.32413,0.00283
3638.26396,0.00288
3636.20379,0.00277
3634.14361,0.00274
3632.08344,0.00277
3630.02327,0.00301
3627.96310,0.00342
3625.90293,0.00357
3623.84275,0.00355
3621.78258,0.00360
3619.72241,0.00381
3617.66224,0.00431
3615.60207,0.00497
3613.54189,0.00539
3611.48172,0.00547
3609.42155,0.00543
3607.36138,0.00541
3605.30120,0.00551
3603.24103,0.00580
3601.18086,0.00610
3599.12069,0.00624
3597.06052,0.00630
3595.00034,0.00652
3592.94017,0.00675
3590.88000,0.00682
3588.81983,0.00701
3586.75966,0.00760
3584.69948,0.00818
3582.63931,0.00842
3580.57914,0.00848
3578.51897,0.00850
3576.45879,0.00841
3574.39862,0.00837
3572.33845,0.00858
3570.27828,0.00890
3568.21811,0.00911
3566.15793,0.00937
3564.09776,0.00981
3562.03759,0.01032
3559.97742,0.01074
3557.91725,0.01091
3555.85707,0.01084
3553.79690,0.01076
3551.73673,0.01081
3549.67656,0.01105
3547.61639,0.01153
3545.55621,0.01205
3543.49604,0.01228
3541.43587,0.01234
3539.37570,0.01253
3537.31552,0.01281
3535.25535,0.01294
3533.19518,0.01297
3531.13501,0.01317
3529.07484,0.01354
3527.01466,0.01379
3524.95449,0.01384
3522.89432,0.01402
3520.83415,0.01445
3518.77398,0.01488
3516.71380,0.01521
3514.65363,0.01551
3512.59346,0.01575
3510.53329,0.01578
3508.47312,0.01567
3506.41294,0.01568
3504.35277,0.01590
3502.29260,0.01623
3500.23243,0.01662
3498.17225,0.01697
3496.11208,0.01712
3494.05191,0.01717
3491.99174,0.01734
3489.93157,0.01765
3487.87139,0.01797
3485.81122,0.01822
3483.75105,0.01846
3481.69088,0.01867
3479.63071,0.01873
3477.57053,0.01867
3475.51036,0.01865
3473.45019,0.01877
3471.39002,0.01900
3469.32984,0.01932
3467.26967,0.01963
3465.20950,0.01991
3463.14933,0.02028
3461.08916,0.02059
3459.02898,0.02071
3456.96881,0.02084
3454.90864,0.02100
3452.84847,0.02117
3450.78830,0.02139
3448.72812,0.02144
3446.66795,0.02135
3444.60778,0.02156
3442.54761,0.02200
3440.48744,0.02233
3438.42726,0.02245
3436.36709,0.02250
3434.30692,0.02260
3432.24675,0.02272
3430.18657,0.02291
3428.12640,0.02324
3426.06623,0.02357
3424.00606,0.02381
3421.94589,0.02400
3419.88571,0.02430
3417.82554,0.02455
3415.76537,0.02450
3413.70520,0.02433
3411.64503,0.02439
3409.58485,0.02460
3407.52468,0.02471
3405.46451,0.02470
3403.40434,0.02477
3401.34416,0.02510
3399.28399,0.02568
3397.22382,0.02604
3395.16365,0.02608
3393.10348,0.02601
3391.04330,0.02601
3388.98313,0.02612
3386.92296,0.02630
3384.86279,0.02644
3382.80262,0.02651
3380.74244,0.02656
3378.68227,0.02659
3376.62210,0.02660
3374.56193,0.02673
3372.50176,0.02684
3370.44158,0.02676
3368.38141,0.02682
3366.32124,0.02721
3364.26107,0.02748
3362.20089,0.02744
3360.14072,0.02739
3358.08055,0.02753
3356.02038,0.02770
3353.96021,0.02785
3351.90003,0.02806
3349.83986,0.02818
3347.77969,0.02804
3345.71952,0.02781
3343.65935,0.02785
3341.59917,0.02815
3339.53900,0.02855
3337.47883,0.02881
3335.41866,0.02877
3333.35849,0.02860
3331.29831,0.02852
3329.23814,0.02855
3327.17797,0.02862
3325.11780,0.02857
3323.05762,0.02848
3320.99745,0.02846
3318.93728,0.02861
3316.87711,0.02883
3314.81694,0.02894
3312.75676,0.02889
3310.69659,0.02873
3308.63642,0.02855
3306.57625,0.02846
3304.51608,0.02854
3302.45590,0.02877
3300.39573,0.02901
3298.33556,0.02919
3296.27539,0.02925
3294.21521,0.02916
3292.15504,0.02905
3290.09487,0.02895
3288.03470,0.02877
3285.97453,0.02871
3283.91435,0.02888
3281.85418,0.02914
3279.79401,0.02924
3277.73384,0.02913
3275.67367,0.02906
3273.61349,0.02908
3271.55332,0.02907
3269.49315,0.02900
3267.43298,0.02891
3265.37281,0.02898
3263.31263,0.02917
3261.25246,0.02926
3259.19229,0.02917
3257.13212,0.02901
3255.07194,0.02883
3253.01177,0.02861
3250.95160,0.02847
3248.89143,0.02847
3246.83126,0.02845
3244.77108,0.02834
3242.71091,0.02834
3240.65074,0.02849
3238.59057,0.02855
3236.53040,0.02841
3234.47022,0.02826
3232.41005,0.02817
3230.34988,0.02805
3228.28971,0.02783
3226.22954,0.02744
3224.16936,0.02706
3222.10919,0.02688
3220.04902,0.02690
3217.98885,0.02687
3215.92867,0.02675
3213.86850,0.02674
3211.80833,0.02680
3209.74816,0.02674
3207.68799,0.02666
3205.62781,0.02650
3203.56764,0.02620
3201.50747,0.02595
3199.44730,0.02584
3197.38713,0.02577
3195.32695,0.02574
3193.26678,0.02571
3191.20661,0.02548
3189.14644,0.02511
3187.08626,0.02495
3185.02609,0.02511
3182.96592,0.02523
3180.90575,0.02498
3178.84558,0.02449
3176.78540,0.02404
3174.72523,0.02391
3172.66506,0.02393
3170.60489,0.02389
3168.54472,0.02378
3166.48454,0.02360
3164.42437,0.02338
3162.36420,0.02324
3160.30403,0.02308
3158.24386,0.02274
3156.18368,0.02240
3154.12351,0.02221
3152.06334,0.02209
3150.00317,0.02197
3147.94299,0.02170
3145.88282,0.02134
3143.82265,0.02111
3141.76248,0.02099
3139.70231,0.02084
3137.64213,0.02061
3135.58196,0.02045
3133.52179,0.02037
3131.46162,0.02016
3129.40145,0.01986
3127.34127,0.01956
3125.28110,0.01926
3123.22093,0.01904
3121.16076,0.01892
3119.10058,0.01876
3117.04041,0.01852
3114.98024,0.01834
3112.92007,0.01825
3110.85990,0.01817
3108.79972,0.01808
3106.73955,0.01801
3104.67938,0.01789
3102.61921,0.01770
3100.55904,0.01753
3098.49886,0.01733
3096.43869,0.01698
3094.37852,0.01670
3092.31835,0.01658
3090.25818,0.01643
3088.19800,0.01628
3086.13783,0.01620
3084.07766,0.01602
3082.01749,0.01571
3079.95731,0.01545
3077.89714,0.01526
3075.83697,0.01514
3073.77680,0.01493
3071.71663,0.01460
3069.65645,0.01436
3067.59628,0.01424
3065.53611,0.01423
3063.47594,0.01424
3061.41577,0.01409
3059.35559,0.01387
3057.29542,0.01381
3055.23525,0.01369
3053.17508,0.01342
3051.11491,0.01332
3049.05473,0.01338
3046.99456,0.01322
3044.93439,0.01280
3042.87422,0.01248
3040.81404,0.01239
3038.75387,0.01236
3036.69370,0.01225
3034.63353,0.01206
3032.57336,0.01188
3030.51318,0.01174
3028.45301,0.01156
3026.39284,0.01136
3024.33267,0.01126
3022.27250,0.01116
3020.21232,0.01103
3018.15215,0.01097
3016.09198,0.01099
3014.03181,0.01093
3011.97163,0.01079
3009.91146,0.01073
3007.85129,0.01078
3005.79112,0.01079
3003.73095,0.01066
3001.67077,0.01037
2999.61060,0.01019
2997.55043,0.01034
2995.49026,0.01047
2993.43009,0.01034
2991.36991,0.01025
2989.30974,0.01042
2987.24957,0.01077
2985.18940,0.01110
2983.12923,0.01125
2981.06905,0.01118
2979.00888,0.01103
2976.94871,0.01100
2974.88854,0.01115
2972.82836,0.01134
2970.76819,0.01148
2968.70802,0.01164
2966.64785,0.01190
2964.58768,0.01224
2962.52750,0.01255
2960.46733,0.01278
2958.40716,0.01297
2956.34699,0.01318
2954.28682,0.01339
2952.22664,0.01366
2950.16647,0.01392
2948.10630,0.01418
2946.04613,0.01449
2943.98596,0.01480
2941.92578,0.01498
2939.86561,0.01504
2937.80544,0.01512
2935.74527,0.01531
2933.68509,0.01565
2931.62492,0.01602
2929.56475,0.01628
2927.50458,0.01647
2925.44441,0.01656
2923.38423,0.01652
2921.32406,0.01647
2919.26389,0.01648
2917.20372,0.01644
2915.14355,0.01622
2913.08337,0.01582
2911.02320,0.01538
2908.96303,0.01500
2906.90286,0.01464
2904.84268,0.01441
2902.78251,0.01431
2900.72234,0.01428
2898.66217,0.01436
2896.60200,0.01443
2894.54182,0.01433
2892.48165,0.01413
2890.42148,0.01404
2888.36131,0.01401
2886.30114,0.01387
2884.24096,0.01367
2882.18079,0.01357
2880.12062,0.01352
2878.06045,0.01336
2876.00028,0.01317
2873.94010,0.01298
2871.87993,0.01283
2869.81976,0.01275
2867.75959,0.01261
2865.69941,0.01232
2863.63924,0.01212
2861.57907,0.01208
2859.51890,0.01210
2857.45873,0.01209
2855.39855,0.01210
2853.33838,0.01222
2851.27821,0.01242
2849.21804,0.01240
2847.15787,0.01195
2845.09769,0.01127
2843.03752,0.01068
2840.97735,0.01039
2838.91718,0.01033
2836.85700,0.01022
2834.79683,0.00994
2832.73666,0.00968
2830.67649,0.00961
2828.61632,0.00959
2826.55614,0.00948
2824.49597,0.00943
2822.43580,0.00939
2820.37563,0.00918
2818.31546,0.00899
2816.25528,0.00889
2814.19511,0.00882
2812.13494,0.00893
2810.07477,0.00910
2808.01460,0.00903
2805.95442,0.00883
2803.89425,0.00868
2801.83408,0.00861
2799.77391,0.00863
2797.71373,0.00858
2795.65356,0.00841
2793.59339,0.00821
2791.53322,0.00814
2789.47305,0.00823
2787.41287,0.00835
2785.35270,0.00834
2783.29253,0.00825
2781.23236,0.00825
2779.17219,0.00830
2777.11201,0.00827
2775.05184,0.00812
2772.99167,0.00793
2770.93150,0.00788
2768.87133,0.00793
2766.81115,0.00799
2764.75098,0.00803
2762.69081,0.00794
2760.63064,0.00769
2758.57046,0.00749
2756.51029,0.00747
2754.45012,0.00745
2752.38995,0.00740
2750.32978,0.00735
2748.26960,0.00728
2746.20943,0.00733
2744.14926,0.00748
2742.08909,0.00750
2740.02892,0.00739
2737.96874,0.00735
2735.90857,0.00736
2733.84840,0.00724
2731.78823,0.00714
2729.72805,0.00721
2727.66788,0.00731
2725.60771,0.00735
2723.54754,0.00733
2721.48737,0.00721
2719.42719,0.00706
2717.36702,0.00700
2715.30685,0.00702
2713.24668,0.00705
2711.18651,0.00710
2709.12633,0.00711
2707.06616,0.00703
2705.00599,0.00698
2702.94582,0.00699
2700.88565,0.00705
2698.82547,0.00719
2696.76530,0.00720
2694.70513,0.00702
2692.64496,0.00682
2690.58478,0.00669
2688.52461,0.00668
2686.46444,0.00671
2684.40427,0.00667
2682.34410,0.00664
2680.28392,0.00661
2678.22375,0.00646
2676.16358,0.00635
2674.10341,0.00638
2672.04324,0.00635
2669.98306,0.00628
2667.92289,0.00626
2665.86272,0.00636
2663.80255,0.00656
2661.74238,0.00669
2659.68220,0.00668
2657.62203,0.00667
2655.56186,0.00666
2653.50169,0.00654
2651.44151,0.00635
2649.38134,0.00618
2647.32117,0.00614
2645.26100,0.00619
2643.20083,0.00621
2641.14065,0.00609
2639.08048,0.00585
2637.02031,0.00564
2634.96014,0.00553
2632.89997,0.00552
2630.83979,0.00556
2628.77962,0.00560
2626.71945,0.00561
2624.65928,0.00553
2622.59910,0.00549
2620.53893,0.00554
2618.47876,0.00560
2616.41859,0.00558
2614.35842,0.00545
2612.29824,0.00532
2610.23807,0.00530
2608.17790,0.00537
2606.11773,0.00541
2604.05756,0.00532
2601.99738,0.00518
2599.93721,0.00498
2597.87704,0.00473
2595.81687,0.00458
2593.75670,0.00441
2591.69652,0.00431
2589.63635,0.00449
2587.57618,0.00475
2585.51601,0.00477
2583.45583,0.00454
2581.39566,0.00427
2579.33549,0.00433
2577.27532,0.00471
2575.21515,0.00491
2573.15497,0.00486
2571.09480,0.00493
2569.03463,0.00493
2566.97446,0.00467
2564.91429,0.00447
2562.85411,0.00445
2560.79394,0.00439
2558.73377,0.00433
2556.67360,0.00440
2554.61342,0.00448
2552.55325,0.00445
2550.49308,0.00448
2548.43291,0.00453
2546.37274,0.00446
2544.31256,0.00444
2542.25239,0.00442
2540.19222,0.00427
2538.13205,0.00412
2536.07188,0.00411
2534.01170,0.00408
2531.95153,0.00400
2529.89136,0.00414
2527.83119,0.00435
2525.77102,0.00437
2523.71084,0.00439
2521.65067,0.00441
2519.59050,0.00427
2517.53033,0.00417
2515.47015,0.00434
2513.40998,0.00436
2511.34981,0.00405
2509.28964,0.00385
2507.22947,0.00401
2505.16929,0.00415
2503.10912,0.00397
2501.04895,0.00382
2498.98878,0.00388
2496.92861,0.00399
2494.86843,0.00419
2492.80826,0.00423
2490.74809,0.00408
2488.68792,0.00408
2486.62775,0.00414
2484.56757,0.00407
2482.50740,0.00400
2480.44723,0.00399
2478.38706,0.00393
2476.32688,0.00381
2474.26671,0.00354
2472.20654,0.00326
2470.14637,0.00336
2468.08620,0.00365
2466.02602,0.00379
2463.96585,0.00387
2461.90568,0.00382
2459.84551,0.00361
2457.78534,0.00352
2455.72516,0.00367
2453.66499,0.00384
2451.60482,0.00380
2449.54465,0.00358
2447.48447,0.00353
2445.42430,0.00380
2443.36413,0.00407
2441.30396,0.00404
2439.24379,0.00388
2437.18361,0.00379
2435.12344,0.00377
2433.06327,0.00378
2431.00310,0.00374
2428.94293,0.00370
2426.88275,0.00363
2424.82258,0.00350
2422.76241,0.00337
2420.70224,0.00324
2418.64207,0.00323
2416.58189,0.00347
2414.52172,0.00370
2412.46155,0.00370
2410.40138,0.00366
2408.34120,0.00359
2406.28103,0.00324
2404.22086,0.00296
2402.16069,0.00310
2400.10052,0.00333
2398.04034,0.00330
2395.98017,0.00319
2393.92000,0.00306
2391.85983,0.00294
2389.79966,0.00303
2387.73948,0.00332
2385.67931,0.00356
2383.61914,0.00366
2381.55897,0.00359
2379.49880,0.00326
2377.43862,0.00273
2375.37845,0.00243
2373.31828,0.00296
2371.25811,0.00413
2369.19793,0.00476
2367.13776,0.00409
2365.07759,0.00328
2363.01742,0.00368
2360.95725,0.00475
2358.89707,0.00408
2356.83690,0.00327
2354.77673,0.00368
2352.71656,0.00431
2350.65639,0.00517
2348.59621,0.00533
2346.53604,0.00371
2344.47587,0.00318
2342.41570,0.00299
2340.35552,0.00256
2338.29535,0.00260
2336.23518,0.00305
2334.17501,0.00344
2332.11484,0.00336
2330.05466,0.00328
2327.99449,0.00376
2325.93432,0.00498
2323.87415,0.00548
2321.81398,0.00504
2319.75380,0.00411
2317.69363,0.00380
2315.63346,0.00391
2313.57329,0.00414
2311.51312,0.00440
2309.45294,0.00451
2307.39277,0.00436
2305.33260,0.00407
2303.27243,0.00399
2301.21225,0.00405
2299.15208,0.00417
2297.09191,0.00429
2295.03174,0.00430
2292.97157,0.00419
2290.91139,0.00403
2288.85122,0.00399
2286.79105,0.00409
2284.73088,0.00406
2282.67071,0.00379
2280.61053,0.00357
2278.55036,0.00361
2276.49019,0.00370
2274.43002,0.00354
2272.36984,0.00323
2270.30967,0.00298
2268.24950,0.00272
2266.18933,0.00259
2264.12916,0.00285
2262.06898,0.00329
2260.00881,0.00342
2257.94864,0.00321
2255.88847,0.00295
2253.82830,0.00288
2251.76812,0.00286
2249.70795,0.00262
2247.64778,0.00226
2245.58761,0.00229
2243.52744,0.00289
2241.46726,0.00323
2239.40709,0.00314
2237.34692,0.00314
2235.28675,0.00313
2233.22657,0.00310
2231.16640,0.00317
2229.10623,0.00322
2227.04606,0.00317
2224.98589,0.00313
2222.92571,0.00318
2220.86554,0.00308
2218.80537,0.00289
2216.74520,0.00292
2214.68503,0.00326
2212.62485,0.00349
2210.56468,0.00335
2208.50451,0.00309
2206.44434,0.00289
2204.38417,0.00280
2202.32399,0.00314
2200.26382,0.00354
2198.20365,0.00318
2196.14348,0.00257
2194.08330,0.00220
2192.02313,0.00158
2189.96296,0.00100
2187.90279,0.00121
2185.84262,0.00218
2183.78244,0.00295
2181.72227,0.00296
2179.66210,0.00261
2177.60193,0.00212
2175.54176,0.00153
2173.48158,0.00110
2171.42141,0.00130
2169.36124,0.00180
2167.30107,0.00192
2165.24089,0.00223
2163.18072,0.00252
2161.12055,0.00163
2159.06038,0.00021
2157.00021,0.00000
2154.94003,0.00101
2152.87986,0.00215
2150.81969,0.00235
2148.75952,0.00154
2146.69935,0.00149
2144.63917,0.00212
2142.57900,0.00170
2140.51883,0.00100
2138.45866,0.00114
2136.39849,0.00133
2134.33831,0.00133
2132.27814,0.00156
2130.21797,0.00180
2128.15780,0.00174
2126.09762,0.00166
2124.03745,0.00185
2121.97728,0.00226
2119.91711,0.00287
2117.85694,0.00333
2115.79676,0.00326
2113.73659,0.00312
2111.67642,0.00321
2109.61625,0.00326
2107.55608,0.00319
2105.49590,0.00303
2103.43573,0.00292
2101.37556,0.00308
2099.31539,0.00332
2097.25521,0.00327
2095.19504,0.00276
2093.13487,0.00234
2091.07470,0.00257
2089.01453,0.00314
2086.95435,0.00351
2084.89418,0.00358
2082.83401,0.00359
2080.77384,0.00358
2078.71367,0.00315
2076.65349,0.00257
2074.59332,0.00250
2072.53315,0.00271
2070.47298,0.00258
2068.41281,0.00197
2066.35263,0.00163
2064.29246,0.00197
2062.23229,0.00214
2060.17212,0.00158
2058.11194,0.00101
2056.05177,0.00133
2053.99160,0.00231
2051.93143,0.00297
2049.87126,0.00314
2047.81108,0.00313
2045.75091,0.00275
2043.69074,0.00221
2041.63057,0.00169
2039.57040,0.00116
2037.51022,0.00112
2035.45005,0.00176
2033.38988,0.00246
2031.32971,0.00249
2029.26954,0.00195
2027.20936,0.00128
2025.14919,0.00087
2023.08902,0.00095
2021.02885,0.00113
2018.96867,0.00090
2016.90850,0.00119
2014.84833,0.00216
2012.78816,0.00210
2010.72799,0.00144
2008.66781,0.00170
2006.60764,0.00222
2004.54747,0.00209
2002.48730,0.00176
2000.42713,0.00159
1998.36695,0.00147
1996.30678,0.00166
1994.24661,0.00203
1992.18644,0.00198
1990.12626,0.00174
1988.06609,0.00184
1986.00592,0.00201
1983.94575,0.00207
1981.88558,0.00245
1979.82540,0.00254
1977.76523,0.00146
1975.70506,0.00022
1973.64489,0.00000
1971.58472,0.00053
1969.52454,0.00090
1967.46437,0.00053
1965.40420,-0.00008
1963.34403,0.00012
1961.28386,0.00134
1959.22368,0.00231
1957.16351,0.00207
1955.10334,0.00151
1953.04317,0.00159
1950.98299,0.00196
1948.92282,0.00214
1946.86265,0.00227
1944.80248,0.00228
1942.74231,0.00197
1940.68213,0.00156
1938.62196,0.00149
1936.56179,0.00189
1934.50162,0.00211
1932.44145,0.00181
1930.38127,0.00166
1928.32110,0.00190
1926.26093,0.00195
1924.20076,0.00170
1922.14059,0.00127
1920.08041,0.00087
1918.02024,0.00108
1915.96007,0.00178
1913.89990,0.00210
1911.83972,0.00185
1909.77955,0.00149
1907.71938,0.00140
1905.65921,0.00152
1903.59904,0.00157
1901.53886,0.00148
1899.47869,0.00143
1897.41852,0.00153
1895.35835,0.00166
1893.29818,0.00162
1891.23800,0.00137
1889.17783,0.00108
1887.11766,0.00094
1885.05749,0.00103
1882.99731,0.00122
1880.93714,0.00130
1878.87697,0.00129
1876.81680,0.00125
1874.75663,0.00126
1872.69645,0.00131
1870.63628,0.00123
1868.57611,0.00099
1866.51594,0.00088
1864.45577,0.00096
1862.39559,0.00110
1860.33542,0.00123
1858.27525,0.00122
1856.21508,0.00109
1854.15491,0.00094
1852.09473,0.00074
1850.03456,0.00055
1847.97439,0.00049
1845.91422,0.00056
1843.85404,0.00064
1841.79387,0.00068
1839.73370,0.00064
1837.67353,0.00062
1835.61336,0.00075
1833.55318,0.00093
1831.49301,0.00085
1829.43284,0.00056
1827.37267,0.00047
1825.31250,0.00062
1823.25232,0.00069
1821.19215,0.00055
1819.13198,0.00035
1817.07181,0.00027
1815.01163,0.00030
1812.95146,0.00037
1810.89129,0.00042
1808.83112,0.00041
1806.77095,0.00040
1804.71077,0.00050
1802.65060,0.00066
1800.59043,0.00078
1798.53026,0.00083
1796.47009,0.00084
1794.40991,0.00075
1792.34974,0.00055
1790.28957,0.00045
1788.22940,0.00048
1786.16923,0.00046
1784.10905,0.00038
1782.04888,0.00039
1779.98871,0.00054
1777.92854,0.00068
1775.86836,0.00072
1773.80819,0.00070
1771.74802,0.00070
1769.68785,0.00072
1767.62768,0.00078
1765.56750,0.00091
1763.50733,0.00115
1761.44716,0.00145
1759.38699,0.00172
1757.32682,0.00205
1755.26664,0.00248
1753.20647,0.00289
1751.14630,0.00326
1749.08613,0.00361
1747.02596,0.00405
1744.96578,0.00460
1742.90561,0.00501
1740.84544,0.00518
1738.78527,0.00524
1736.72509,0.00534
1734.66492,0.00553
1732.60475,0.00572
1730.54458,0.00579
1728.48441,0.00569
1726.42423,0.00557
1724.36406,0.00556
1722.30389,0.00555
1720.24372,0.00542
1718.18355,0.00525
1716.12337,0.00501
1714.06320,0.00453
1712.00303,0.00400
1709.94286,0.00363
1707.88268,0.00338
1705.82251,0.00313
1703.76234,0.00277
1701.70217,0.00247
1699.64200,0.00244
1697.58182,0.00253
1695.52165,0.00258
1693.46148,0.00268
1691.40131,0.00288
1689.34114,0.00322
1687.28096,0.00364
1685.22079,0.00412
1683.16062,0.00459
1681.10045,0.00485
1679.04028,0.00498
1676.98010,0.00519
1674.91993,0.00561
1672.85976,0.00606
1670.79959,0.00656
1668.73941,0.00718
1666.67924,0.00768
1664.61907,0.00805
1662.55890,0.00849
1660.49873,0.00897
1658.43855,0.00933
1656.37838,0.00955
1654.31821,0.00988
1652.25804,0.01044
1650.19787,0.01078
1648.13769,0.01096
1646.07752,0.01122
1644.01735,0.01144
1641.95718,0.01153
1639.89701,0.01160
1637.83683,0.01175
1635.77666,0.01212
1633.71649,0.01250
1631.65632,0.01262
1629.59614,0.01264
1627.53597,0.01276
1625.47580,0.01298
1623.41563,0.01314
1621.35546,0.01315
1619.29528,0.01308
1617.23511,0.01306
1615.17494,0.01303
1613.11477,0.01289
1611.05460,0.01273
1608.99442,0.01258
1606.93425,0.01231
1604.87408,0.01189
1602.81391,0.01138
1600.75373,0.01085
1598.69356,0.01027
1596.63339,0.00966
1594.57322,0.00902
1592.51305,0.00836
1590.45287,0.00772
1588.39270,0.00710
1586.33253,0.00654
1584.27236,0.00612
1582.21219,0.00576
1580.15201,0.00535
1578.09184,0.00498
1576.03167,0.00474
1573.97150,0.00448
1571.91133,0.00406
1569.85115,0.00352
1567.79098,0.00307
1565.73081,0.00284
1563.67064,0.00266
1561.61046,0.00244
1559.55029,0.00231
1557.49012,0.00240
1555.42995,0.00246
1553.36978,0.00236
1551.30960,0.00219
1549.24943,0.00202
1547.18926,0.00187
1545.12909,0.00176
1543.06892,0.00173
1541.00874,0.00180
1538.94857,0.00187
1536.88840,0.00178
1534.82823,0.00145
1532.76805,0.00099
1530.70788,0.00072
1528.64771,0.00079
1526.58754,0.00092
1524.52737,0.00081
1522.46719,0.00050
1520.40702,0.00029
1518.34685,0.00034
1516.28668,0.00052
1514.22651,0.00063
1512.16633,0.00067
1510.10616,0.00081
1508.04599,0.00103
1505.98582,0.00106
1503.92565,0.00082
1501.86547,0.00061
1499.80530,0.00055
1497.74513,0.00065
1495.68496,0.00079
1493.62478,0.00086
1491.56461,0.00096
1489.50444,0.00113
1487.44427,0.00126
1485.38410,0.00132
1483.32392,0.00145
1481.26375,0.00172
1479.20358,0.00206
1477.14341,0.00248
1475.08324,0.00300
1473.02306,0.00361
1470.96289,0.00416
1468.90272,0.00456
1466.84255,0.00498
1464.78238,0.00550
1462.72220,0.00586
1460.66203,0.00601
1458.60186,0.00622
1456.54169,0.00657
1454.48151,0.00679
1452.42134,0.00691
1450.36117,0.00709
1448.30100,0.00735
1446.24083,0.00760
1444.18065,0.00776
1442.12048,0.00785
1440.06031,0.00794
1438.00014,0.00822
1435.93997,0.00873
1433.87979,0.00916
1431.81962,0.00943
1429.75945,0.00973
1427.69928,0.01005
1425.63910,0.01036
1423.57893,0.01067
1421.51876,0.01098
1419.45859,0.01135
1417.39842,0.01172
1415.33824,0.01185
1413.27807,0.01176
1411.21790,0.01157
1409.15773,0.01135
1407.09756,0.01112
1405.03738,0.01088
1402.97721,0.01061
1400.91704,0.01036
1398.85687,0.01016
1396.79670,0.00998
1394.73652,0.00981
1392.67635,0.00964
1390.61618,0.00950
1388.55601,0.00949
1386.49583,0.00959
1384.43566,0.00970
1382.37549,0.00984
1380.31532,0.01012
1378.25515,0.01043
1376.19497,0.01066
1374.13480,0.01088
1372.07463,0.01102
1370.01446,0.01101
1367.95429,0.01087
1365.89411,0.01070
1363.83394,0.01056
1361.77377,0.01040
1359.71360,0.01013
1357.65343,0.00989
1355.59325,0.00980
1353.53308,0.00975
1351.47291,0.00960
1349.41274,0.00937
1347.35256,0.00913
1345.29239,0.00897
1343.23222,0.00896
1341.17205,0.00903
1339.11188,0.00902
1337.05170,0.00886
1334.99153,0.00870
1332.93136,0.00869
1330.87119,0.00870
1328.81102,0.00870
1326.75084,0.00876
1324.69067,0.00887
1322.63050,0.00898
1320.57033,0.00908
1318.51015,0.00918
1316.44998,0.00922
1314.38981,0.00921
1312.32964,0.00912
1310.26947,0.00896
1308.20929,0.00877
1306.14912,0.00862
1304.08895,0.00850
1302.02878,0.00835
1299.96861,0.00815
1297.90843,0.00796
1295.84826,0.00782
1293.78809,0.00773
1291.72792,0.00767
1289.66775,0.00762
1287.60757,0.00754
1285.54740,0.00740
1283.48723,0.00726
1281.42706,0.00723
1279.36688,0.00730
1277.30671,0.00743
1275.24654,0.00762
1273.18637,0.00781
1271.12620,0.00805
1269.06602,0.00842
1267.00585,0.00881
1264.94568,0.00915
1262.88551,0.00952
1260.82534,0.00995
1258.76516,0.01040
1256.70499,0.01081
1254.64482,0.01112
1252.58465,0.01124
1250.52447,0.01123
1248.46430,0.01128
1246.40413,0.01134
1244.34396,0.01123
1242.28379,0.01100
1240.22361,0.01076
1238.16344,0.01058
1236.10327,0.01039
1234.04310,0.01006
1231.98293,0.00961
1229.92275,0.00921
1227.86258,0.00890
1225.80241,0.00854
1223.74224,0.00812
1221.68207,0.00771
1219.62189,0.00727
1217.56172,0.00677
1215.50155,0.00626
1213.44138,0.00581
1211.38120,0.00543
1209.32103,0.00495
1207.26086,0.00425
1205.20069,0.00346
1203.14052,0.00270
1201.08034,0.00205
1199.02017,0.00151
1196.96000,0.00099
1194.89983,0.00054
1192.83966,0.00021
1190.77948,0.00000
1188.71931,-0.00006
1186.65914,-0.00002
1184.59897,-0.00000
1182.53880,0.00010
1180.47862,0.00047
1178.41845,0.00104
1176.35828,0.00164
1174.29811,0.00235
1172.23793,0.00326
1170.17776,0.00424
1168.11759,0.00520
1166.05742,0.00613
1163.99725,0.00702
1161.93707,0.00785
1159.87690,0.00852
1157.81673,0.00908
1155.75656,0.00970
1153.69639,0.01042
1151.63621,0.01102
1149.57604,0.01145
1147.51587,0.01198
1145.45570,0.01255
1143.39552,0.01281
1141.33535,0.01285
1139.27518,0.01300
1137.21501,0.01332
1135.15484,0.01374
1133.09466,0.01415
1131.03449,0.01457
1128.97432,0.01511
1126.91415,0.01570
1124.85398,0.01638
1122.79380,0.01729
1120.73363,0.01813
1118.67346,0.01867
1116.61329,0.01919
1114.55312,0.01991
1112.49294,0.02070
1110.43277,0.02129
1108.37260,0.02172
1106.31243,0.02228
1104.25225,0.02307
1102.19208,0.02401
1100.13191,0.02506
1098.07174,0.02614
1096.01157,0.02720
1093.95139,0.02823
1091.89122,0.02928
1089.83105,0.03035
1087.77088,0.03132
1085.71071,0.03215
1083.65053,0.03300
1081.59036,0.03379
1079.53019,0.03448
1077.47002,0.03534
1075.40985,0.03641
1073.34967,0.03739
1071.28950,0.03816
1069.22933,0.03883
1067.16916,0.03946
1065.10898,0.04000
1063.04881,0.04046
1060.98864,0.04091
1058.92847,0.04126
1056.86830,0.04153
1054.80812,0.04191
1052.74795,0.04249
1050.68778,0.04320
1048.62761,0.04402
1046.56744,0.04490
1044.50726,0.04563
1042.44709,0.04610
1040.38692,0.04651
1038.32675,0.04695
1036.26657,0.04732
1034.20640,0.04762
1032.14623,0.04788
1030.08606,0.04807
1028.02589,0.04816
1025.96571,0.04813
1023.90554,0.04802
1021.84537,0.04794
1019.78520,0.04795
1017.72503,0.04809
1015.66485,0.04816
1013.60468,0.04814
1011.54451,0.04811
1009.48434,0.04795
1007.42417,0.04751
1005.36399,0.04687
1003.30382,0.04635
1001.24365,0.04603
999.18348,0.04568
997.12330,0.04512
995.06313,0.04432
993.00296,0.04342
990.94279,0.04266
988.88262,0.04207
986.82244,0.04155
984.76227,0.04112
982.70210,0.04069
980.64193,0.04022
978.58176,0.03979
976.52158,0.03943
974.46141,0.03906
972.40124,0.03853
970.34107,0.03786
968.28089,0.03714
966.22072,0.03637
964.16055,0.03565
962.10038,0.03498
960.04021,0.03430
957.98003,0.03375
955.91986,0.03331
953.85969,0.03269
951.79952,0.03179
949.73935,0.03085
947.67917,0.03002
945.61900,0.02919
943.55883,0.02812
941.49866,0.02663
939.43849,0.02475
937.37831,0.02270
935.31814,0.02081
933.25797,0.01915
931.19780,0.01761
929.13762,0.01612
927.07745,0.01474
925.01728,0.01350
922.95711,0.01252
920.89694,0.01171
918.83676,0.01086
916.77659,0.01009
914.71642,0.00949
912.65625,0.00891
910.59608,0.00837
908.53590,0.00786
906.47573,0.00743
904.41556,0.00723
902.35539,0.00730
900.29522,0.00743
898.23504,0.00737
896.17487,0.00724
894.11470,0.00723
892.05453,0.00716
889.99435,0.00688
887.93418,0.00670
885.87401,0.00651
883.81384,0.00598
881.75367,0.00545
879.69349,0.00519
877.63332,0.00491
875.57315,0.00450
873.51298,0.00409
871.45281,0.00376
869.39263,0.00357
867.33246,0.00346
865.27229,0.00325
863.21212,0.00292
861.15194,0.00270
859.09177,0.00266
857.03160,0.00257
854.97143,0.00234
852.91126,0.00222
850.85108,0.00222
848.79091,0.00212
846.73074,0.00185
844.67057,0.00155
842.61040,0.00120
840.55022,0.00082
838.49005,0.00054
836.42988,0.00038
834.36971,0.00031
832.30954,0.00017
830.24936,0.00000
828.18919,0.00009
826.12902,0.00018
824.06885,-0.00010
822.00867,-0.00029
819.94850,-0.00000
817.88833,0.00037
815.82816,0.00065
813.76799,0.00083
811.70781,0.00102
809.64764,0.00136
807.58747,0.00161
805.52730,0.00159
803.46713,0.00145
801.40695,0.00134
799.34678,0.00121
797.28661,0.00096
795.22644,0.00065
793.16627,0.00047
791.10609,0.00048
789.04592,0.00045
786.98575,0.00028
784.92558,0.00018
782.86540,0.00021
780.80523,0.00035
778.74506,0.00061
776.68489,0.00079
774.62472,0.00073
772.56454,0.00047
770.50437,0.00036
768.44420,0.00058
766.38403,0.00100
764.32386,0.00133
762.26368,0.00133
760.20351,0.00112
758.14334,0.00072
756.08317,0.00022
754.02299,-0.00007
751.96282,0.00000
749.90265,0.00031
747.84248,0.00039
745.78231,-0.00012
743.72213,-0.00055
741.66196,-0.00035
739.60179,0.00002
737.54162,-0.00003
735.48145,-0.00014
733.42127,0.00006
731.36110,0.00019
729.30093,0.00019
727.24076,0.00026
725.18059,0.00030
723.12041,0.00051
721.06024,0.00063
719.00007,0.00088
716.93990,0.00088
714.87972,0.00066
712.81955,0.00073
710.75938,0.00121
708.69921,0.00173
706.63904,0.00199
704.57886,0.00204
702.51869,0.00196
700.45852,0.00188
698.39835,0.00208
696.33818,0.00241
694.27800,0.00244
692.21783,0.00225
690.15766,0.00212
688.09749,0.00217
686.03731,0.00231
683.97714,0.00226
681.91697,0.00182
679.85680,0.00118
677.79663,0.00091
675.73645,0.00155
673.67628,0.00314
671.61611,0.00471
669.55594,0.00341
667.49577,0.00114
665.43559,0.00316
663.37542,0.00265
661.31525,0.00204
659.25508,0.00211
657.19491,0.00217
655.13473,0.00200
653.07456,0.00208
651.01439,0.00259
648.95422,0.00302
646.89404,0.00329
644.83387,0.00331
642.77370,0.00307
640.71353,0.00256
638.65336,0.00175
636.59318,0.00077
634.53301,0.00000
632.47284,-0.00007
630.41267,0.00087
628.35250,0.00218
626.29232,0.00273
624.23215,0.00279
622.17198,0.00237
620.11181,0.00123
618.05164,0.00070
615.99146,0.00069
613.93129,0.00074
611.87112,0.00110
609.81095,0.00133
607.75077,0.00155
605.69060,0.00239
603.63043,0.00270
601.57026,0.00121
599.51009,0.00000
