3996.73391,0.00042
3994.67373,0.00060
3992.61356,0.00069
3990.55339,0.00059
3988.49322,0.00043
3986.43305,0.00046
3984.37287,0.00059
3982.31270,0.00062
3980.25253,0.00054
3978.19236,0.00045
3976.13219,0.00038
3974.07201,0.00024
3972.01184,0.00005
3969.95167,0.00000
3967.89150,0.00019
3965.83133,0.00043
3963.77115,0.00049
3961.71098,0.00043
3959.65081,0.00045
3957.59064,0.00054
3955.53046,0.00060
3953.47029,0.00061
3951.41012,0.00057
3949.34995,0.00053
3947.28978,0.00048
3945.22960,0.00049
3943.16943,0.00054
3941.10926,0.00051
3939.04909,0.00047
3936.98892,0.00052
3934.92874,0.00067
3932.86857,0.00081
3930.80840,0.00086
3928.74823,0.00084
3926.68805,0.00084
3924.62788,0.00085
3922.56771,0.00080
3920.50754,0.00076
3918.44737,0.00080
3916.38719,0.00088
3914.32702,0.00080
3912.26685,0.00055
3910.20668,0.00038
3908.14651,0.00041
3906.08633,0.00059
3904.02616,0.00098
3901.96599,0.00137
3899.90582,0.00139
3897.84565,0.00112
3895.78547,0.00088
3893.72530,0.00093
3891.66513,0.00122
3889.60496,0.00131
3887.54478,0.00112
3885.48461,0.00107
3883.42444,0.00127
3881.36427,0.00150
3879.30410,0.00159
3877.24392,0.00141
3875.18375,0.00111
3873.12358,0.00098
3871.06341,0.00123
3869.00324,0.00167
3866.94306,0.00176
3864.88289,0.00152
3862.82272,0.00114
3860.76255,0.00060
3858.70237,0.00026
3856.64220,0.00044
3854.58203,0.00108
3852.52186,0.00160
3850.46169,0.00146
3848.40151,0.00107
3846.34134,0.00090
3844.28117,0.00101
3842.22100,0.00115
3840.16083,0.00106
3838.10065,0.00094
3836.04048,0.00103
3833.98031,0.00113
3831.92014,0.00108
3829.85997,0.00089
3827.79979,0.00070
3825.73962,0.00060
3823.67945,0.00053
3821.61928,0.00066
3819.55910,0.00105
3817.49893,0.00128
3815.43876,0.00129
3813.37859,0.00114
3811.31842,0.00088
3809.25824,0.00081
3807.19807,0.00107
3805.13790,0.00128
3803.07773,0.00130
3801.01756,0.00130
3798.95738,0.00109
3796.89721,0.00078
3794.83704,0.00077
3792.77687,0.00093
3790.71670,0.00096
3788.65652,0.00084
3786.59635,0.00074
3784.53618,0.00070
3782.47601,0.00061
3780.41583,0.00052
3778.35566,0.00051
3776.29549,0.00049
3774.23532,0.00047
3772.17515,0.00057
3770.11497,0.00084
3768.05480,0.00116
3765.99463,0.00127
3763.93446,0.00119
3761.87429,0.00108
3759.81411,0.00108
3757.75394,0.00116
3755.69377,0.00113
3753.63360,0.00122
3751.57342,0.00161
3749.51325,0.00177
3747.45308,0.00151
3745.39291,0.00157
3743.33274,0.00203
3741.27256,0.00205
3739.21239,0.00175
3737.15222,0.00186
3735.09205,0.00239
3733.03188,0.00239
3730.97170,0.00177
3728.91153,0.00121
3726.85136,0.00117
3724.79119,0.00143
3722.73102,0.00147
3720.67084,0.00131
3718.61067,0.00122
3716.55050,0.00130
3714.49033,0.00143
3712.43015,0.00161
3710.36998,0.00178
3708.30981,0.00148
3706.24964,0.00108
3704.18947,0.00089
3702.12929,0.00088
3700.06912,0.00090
3698.00895,0.00078
3695.94878,0.00066
3693.88861,0.00069
3691.82843,0.00102
3689.76826,0.00141
3687.70809,0.00147
3685.64792,0.00127
3683.58775,0.00120
3681.52757,0.00145
3679.46740,0.00193
3677.40723,0.00228
3675.34706,0.00214
3673.28688,0.00156
3671.22671,0.00127
3669.16654,0.00149
3667.10637,0.00171
3665.04620,0.00183
3662.98602,0.00197
3660.92585,0.00201
3658.86568,0.00200
3656.80551,0.00207
3654.74534,0.00202
3652.68516,0.00192
3650.62499,0.00249
3648.56482,0.00332
3646.50465,0.00309
3644.44447,0.00235
3642.38430,0.00205
3640.32413,0.00216
3638.26396,0.00223
3636.20379,0.00217
3634.14361,0.00217
3632.08344,0.00244
3630.02327,0.00308
3627.96310,0.00364
3625.90293,0.00347
3623.84275,0.00306
3621.78258,0.00281
3619.72241,0.00282
3617.66224,0.00330
3615.60207,0.00410
3613.54189,0.00477
3611.48172,0.00492
3609.42155,0.00489
3607.36138,0.00495
3605.30120,0.00486
3603.24103,0.00472
3601.18086,0.00484
3599.12069,0.00520
3597.06052,0.00541
3595.00034,0.00546
3592.94017,0.00552
3590.88000,0.00583
3588.81983,0.00638
3586.75966,0.00687
3584.69948,0.00691
3582.63931,0.00657
3580.57914,0.00621
3578.51897,0.00611
3576.45879,0.00630
3574.39862,0.00652
3572.33845,0.00663
3570.27828,0.00679
3568.21811,0.00721
3566.15793,0.00770
3564.09776,0.00804
3562.03759,0.00839
3559.97742,0.00876
3557.91725,0.00894
3555.85707,0.00906
3553.79690,0.00919
3551.73673,0.00914
3549.67656,0.00904
3547.61639,0.00923
3545.55621,0.00945
3543.49604,0.00950
3541.43587,0.00962
3539.37570,0.00985
3537.31552,0.01002
3535.25535,0.01018
3533.19518,0.01043
3531.13501,0.01080
3529.07484,0.01110
3527.01466,0.01114
3524.95449,0.01110
3522.89432,0.01120
3520.83415,0.01139
3518.77398,0.01152
3516.71380,0.01160
3514.65363,0.01183
3512.59346,0.01216
3510.53329,0.01230
3508.47312,0.01226
3506.41294,0.01233
3504.35277,0.01256
3502.29260,0.01277
3500.23243,0.01291
3498.17225,0.01307
3496.11208,0.01332
3494.05191,0.01368
3491.99174,0.01403
3489.93157,0.01424
3487.87139,0.01438
3485.81122,0.01453
3483.75105,0.01474
3481.69088,0.01489
3479.63071,0.01486
3477.57053,0.01467
3475.51036,0.01449
3473.45019,0.01462
3471.39002,0.01504
3469.32984,0.01546
3467.26967,0.01560
3465.20950,0.01553
3463.14933,0.01557
3461.08916,0.01584
3459.02898,0.01620
3456.96881,0.01650
3454.90864,0.01662
3452.84847,0.01664
3450.78830,0.01685
3448.72812,0.01726
3446.66795,0.01753
3444.60778,0.01747
3442.54761,0.01733
3440.48744,0.01740
3438.42726,0.01768
3436.36709,0.01797
3434.30692,0.01809
3432.24675,0.01801
3430.18657,0.01799
3428.12640,0.01810
3426.06623,0.01828
3424.00606,0.01850
3421.94589,0.01866
3419.88571,0.01880
3417.82554,0.01886
3415.76537,0.01883
3413.70520,0.01896
3411.64503,0.01928
3409.58485,0.01945
3407.52468,0.01938
3405.46451,0.01942
3403.40434,0.01964
3401.34416,0.01983
3399.28399,0.02004
3397.22382,0.02031
3395.16365,0.02045
3393.10348,0.02032
3391.04330,0.02017
3388.98313,0.02033
3386.92296,0.02059
3384.86279,0.02067
3382.80262,0.02069
3380.74244,0.02086
3378.68227,0.02104
3376.62210,0.02109
3374.56193,0.02108
3372.50176,0.02102
3370.44158,0.02095
3368.38141,0.02105
3366.32124,0.02136
3364.26107,0.02158
3362.20089,0.02155
3360.14072,0.02155
3358.08055,0.02166
3356.02038,0.02177
3353.96021,0.02191
3351.90003,0.02196
3349.83986,0.02190
3347.77969,0.02185
3345.71952,0.02186
3343.65935,0.02193
3341.59917,0.02208
3339.53900,0.02231
3337.47883,0.02245
3335.41866,0.02237
3333.35849,0.02231
3331.29831,0.02245
3329.23814,0.02266
3327.17797,0.02282
3325.11780,0.02272
3323.05762,0.02235
3320.99745,0.02206
3318.93728,0.02206
3316.87711,0.02232
3314.81694,0.02260
3312.75676,0.02281
3310.69659,0.02295
3308.63642,0.02293
3306.57625,0.02273
3304.51608,0.02254
3302.45590,0.02257
3300.39573,0.02276
3298.33556,0.02286
3296.27539,0.02285
3294.21521,0.02290
3292.15504,0.02291
3290.09487,0.02274
3288.03470,0.02259
3285.97453,0.02268
3283.91435,0.02294
3281.85418,0.02307
3279.79401,0.02294
3277.73384,0.02285
3275.67367,0.02302
3273.61349,0.02316
3271.55332,0.02310
3269.49315,0.02290
3267.43298,0.02263
3265.37281,0.02256
3263.31263,0.02273
3261.25246,0.02278
3259.19229,0.02265
3257.13212,0.02262
3255.07194,0.02261
3253.01177,0.02243
3250.95160,0.02221
3248.89143,0.02217
3246.83126,0.02227
3244.77108,0.02227
3242.71091,0.02219
3240.65074,0.02224
3238.59057,0.02234
3236.53040,0.02235
3234.47022,0.02226
3232.41005,0.02212
3230.34988,0.02205
3228.28971,0.02193
3226.22954,0.02165
3224.16936,0.02141
3222.10919,0.02137
3220.04902,0.02149
3217.98885,0.02157
3215.92867,0.02165
3213.86850,0.02177
3211.80833,0.02166
3209.74816,0.02120
3207.68799,0.02082
3205.62781,0.02070
3203.56764,0.02062
3201.50747,0.02057
3199.44730,0.02055
3197.38713,0.02051
3195.32695,0.02038
3193.26678,0.02018
3191.20661,0.02004
3189.14644,0.01997
3187.08626,0.01987
3185.02609,0.01982
3182.96592,0.01993
3180.90575,0.01987
3178.84558,0.01945
3176.78540,0.01915
3174.72523,0.01917
3172.66506,0.01923
3170.60489,0.01913
3168.54472,0.01892
3166.48454,0.01873
3164.42437,0.01851
3162.36420,0.01824
3160.30403,0.01810
3158.24386,0.01811
3156.18368,0.01809
3154.12351,0.01789
3152.06334,0.01762
3150.00317,0.01750
3147.94299,0.01740
3145.88282,0.01714
3143.82265,0.01690
3141.76248,0.01675
3139.70231,0.01663
3137.64213,0.01654
3135.58196,0.01642
3133.52179,0.01624
3131.46162,0.01608
3129.40145,0.01598
3127.34127,0.01586
3125.28110,0.01575
3123.22093,0.01565
3121.16076,0.01548
3119.10058,0.01524
3117.04041,0.01501
3114.98024,0.01486
3112.92007,0.01479
3110.85990,0.01466
3108.79972,0.01453
3106.73955,0.01449
3104.67938,0.01439
3102.61921,0.01423
3100.55904,0.01416
3098.49886,0.01410
3096.43869,0.01390
3094.37852,0.01369
3092.31835,0.01356
3090.25818,0.01339
3088.19800,0.01320
3086.13783,0.01309
3084.07766,0.01296
3082.01749,0.01278
3079.95731,0.01265
3077.89714,0.01250
3075.83697,0.01221
3073.77680,0.01190
3071.71663,0.01181
3069.65645,0.01193
3067.59628,0.01202
3065.53611,0.01199
3063.47594,0.01185
3061.41577,0.01158
3059.35559,0.01130
3057.29542,0.01116
3055.23525,0.01111
3053.17508,0.01101
3051.11491,0.01094
3049.05473,0.01095
3046.99456,0.01087
3044.93439,0.01066
3042.87422,0.01040
3040.81404,0.01021
3038.75387,0.01016
3036.69370,0.01019
3034.63353,0.01014
3032.57336,0.01000
3030.51318,0.00983
3028.45301,0.00967
3026.39284,0.00964
3024.33267,0.00972
3022.27250,0.00970
3020.21232,0.00956
3018.15215,0.00945
3016.09198,0.00926
3014.03181,0.00895
3011.97163,0.00885
3009.91146,0.00897
3007.85129,0.00905
3005.79112,0.00900
3003.73095,0.00884
3001.67077,0.00865
2999.61060,0.00861
2997.55043,0.00875
2995.49026,0.00891
2993.43009,0.00898
2991.36991,0.00904
2989.30974,0.00910
2987.24957,0.00921
2985.18940,0.00940
2983.12923,0.00953
2981.06905,0.00952
2979.00888,0.00946
2976.94871,0.00947
2974.88854,0.00954
2972.82836,0.00959
2970.76819,0.00958
2968.70802,0.00965
2966.64785,0.00992
2964.58768,0.01028
2962.52750,0.01052
2960.46733,0.01066
2958.40716,0.01090
2956.34699,0.01122
2954.28682,0.01145
2952.22664,0.01157
2950.16647,0.01164
2948.10630,0.01182
2946.04613,0.01216
2943.98596,0.01245
2941.92578,0.01253
2939.86561,0.01255
2937.80544,0.01274
2935.74527,0.01308
2933.68509,0.01339
2931.62492,0.01362
2929.56475,0.01380
2927.50458,0.01398
2925.44441,0.01406
2923.38423,0.01395
2921.32406,0.01390
2919.26389,0.01415
2917.20372,0.01434
2915.14355,0.01407
2913.08337,0.01357
2911.02320,0.01316
2908.96303,0.01276
2906.90286,0.01240
2904.84268,0.01219
2902.78251,0.01209
2900.72234,0.01211
2898.66217,0.01223
2896.60200,0.01237
2894.54182,0.01234
2892.48165,0.01212
2890.42148,0.01199
2888.36131,0.01200
2886.30114,0.01197
2884.24096,0.01183
2882.18079,0.01158
2880.12062,0.01138
2878.06045,0.01141
2876.00028,0.01154
2873.94010,0.01150
2871.87993,0.01126
2869.81976,0.01098
2867.75959,0.01077
2865.69941,0.01059
2863.63924,0.01045
2861.57907,0.01041
2859.51890,0.01051
2857.45873,0.01056
2855.39855,0.01053
2853.33838,0.01057
2851.27821,0.01067
2849.21804,0.01063
2847.15787,0.01028
2845.09769,0.00978
2843.03752,0.00943
2840.97735,0.00931
2838.91718,0.00929
2836.85700,0.00918
2834.79683,0.00890
2832.73666,0.00866
2830.67649,0.00865
2828.61632,0.00881
2826.55614,0.00884
2824.49597,0.00873
2822.43580,0.00859
2820.37563,0.00836
2818.31546,0.00809
2816.25528,0.00789
2814.19511,0.00781
2812.13494,0.00787
2810.07477,0.00800
2808.01460,0.00806
2805.95442,0.00799
2803.89425,0.00784
2801.83408,0.00770
2799.77391,0.00770
2797.71373,0.00780
2795.65356,0.00776
2793.59339,0.00761
2791.53322,0.00756
2789.47305,0.00765
2787.41287,0.00773
2785.35270,0.00771
2783.29253,0.00763
2781.23236,0.00764
2779.17219,0.00770
2777.11201,0.00761
2775.05184,0.00743
2772.99167,0.00731
2770.93150,0.00730
2768.87133,0.00736
2766.81115,0.00743
2764.75098,0.00744
2762.69081,0.00740
2760.63064,0.00734
2758.57046,0.00722
2756.51029,0.00712
2754.45012,0.00710
2752.38995,0.00712
2750.32978,0.00706
2748.26960,0.00692
2746.20943,0.00691
2744.14926,0.00707
2742.08909,0.00719
2740.02892,0.00712
2737.96874,0.00692
2735.90857,0.00675
2733.84840,0.00670
2731.78823,0.00684
2729.72805,0.00705
2727.66788,0.00712
2725.60771,0.00705
2723.54754,0.00695
2721.48737,0.00687
2719.42719,0.00680
2717.36702,0.00678
2715.30685,0.00678
2713.24668,0.00676
2711.18651,0.00675
2709.12633,0.00683
2707.06616,0.00693
2705.00599,0.00690
2702.94582,0.00678
2700.88565,0.00679
2698.82547,0.00691
2696.76530,0.00689
2694.70513,0.00671
2692.64496,0.00659
2690.58478,0.00662
2688.52461,0.00667
2686.46444,0.00659
2684.40427,0.00644
2682.34410,0.00634
2680.28392,0.00636
2678.22375,0.00644
2676.16358,0.00654
2674.10341,0.00651
2672.04324,0.00632
2669.98306,0.00615
2667.92289,0.00617
2665.86272,0.00631
2663.80255,0.00644
2661.74238,0.00648
2659.68220,0.00639
2657.62203,0.00631
2655.56186,0.00632
2653.50169,0.00640
2651.44151,0.00648
2649.38134,0.00644
2647.32117,0.00637
2645.26100,0.00641
2643.20083,0.00639
2641.14065,0.00614
2639.08048,0.00583
2637.02031,0.00563
2634.96014,0.00552
2632.89997,0.00549
2630.83979,0.00550
2628.77962,0.00550
2626.71945,0.00547
2624.65928,0.00549
2622.59910,0.00560
2620.53893,0.00570
2618.47876,0.00577
2616.41859,0.00571
2614.35842,0.00541
2612.29824,0.00524
2610.23807,0.00535
2608.17790,0.00550
2606.11773,0.00555
2604.05756,0.00547
2601.99738,0.00538
2599.93721,0.00518
2597.87704,0.00485
2595.81687,0.00475
2593.75670,0.00481
2591.69652,0.00480
2589.63635,0.00490
2587.57618,0.00512
2585.51601,0.00514
2583.45583,0.00491
2581.39566,0.00469
2579.33549,0.00463
2577.27532,0.00474
2575.21515,0.00490
2573.15497,0.00504
2571.09480,0.00516
2569.03463,0.00514
2566.97446,0.00501
2564.91429,0.00499
2562.85411,0.00507
2560.79394,0.00499
2558.73377,0.00473
2556.67360,0.00460
2554.61342,0.00477
2552.55325,0.00496
2550.49308,0.00498
2548.43291,0.00492
2546.37274,0.00482
2544.31256,0.00474
2542.25239,0.00485
2540.19222,0.00510
2538.13205,0.00519
2536.07188,0.00497
2534.01170,0.00466
2531.95153,0.00463
2529.89136,0.00490
2527.83119,0.00498
2525.77102,0.00484
2523.71084,0.00484
2521.65067,0.00488
2519.59050,0.00470
2517.53033,0.00457
2515.47015,0.00468
2513.40998,0.00481
2511.34981,0.00488
2509.28964,0.00495
2507.22947,0.00499
2505.16929,0.00488
2503.10912,0.00461
2501.04895,0.00440
2498.98878,0.00427
2496.92861,0.00409
2494.86843,0.00413
2492.80826,0.00455
2490.74809,0.00493
2488.68792,0.00492
2486.62775,0.00458
2484.56757,0.00420
2482.50740,0.00411
2480.44723,0.00423
2478.38706,0.00426
2476.32688,0.00429
2474.26671,0.00435
2472.20654,0.00426
2470.14637,0.00430
2468.08620,0.00447
2466.02602,0.00449
2463.96585,0.00442
2461.90568,0.00421
2459.84551,0.00387
2457.78534,0.00372
2455.72516,0.00378
2453.66499,0.00384
2451.60482,0.00375
2449.54465,0.00373
2447.48447,0.00398
2445.42430,0.00420
2443.36413,0.00427
2441.30396,0.00438
2439.24379,0.00452
2437.18361,0.00449
2435.12344,0.00436
2433.06327,0.00438
2431.00310,0.00452
2428.94293,0.00462
2426.88275,0.00452
2424.82258,0.00427
2422.76241,0.00402
2420.70224,0.00377
2418.64207,0.00377
2416.58189,0.00411
2414.52172,0.00434
2412.46155,0.00433
2410.40138,0.00426
2408.34120,0.00409
2406.28103,0.00382
2404.22086,0.00363
2402.16069,0.00367
2400.10052,0.00390
2398.04034,0.00402
2395.98017,0.00406
2393.92000,0.00413
2391.85983,0.00419
2389.79966,0.00425
2387.73948,0.00437
2385.67931,0.00460
2383.61914,0.00485
2381.55897,0.00498
2379.49880,0.00491
2377.43862,0.00469
2375.37845,0.00426
2373.31828,0.00439
2371.25811,0.00479
2369.19793,0.00434
2367.13776,0.00362
2365.07759,0.00358
2363.01742,0.00348
2360.95725,0.00519
2358.89707,0.00559
2356.83690,0.00550
2354.77673,0.00531
2352.71656,0.00506
2350.65639,0.00699
2348.59621,0.00803
2346.53604,0.00376
2344.47587,0.00312
2342.41570,0.00406
2340.35552,0.00440
2338.29535,0.00475
2336.23518,0.00496
2334.17501,0.00504
2332.11484,0.00453
2330.05466,0.00430
2327.99449,0.00457
2325.93432,0.00639
2323.87415,0.00700
2321.81398,0.00670
2319.75380,0.00555
2317.69363,0.00543
2315.63346,0.00526
2313.57329,0.00519
2311.51312,0.00554
2309.45294,0.00560
2307.39277,0.00530
2305.33260,0.00501
2303.27243,0.00489
2301.21225,0.00472
2299.15208,0.00485
2297.09191,0.00503
2295.03174,0.00500
2292.97157,0.00496
2290.91139,0.00489
2288.85122,0.00481
2286.79105,0.00482
2284.73088,0.00478
2282.67071,0.00450
2280.61053,0.00414
2278.55036,0.00401
2276.49019,0.00404
2274.43002,0.00416
2272.36984,0.00426
2270.30967,0.00410
2268.24950,0.00358
2266.18933,0.00329
2264.12916,0.00374
2262.06898,0.00441
2260.00881,0.00456
2257.94864,0.00434
2255.88847,0.00399
2253.82830,0.00362
2251.76812,0.00345
2249.70795,0.00342
2247.64778,0.00329
2245.58761,0.00324
2243.52744,0.00356
2241.46726,0.00397
2239.40709,0.00448
2237.34692,0.00512
2235.28675,0.00500
2233.22657,0.00421
2231.16640,0.00404
2229.10623,0.00435
2227.04606,0.00432
2224.98589,0.00432
2222.92571,0.00441
2220.86554,0.00416
2218.80537,0.00391
2216.74520,0.00391
2214.68503,0.00400
2212.62485,0.00405
2210.56468,0.00411
2208.50451,0.00426
2206.44434,0.00444
2204.38417,0.00447
2202.32399,0.00445
2200.26382,0.00458
2198.20365,0.00461
2196.14348,0.00452
2194.08330,0.00432
2192.02313,0.00364
2189.96296,0.00299
2187.90279,0.00295
2185.84262,0.00312
2183.78244,0.00331
2181.72227,0.00372
2179.66210,0.00422
2177.60193,0.00409
2175.54176,0.00308
2173.48158,0.00224
2171.42141,0.00263
2169.36124,0.00346
2167.30107,0.00340
2165.24089,0.00304
2163.18072,0.00304
2161.12055,0.00256
2159.06038,0.00100
2157.00021,0.00000
2154.94003,0.00081
2152.87986,0.00222
2150.81969,0.00290
2148.75952,0.00290
2146.69935,0.00324
2144.63917,0.00355
2142.57900,0.00319
2140.51883,0.00273
2138.45866,0.00254
2136.39849,0.00246
2134.33831,0.00245
2132.27814,0.00291
2130.21797,0.00336
2128.15780,0.00291
2126.09762,0.00228
2124.03745,0.00245
2121.97728,0.00300
2119.91711,0.00328
2117.85694,0.00332
2115.79676,0.00341
2113.73659,0.00375
2111.67642,0.00416
2109.61625,0.00408
2107.55608,0.00348
2105.49590,0.00311
2103.43573,0.00316
2101.37556,0.00338
2099.31539,0.00373
2097.25521,0.00375
2095.19504,0.00326
2093.13487,0.00282
2091.07470,0.00295
2089.01453,0.00351
2086.95435,0.00387
2084.89418,0.00355
2082.83401,0.00313
2080.77384,0.00322
2078.71367,0.00333
2076.65349,0.00326
2074.59332,0.00326
2072.53315,0.00327
2070.47298,0.00311
2068.41281,0.00284
2066.35263,0.00286
2064.29246,0.00339
2062.23229,0.00384
2060.17212,0.00346
2058.11194,0.00262
2056.05177,0.00238
2053.99160,0.00305
2051.93143,0.00365
2049.87126,0.00347
2047.81108,0.00279
2045.75091,0.00219
2043.69074,0.00241
2041.63057,0.00301
2039.57040,0.00296
2037.51022,0.00276
2035.45005,0.00315
2033.38988,0.00320
2031.32971,0.00233
2029.26954,0.00172
2027.20936,0.00213
2025.14919,0.00319
2023.08902,0.00415
2021.02885,0.00401
2018.96867,0.00276
2016.90850,0.00229
2014.84833,0.00277
2012.78816,0.00233
2010.72799,0.00154
2008.66781,0.00166
2006.60764,0.00195
2004.54747,0.00191
2002.48730,0.00205
2000.42713,0.00214
1998.36695,0.00184
1996.30678,0.00181
1994.24661,0.00229
1992.18644,0.00234
1990.12626,0.00175
1988.06609,0.00149
1986.00592,0.00187
1983.94575,0.00225
1981.88558,0.00218
1979.82540,0.00158
1977.76523,0.00060
1975.70506,0.00000
1973.64489,0.00020
1971.58472,0.00083
1969.52454,0.00160
1967.46437,0.00200
1965.40420,0.00176
1963.34403,0.00153
1961.28386,0.00184
1959.22368,0.00207
1957.16351,0.00192
1955.10334,0.00187
1953.04317,0.00198
1950.98299,0.00211
1948.92282,0.00202
1946.86265,0.00159
1944.80248,0.00133
1942.74231,0.00153
1940.68213,0.00180
1938.62196,0.00197
1936.56179,0.00226
1934.50162,0.00246
1932.44145,0.00234
1930.38127,0.00217
1928.32110,0.00203
1926.26093,0.00177
1924.20076,0.00169
1922.14059,0.00188
1920.08041,0.00188
1918.02024,0.00193
1915.96007,0.00232
1913.89990,0.00254
1911.83972,0.00240
1909.77955,0.00220
1907.71938,0.00203
1905.65921,0.00194
1903.59904,0.00191
1901.53886,0.00188
1899.47869,0.00188
1897.41852,0.00194
1895.35835,0.00200
1893.29818,0.00193
1891.23800,0.00179
1889.17783,0.00169
1887.11766,0.00166
1885.05749,0.00169
1882.99731,0.00179
1880.93714,0.00192
1878.87697,0.00188
1876.81680,0.00157
1874.75663,0.00130
1872.69645,0.00141
1870.63628,0.00170
1868.57611,0.00181
1866.51594,0.00177
1864.45577,0.00169
1862.39559,0.00163
1860.33542,0.00167
1858.27525,0.00185
1856.21508,0.00197
1854.15491,0.00184
1852.09473,0.00169
1850.03456,0.00174
1847.97439,0.00188
1845.91422,0.00188
1843.85404,0.00175
1841.79387,0.00154
1839.73370,0.00144
1837.67353,0.00156
1835.61336,0.00177
1833.55318,0.00186
1831.49301,0.00179
1829.43284,0.00161
1827.37267,0.00141
1825.31250,0.00134
1823.25232,0.00140
1821.19215,0.00142
1819.13198,0.00131
1817.07181,0.00128
1815.01163,0.00144
1812.95146,0.00160
1810.89129,0.00155
1808.83112,0.00135
1806.77095,0.00123
1804.71077,0.00131
1802.65060,0.00152
1800.59043,0.00168
1798.53026,0.00168
1796.47009,0.00161
1794.40991,0.00157
1792.34974,0.00158
1790.28957,0.00154
1788.22940,0.00145
1786.16923,0.00141
1784.10905,0.00146
1782.04888,0.00159
1779.98871,0.00171
1777.92854,0.00167
1775.86836,0.00155
1773.80819,0.00159
1771.74802,0.00174
1769.68785,0.00172
1767.62768,0.00157
1765.56750,0.00162
1763.50733,0.00198
1761.44716,0.00245
1759.38699,0.00270
1757.32682,0.00277
1755.26664,0.00288
1753.20647,0.00319
1751.14630,0.00375
1749.08613,0.00427
1747.02596,0.00450
1744.96578,0.00460
1742.90561,0.00468
1740.84544,0.00475
1738.78527,0.00483
1736.72509,0.00499
1734.66492,0.00538
1732.60475,0.00584
1730.54458,0.00585
1728.48441,0.00549
1726.42423,0.00517
1724.36406,0.00509
1722.30389,0.00508
1720.24372,0.00515
1718.18355,0.00544
1716.12337,0.00548
1714.06320,0.00482
1712.00303,0.00403
1709.94286,0.00357
1707.88268,0.00342
1705.82251,0.00338
1703.76234,0.00322
1701.70217,0.00301
1699.64200,0.00309
1697.58182,0.00329
1695.52165,0.00327
1693.46148,0.00317
1691.40131,0.00317
1689.34114,0.00333
1687.28096,0.00360
1685.22079,0.00396
1683.16062,0.00429
1681.10045,0.00428
1679.04028,0.00411
1676.98010,0.00418
1674.91993,0.00471
1672.85976,0.00539
1670.79959,0.00586
1668.73941,0.00601
1666.67924,0.00604
1664.61907,0.00627
1662.55890,0.00671
1660.49873,0.00705
1658.43855,0.00727
1656.37838,0.00763
1654.31821,0.00824
1652.25804,0.00877
1650.19787,0.00895
1648.13769,0.00909
1646.07752,0.00916
1644.01735,0.00896
1641.95718,0.00875
1639.89701,0.00873
1637.83683,0.00885
1635.77666,0.00902
1633.71649,0.00918
1631.65632,0.00934
1629.59614,0.00954
1627.53597,0.00976
1625.47580,0.00998
1623.41563,0.01013
1621.35546,0.01013
1619.29528,0.01008
1617.23511,0.01012
1615.17494,0.01013
1613.11477,0.01006
1611.05460,0.01001
1608.99442,0.00997
1606.93425,0.00981
1604.87408,0.00949
1602.81391,0.00908
1600.75373,0.00862
1598.69356,0.00817
1596.63339,0.00779
1594.57322,0.00742
1592.51305,0.00697
1590.45287,0.00650
1588.39270,0.00606
1586.33253,0.00562
1584.27236,0.00524
1582.21219,0.00492
1580.15201,0.00468
1578.09184,0.00457
1576.03167,0.00450
1573.97150,0.00417
1571.91133,0.00376
1569.85115,0.00349
1567.79098,0.00323
1565.73081,0.00298
1563.67064,0.00286
1561.61046,0.00299
1559.55029,0.00337
1557.49012,0.00346
1555.42995,0.00308
1553.36978,0.00274
1551.30960,0.00259
1549.24943,0.00247
1547.18926,0.00238
1545.12909,0.00252
1543.06892,0.00292
1541.00874,0.00325
1538.94857,0.00304
1536.88840,0.00250
1534.82823,0.00204
1532.76805,0.00165
1530.70788,0.00139
1528.64771,0.00153
1526.58754,0.00194
1524.52737,0.00217
1522.46719,0.00210
1520.40702,0.00190
1518.34685,0.00174
1516.28668,0.00165
1514.22651,0.00153
1512.16633,0.00151
1510.10616,0.00180
1508.04599,0.00216
1505.98582,0.00202
1503.92565,0.00155
1501.86547,0.00130
1499.80530,0.00135
1497.74513,0.00149
1495.68496,0.00152
1493.62478,0.00150
1491.56461,0.00171
1489.50444,0.00204
1487.44427,0.00204
1485.38410,0.00174
1483.32392,0.00157
1481.26375,0.00174
1479.20358,0.00213
1477.14341,0.00269
1475.08324,0.00342
1473.02306,0.00400
1470.96289,0.00410
1468.90272,0.00405
1466.84255,0.00429
1464.78238,0.00470
1462.72220,0.00492
1460.66203,0.00513
1458.60186,0.00571
1456.54169,0.00629
1454.48151,0.00624
1452.42134,0.00591
1450.36117,0.00579
1448.30100,0.00590
1446.24083,0.00601
1444.18065,0.00605
1442.12048,0.00615
1440.06031,0.00634
1438.00014,0.00665
1435.93997,0.00699
1433.87979,0.00719
1431.81962,0.00732
1429.75945,0.00753
1427.69928,0.00783
1425.63910,0.00823
1423.57893,0.00856
1421.51876,0.00874
1419.45859,0.00895
1417.39842,0.00912
1415.33824,0.00904
1413.27807,0.00886
1411.21790,0.00873
1409.15773,0.00863
1407.09756,0.00851
1405.03738,0.00832
1402.97721,0.00806
1400.91704,0.00792
1398.85687,0.00792
1396.79670,0.00791
1394.73652,0.00775
1392.67635,0.00749
1390.61618,0.00735
1388.55601,0.00746
1386.49583,0.00757
1384.43566,0.00749
1382.37549,0.00751
1380.31532,0.00782
1378.25515,0.00820
1376.19497,0.00853
1374.13480,0.00874
1372.07463,0.00872
1370.01446,0.00855
1367.95429,0.00841
1365.89411,0.00836
1363.83394,0.00838
1361.77377,0.00827
1359.71360,0.00792
1357.65343,0.00767
1355.59325,0.00767
1353.53308,0.00765
1351.47291,0.00751
1349.41274,0.00736
1347.35256,0.00723
1345.29239,0.00713
1343.23222,0.00718
1341.17205,0.00738
1339.11188,0.00750
1337.05170,0.00732
1334.99153,0.00708
1332.93136,0.00698
1330.87119,0.00692
1328.81102,0.00680
1326.75084,0.00673
1324.69067,0.00678
1322.63050,0.00689
1320.57033,0.00705
1318.51015,0.00718
1316.44998,0.00724
1314.38981,0.00723
1312.32964,0.00711
1310.26947,0.00693
1308.20929,0.00684
1306.14912,0.00676
1304.08895,0.00657
1302.02878,0.00634
1299.96861,0.00618
1297.90843,0.00607
1295.84826,0.00600
1293.78809,0.00598
1291.72792,0.00594
1289.66775,0.00584
1287.60757,0.00570
1285.54740,0.00554
1283.48723,0.00545
1281.42706,0.00552
1279.36688,0.00560
1277.30671,0.00561
1275.24654,0.00571
1273.18637,0.00589
1271.12620,0.00608
1269.06602,0.00631
1267.00585,0.00654
1264.94568,0.00676
1262.88551,0.00701
1260.82534,0.00729
1258.76516,0.00753
1256.70499,0.00774
1254.64482,0.00794
1252.58465,0.00811
1250.52447,0.00822
1248.46430,0.00832
1246.40413,0.00836
1244.34396,0.00825
1242.28379,0.00800
1240.22361,0.00769
1238.16344,0.00742
1236.10327,0.00725
1234.04310,0.00709
1231.98293,0.00679
1229.92275,0.00645
1227.86258,0.00624
1225.80241,0.00608
1223.74224,0.00589
1221.68207,0.00571
1219.62189,0.00549
1217.56172,0.00515
1215.50155,0.00475
1213.44138,0.00439
1211.38120,0.00406
1209.32103,0.00365
1207.26086,0.00315
1205.20069,0.00266
1203.14052,0.00220
1201.08034,0.00174
1199.02017,0.00127
1196.96000,0.00085
1194.89983,0.00053
1192.83966,0.00028
1190.77948,0.00007
1188.71931,0.00000
1186.65914,0.00000
1184.59897,0.00002
1182.53880,0.00015
1180.47862,0.00050
1178.41845,0.00099
1176.35828,0.00139
1174.29811,0.00179
1172.23793,0.00242
1170.17776,0.00321
1168.11759,0.00401
1166.05742,0.00465
1163.99725,0.00517
1161.93707,0.00571
1159.87690,0.00613
1157.81673,0.00640
1155.75656,0.00678
1153.69639,0.00733
1151.63621,0.00777
1149.57604,0.00803
1147.51587,0.00836
1145.45570,0.00881
1143.39552,0.00904
1141.33535,0.00906
1139.27518,0.00916
1137.21501,0.00931
1135.15484,0.00956
1133.09466,0.00995
1131.03449,0.01032
1128.97432,0.01064
1126.91415,0.01098
1124.85398,0.01145
1122.79380,0.01210
1120.73363,0.01272
1118.67346,0.01320
1116.61329,0.01363
1114.55312,0.01419
1112.49294,0.01477
1110.43277,0.01519
1108.37260,0.01559
1106.31243,0.01609
1104.25225,0.01659
1102.19208,0.01712
1100.13191,0.01783
1098.07174,0.01864
1096.01157,0.01930
1093.95139,0.01985
1091.89122,0.02053
1089.83105,0.02131
1087.77088,0.02205
1085.71071,0.02272
1083.65053,0.02335
1081.59036,0.02391
1079.53019,0.02438
1077.47002,0.02487
1075.40985,0.02550
1073.34967,0.02618
1071.28950,0.02675
1069.22933,0.02724
1067.16916,0.02770
1065.10898,0.02808
1063.04881,0.02848
1060.98864,0.02897
1058.92847,0.02940
1056.86830,0.02968
1054.80812,0.02997
1052.74795,0.03032
1050.68778,0.03069
1048.62761,0.03126
1046.56744,0.03200
1044.50726,0.03253
1042.44709,0.03277
1040.38692,0.03302
1038.32675,0.03330
1036.26657,0.03353
1034.20640,0.03374
1032.14623,0.03387
1030.08606,0.03388
1028.02589,0.03392
1025.96571,0.03398
1023.90554,0.03395
1021.84537,0.03391
1019.78520,0.03388
1017.72503,0.03386
1015.66485,0.03378
1013.60468,0.03364
1011.54451,0.03356
1009.48434,0.03348
1007.42417,0.03330
1005.36399,0.03303
1003.30382,0.03268
1001.24365,0.03225
999.18348,0.03172
997.12330,0.03117
995.06313,0.03069
993.00296,0.03028
990.94279,0.02997
988.88262,0.02963
986.82244,0.02918
984.76227,0.02872
982.70210,0.02841
980.64193,0.02818
978.58176,0.02793
976.52158,0.02772
974.46141,0.02752
972.40124,0.02715
970.34107,0.02661
968.28089,0.02596
966.22072,0.02519
964.16055,0.02450
962.10038,0.02403
960.04021,0.02361
957.98003,0.02321
955.91986,0.02284
953.85969,0.02243
951.79952,0.02203
949.73935,0.02151
947.67917,0.02074
945.61900,0.01995
943.55883,0.01921
941.49866,0.01838
939.43849,0.01734
937.37831,0.01601
935.31814,0.01467
933.25797,0.01355
931.19780,0.01247
929.13762,0.01135
927.07745,0.01030
925.01728,0.00950
922.95711,0.00898
920.89694,0.00846
918.83676,0.00777
916.77659,0.00714
914.71642,0.00672
912.65625,0.00645
910.59608,0.00604
908.53590,0.00540
906.47573,0.00492
904.41556,0.00484
902.35539,0.00509
900.29522,0.00532
898.23504,0.00529
896.17487,0.00511
894.11470,0.00502
892.05453,0.00500
889.99435,0.00491
887.93418,0.00471
885.87401,0.00435
883.81384,0.00389
881.75367,0.00356
879.69349,0.00346
877.63332,0.00339
875.57315,0.00331
873.51298,0.00322
871.45281,0.00298
869.39263,0.00270
867.33246,0.00253
865.27229,0.00228
863.21212,0.00190
861.15194,0.00166
859.09177,0.00166
857.03160,0.00174
854.97143,0.00167
852.91126,0.00148
850.85108,0.00132
848.79091,0.00124
846.73074,0.00113
844.67057,0.00087
842.61040,0.00048
840.55022,0.00018
838.49005,0.00011
836.42988,0.00022
834.36971,0.00039
832.30954,0.00038
830.24936,0.00009
828.18919,-0.00010
826.12902,-0.00016
824.06885,-0.00030
822.00867,-0.00034
819.94850,-0.00016
817.88833,0.00002
815.82816,0.00010
813.76799,0.00014
811.70781,0.00028
809.64764,0.00060
807.58747,0.00086
805.52730,0.00068
803.46713,0.00045
801.40695,0.00066
799.34678,0.00080
797.28661,0.00040
795.22644,0.00000
793.16627,-0.00001
791.10609,0.00019
789.04592,0.00045
786.98575,0.00047
784.92558,0.00007
782.86540,-0.00014
780.80523,0.00018
778.74506,0.00051
776.68489,0.00052
774.62472,0.00035
772.56454,-0.00000
770.50437,-0.00032
768.44420,-0.00015
766.38403,0.00039
764.32386,0.00065
762.26368,0.00049
760.20351,0.00029
758.14334,0.00009
756.08317,-0.00014
754.02299,-0.00022
751.96282,0.00000
749.90265,0.00027
747.84248,0.00021
745.78231,-0.00020
743.72213,-0.00030
741.66196,0.00022
739.60179,0.00056
737.54162,0.00018
735.48145,-0.00025
733.42127,-0.00008
731.36110,0.00044
729.30093,0.00093
727.24076,0.00101
725.18059,0.00075
723.12041,0.00091
721.06024,0.00061
719.00007,0.00086
716.93990,0.00098
714.87972,0.00103
712.81955,0.00147
710.75938,0.00211
708.69921,0.00246
706.63904,0.00245
704.57886,0.00250
702.51869,0.00275
700.45852,0.00311
698.39835,0.00354
696.33818,0.00396
694.27800,0.00432
692.21783,0.00450
690.15766,0.00428
688.09749,0.00383
686.03731,0.00355
683.97714,0.00349
681.91697,0.00344
679.85680,0.00335
677.79663,0.00351
675.73645,0.00404
673.67628,0.00553
671.61611,0.00811
669.55594,0.00506
667.49577,0.00000
665.43559,0.00824
663.37542,0.00714
661.31525,0.00496
659.25508,0.00469
657.19491,0.00474
655.13473,0.00459
653.07456,0.00456
651.01439,0.00460
648.95422,0.00462
646.89404,0.00523
644.83387,0.00542
642.77370,0.00489
640.71353,0.00398
638.65336,0.00310
636.59318,0.00214
634.53301,0.00143
632.47284,0.00153
630.41267,0.00199
628.35250,0.00173
626.29232,0.00109
624.23215,0.00198
622.17198,0.00351
620.11181,0.00395
618.05164,0.00338
615.99146,0.00207
613.93129,0.00157
611.87112,0.00192
609.81095,0.00109
607.75077,-0.00006
605.69060,0.00026
603.63043,0.00091
601.57026,0.00029
599.51009,0.00000
