3996.73391,0.00067
3994.67373,0.00050
3992.61356,0.00033
3990.55339,0.00009
3988.49322,0.00000
3986.43305,0.00011
3984.37287,0.00017
3982.31270,0.00020
3980.25253,0.00039
3978.19236,0.00067
3976.13219,0.00085
3974.07201,0.00091
3972.01184,0.00096
3969.95167,0.00091
3967.89150,0.00067
3965.83133,0.00062
3963.77115,0.00094
3961.71098,0.00129
3959.65081,0.00139
3957.59064,0.00136
3955.53046,0.00159
3953.47029,0.00215
3951.41012,0.00244
3949.34995,0.00198
3947.28978,0.00139
3945.22960,0.00134
3943.16943,0.00172
3941.10926,0.00211
3939.04909,0.00194
3936.98892,0.00134
3934.92874,0.00121
3932.86857,0.00180
3930.80840,0.00232
3928.74823,0.00225
3926.68805,0.00180
3924.62788,0.00134
3922.56771,0.00131
3920.50754,0.00172
3918.44737,0.00218
3916.38719,0.00250
3914.32702,0.00246
3912.26685,0.00196
3910.20668,0.00148
3908.14651,0.00134
3906.08633,0.00119
3904.02616,0.00077
3901.96599,0.00055
3899.90582,0.00078
3897.84565,0.00096
3895.78547,0.00087
3893.72530,0.00095
3891.66513,0.00136
3889.60496,0.00159
3887.54478,0.00139
3885.48461,0.00110
3883.42444,0.00114
3881.36427,0.00158
3879.30410,0.00213
3877.24392,0.00245
3875.18375,0.00228
3873.12358,0.00161
3871.06341,0.00106
3869.00324,0.00115
3866.94306,0.00156
3864.88289,0.00177
3862.82272,0.00172
3860.76255,0.00161
3858.70237,0.00147
3856.64220,0.00147
3854.58203,0.00183
3852.52186,0.00212
3850.46169,0.00206
3848.40151,0.00211
3846.34134,0.00216
3844.28117,0.00176
3842.22100,0.00081
3840.16083,0.00000
3838.10065,0.00041
3836.04048,0.00165
3833.98031,0.00233
3831.92014,0.00245
3829.85997,0.00232
3827.79979,0.00196
3825.73962,0.00176
3823.67945,0.00206
3821.61928,0.00269
3819.55910,0.00307
3817.49893,0.00290
3815.43876,0.00245
3813.37859,0.00218
3811.31842,0.00227
3809.25824,0.00263
3807.19807,0.00323
3805.13790,0.00373
3803.07773,0.00369
3801.01756,0.00347
3798.95738,0.00347
3796.89721,0.00327
3794.83704,0.00269
3792.77687,0.00215
3790.71670,0.00165
3788.65652,0.00100
3786.59635,0.00062
3784.53618,0.00097
3782.47601,0.00161
3780.41583,0.00201
3778.35566,0.00245
3776.29549,0.00297
3774.23532,0.00309
3772.17515,0.00284
3770.11497,0.00241
3768.05480,0.00182
3765.99463,0.00149
3763.93446,0.00175
3761.87429,0.00221
3759.81411,0.00243
3757.75394,0.00222
3755.69377,0.00185
3753.63360,0.00185
3751.57342,0.00238
3749.51325,0.00237
3747.45308,0.00133
3745.39291,0.00066
3743.33274,0.00148
3741.27256,0.00277
3739.21239,0.00314
3737.15222,0.00227
3735.09205,0.00078
3733.03188,0.00000
3730.97170,0.00044
3728.91153,0.00174
3726.85136,0.00308
3724.79119,0.00351
3722.73102,0.00317
3720.67084,0.00268
3718.61067,0.00227
3716.55050,0.00193
3714.49033,0.00159
3712.43015,0.00130
3710.36998,0.00122
3708.30981,0.00152
3706.24964,0.00182
3704.18947,0.00181
3702.12929,0.00181
3700.06912,0.00207
3698.00895,0.00235
3695.94878,0.00249
3693.88861,0.00242
3691.82843,0.00233
3689.76826,0.00244
3687.70809,0.00248
3685.64792,0.00225
3683.58775,0.00231
3681.52757,0.00290
3679.46740,0.00336
3677.40723,0.00313
3675.34706,0.00233
3673.28688,0.00162
3671.22671,0.00165
3669.16654,0.00225
3667.10637,0.00268
3665.04620,0.00288
3662.98602,0.00305
3660.92585,0.00299
3658.86568,0.00284
3656.80551,0.00318
3654.74534,0.00381
3652.68516,0.00369
3650.62499,0.00261
3648.56482,0.00190
3646.50465,0.00253
3644.44447,0.00347
3642.38430,0.00437
3640.32413,0.00505
3638.26396,0.00520
3636.20379,0.00506
3634.14361,0.00502
3632.08344,0.00534
3630.02327,0.00604
3627.96310,0.00646
3625.90293,0.00639
3623.84275,0.00650
3621.78258,0.00685
3619.72241,0.00714
3617.66224,0.00729
3615.60207,0.00738
3613.54189,0.00749
3611.48172,0.00738
3609.42155,0.00707
3607.36138,0.00716
3605.30120,0.00768
3603.24103,0.00788
3601.18086,0.00753
3599.12069,0.00736
3597.06052,0.00800
3595.00034,0.00912
3592.94017,0.01000
3590.88000,0.01022
3588.81983,0.01000
3586.75966,0.01012
3584.69948,0.01062
3582.63931,0.01102
3580.57914,0.01140
3578.51897,0.01172
3576.45879,0.01195
3574.39862,0.01235
3572.33845,0.01284
3570.27828,0.01319
3568.21811,0.01322
3566.15793,0.01303
3564.09776,0.01327
3562.03759,0.01410
3559.97742,0.01499
3557.91725,0.01546
3555.85707,0.01557
3553.79690,0.01572
3551.73673,0.01621
3549.67656,0.01679
3547.61639,0.01710
3545.55621,0.01734
3543.49604,0.01794
3541.43587,0.01868
3539.37570,0.01910
3537.31552,0.01944
3535.25535,0.02009
3533.19518,0.02067
3531.13501,0.02079
3529.07484,0.02081
3527.01466,0.02123
3524.95449,0.02195
3522.89432,0.02256
3520.83415,0.02302
3518.77398,0.02351
3516.71380,0.02407
3514.65363,0.02480
3512.59346,0.02562
3510.53329,0.02602
3508.47312,0.02578
3506.41294,0.02554
3504.35277,0.02580
3502.29260,0.02632
3500.23243,0.02679
3498.17225,0.02743
3496.11208,0.02834
3494.05191,0.02915
3491.99174,0.02971
3489.93157,0.03023
3487.87139,0.03054
3485.81122,0.03065
3483.75105,0.03100
3481.69088,0.03144
3479.63071,0.03188
3477.57053,0.03273
3475.51036,0.03356
3473.45019,0.03363
3471.39002,0.03351
3469.32984,0.03378
3467.26967,0.03421
3465.20950,0.03479
3463.14933,0.03555
3461.08916,0.03603
3459.02898,0.03630
3456.96881,0.03703
3454.90864,0.03807
3452.84847,0.03839
3450.78830,0.03803
3448.72812,0.03804
3446.66795,0.03862
3444.60778,0.03927
3442.54761,0.03985
3440.48744,0.04032
3438.42726,0.04048
3436.36709,0.04057
3434.30692,0.04087
3432.24675,0.04116
3430.18657,0.04148
3428.12640,0.04205
3426.06623,0.04262
3424.00606,0.04296
3421.94589,0.04322
3419.88571,0.04375
3417.82554,0.04448
3415.76537,0.04492
3413.70520,0.04509
3411.64503,0.04542
3409.58485,0.04595
3407.52468,0.04655
3405.46451,0.04704
3403.40434,0.04730
3401.34416,0.04744
3399.28399,0.04753
3397.22382,0.04774
3395.16365,0.04802
3393.10348,0.04825
3391.04330,0.04831
3388.98313,0.04822
3386.92296,0.04821
3384.86279,0.04848
3382.80262,0.04873
3380.74244,0.04874
3378.68227,0.04900
3376.62210,0.04975
3374.56193,0.05030
3372.50176,0.05058
3370.44158,0.05107
3368.38141,0.05147
3366.32124,0.05140
3364.26107,0.05097
3362.20089,0.05062
3360.14072,0.05066
3358.08055,0.05089
3356.02038,0.05120
3353.96021,0.05174
3351.90003,0.05247
3349.83986,0.05283
3347.77969,0.05244
3345.71952,0.05192
3343.65935,0.05210
3341.59917,0.05283
3339.53900,0.05330
3337.47883,0.05326
3335.41866,0.05320
3333.35849,0.05332
3331.29831,0.05357
3329.23814,0.05376
3327.17797,0.05361
3325.11780,0.05324
3323.05762,0.05300
3320.99745,0.05324
3318.93728,0.05363
3316.87711,0.05374
3314.81694,0.05380
3312.75676,0.05396
3310.69659,0.05389
3308.63642,0.05364
3306.57625,0.05364
3304.51608,0.05387
3302.45590,0.05420
3300.39573,0.05458
3298.33556,0.05487
3296.27539,0.05519
3294.21521,0.05528
3292.15504,0.05484
3290.09487,0.05438
3288.03470,0.05407
3285.97453,0.05379
3283.91435,0.05390
3281.85418,0.05439
3279.79401,0.05471
3277.73384,0.05459
3275.67367,0.05417
3273.61349,0.05375
3271.55332,0.05360
3269.49315,0.05360
3267.43298,0.05347
3265.37281,0.05338
3263.31263,0.05351
3261.25246,0.05360
3259.19229,0.05343
3257.13212,0.05313
3255.07194,0.05285
3253.01177,0.05277
3250.95160,0.05286
3248.89143,0.05294
3246.83126,0.05314
3244.77108,0.05326
3242.71091,0.05301
3240.65074,0.05283
3238.59057,0.05309
3236.53040,0.05323
3234.47022,0.05270
3232.41005,0.05226
3230.34988,0.05245
3228.28971,0.05259
3226.22954,0.05240
3224.16936,0.05205
3222.10919,0.05172
3220.04902,0.05156
3217.98885,0.05139
3215.92867,0.05102
3213.86850,0.05074
3211.80833,0.05067
3209.74816,0.05068
3207.68799,0.05054
3205.62781,0.05007
3203.56764,0.04948
3201.50747,0.04911
3199.44730,0.04907
3197.38713,0.04921
3195.32695,0.04922
3193.26678,0.04912
3191.20661,0.04901
3189.14644,0.04859
3187.08626,0.04778
3185.02609,0.04713
3182.96592,0.04684
3180.90575,0.04670
3178.84558,0.04663
3176.78540,0.04663
3174.72523,0.04661
3172.66506,0.04623
3170.60489,0.04558
3168.54472,0.04509
3166.48454,0.04471
3164.42437,0.04455
3162.36420,0.04468
3160.30403,0.04439
3158.24386,0.04337
3156.18368,0.04251
3154.12351,0.04223
3152.06334,0.04214
3150.00317,0.04207
3147.94299,0.04191
3145.88282,0.04155
3143.82265,0.04131
3141.76248,0.04126
3139.70231,0.04106
3137.64213,0.04071
3135.58196,0.04048
3133.52179,0.04038
3131.46162,0.04018
3129.40145,0.03986
3127.34127,0.03938
3125.28110,0.03880
3123.22093,0.03844
3121.16076,0.03839
3119.10058,0.03824
3117.04041,0.03765
3114.98024,0.03701
3112.92007,0.03668
3110.85990,0.03659
3108.79972,0.03653
3106.73955,0.03625
3104.67938,0.03586
3102.61921,0.03572
3100.55904,0.03563
3098.49886,0.03528
3096.43869,0.03478
3094.37852,0.03419
3092.31835,0.03380
3090.25818,0.03370
3088.19800,0.03353
3086.13783,0.03323
3084.07766,0.03293
3082.01749,0.03263
3079.95731,0.03236
3077.89714,0.03211
3075.83697,0.03175
3073.77680,0.03144
3071.71663,0.03125
3069.65645,0.03100
3067.59628,0.03057
3065.53611,0.03010
3063.47594,0.02990
3061.41577,0.02984
3059.35559,0.02963
3057.29542,0.02931
3055.23525,0.02892
3053.17508,0.02868
3051.11491,0.02882
3049.05473,0.02907
3046.99456,0.02887
3044.93439,0.02817
3042.87422,0.02759
3040.81404,0.02734
3038.75387,0.02721
3036.69370,0.02702
3034.63353,0.02671
3032.57336,0.02642
3030.51318,0.02626
3028.45301,0.02622
3026.39284,0.02623
3024.33267,0.02599
3022.27250,0.02556
3020.21232,0.02539
3018.15215,0.02540
3016.09198,0.02534
3014.03181,0.02540
3011.97163,0.02552
3009.91146,0.02527
3007.85129,0.02466
3005.79112,0.02409
3003.73095,0.02367
3001.67077,0.02340
2999.61060,0.02334
2997.55043,0.02339
2995.49026,0.02345
2993.43009,0.02361
2991.36991,0.02353
2989.30974,0.02322
2987.24957,0.02313
2985.18940,0.02312
2983.12923,0.02318
2981.06905,0.02373
2979.00888,0.02461
2976.94871,0.02535
2974.88854,0.02590
2972.82836,0.02651
2970.76819,0.02744
2968.70802,0.02874
2966.64785,0.02990
2964.58768,0.03081
2962.52750,0.03202
2960.46733,0.03361
2958.40716,0.03532
2956.34699,0.03696
2954.28682,0.03861
2952.22664,0.04036
2950.16647,0.04212
2948.10630,0.04404
2946.04613,0.04609
2943.98596,0.04822
2941.92578,0.05074
2939.86561,0.05360
2937.80544,0.05631
2935.74527,0.05869
2933.68509,0.06089
2931.62492,0.06309
2929.56475,0.06536
2927.50458,0.06744
2925.44441,0.06897
2923.38423,0.06983
2921.32406,0.07000
2919.26389,0.06969
2917.20372,0.06888
2915.14355,0.06710
2913.08337,0.06449
2911.02320,0.06162
2908.96303,0.05897
2906.90286,0.05688
2904.84268,0.05530
2902.78251,0.05397
2900.72234,0.05254
2898.66217,0.05088
2896.60200,0.04942
2894.54182,0.04838
2892.48165,0.04728
2890.42148,0.04587
2888.36131,0.04454
2886.30114,0.04370
2884.24096,0.04300
2882.18079,0.04204
2880.12062,0.04135
2878.06045,0.04120
2876.00028,0.04134
2873.94010,0.04183
2871.87993,0.04245
2869.81976,0.04278
2867.75959,0.04310
2865.69941,0.04390
2863.63924,0.04512
2861.57907,0.04663
2859.51890,0.04846
2857.45873,0.05044
2855.39855,0.05225
2853.33838,0.05369
2851.27821,0.05427
2849.21804,0.05319
2847.15787,0.05030
2845.09769,0.04662
2843.03752,0.04331
2840.97735,0.04058
2838.91718,0.03816
2836.85700,0.03622
2834.79683,0.03491
2832.73666,0.03376
2830.67649,0.03237
2828.61632,0.03106
2826.55614,0.03019
2824.49597,0.02962
2822.43580,0.02920
2820.37563,0.02879
2818.31546,0.02817
2816.25528,0.02744
2814.19511,0.02687
2812.13494,0.02658
2810.07477,0.02639
2808.01460,0.02601
2805.95442,0.02551
2803.89425,0.02521
2801.83408,0.02509
2799.77391,0.02481
2797.71373,0.02427
2795.65356,0.02380
2793.59339,0.02375
2791.53322,0.02384
2789.47305,0.02369
2787.41287,0.02332
2785.35270,0.02300
2783.29253,0.02301
2781.23236,0.02294
2779.17219,0.02243
2777.11201,0.02198
2775.05184,0.02188
2772.99167,0.02189
2770.93150,0.02179
2768.87133,0.02162
2766.81115,0.02143
2764.75098,0.02138
2762.69081,0.02158
2760.63064,0.02171
2758.57046,0.02161
2756.51029,0.02142
2754.45012,0.02119
2752.38995,0.02096
2750.32978,0.02068
2748.26960,0.02049
2746.20943,0.02053
2744.14926,0.02052
2742.08909,0.02047
2740.02892,0.02046
2737.96874,0.02023
2735.90857,0.01982
2733.84840,0.01966
2731.78823,0.01979
2729.72805,0.01985
2727.66788,0.01962
2725.60771,0.01929
2723.54754,0.01942
2721.48737,0.01988
2719.42719,0.02003
2717.36702,0.01989
2715.30685,0.01957
2713.24668,0.01912
2711.18651,0.01896
2709.12633,0.01911
2707.06616,0.01914
2705.00599,0.01896
2702.94582,0.01897
2700.88565,0.01918
2698.82547,0.01922
2696.76530,0.01910
2694.70513,0.01888
2692.64496,0.01858
2690.58478,0.01844
2688.52461,0.01844
2686.46444,0.01837
2684.40427,0.01834
2682.34410,0.01837
2680.28392,0.01833
2678.22375,0.01840
2676.16358,0.01852
2674.10341,0.01863
2672.04324,0.01867
2669.98306,0.01850
2667.92289,0.01841
2665.86272,0.01843
2663.80255,0.01822
2661.74238,0.01785
2659.68220,0.01752
2657.62203,0.01743
2655.56186,0.01752
2653.50169,0.01745
2651.44151,0.01728
2649.38134,0.01714
2647.32117,0.01703
2645.26100,0.01693
2643.20083,0.01683
2641.14065,0.01680
2639.08048,0.01669
2637.02031,0.01637
2634.96014,0.01606
2632.89997,0.01604
2630.83979,0.01612
2628.77962,0.01609
2626.71945,0.01615
2624.65928,0.01622
2622.59910,0.01614
2620.53893,0.01580
2618.47876,0.01535
2616.41859,0.01538
2614.35842,0.01582
2612.29824,0.01597
2610.23807,0.01557
2608.17790,0.01511
2606.11773,0.01497
2604.05756,0.01487
2601.99738,0.01464
2599.93721,0.01427
2597.87704,0.01387
2595.81687,0.01372
2593.75670,0.01394
2591.69652,0.01424
2589.63635,0.01422
2587.57618,0.01412
2585.51601,0.01411
2583.45583,0.01384
2581.39566,0.01343
2579.33549,0.01329
2577.27532,0.01329
2575.21515,0.01331
2573.15497,0.01340
2571.09480,0.01328
2569.03463,0.01290
2566.97446,0.01295
2564.91429,0.01339
2562.85411,0.01362
2560.79394,0.01372
2558.73377,0.01401
2556.67360,0.01395
2554.61342,0.01300
2552.55325,0.01216
2550.49308,0.01224
2548.43291,0.01257
2546.37274,0.01259
2544.31256,0.01252
2542.25239,0.01259
2540.19222,0.01266
2538.13205,0.01245
2536.07188,0.01197
2534.01170,0.01166
2531.95153,0.01176
2529.89136,0.01207
2527.83119,0.01250
2525.77102,0.01293
2523.71084,0.01303
2521.65067,0.01256
2519.59050,0.01192
2517.53033,0.01159
2515.47015,0.01136
2513.40998,0.01130
2511.34981,0.01162
2509.28964,0.01195
2507.22947,0.01192
2505.16929,0.01157
2503.10912,0.01150
2501.04895,0.01156
2498.98878,0.01125
2496.92861,0.01109
2494.86843,0.01126
2492.80826,0.01126
2490.74809,0.01108
2488.68792,0.01086
2486.62775,0.01033
2484.56757,0.00992
2482.50740,0.01019
2480.44723,0.01069
2478.38706,0.01086
2476.32688,0.01084
2474.26671,0.01064
2472.20654,0.01033
2470.14637,0.01041
2468.08620,0.01087
2466.02602,0.01093
2463.96585,0.01065
2461.90568,0.01065
2459.84551,0.01048
2457.78534,0.01008
2455.72516,0.01008
2453.66499,0.01026
2451.60482,0.01018
2449.54465,0.00977
2447.48447,0.00935
2445.42430,0.00936
2443.36413,0.00979
2441.30396,0.01010
2439.24379,0.00995
2437.18361,0.00981
2435.12344,0.01003
2433.06327,0.00994
2431.00310,0.00936
2428.94293,0.00889
2426.88275,0.00887
2424.82258,0.00937
2422.76241,0.00978
2420.70224,0.01001
2418.64207,0.01041
2416.58189,0.01033
2414.52172,0.00971
2412.46155,0.00950
2410.40138,0.00960
2408.34120,0.00937
2406.28103,0.00923
2404.22086,0.00958
2402.16069,0.00992
2400.10052,0.00979
2398.04034,0.00944
2395.98017,0.00928
2393.92000,0.00926
2391.85983,0.00928
2389.79966,0.00912
2387.73948,0.00877
2385.67931,0.00849
2383.61914,0.00825
2381.55897,0.00813
2379.49880,0.00881
2377.43862,0.01030
2375.37845,0.01120
2373.31828,0.01031
2371.25811,0.00849
2369.19793,0.00776
2367.13776,0.00861
2365.07759,0.00894
2363.01742,0.00737
2360.95725,0.00596
2358.89707,0.00624
2356.83690,0.00711
2354.77673,0.00808
2352.71656,0.00905
2350.65639,0.00924
2348.59621,0.00851
2346.53604,0.00795
2344.47587,0.00833
2342.41570,0.00860
2340.35552,0.00797
2338.29535,0.00751
2336.23518,0.00771
2334.17501,0.00832
2332.11484,0.00880
2330.05466,0.00848
2327.99449,0.00755
2325.93432,0.00736
2323.87415,0.00869
2321.81398,0.01055
2319.75380,0.01159
2317.69363,0.01155
2315.63346,0.01111
2313.57329,0.01029
2311.51312,0.00866
2309.45294,0.00715
2307.39277,0.00731
2305.33260,0.00877
2303.27243,0.00943
2301.21225,0.00871
2299.15208,0.00793
2297.09191,0.00787
2295.03174,0.00809
2292.97157,0.00803
2290.91139,0.00780
2288.85122,0.00781
2286.79105,0.00823
2284.73088,0.00889
2282.67071,0.00909
2280.61053,0.00835
2278.55036,0.00752
2276.49019,0.00772
2274.43002,0.00811
2272.36984,0.00731
2270.30967,0.00580
2268.24950,0.00501
2266.18933,0.00534
2264.12916,0.00610
2262.06898,0.00646
2260.00881,0.00653
2257.94864,0.00700
2255.88847,0.00793
2253.82830,0.00857
2251.76812,0.00809
2249.70795,0.00715
2247.64778,0.00747
2245.58761,0.00800
2243.52744,0.00726
2241.46726,0.00667
2239.40709,0.00691
2237.34692,0.00689
2235.28675,0.00669
2233.22657,0.00640
2231.16640,0.00589
2229.10623,0.00609
2227.04606,0.00628
2224.98589,0.00608
2222.92571,0.00649
2220.86554,0.00688
2218.80537,0.00680
2216.74520,0.00648
2214.68503,0.00578
2212.62485,0.00532
2210.56468,0.00557
2208.50451,0.00550
2206.44434,0.00473
2204.38417,0.00486
2202.32399,0.00591
2200.26382,0.00591
2198.20365,0.00554
2196.14348,0.00604
2194.08330,0.00690
2192.02313,0.00761
2189.96296,0.00743
2187.90279,0.00671
2185.84262,0.00631
2183.78244,0.00590
2181.72227,0.00570
2179.66210,0.00561
2177.60193,0.00448
2175.54176,0.00383
2173.48158,0.00549
2171.42141,0.00740
2169.36124,0.00729
2167.30107,0.00655
2165.24089,0.00677
2163.18072,0.00628
2161.12055,0.00342
2159.06038,0.00036
2157.00021,0.00138
2154.94003,0.00530
2152.87986,0.00658
2150.81969,0.00498
2148.75952,0.00435
2146.69935,0.00430
2144.63917,0.00380
2142.57900,0.00467
2140.51883,0.00621
2138.45866,0.00652
2136.39849,0.00589
2134.33831,0.00515
2132.27814,0.00487
2130.21797,0.00527
2128.15780,0.00650
2126.09762,0.00826
2124.03745,0.00894
2121.97728,0.00826
2119.91711,0.00785
2117.85694,0.00809
2115.79676,0.00770
2113.73659,0.00652
2111.67642,0.00590
2109.61625,0.00606
2107.55608,0.00603
2105.49590,0.00545
2103.43573,0.00495
2101.37556,0.00513
2099.31539,0.00562
2097.25521,0.00605
2095.19504,0.00635
2093.13487,0.00586
2091.07470,0.00461
2089.01453,0.00398
2086.95435,0.00407
2084.89418,0.00441
2082.83401,0.00497
2080.77384,0.00521
2078.71367,0.00511
2076.65349,0.00485
2074.59332,0.00442
2072.53315,0.00407
2070.47298,0.00385
2068.41281,0.00396
2066.35263,0.00410
2064.29246,0.00407
2062.23229,0.00461
2060.17212,0.00542
2058.11194,0.00555
2056.05177,0.00468
2053.99160,0.00420
2051.93143,0.00481
2049.87126,0.00480
2047.81108,0.00405
2045.75091,0.00320
2043.69074,0.00258
2041.63057,0.00347
2039.57040,0.00468
2037.51022,0.00355
2035.45005,0.00105
2033.38988,0.00000
2031.32971,0.00097
2029.26954,0.00273
2027.20936,0.00400
2025.14919,0.00444
2023.08902,0.00417
2021.02885,0.00391
2018.96867,0.00395
2016.90850,0.00281
2014.84833,0.00091
2012.78816,0.00068
2010.72799,0.00197
2008.66781,0.00365
2006.60764,0.00512
2004.54747,0.00531
2002.48730,0.00452
2000.42713,0.00384
1998.36695,0.00283
1996.30678,0.00137
1994.24661,0.00118
1992.18644,0.00301
1990.12626,0.00480
1988.06609,0.00451
1986.00592,0.00311
1983.94575,0.00299
1981.88558,0.00378
1979.82540,0.00326
1977.76523,0.00169
1975.70506,0.00051
1973.64489,0.00000
1971.58472,0.00057
1969.52454,0.00246
1967.46437,0.00461
1965.40420,0.00596
1963.34403,0.00611
1961.28386,0.00477
1959.22368,0.00338
1957.16351,0.00333
1955.10334,0.00347
1953.04317,0.00329
1950.98299,0.00287
1948.92282,0.00213
1946.86265,0.00200
1944.80248,0.00294
1942.74231,0.00396
1940.68213,0.00412
1938.62196,0.00343
1936.56179,0.00244
1934.50162,0.00162
1932.44145,0.00160
1930.38127,0.00242
1928.32110,0.00291
1926.26093,0.00263
1924.20076,0.00239
1922.14059,0.00232
1920.08041,0.00206
1918.02024,0.00218
1915.96007,0.00301
1913.89990,0.00355
1911.83972,0.00339
1909.77955,0.00305
1907.71938,0.00306
1905.65921,0.00354
1903.59904,0.00362
1901.53886,0.00306
1899.47869,0.00249
1897.41852,0.00219
1895.35835,0.00236
1893.29818,0.00310
1891.23800,0.00348
1889.17783,0.00275
1887.11766,0.00172
1885.05749,0.00144
1882.99731,0.00205
1880.93714,0.00287
1878.87697,0.00309
1876.81680,0.00277
1874.75663,0.00250
1872.69645,0.00236
1870.63628,0.00221
1868.57611,0.00213
1866.51594,0.00233
1864.45577,0.00254
1862.39559,0.00237
1860.33542,0.00183
1858.27525,0.00130
1856.21508,0.00126
1854.15491,0.00172
1852.09473,0.00212
1850.03456,0.00237
1847.97439,0.00259
1845.91422,0.00236
1843.85404,0.00171
1841.79387,0.00131
1839.73370,0.00113
1837.67353,0.00090
1835.61336,0.00081
1833.55318,0.00108
1831.49301,0.00150
1829.43284,0.00171
1827.37267,0.00166
1825.31250,0.00139
1823.25232,0.00090
1821.19215,0.00039
1819.13198,0.00005
1817.07181,0.00000
1815.01163,0.00024
1812.95146,0.00041
1810.89129,0.00036
1808.83112,0.00060
1806.77095,0.00114
1804.71077,0.00131
1802.65060,0.00099
1800.59043,0.00064
1798.53026,0.00059
1796.47009,0.00062
1794.40991,0.00035
1792.34974,-0.00003
1790.28957,-0.00003
1788.22940,0.00015
1786.16923,0.00012
1784.10905,-0.00001
1782.04888,0.00000
1779.98871,0.00009
1777.92854,0.00009
1775.86836,-0.00006
1773.80819,-0.00012
1771.74802,0.00008
1769.68785,0.00022
1767.62768,0.00025
1765.56750,0.00071
1763.50733,0.00172
1761.44716,0.00303
1759.38699,0.00437
1757.32682,0.00567
1755.26664,0.00694
1753.20647,0.00820
1751.14630,0.00976
1749.08613,0.01170
1747.02596,0.01357
1744.96578,0.01501
1742.90561,0.01610
1740.84544,0.01703
1738.78527,0.01765
1736.72509,0.01788
1734.66492,0.01787
1732.60475,0.01751
1730.54458,0.01704
1728.48441,0.01697
1726.42423,0.01725
1724.36406,0.01741
1722.30389,0.01733
1720.24372,0.01733
1718.18355,0.01769
1716.12337,0.01811
1714.06320,0.01811
1712.00303,0.01784
1709.94286,0.01758
1707.88268,0.01746
1705.82251,0.01750
1703.76234,0.01744
1701.70217,0.01719
1699.64200,0.01708
1697.58182,0.01740
1695.52165,0.01794
1693.46148,0.01849
1691.40131,0.01928
1689.34114,0.02062
1687.28096,0.02254
1685.22079,0.02523
1683.16062,0.02842
1681.10045,0.03056
1679.04028,0.03172
1676.98010,0.03273
1674.91993,0.03385
1672.85976,0.03475
1670.79959,0.03506
1668.73941,0.03457
1666.67924,0.03365
1664.61907,0.03281
1662.55890,0.03204
1660.49873,0.03126
1658.43855,0.03059
1656.37838,0.02996
1654.31821,0.02921
1652.25804,0.02865
1650.19787,0.02884
1648.13769,0.02936
1646.07752,0.02959
1644.01735,0.02934
1641.95718,0.02931
1639.89701,0.02992
1637.83683,0.03085
1635.77666,0.03160
1633.71649,0.03222
1631.65632,0.03295
1629.59614,0.03362
1627.53597,0.03400
1625.47580,0.03415
1623.41563,0.03432
1621.35546,0.03453
1619.29528,0.03483
1617.23511,0.03543
1615.17494,0.03633
1613.11477,0.03747
1611.05460,0.03904
1608.99442,0.04087
1606.93425,0.04216
1604.87408,0.04232
1602.81391,0.04151
1600.75373,0.04017
1598.69356,0.03860
1596.63339,0.03690
1594.57322,0.03510
1592.51305,0.03350
1590.45287,0.03235
1588.39270,0.03147
1586.33253,0.03060
1584.27236,0.02962
1582.21219,0.02866
1580.15201,0.02799
1578.09184,0.02734
1576.03167,0.02625
1573.97150,0.02530
1571.91133,0.02480
1569.85115,0.02403
1567.79098,0.02283
1565.73081,0.02182
1563.67064,0.02125
1561.61046,0.02102
1559.55029,0.02030
1557.49012,0.01843
1555.42995,0.01685
1553.36978,0.01586
1551.30960,0.01489
1549.24943,0.01387
1547.18926,0.01296
1545.12909,0.01212
1543.06892,0.01130
1541.00874,0.01059
1538.94857,0.00980
1536.88840,0.00916
1534.82823,0.00859
1532.76805,0.00786
1530.70788,0.00725
1528.64771,0.00692
1526.58754,0.00675
1524.52737,0.00687
1522.46719,0.00766
1520.40702,0.00930
1518.34685,0.01122
1516.28668,0.01268
1514.22651,0.01305
1512.16633,0.01230
1510.10616,0.01078
1508.04599,0.00867
1505.98582,0.00657
1503.92565,0.00535
1501.86547,0.00448
1499.80530,0.00360
1497.74513,0.00283
1495.68496,0.00213
1493.62478,0.00147
1491.56461,0.00101
1489.50444,0.00072
1487.44427,0.00056
1485.38410,0.00068
1483.32392,0.00100
1481.26375,0.00139
1479.20358,0.00186
1477.14341,0.00263
1475.08324,0.00416
1473.02306,0.00657
1470.96289,0.00921
1468.90272,0.01154
1466.84255,0.01382
1464.78238,0.01596
1462.72220,0.01733
1460.66203,0.01793
1458.60186,0.01852
1456.54169,0.01959
1454.48151,0.02066
1452.42134,0.02151
1450.36117,0.02254
1448.30100,0.02376
1446.24083,0.02484
1444.18065,0.02567
1442.12048,0.02650
1440.06031,0.02746
1438.00014,0.02843
1435.93997,0.02915
1433.87979,0.02946
1431.81962,0.02951
1429.75945,0.02961
1427.69928,0.02979
1425.63910,0.02992
1423.57893,0.03007
1421.51876,0.03033
1419.45859,0.03057
1417.39842,0.03058
1415.33824,0.03037
1413.27807,0.03001
1411.21790,0.02957
1409.15773,0.02894
1407.09756,0.02801
1405.03738,0.02683
1402.97721,0.02575
1400.91704,0.02503
1398.85687,0.02460
1396.79670,0.02408
1394.73652,0.02323
1392.67635,0.02245
1390.61618,0.02213
1388.55601,0.02231
1386.49583,0.02295
1384.43566,0.02367
1382.37549,0.02430
1380.31532,0.02515
1378.25515,0.02617
1376.19497,0.02695
1374.13480,0.02727
1372.07463,0.02734
1370.01446,0.02736
1367.95429,0.02721
1365.89411,0.02682
1363.83394,0.02633
1361.77377,0.02587
1359.71360,0.02545
1357.65343,0.02511
1355.59325,0.02493
1353.53308,0.02494
1351.47291,0.02493
1349.41274,0.02470
1347.35256,0.02438
1345.29239,0.02416
1343.23222,0.02398
1341.17205,0.02383
1339.11188,0.02377
1337.05170,0.02375
1334.99153,0.02374
1332.93136,0.02381
1330.87119,0.02400
1328.81102,0.02427
1326.75084,0.02450
1324.69067,0.02465
1322.63050,0.02475
1320.57033,0.02473
1318.51015,0.02460
1316.44998,0.02439
1314.38981,0.02408
1312.32964,0.02375
1310.26947,0.02337
1308.20929,0.02283
1306.14912,0.02207
1304.08895,0.02109
1302.02878,0.02011
1299.96861,0.01956
1297.90843,0.01943
1295.84826,0.01933
1293.78809,0.01926
1291.72792,0.01946
1289.66775,0.01966
1287.60757,0.01974
1285.54740,0.02001
1283.48723,0.02036
1281.42706,0.02052
1279.36688,0.02058
1277.30671,0.02077
1275.24654,0.02119
1273.18637,0.02168
1271.12620,0.02210
1269.06602,0.02245
1267.00585,0.02292
1264.94568,0.02382
1262.88551,0.02505
1260.82534,0.02609
1258.76516,0.02693
1256.70499,0.02769
1254.64482,0.02826
1252.58465,0.02870
1250.52447,0.02910
1248.46430,0.02950
1246.40413,0.02990
1244.34396,0.03012
1242.28379,0.02999
1240.22361,0.02978
1238.16344,0.02964
1236.10327,0.02945
1234.04310,0.02907
1231.98293,0.02842
1229.92275,0.02745
1227.86258,0.02621
1225.80241,0.02483
1223.74224,0.02335
1221.68207,0.02195
1219.62189,0.02065
1217.56172,0.01936
1215.50155,0.01798
1213.44138,0.01645
1211.38120,0.01486
1209.32103,0.01342
1207.26086,0.01205
1205.20069,0.01058
1203.14052,0.00912
1201.08034,0.00767
1199.02017,0.00607
1196.96000,0.00437
1194.89983,0.00288
1192.83966,0.00182
1190.77948,0.00104
1188.71931,0.00051
1186.65914,0.00019
1184.59897,0.00000
1182.53880,0.00003
1180.47862,0.00068
1178.41845,0.00185
1176.35828,0.00329
1174.29811,0.00529
1172.23793,0.00784
1170.17776,0.01036
1168.11759,0.01248
1166.05742,0.01389
1163.99725,0.01474
1161.93707,0.01543
1159.87690,0.01603
1157.81673,0.01652
1155.75656,0.01719
1153.69639,0.01819
1151.63621,0.01932
1149.57604,0.02049
1147.51587,0.02182
1145.45570,0.02329
1143.39552,0.02452
1141.33535,0.02546
1139.27518,0.02629
1137.21501,0.02705
1135.15484,0.02774
1133.09466,0.02839
1131.03449,0.02909
1128.97432,0.03009
1126.91415,0.03146
1124.85398,0.03303
1122.79380,0.03452
1120.73363,0.03580
1118.67346,0.03704
1116.61329,0.03836
1114.55312,0.03945
1112.49294,0.04042
1110.43277,0.04165
1108.37260,0.04307
1106.31243,0.04459
1104.25225,0.04621
1102.19208,0.04774
1100.13191,0.04934
1098.07174,0.05127
1096.01157,0.05332
1093.95139,0.05519
1091.89122,0.05709
1089.83105,0.05939
1087.77088,0.06194
1085.71071,0.06425
1083.65053,0.06623
1081.59036,0.06837
1079.53019,0.07070
1077.47002,0.07309
1075.40985,0.07569
1073.34967,0.07819
1071.28950,0.08029
1069.22933,0.08224
1067.16916,0.08406
1065.10898,0.08560
1063.04881,0.08701
1060.98864,0.08828
1058.92847,0.08944
1056.86830,0.09106
1054.80812,0.09336
1052.74795,0.09587
1050.68778,0.09848
1048.62761,0.10140
1046.56744,0.10435
1044.50726,0.10697
1042.44709,0.10932
1040.38692,0.11156
1038.32675,0.11372
1036.26657,0.11551
1034.20640,0.11662
1032.14623,0.11736
1030.08606,0.11787
1028.02589,0.11785
1025.96571,0.11742
1023.90554,0.11674
1021.84537,0.11603
1019.78520,0.11565
1017.72503,0.11516
1015.66485,0.11455
1013.60468,0.11448
1011.54451,0.11477
1009.48434,0.11507
1007.42417,0.11542
1005.36399,0.11550
1003.30382,0.11489
1001.24365,0.11368
999.18348,0.11237
997.12330,0.11108
995.06313,0.10936
993.00296,0.10702
990.94279,0.10463
988.88262,0.10237
986.82244,0.10024
984.76227,0.09863
982.70210,0.09737
980.64193,0.09584
978.58176,0.09396
976.52158,0.09235
974.46141,0.09122
972.40124,0.08983
970.34107,0.08777
968.28089,0.08567
966.22072,0.08367
964.16055,0.08149
962.10038,0.07951
960.04021,0.07800
957.98003,0.07623
955.91986,0.07406
953.85969,0.07226
951.79952,0.07085
949.73935,0.06940
947.67917,0.06769
945.61900,0.06544
943.55883,0.06300
941.49866,0.06038
939.43849,0.05707
937.37831,0.05338
935.31814,0.04948
933.25797,0.04538
931.19780,0.04181
929.13762,0.03885
927.07745,0.03624
925.01728,0.03401
922.95711,0.03176
920.89694,0.02952
918.83676,0.02764
916.77659,0.02580
914.71642,0.02387
912.65625,0.02216
910.59608,0.02059
908.53590,0.01898
906.47573,0.01786
904.41556,0.01779
902.35539,0.01801
900.29522,0.01786
898.23504,0.01771
896.17487,0.01741
894.11470,0.01704
892.05453,0.01710
889.99435,0.01720
887.93418,0.01703
885.87401,0.01641
883.81384,0.01488
881.75367,0.01287
879.69349,0.01125
877.63332,0.01053
875.57315,0.01047
873.51298,0.01010
871.45281,0.00923
869.39263,0.00861
867.33246,0.00835
865.27229,0.00780
863.21212,0.00737
861.15194,0.00761
859.09177,0.00795
857.03160,0.00811
854.97143,0.00797
852.91126,0.00728
850.85108,0.00667
848.79091,0.00689
846.73074,0.00730
844.67057,0.00696
842.61040,0.00631
840.55022,0.00605
838.49005,0.00577
836.42988,0.00529
834.36971,0.00483
832.30954,0.00437
830.24936,0.00364
828.18919,0.00280
826.12902,0.00279
824.06885,0.00340
822.00867,0.00369
819.94850,0.00368
817.88833,0.00351
815.82816,0.00296
813.76799,0.00237
811.70781,0.00258
809.64764,0.00353
807.58747,0.00439
805.52730,0.00474
803.46713,0.00445
801.40695,0.00384
799.34678,0.00363
797.28661,0.00344
795.22644,0.00235
793.16627,0.00068
791.10609,0.00000
789.04592,0.00062
786.98575,0.00090
784.92558,0.00014
782.86540,-0.00049
780.80523,-0.00042
778.74506,0.00003
776.68489,0.00057
774.62472,0.00112
772.56454,0.00132
770.50437,0.00098
768.44420,0.00113
766.38403,0.00188
764.32386,0.00166
762.26368,0.00096
760.20351,0.00106
758.14334,0.00187
756.08317,0.00276
754.02299,0.00278
751.96282,0.00146
749.90265,0.00000
747.84248,-0.00050
745.78231,-0.00096
743.72213,-0.00174
741.66196,-0.00149
739.60179,-0.00062
737.54162,-0.00003
735.48145,0.00030
733.42127,0.00032
731.36110,-0.00016
729.30093,-0.00078
727.24076,-0.00067
725.18059,-0.00018
723.12041,0.00006
721.06024,-0.00003
719.00007,-0.00032
716.93990,-0.00004
714.87972,0.00117
712.81955,0.00217
710.75938,0.00251
708.69921,0.00290
706.63904,0.00322
704.57886,0.00300
702.51869,0.00311
700.45852,0.00438
698.39835,0.00595
696.33818,0.00672
694.27800,0.00688
692.21783,0.00654
690.15766,0.00575
688.09749,0.00518
686.03731,0.00399
683.97714,0.00184
681.91697,0.00112
679.85680,0.00240
677.79663,0.00335
675.73645,0.00342
673.67628,0.00334
671.61611,0.00243
669.55594,0.00108
667.49577,0.00171
665.43559,0.00361
663.37542,0.00501
661.31525,0.00597
659.25508,0.00577
657.19491,0.00294
655.13473,-0.00036
653.07456,0.00034
651.01439,0.00392
648.95422,0.00453
646.89404,0.00176
644.83387,0.00000
642.77370,0.00058
640.71353,0.00213
638.65336,0.00182
636.59318,0.00028
634.53301,0.00150
632.47284,0.00522
630.41267,0.00695
628.35250,0.00547
626.29232,0.00360
624.23215,0.00220
622.17198,0.00026
620.11181,-0.00001
618.05164,0.00200
615.99146,0.00271
613.93129,0.00006
611.87112,-0.00294
609.81095,-0.00220
607.75077,0.00171
605.69060,0.00480
603.63043,0.00520
601.57026,0.00334
599.51009,0.00000
