3996.73391,0.00033
3994.67373,0.00025
3992.61356,0.00018
3990.55339,0.00002
3988.49322,-0.00016
3986.43305,-0.00008
3984.37287,0.00006
3982.31270,0.00007
3980.25253,0.00015
3978.19236,0.00043
3976.13219,0.00067
3974.07201,0.00073
3972.01184,0.00083
3969.95167,0.00080
3967.89150,0.00035
3965.83133,0.00000
3963.77115,0.00039
3961.71098,0.00098
3959.65081,0.00103
3957.59064,0.00091
3955.53046,0.00107
3953.47029,0.00148
3951.41012,0.00158
3949.34995,0.00108
3947.28978,0.00049
3945.22960,0.00075
3943.16943,0.00146
3941.10926,0.00144
3939.04909,0.00100
3936.98892,0.00060
3934.92874,0.00067
3932.86857,0.00145
3930.80840,0.00192
3928.74823,0.00165
3926.68805,0.00154
3924.62788,0.00146
3922.56771,0.00111
3920.50754,0.00142
3918.44737,0.00211
3916.38719,0.00231
3914.32702,0.00195
3912.26685,0.00139
3910.20668,0.00058
3908.14651,0.00008
3906.08633,0.00047
3904.02616,0.00074
3901.96599,0.00056
3899.90582,0.00098
3897.84565,0.00082
3895.78547,0.00026
3893.72530,0.00093
3891.66513,0.00182
3889.60496,0.00124
3887.54478,0.00123
3885.48461,0.00149
3883.42444,0.00071
3881.36427,0.00121
3879.30410,0.00150
3877.24392,0.00124
3875.18375,0.00179
3873.12358,0.00146
3871.06341,0.00094
3869.00324,0.00030
3866.94306,0.00031
3864.88289,0.00197
3862.82272,0.00236
3860.76255,0.00119
3858.70237,0.00000
3856.64220,0.00051
3854.58203,0.00294
3852.52186,0.00297
3850.46169,0.00075
3848.40151,0.00032
3846.34134,0.00114
3844.28117,0.00143
3842.22100,0.00053
3840.16083,0.00024
3838.10065,0.00131
3836.04048,0.00202
3833.98031,0.00223
3831.92014,0.00239
3829.85997,0.00212
3827.79979,0.00179
3825.73962,0.00118
3823.67945,0.00157
3821.61928,0.00303
3819.55910,0.00225
3817.49893,0.00208
3815.43876,0.00248
3813.37859,0.00142
3811.31842,0.00115
3809.25824,0.00232
3807.19807,0.00332
3805.13790,0.00269
3803.07773,0.00332
3801.01756,0.00418
3798.95738,0.00347
3796.89721,0.00353
3794.83704,0.00318
3792.77687,0.00264
3790.71670,0.00228
3788.65652,0.00158
3786.59635,0.00134
3784.53618,0.00169
3782.47601,0.00202
3780.41583,0.00271
3778.35566,0.00298
3776.29549,0.00268
3774.23532,0.00251
3772.17515,0.00274
3770.11497,0.00282
3768.05480,0.00184
3765.99463,0.00133
3763.93446,0.00124
3761.87429,0.00178
3759.81411,0.00268
3757.75394,0.00220
3755.69377,0.00121
3753.63360,0.00181
3751.57342,0.00297
3749.51325,0.00153
3747.45308,0.00000
3745.39291,0.00187
3743.33274,0.00279
3741.27256,0.00166
3739.21239,0.00124
3737.15222,0.00139
3735.09205,0.00114
3733.03188,0.00077
3730.97170,0.00076
3728.91153,0.00174
3726.85136,0.00356
3724.79119,0.00408
3722.73102,0.00346
3720.67084,0.00257
3718.61067,0.00174
3716.55050,0.00100
3714.49033,0.00109
3712.43015,0.00214
3710.36998,0.00235
3708.30981,0.00175
3706.24964,0.00144
3704.18947,0.00196
3702.12929,0.00270
3700.06912,0.00240
3698.00895,0.00186
3695.94878,0.00151
3693.88861,0.00128
3691.82843,0.00211
3689.76826,0.00333
3687.70809,0.00286
3685.64792,0.00182
3683.58775,0.00201
3681.52757,0.00244
3679.46740,0.00230
3677.40723,0.00273
3675.34706,0.00287
3673.28688,0.00118
3671.22671,0.00210
3669.16654,0.00365
3667.10637,0.00306
3665.04620,0.00272
3662.98602,0.00285
3660.92585,0.00266
3658.86568,0.00292
3656.80551,0.00392
3654.74534,0.00368
3652.68516,0.00322
3650.62499,0.00364
3648.56482,0.00330
3646.50465,0.00256
3644.44447,0.00272
3642.38430,0.00413
3640.32413,0.00545
3638.26396,0.00579
3636.20379,0.00534
3634.14361,0.00474
3632.08344,0.00526
3630.02327,0.00793
3627.96310,0.00862
3625.90293,0.00649
3623.84275,0.00576
3621.78258,0.00674
3619.72241,0.00743
3617.66224,0.00655
3615.60207,0.00621
3613.54189,0.00720
3611.48172,0.00784
3609.42155,0.00841
3607.36138,0.00866
3605.30120,0.00814
3603.24103,0.00786
3601.18086,0.00793
3599.12069,0.00794
3597.06052,0.00858
3595.00034,0.00958
3592.94017,0.00966
3590.88000,0.00939
3588.81983,0.01024
3586.75966,0.01121
3584.69948,0.01134
3582.63931,0.01163
3580.57914,0.01205
3578.51897,0.01218
3576.45879,0.01239
3574.39862,0.01272
3572.33845,0.01268
3570.27828,0.01282
3568.21811,0.01352
3566.15793,0.01350
3564.09776,0.01301
3562.03759,0.01354
3559.97742,0.01456
3557.91725,0.01515
3555.85707,0.01552
3553.79690,0.01611
3551.73673,0.01656
3549.67656,0.01669
3547.61639,0.01713
3545.55621,0.01778
3543.49604,0.01840
3541.43587,0.01907
3539.37570,0.01968
3537.31552,0.02019
3535.25535,0.02050
3533.19518,0.02062
3531.13501,0.02083
3529.07484,0.02124
3527.01466,0.02177
3524.95449,0.02237
3522.89432,0.02276
3520.83415,0.02288
3518.77398,0.02331
3516.71380,0.02407
3514.65363,0.02495
3512.59346,0.02577
3510.53329,0.02615
3508.47312,0.02576
3506.41294,0.02535
3504.35277,0.02587
3502.29260,0.02656
3500.23243,0.02688
3498.17225,0.02751
3496.11208,0.02852
3494.05191,0.02930
3491.99174,0.02975
3489.93157,0.03026
3487.87139,0.03064
3485.81122,0.03078
3483.75105,0.03123
3481.69088,0.03181
3479.63071,0.03217
3477.57053,0.03288
3475.51036,0.03366
3473.45019,0.03384
3471.39002,0.03389
3469.32984,0.03417
3467.26967,0.03434
3465.20950,0.03469
3463.14933,0.03564
3461.08916,0.03636
3459.02898,0.03667
3456.96881,0.03727
3454.90864,0.03786
3452.84847,0.03776
3450.78830,0.03743
3448.72812,0.03801
3446.66795,0.03900
3444.60778,0.03948
3442.54761,0.04006
3440.48744,0.04056
3438.42726,0.04073
3436.36709,0.04079
3434.30692,0.04098
3432.24675,0.04138
3430.18657,0.04187
3428.12640,0.04230
3426.06623,0.04258
3424.00606,0.04276
3421.94589,0.04315
3419.88571,0.04374
3417.82554,0.04434
3415.76537,0.04480
3413.70520,0.04502
3411.64503,0.04519
3409.58485,0.04555
3407.52468,0.04617
3405.46451,0.04688
3403.40434,0.04728
3401.34416,0.04718
3399.28399,0.04709
3397.22382,0.04738
3395.16365,0.04772
3393.10348,0.04790
3391.04330,0.04790
3388.98313,0.04787
3386.92296,0.04788
3384.86279,0.04803
3382.80262,0.04841
3380.74244,0.04879
3378.68227,0.04908
3376.62210,0.04943
3374.56193,0.04978
3372.50176,0.05021
3370.44158,0.05075
3368.38141,0.05123
3366.32124,0.05149
3364.26107,0.05133
3362.20089,0.05093
3360.14072,0.05071
3358.08055,0.05087
3356.02038,0.05127
3353.96021,0.05171
3351.90003,0.05240
3349.83986,0.05295
3347.77969,0.05252
3345.71952,0.05180
3343.65935,0.05193
3341.59917,0.05266
3339.53900,0.05310
3337.47883,0.05298
3335.41866,0.05296
3333.35849,0.05339
3331.29831,0.05367
3329.23814,0.05344
3327.17797,0.05303
3325.11780,0.05289
3323.05762,0.05297
3320.99745,0.05328
3318.93728,0.05370
3316.87711,0.05382
3314.81694,0.05367
3312.75676,0.05349
3310.69659,0.05334
3308.63642,0.05344
3306.57625,0.05379
3304.51608,0.05397
3302.45590,0.05393
3300.39573,0.05409
3298.33556,0.05441
3296.27539,0.05464
3294.21521,0.05458
3292.15504,0.05429
3290.09487,0.05411
3288.03470,0.05400
3285.97453,0.05381
3283.91435,0.05385
3281.85418,0.05427
3279.79401,0.05464
3277.73384,0.05465
3275.67367,0.05441
3273.61349,0.05412
3271.55332,0.05384
3269.49315,0.05356
3267.43298,0.05328
3265.37281,0.05324
3263.31263,0.05342
3261.25246,0.05330
3259.19229,0.05302
3257.13212,0.05297
3255.07194,0.05276
3253.01177,0.05230
3250.95160,0.05217
3248.89143,0.05237
3246.83126,0.05263
3244.77108,0.05288
3242.71091,0.05284
3240.65074,0.05247
3238.59057,0.05226
3236.53040,0.05239
3234.47022,0.05233
3232.41005,0.05223
3230.34988,0.05238
3228.28971,0.05243
3226.22954,0.05222
3224.16936,0.05188
3222.10919,0.05153
3220.04902,0.05141
3217.98885,0.05134
3215.92867,0.05111
3213.86850,0.05075
3211.80833,0.05040
3209.74816,0.05031
3207.68799,0.05029
3205.62781,0.04997
3203.56764,0.04953
3201.50747,0.04936
3199.44730,0.04960
3197.38713,0.04983
3195.32695,0.04956
3193.26678,0.04907
3191.20661,0.04877
3189.14644,0.04848
3187.08626,0.04788
3185.02609,0.04724
3182.96592,0.04689
3180.90575,0.04676
3178.84558,0.04657
3176.78540,0.04631
3174.72523,0.04619
3172.66506,0.04596
3170.60489,0.04556
3168.54472,0.04514
3166.48454,0.04470
3164.42437,0.04450
3162.36420,0.04463
3160.30403,0.04458
3158.24386,0.04391
3156.18368,0.04306
3154.12351,0.04246
3152.06334,0.04214
3150.00317,0.04203
3147.94299,0.04189
3145.88282,0.04164
3143.82265,0.04143
3141.76248,0.04122
3139.70231,0.04100
3137.64213,0.04082
3135.58196,0.04063
3133.52179,0.04028
3131.46162,0.03983
3129.40145,0.03959
3127.34127,0.03932
3125.28110,0.03878
3123.22093,0.03841
3121.16076,0.03839
3119.10058,0.03829
3117.04041,0.03783
3114.98024,0.03715
3112.92007,0.03659
3110.85990,0.03634
3108.79972,0.03624
3106.73955,0.03605
3104.67938,0.03578
3102.61921,0.03568
3100.55904,0.03558
3098.49886,0.03528
3096.43869,0.03499
3094.37852,0.03455
3092.31835,0.03413
3090.25818,0.03399
3088.19800,0.03382
3086.13783,0.03353
3084.07766,0.03324
3082.01749,0.03295
3079.95731,0.03261
3077.89714,0.03227
3075.83697,0.03186
3073.77680,0.03143
3071.71663,0.03108
3069.65645,0.03079
3067.59628,0.03047
3065.53611,0.03009
3063.47594,0.02997
3061.41577,0.03011
3059.35559,0.03001
3057.29542,0.02963
3055.23525,0.02915
3053.17508,0.02874
3051.11491,0.02869
3049.05473,0.02887
3046.99456,0.02867
3044.93439,0.02806
3042.87422,0.02767
3040.81404,0.02759
3038.75387,0.02748
3036.69370,0.02724
3034.63353,0.02691
3032.57336,0.02673
3030.51318,0.02663
3028.45301,0.02641
3026.39284,0.02621
3024.33267,0.02589
3022.27250,0.02553
3020.21232,0.02546
3018.15215,0.02553
3016.09198,0.02550
3014.03181,0.02556
3011.97163,0.02565
3009.91146,0.02533
3007.85129,0.02466
3005.79112,0.02405
3003.73095,0.02373
3001.67077,0.02365
2999.61060,0.02365
2997.55043,0.02363
2995.49026,0.02369
2993.43009,0.02377
2991.36991,0.02348
2989.30974,0.02304
2987.24957,0.02294
2985.18940,0.02299
2983.12923,0.02315
2981.06905,0.02375
2979.00888,0.02459
2976.94871,0.02527
2974.88854,0.02579
2972.82836,0.02646
2970.76819,0.02745
2968.70802,0.02875
2966.64785,0.02992
2964.58768,0.03078
2962.52750,0.03198
2960.46733,0.03369
2958.40716,0.03540
2956.34699,0.03689
2954.28682,0.03851
2952.22664,0.04028
2950.16647,0.04212
2948.10630,0.04420
2946.04613,0.04641
2943.98596,0.04864
2941.92578,0.05109
2939.86561,0.05364
2937.80544,0.05595
2935.74527,0.05814
2933.68509,0.06037
2931.62492,0.06261
2929.56475,0.06484
2927.50458,0.06679
2925.44441,0.06822
2923.38423,0.06914
2921.32406,0.06952
2919.26389,0.06944
2917.20372,0.06877
2915.14355,0.06699
2913.08337,0.06428
2911.02320,0.06135
2908.96303,0.05878
2906.90286,0.05679
2904.84268,0.05512
2902.78251,0.05361
2900.72234,0.05216
2898.66217,0.05059
2896.60200,0.04909
2894.54182,0.04794
2892.48165,0.04694
2890.42148,0.04577
2888.36131,0.04463
2886.30114,0.04384
2884.24096,0.04308
2882.18079,0.04212
2880.12062,0.04146
2878.06045,0.04132
2876.00028,0.04134
2873.94010,0.04152
2871.87993,0.04189
2869.81976,0.04234
2867.75959,0.04291
2865.69941,0.04373
2863.63924,0.04481
2861.57907,0.04620
2859.51890,0.04802
2857.45873,0.05002
2855.39855,0.05175
2853.33838,0.05315
2851.27821,0.05391
2849.21804,0.05299
2847.15787,0.05010
2845.09769,0.04641
2843.03752,0.04309
2840.97735,0.04034
2838.91718,0.03795
2836.85700,0.03621
2834.79683,0.03515
2832.73666,0.03395
2830.67649,0.03235
2828.61632,0.03103
2826.55614,0.03028
2824.49597,0.02978
2822.43580,0.02931
2820.37563,0.02882
2818.31546,0.02821
2816.25528,0.02751
2814.19511,0.02691
2812.13494,0.02657
2810.07477,0.02632
2808.01460,0.02585
2805.95442,0.02531
2803.89425,0.02510
2801.83408,0.02502
2799.77391,0.02468
2797.71373,0.02412
2795.65356,0.02360
2793.59339,0.02349
2791.53322,0.02376
2789.47305,0.02382
2787.41287,0.02343
2785.35270,0.02303
2783.29253,0.02307
2781.23236,0.02303
2779.17219,0.02251
2777.11201,0.02200
2775.05184,0.02183
2772.99167,0.02187
2770.93150,0.02185
2768.87133,0.02164
2766.81115,0.02128
2764.75098,0.02107
2762.69081,0.02130
2760.63064,0.02162
2758.57046,0.02161
2756.51029,0.02133
2754.45012,0.02110
2752.38995,0.02099
2750.32978,0.02077
2748.26960,0.02047
2746.20943,0.02034
2744.14926,0.02029
2742.08909,0.02031
2740.02892,0.02036
2737.96874,0.02022
2735.90857,0.01999
2733.84840,0.01990
2731.78823,0.01988
2729.72805,0.01978
2727.66788,0.01961
2725.60771,0.01948
2723.54754,0.01964
2721.48737,0.01991
2719.42719,0.02001
2717.36702,0.02001
2715.30685,0.01982
2713.24668,0.01942
2711.18651,0.01915
2709.12633,0.01909
2707.06616,0.01908
2705.00599,0.01899
2702.94582,0.01888
2700.88565,0.01893
2698.82547,0.01912
2696.76530,0.01918
2694.70513,0.01895
2692.64496,0.01865
2690.58478,0.01859
2688.52461,0.01863
2686.46444,0.01852
2684.40427,0.01840
2682.34410,0.01826
2680.28392,0.01813
2678.22375,0.01827
2676.16358,0.01848
2674.10341,0.01851
2672.04324,0.01837
2669.98306,0.01814
2667.92289,0.01814
2665.86272,0.01827
2663.80255,0.01818
2661.74238,0.01794
2659.68220,0.01764
2657.62203,0.01749
2655.56186,0.01758
2653.50169,0.01751
2651.44151,0.01729
2649.38134,0.01711
2647.32117,0.01698
2645.26100,0.01699
2643.20083,0.01700
2641.14065,0.01682
2639.08048,0.01657
2637.02031,0.01643
2634.96014,0.01635
2632.89997,0.01634
2630.83979,0.01635
2628.77962,0.01630
2626.71945,0.01638
2624.65928,0.01648
2622.59910,0.01638
2620.53893,0.01598
2618.47876,0.01535
2616.41859,0.01518
2614.35842,0.01566
2612.29824,0.01611
2610.23807,0.01605
2608.17790,0.01564
2606.11773,0.01527
2604.05756,0.01491
2601.99738,0.01473
2599.93721,0.01473
2597.87704,0.01456
2595.81687,0.01429
2593.75670,0.01422
2591.69652,0.01428
2589.63635,0.01413
2587.57618,0.01388
2585.51601,0.01377
2583.45583,0.01357
2581.39566,0.01332
2579.33549,0.01324
2577.27532,0.01336
2575.21515,0.01336
2573.15497,0.01321
2571.09480,0.01308
2569.03463,0.01287
2566.97446,0.01288
2564.91429,0.01321
2562.85411,0.01332
2560.79394,0.01346
2558.73377,0.01403
2556.67360,0.01432
2554.61342,0.01362
2552.55325,0.01270
2550.49308,0.01252
2548.43291,0.01281
2546.37274,0.01304
2544.31256,0.01309
2542.25239,0.01295
2540.19222,0.01252
2538.13205,0.01209
2536.07188,0.01197
2534.01170,0.01188
2531.95153,0.01172
2529.89136,0.01189
2527.83119,0.01246
2525.77102,0.01292
2523.71084,0.01274
2521.65067,0.01216
2519.59050,0.01187
2517.53033,0.01182
2515.47015,0.01145
2513.40998,0.01123
2511.34981,0.01164
2509.28964,0.01210
2507.22947,0.01198
2505.16929,0.01128
2503.10912,0.01068
2501.04895,0.01063
2498.98878,0.01077
2496.92861,0.01085
2494.86843,0.01106
2492.80826,0.01112
2490.74809,0.01086
2488.68792,0.01048
2486.62775,0.01002
2484.56757,0.00995
2482.50740,0.01052
2480.44723,0.01097
2478.38706,0.01080
2476.32688,0.01049
2474.26671,0.01028
2472.20654,0.00997
2470.14637,0.00984
2468.08620,0.01023
2466.02602,0.01058
2463.96585,0.01057
2461.90568,0.01064
2459.84551,0.01057
2457.78534,0.01026
2455.72516,0.01020
2453.66499,0.01023
2451.60482,0.00986
2449.54465,0.00923
2447.48447,0.00893
2445.42430,0.00929
2443.36413,0.00993
2441.30396,0.01007
2439.24379,0.00975
2437.18361,0.00979
2435.12344,0.01016
2433.06327,0.01004
2431.00310,0.00957
2428.94293,0.00930
2426.88275,0.00922
2424.82258,0.00927
2422.76241,0.00936
2420.70224,0.00968
2418.64207,0.01024
2416.58189,0.01027
2414.52172,0.00953
2412.46155,0.00911
2410.40138,0.00924
2408.34120,0.00901
2406.28103,0.00872
2404.22086,0.00912
2402.16069,0.00969
2400.10052,0.00966
2398.04034,0.00938
2395.98017,0.00918
2393.92000,0.00904
2391.85983,0.00904
2389.79966,0.00901
2387.73948,0.00878
2385.67931,0.00850
2383.61914,0.00839
2381.55897,0.00861
2379.49880,0.00910
2377.43862,0.00957
2375.37845,0.01000
2373.31828,0.00986
2371.25811,0.00934
2369.19793,0.00969
2367.13776,0.01028
2365.07759,0.00937
2363.01742,0.00760
2360.95725,0.00545
2358.89707,0.00616
2356.83690,0.00835
2354.77673,0.01020
2352.71656,0.01092
2350.65639,0.00862
2348.59621,0.00639
2346.53604,0.00817
2344.47587,0.00841
2342.41570,0.00741
2340.35552,0.00599
2338.29535,0.00595
2336.23518,0.00785
2334.17501,0.00915
2332.11484,0.00915
2330.05466,0.00830
2327.99449,0.00818
2325.93432,0.00863
2323.87415,0.00981
2321.81398,0.01038
2319.75380,0.01071
2317.69363,0.01033
2315.63346,0.01041
2313.57329,0.01044
2311.51312,0.00908
2309.45294,0.00726
2307.39277,0.00690
2305.33260,0.00785
2303.27243,0.00829
2301.21225,0.00789
2299.15208,0.00749
2297.09191,0.00776
2295.03174,0.00820
2292.97157,0.00811
2290.91139,0.00776
2288.85122,0.00758
2286.79105,0.00754
2284.73088,0.00760
2282.67071,0.00772
2280.61053,0.00771
2278.55036,0.00753
2276.49019,0.00737
2274.43002,0.00711
2272.36984,0.00643
2270.30967,0.00547
2268.24950,0.00485
2266.18933,0.00502
2264.12916,0.00577
2262.06898,0.00639
2260.00881,0.00670
2257.94864,0.00708
2255.88847,0.00774
2253.82830,0.00826
2251.76812,0.00783
2249.70795,0.00683
2247.64778,0.00710
2245.58761,0.00804
2243.52744,0.00793
2241.46726,0.00754
2239.40709,0.00716
2237.34692,0.00643
2235.28675,0.00629
2233.22657,0.00637
2231.16640,0.00599
2229.10623,0.00607
2227.04606,0.00592
2224.98589,0.00503
2222.92571,0.00473
2220.86554,0.00505
2218.80537,0.00545
2216.74520,0.00599
2214.68503,0.00609
2212.62485,0.00570
2210.56468,0.00557
2208.50451,0.00516
2206.44434,0.00433
2204.38417,0.00463
2202.32399,0.00646
2200.26382,0.00750
2198.20365,0.00657
2196.14348,0.00532
2194.08330,0.00531
2192.02313,0.00633
2189.96296,0.00715
2187.90279,0.00799
2185.84262,0.00890
2183.78244,0.00866
2181.72227,0.00775
2179.66210,0.00699
2177.60193,0.00513
2175.54176,0.00325
2173.48158,0.00413
2171.42141,0.00628
2169.36124,0.00690
2167.30107,0.00647
2165.24089,0.00659
2163.18072,0.00584
2161.12055,0.00298
2159.06038,0.00134
2157.00021,0.00266
2154.94003,0.00450
2152.87986,0.00473
2150.81969,0.00347
2148.75952,0.00273
2146.69935,0.00226
2144.63917,0.00206
2142.57900,0.00414
2140.51883,0.00637
2138.45866,0.00599
2136.39849,0.00480
2134.33831,0.00454
2132.27814,0.00456
2130.21797,0.00468
2128.15780,0.00588
2126.09762,0.00755
2124.03745,0.00749
2121.97728,0.00641
2119.91711,0.00641
2117.85694,0.00710
2115.79676,0.00693
2113.73659,0.00601
2111.67642,0.00585
2109.61625,0.00623
2107.55608,0.00602
2105.49590,0.00554
2103.43573,0.00549
2101.37556,0.00571
2099.31539,0.00562
2097.25521,0.00557
2095.19504,0.00591
2093.13487,0.00587
2091.07470,0.00519
2089.01453,0.00445
2086.95435,0.00378
2084.89418,0.00370
2082.83401,0.00450
2080.77384,0.00519
2078.71367,0.00526
2076.65349,0.00485
2074.59332,0.00403
2072.53315,0.00338
2070.47298,0.00328
2068.41281,0.00374
2066.35263,0.00397
2064.29246,0.00338
2062.23229,0.00334
2060.17212,0.00428
2058.11194,0.00474
2056.05177,0.00435
2053.99160,0.00460
2051.93143,0.00573
2049.87126,0.00587
2047.81108,0.00524
2045.75091,0.00458
2043.69074,0.00339
2041.63057,0.00316
2039.57040,0.00440
2037.51022,0.00445
2035.45005,0.00233
2033.38988,0.00011
2031.32971,0.00000
2029.26954,0.00201
2027.20936,0.00359
2025.14919,0.00333
2023.08902,0.00250
2021.02885,0.00217
2018.96867,0.00253
2016.90850,0.00232
2014.84833,0.00108
2012.78816,0.00099
2010.72799,0.00257
2008.66781,0.00458
2006.60764,0.00559
2004.54747,0.00465
2002.48730,0.00291
2000.42713,0.00163
1998.36695,0.00073
1996.30678,0.00033
1994.24661,0.00093
1992.18644,0.00232
1990.12626,0.00385
1988.06609,0.00450
1986.00592,0.00370
1983.94575,0.00342
1981.88558,0.00375
1979.82540,0.00266
1977.76523,0.00130
1975.70506,0.00090
1973.64489,0.00046
1971.58472,0.00052
1969.52454,0.00232
1967.46437,0.00493
1965.40420,0.00603
1963.34403,0.00550
1961.28386,0.00393
1959.22368,0.00273
1957.16351,0.00317
1955.10334,0.00354
1953.04317,0.00308
1950.98299,0.00284
1948.92282,0.00272
1946.86265,0.00260
1944.80248,0.00300
1942.74231,0.00366
1940.68213,0.00353
1938.62196,0.00317
1936.56179,0.00266
1934.50162,0.00172
1932.44145,0.00164
1930.38127,0.00272
1928.32110,0.00310
1926.26093,0.00251
1924.20076,0.00264
1922.14059,0.00299
1920.08041,0.00276
1918.02024,0.00254
1915.96007,0.00234
1913.89990,0.00255
1911.83972,0.00305
1909.77955,0.00339
1907.71938,0.00345
1905.65921,0.00372
1903.59904,0.00392
1901.53886,0.00340
1899.47869,0.00250
1897.41852,0.00204
1895.35835,0.00231
1893.29818,0.00260
1891.23800,0.00249
1889.17783,0.00183
1887.11766,0.00122
1885.05749,0.00159
1882.99731,0.00243
1880.93714,0.00317
1878.87697,0.00325
1876.81680,0.00260
1874.75663,0.00190
1872.69645,0.00162
1870.63628,0.00203
1868.57611,0.00244
1866.51594,0.00241
1864.45577,0.00268
1862.39559,0.00280
1860.33542,0.00224
1858.27525,0.00166
1856.21508,0.00167
1854.15491,0.00208
1852.09473,0.00229
1850.03456,0.00210
1847.97439,0.00170
1845.91422,0.00170
1843.85404,0.00189
1841.79387,0.00126
1839.73370,0.00097
1837.67353,0.00112
1835.61336,0.00089
1833.55318,0.00078
1831.49301,0.00153
1829.43284,0.00177
1827.37267,0.00106
1825.31250,0.00104
1823.25232,0.00092
1821.19215,0.00059
1819.13198,0.00055
1817.07181,0.00056
1815.01163,0.00060
1812.95146,0.00084
1810.89129,0.00099
1808.83112,0.00094
1806.77095,0.00110
1804.71077,0.00129
1802.65060,0.00142
1800.59043,0.00135
1798.53026,0.00087
1796.47009,0.00049
1794.40991,0.00069
1792.34974,0.00107
1790.28957,0.00045
1788.22940,0.00000
1786.16923,0.00039
1784.10905,0.00061
1782.04888,0.00072
1779.98871,0.00070
1777.92854,0.00016
1775.86836,0.00000
1773.80819,0.00080
1771.74802,0.00142
1769.68785,0.00104
1767.62768,0.00090
1765.56750,0.00115
1763.50733,0.00257
1761.44716,0.00415
1759.38699,0.00505
1757.32682,0.00647
1755.26664,0.00738
1753.20647,0.00854
1751.14630,0.01069
1749.08613,0.01232
1747.02596,0.01351
1744.96578,0.01485
1742.90561,0.01617
1740.84544,0.01720
1738.78527,0.01706
1736.72509,0.01714
1734.66492,0.01885
1732.60475,0.01828
1730.54458,0.01692
1728.48441,0.01705
1726.42423,0.01770
1724.36406,0.01812
1722.30389,0.01742
1720.24372,0.01723
1718.18355,0.01848
1716.12337,0.01849
1714.06320,0.01763
1712.00303,0.01733
1709.94286,0.01751
1707.88268,0.01797
1705.82251,0.01809
1703.76234,0.01721
1701.70217,0.01770
1699.64200,0.01805
1697.58182,0.01763
1695.52165,0.01861
1693.46148,0.01857
1691.40131,0.01933
1689.34114,0.02076
1687.28096,0.02241
1685.22079,0.02635
1683.16062,0.02918
1681.10045,0.02949
1679.04028,0.03049
1676.98010,0.03269
1674.91993,0.03424
1672.85976,0.03423
1670.79959,0.03512
1668.73941,0.03488
1666.67924,0.03282
1664.61907,0.03243
1662.55890,0.03278
1660.49873,0.03140
1658.43855,0.02984
1656.37838,0.02996
1654.31821,0.03169
1652.25804,0.02990
1650.19787,0.02674
1648.13769,0.02840
1646.07752,0.03012
1644.01735,0.02895
1641.95718,0.02843
1639.89701,0.02912
1637.83683,0.03110
1635.77666,0.03317
1633.71649,0.03251
1631.65632,0.03224
1629.59614,0.03364
1627.53597,0.03425
1625.47580,0.03430
1623.41563,0.03481
1621.35546,0.03412
1619.29528,0.03438
1617.23511,0.03647
1615.17494,0.03693
1613.11477,0.03704
1611.05460,0.03881
1608.99442,0.04092
1606.93425,0.04206
1604.87408,0.04219
1602.81391,0.04158
1600.75373,0.04030
1598.69356,0.03873
1596.63339,0.03718
1594.57322,0.03546
1592.51305,0.03379
1590.45287,0.03265
1588.39270,0.03186
1586.33253,0.03114
1584.27236,0.03032
1582.21219,0.02912
1580.15201,0.02795
1578.09184,0.02800
1576.03167,0.02763
1573.97150,0.02509
1571.91133,0.02436
1569.85115,0.02494
1567.79098,0.02320
1565.73081,0.02119
1563.67064,0.01982
1561.61046,0.02046
1559.55029,0.02266
1557.49012,0.01909
1555.42995,0.01536
1553.36978,0.01464
1551.30960,0.01445
1549.24943,0.01349
1547.18926,0.01188
1545.12909,0.01101
1543.06892,0.01075
1541.00874,0.01139
1538.94857,0.01002
1536.88840,0.00739
1534.82823,0.00776
1532.76805,0.00798
1530.70788,0.00621
1528.64771,0.00563
1526.58754,0.00563
1524.52737,0.00564
1522.46719,0.00743
1520.40702,0.00906
1518.34685,0.01046
1516.28668,0.01222
1514.22651,0.01198
1512.16633,0.01055
1510.10616,0.00946
1508.04599,0.00979
1505.98582,0.00813
1503.92565,0.00436
1501.86547,0.00288
1499.80530,0.00326
1497.74513,0.00349
1495.68496,0.00210
1493.62478,0.00029
1491.56461,0.00072
1489.50444,0.00171
1487.44427,0.00105
1485.38410,0.00030
1483.32392,0.00058
1481.26375,0.00119
1479.20358,0.00138
1477.14341,0.00223
1475.08324,0.00448
1473.02306,0.00764
1470.96289,0.00929
1468.90272,0.01050
1466.84255,0.01355
1464.78238,0.01632
1462.72220,0.01642
1460.66203,0.01658
1458.60186,0.01899
1456.54169,0.02071
1454.48151,0.01995
1452.42134,0.02024
1450.36117,0.02201
1448.30100,0.02395
1446.24083,0.02493
1444.18065,0.02548
1442.12048,0.02616
1440.06031,0.02703
1438.00014,0.02881
1435.93997,0.02955
1433.87979,0.02853
1431.81962,0.02867
1429.75945,0.02939
1427.69928,0.02928
1425.63910,0.02928
1423.57893,0.02934
1421.51876,0.02965
1419.45859,0.03074
1417.39842,0.03046
1415.33824,0.02968
1413.27807,0.02959
1411.21790,0.02932
1409.15773,0.02851
1407.09756,0.02784
1405.03738,0.02698
1402.97721,0.02535
1400.91704,0.02445
1398.85687,0.02426
1396.79670,0.02370
1394.73652,0.02291
1392.67635,0.02165
1390.61618,0.02116
1388.55601,0.02209
1386.49583,0.02298
1384.43566,0.02334
1382.37549,0.02400
1380.31532,0.02488
1378.25515,0.02567
1376.19497,0.02654
1374.13480,0.02707
1372.07463,0.02673
1370.01446,0.02664
1367.95429,0.02655
1365.89411,0.02601
1363.83394,0.02590
1361.77377,0.02558
1359.71360,0.02478
1357.65343,0.02445
1355.59325,0.02454
1353.53308,0.02460
1351.47291,0.02462
1349.41274,0.02455
1347.35256,0.02426
1345.29239,0.02381
1343.23222,0.02344
1341.17205,0.02359
1339.11188,0.02381
1337.05170,0.02350
1334.99153,0.02332
1332.93136,0.02351
1330.87119,0.02375
1328.81102,0.02399
1326.75084,0.02432
1324.69067,0.02443
1322.63050,0.02419
1320.57033,0.02398
1318.51015,0.02403
1316.44998,0.02404
1314.38981,0.02395
1312.32964,0.02366
1310.26947,0.02309
1308.20929,0.02245
1306.14912,0.02169
1304.08895,0.02071
1302.02878,0.01976
1299.96861,0.01928
1297.90843,0.01919
1295.84826,0.01916
1293.78809,0.01914
1291.72792,0.01923
1289.66775,0.01930
1287.60757,0.01935
1285.54740,0.01966
1283.48723,0.02006
1281.42706,0.02017
1279.36688,0.02021
1277.30671,0.02048
1275.24654,0.02082
1273.18637,0.02112
1271.12620,0.02154
1269.06602,0.02205
1267.00585,0.02260
1264.94568,0.02346
1262.88551,0.02467
1260.82534,0.02567
1258.76516,0.02633
1256.70499,0.02702
1254.64482,0.02771
1252.58465,0.02828
1250.52447,0.02868
1248.46430,0.02897
1246.40413,0.02930
1244.34396,0.02959
1242.28379,0.02965
1240.22361,0.02949
1238.16344,0.02925
1236.10327,0.02893
1234.04310,0.02847
1231.98293,0.02790
1229.92275,0.02705
1227.86258,0.02581
1225.80241,0.02443
1223.74224,0.02305
1221.68207,0.02160
1219.62189,0.02009
1217.56172,0.01867
1215.50155,0.01742
1213.44138,0.01602
1211.38120,0.01440
1209.32103,0.01294
1207.26086,0.01166
1205.20069,0.01031
1203.14052,0.00887
1201.08034,0.00739
1199.02017,0.00588
1196.96000,0.00430
1194.89983,0.00280
1192.83966,0.00169
1190.77948,0.00088
1188.71931,0.00030
1186.65914,0.00000
1184.59897,-0.00016
1182.53880,-0.00003
1180.47862,0.00060
1178.41845,0.00171
1176.35828,0.00312
1174.29811,0.00499
1172.23793,0.00736
1170.17776,0.00985
1168.11759,0.01202
1166.05742,0.01342
1163.99725,0.01419
1161.93707,0.01483
1159.87690,0.01544
1157.81673,0.01594
1155.75656,0.01654
1153.69639,0.01753
1151.63621,0.01878
1149.57604,0.02013
1147.51587,0.02159
1145.45570,0.02301
1143.39552,0.02410
1141.33535,0.02502
1139.27518,0.02597
1137.21501,0.02669
1135.15484,0.02724
1133.09466,0.02783
1131.03449,0.02861
1128.97432,0.02963
1126.91415,0.03092
1124.85398,0.03246
1122.79380,0.03406
1120.73363,0.03540
1118.67346,0.03663
1116.61329,0.03791
1114.55312,0.03901
1112.49294,0.04003
1110.43277,0.04119
1108.37260,0.04233
1106.31243,0.04355
1104.25225,0.04509
1102.19208,0.04678
1100.13191,0.04857
1098.07174,0.05053
1096.01157,0.05255
1093.95139,0.05462
1091.89122,0.05672
1089.83105,0.05882
1087.77088,0.06093
1085.71071,0.06298
1083.65053,0.06508
1081.59036,0.06747
1079.53019,0.06985
1077.47002,0.07207
1075.40985,0.07441
1073.34967,0.07675
1071.28950,0.07885
1069.22933,0.08091
1067.16916,0.08285
1065.10898,0.08438
1063.04881,0.08570
1060.98864,0.08699
1058.92847,0.08840
1056.86830,0.09014
1054.80812,0.09227
1052.74795,0.09464
1050.68778,0.09712
1048.62761,0.09988
1046.56744,0.10276
1044.50726,0.10541
1042.44709,0.10792
1040.38692,0.11031
1038.32675,0.11240
1036.26657,0.11395
1034.20640,0.11486
1032.14623,0.11549
1030.08606,0.11606
1028.02589,0.11632
1025.96571,0.11592
1023.90554,0.11499
1021.84537,0.11432
1019.78520,0.11426
1017.72503,0.11404
1015.66485,0.11346
1013.60468,0.11334
1011.54451,0.11366
1009.48434,0.11376
1007.42417,0.11359
1005.36399,0.11333
1003.30382,0.11279
1001.24365,0.11201
999.18348,0.11101
997.12330,0.10953
995.06313,0.10767
993.00296,0.10543
990.94279,0.10291
988.88262,0.10070
986.82244,0.09907
984.76227,0.09794
982.70210,0.09675
980.64193,0.09507
978.58176,0.09327
976.52158,0.09156
974.46141,0.08989
972.40124,0.08810
970.34107,0.08613
968.28089,0.08430
966.22072,0.08256
964.16055,0.08048
962.10038,0.07841
960.04021,0.07679
957.98003,0.07502
955.91986,0.07275
953.85969,0.07077
951.79952,0.06931
949.73935,0.06799
947.67917,0.06651
945.61900,0.06446
943.55883,0.06201
941.49866,0.05927
939.43849,0.05583
937.37831,0.05196
935.31814,0.04820
933.25797,0.04452
931.19780,0.04106
929.13762,0.03801
927.07745,0.03551
925.01728,0.03355
922.95711,0.03151
920.89694,0.02923
918.83676,0.02707
916.77659,0.02507
914.71642,0.02346
912.65625,0.02229
910.59608,0.02098
908.53590,0.01929
906.47573,0.01789
904.41556,0.01759
902.35539,0.01784
900.29522,0.01774
898.23504,0.01751
896.17487,0.01732
894.11470,0.01719
892.05453,0.01722
889.99435,0.01716
887.93418,0.01691
885.87401,0.01637
883.81384,0.01514
881.75367,0.01315
879.69349,0.01102
877.63332,0.01010
875.57315,0.01039
873.51298,0.01031
871.45281,0.00941
869.39263,0.00867
867.33246,0.00839
865.27229,0.00780
863.21212,0.00722
861.15194,0.00744
859.09177,0.00795
857.03160,0.00812
854.97143,0.00770
852.91126,0.00685
850.85108,0.00649
848.79091,0.00705
846.73074,0.00769
844.67057,0.00735
842.61040,0.00647
840.55022,0.00600
838.49005,0.00560
836.42988,0.00499
834.36971,0.00465
832.30954,0.00462
830.24936,0.00436
828.18919,0.00370
826.12902,0.00342
824.06885,0.00344
822.00867,0.00315
819.94850,0.00279
817.88833,0.00262
815.82816,0.00260
813.76799,0.00257
811.70781,0.00290
809.64764,0.00389
807.58747,0.00495
805.52730,0.00518
803.46713,0.00432
801.40695,0.00372
799.34678,0.00429
797.28661,0.00434
795.22644,0.00290
793.16627,0.00102
791.10609,0.00000
789.04592,0.00010
786.98575,0.00048
784.92558,0.00035
782.86540,-0.00015
780.80523,-0.00047
778.74506,-0.00018
776.68489,0.00062
774.62472,0.00151
772.56454,0.00161
770.50437,0.00106
768.44420,0.00130
766.38403,0.00212
764.32386,0.00197
762.26368,0.00123
760.20351,0.00136
758.14334,0.00249
756.08317,0.00334
754.02299,0.00331
751.96282,0.00263
749.90265,0.00167
747.84248,0.00106
745.78231,0.00045
743.72213,0.00000
741.66196,0.00047
739.60179,0.00136
737.54162,0.00175
735.48145,0.00154
733.42127,0.00076
731.36110,0.00006
729.30093,0.00003
727.24076,0.00047
725.18059,0.00072
723.12041,0.00107
721.06024,0.00159
719.00007,0.00085
716.93990,0.00067
714.87972,0.00208
712.81955,0.00317
710.75938,0.00348
708.69921,0.00451
706.63904,0.00595
704.57886,0.00613
702.51869,0.00584
700.45852,0.00660
698.39835,0.00738
696.33818,0.00709
694.27800,0.00661
692.21783,0.00617
690.15766,0.00495
688.09749,0.00362
686.03731,0.00294
683.97714,0.00228
681.91697,0.00186
679.85680,0.00208
677.79663,0.00229
675.73645,0.00271
673.67628,0.00262
671.61611,0.00002
669.55594,0.00007
667.49577,0.00329
665.43559,0.00148
663.37542,0.00506
661.31525,0.00703
659.25508,0.00521
657.19491,0.00068
655.13473,-0.00311
653.07456,-0.00180
651.01439,0.00345
648.95422,0.00563
646.89404,0.00242
644.83387,0.00000
642.77370,0.00100
640.71353,0.00335
638.65336,0.00373
636.59318,0.00323
634.53301,0.00521
632.47284,0.00828
630.41267,0.00706
628.35250,0.00133
626.29232,-0.00280
624.23215,-0.00207
622.17198,-0.00061
620.11181,-0.00020
618.05164,-0.00070
615.99146,-0.00305
613.93129,-0.00519
611.87112,-0.00431
609.81095,-0.00227
607.75077,-0.00175
605.69060,-0.00090
603.63043,0.00147
601.57026,0.00266
599.51009,0.00000
