3996.73391,0.00166
3994.67373,0.00128
3992.61356,0.00104
3990.55339,0.00066
3988.49322,0.00017
3986.43305,0.00000
3984.37287,0.00011
3982.31270,0.00041
3980.25253,0.00094
3978.19236,0.00140
3976.13219,0.00151
3974.07201,0.00165
3972.01184,0.00193
3969.95167,0.00190
3967.89150,0.00148
3965.83133,0.00104
3963.77115,0.00093
3961.71098,0.00129
3959.65081,0.00171
3957.59064,0.00160
3955.53046,0.00141
3953.47029,0.00182
3951.41012,0.00234
3949.34995,0.00235
3947.28978,0.00218
3945.22960,0.00223
3943.16943,0.00238
3941.10926,0.00246
3939.04909,0.00233
3936.98892,0.00213
3934.92874,0.00208
3932.86857,0.00202
3930.80840,0.00204
3928.74823,0.00219
3926.68805,0.00200
3924.62788,0.00152
3922.56771,0.00145
3920.50754,0.00184
3918.44737,0.00216
3916.38719,0.00214
3914.32702,0.00191
3912.26685,0.00167
3910.20668,0.00149
3908.14651,0.00119
3906.08633,0.00063
3904.02616,0.00033
3901.96599,0.00084
3899.90582,0.00155
3897.84565,0.00161
3895.78547,0.00104
3893.72530,0.00062
3891.66513,0.00081
3889.60496,0.00126
3887.54478,0.00153
3885.48461,0.00138
3883.42444,0.00104
3881.36427,0.00116
3879.30410,0.00170
3877.24392,0.00221
3875.18375,0.00247
3873.12358,0.00232
3871.06341,0.00189
3869.00324,0.00176
3866.94306,0.00206
3864.88289,0.00228
3862.82272,0.00227
3860.76255,0.00223
3858.70237,0.00197
3856.64220,0.00147
3854.58203,0.00134
3852.52186,0.00186
3850.46169,0.00206
3848.40151,0.00190
3846.34134,0.00183
3844.28117,0.00170
3842.22100,0.00097
3840.16083,0.00000
3838.10065,0.00034
3836.04048,0.00198
3833.98031,0.00298
3831.92014,0.00289
3829.85997,0.00223
3827.79979,0.00134
3825.73962,0.00092
3823.67945,0.00163
3821.61928,0.00292
3819.55910,0.00345
3817.49893,0.00278
3815.43876,0.00171
3813.37859,0.00115
3811.31842,0.00138
3809.25824,0.00222
3807.19807,0.00338
3805.13790,0.00420
3803.07773,0.00411
3801.01756,0.00363
3798.95738,0.00371
3796.89721,0.00394
3794.83704,0.00355
3792.77687,0.00278
3790.71670,0.00183
3788.65652,0.00064
3786.59635,0.00000
3784.53618,0.00060
3782.47601,0.00140
3780.41583,0.00158
3778.35566,0.00174
3776.29549,0.00196
3774.23532,0.00178
3772.17515,0.00157
3770.11497,0.00165
3768.05480,0.00157
3765.99463,0.00105
3763.93446,0.00060
3761.87429,0.00082
3759.81411,0.00160
3757.75394,0.00229
3755.69377,0.00260
3753.63360,0.00293
3751.57342,0.00335
3749.51325,0.00308
3747.45308,0.00192
3745.39291,0.00105
3743.33274,0.00146
3741.27256,0.00259
3739.21239,0.00320
3737.15222,0.00263
3735.09205,0.00114
3733.03188,0.00003
3730.97170,0.00000
3728.91153,0.00084
3726.85136,0.00195
3724.79119,0.00272
3722.73102,0.00288
3720.67084,0.00244
3718.61067,0.00203
3716.55050,0.00195
3714.49033,0.00171
3712.43015,0.00117
3710.36998,0.00085
3708.30981,0.00124
3706.24964,0.00183
3704.18947,0.00219
3702.12929,0.00240
3700.06912,0.00234
3698.00895,0.00196
3695.94878,0.00171
3693.88861,0.00178
3691.82843,0.00169
3689.76826,0.00114
3687.70809,0.00063
3685.64792,0.00065
3683.58775,0.00125
3681.52757,0.00228
3679.46740,0.00314
3677.40723,0.00327
3675.34706,0.00276
3673.28688,0.00208
3671.22671,0.00190
3669.16654,0.00262
3667.10637,0.00344
3665.04620,0.00368
3662.98602,0.00339
3660.92585,0.00284
3658.86568,0.00248
3656.80551,0.00278
3654.74534,0.00380
3652.68516,0.00461
3650.62499,0.00436
3648.56482,0.00339
3646.50465,0.00285
3644.44447,0.00319
3642.38430,0.00412
3640.32413,0.00488
3638.26396,0.00491
3636.20379,0.00436
3634.14361,0.00375
3632.08344,0.00390
3630.02327,0.00514
3627.96310,0.00620
3625.90293,0.00589
3623.84275,0.00516
3621.78258,0.00514
3619.72241,0.00595
3617.66224,0.00693
3615.60207,0.00762
3613.54189,0.00828
3611.48172,0.00857
3609.42155,0.00811
3607.36138,0.00734
3605.30120,0.00688
3603.24103,0.00679
3601.18086,0.00680
3599.12069,0.00715
3597.06052,0.00827
3595.00034,0.00950
3592.94017,0.01000
3590.88000,0.00965
3588.81983,0.00910
3586.75966,0.00938
3584.69948,0.01047
3582.63931,0.01153
3580.57914,0.01220
3578.51897,0.01216
3576.45879,0.01167
3574.39862,0.01149
3572.33845,0.01152
3570.27828,0.01176
3568.21811,0.01275
3566.15793,0.01416
3564.09776,0.01514
3562.03759,0.01538
3559.97742,0.01509
3557.91725,0.01493
3555.85707,0.01513
3553.79690,0.01517
3551.73673,0.01503
3549.67656,0.01515
3547.61639,0.01547
3545.55621,0.01611
3543.49604,0.01724
3541.43587,0.01851
3539.37570,0.01927
3537.31552,0.01937
3535.25535,0.01938
3533.19518,0.01941
3531.13501,0.01919
3529.07484,0.01916
3527.01466,0.01987
3524.95449,0.02098
3522.89432,0.02191
3520.83415,0.02251
3518.77398,0.02289
3516.71380,0.02320
3514.65363,0.02368
3512.59346,0.02441
3510.53329,0.02482
3508.47312,0.02444
3506.41294,0.02377
3504.35277,0.02379
3502.29260,0.02458
3500.23243,0.02545
3498.17225,0.02619
3496.11208,0.02705
3494.05191,0.02785
3491.99174,0.02837
3489.93157,0.02879
3487.87139,0.02910
3485.81122,0.02923
3483.75105,0.02943
3481.69088,0.02961
3479.63071,0.02978
3477.57053,0.03034
3475.51036,0.03119
3473.45019,0.03166
3471.39002,0.03159
3469.32984,0.03167
3467.26967,0.03255
3465.20950,0.03410
3463.14933,0.03541
3461.08916,0.03589
3459.02898,0.03582
3456.96881,0.03576
3454.90864,0.03583
3452.84847,0.03595
3450.78830,0.03623
3448.72812,0.03656
3446.66795,0.03698
3444.60778,0.03764
3442.54761,0.03821
3440.48744,0.03829
3438.42726,0.03812
3436.36709,0.03826
3434.30692,0.03865
3432.24675,0.03928
3430.18657,0.04018
3428.12640,0.04092
3426.06623,0.04111
3424.00606,0.04098
3421.94589,0.04125
3419.88571,0.04214
3417.82554,0.04272
3415.76537,0.04249
3413.70520,0.04221
3411.64503,0.04262
3409.58485,0.04353
3407.52468,0.04438
3405.46451,0.04517
3403.40434,0.04569
3401.34416,0.04544
3399.28399,0.04489
3397.22382,0.04479
3395.16365,0.04510
3393.10348,0.04554
3391.04330,0.04591
3388.98313,0.04593
3386.92296,0.04577
3384.86279,0.04586
3382.80262,0.04612
3380.74244,0.04627
3378.68227,0.04640
3376.62210,0.04669
3374.56193,0.04717
3372.50176,0.04802
3370.44158,0.04912
3368.38141,0.05001
3366.32124,0.05009
3364.26107,0.04924
3362.20089,0.04841
3360.14072,0.04836
3358.08055,0.04860
3356.02038,0.04852
3353.96021,0.04866
3351.90003,0.04942
3349.83986,0.05009
3347.77969,0.05006
3345.71952,0.04971
3343.65935,0.04991
3341.59917,0.05066
3339.53900,0.05114
3337.47883,0.05094
3335.41866,0.05068
3333.35849,0.05080
3331.29831,0.05131
3329.23814,0.05184
3327.17797,0.05173
3325.11780,0.05112
3323.05762,0.05081
3320.99745,0.05100
3318.93728,0.05122
3316.87711,0.05115
3314.81694,0.05097
3312.75676,0.05097
3310.69659,0.05108
3308.63642,0.05121
3306.57625,0.05155
3304.51608,0.05205
3302.45590,0.05251
3300.39573,0.05271
3298.33556,0.05257
3296.27539,0.05242
3294.21521,0.05228
3292.15504,0.05197
3290.09487,0.05156
3288.03470,0.05102
3285.97453,0.05056
3283.91435,0.05085
3281.85418,0.05172
3279.79401,0.05232
3277.73384,0.05242
3275.67367,0.05202
3273.61349,0.05118
3271.55332,0.05073
3269.49315,0.05099
3267.43298,0.05138
3265.37281,0.05159
3263.31263,0.05148
3261.25246,0.05119
3259.19229,0.05108
3257.13212,0.05106
3255.07194,0.05081
3253.01177,0.05061
3250.95160,0.05078
3248.89143,0.05095
3246.83126,0.05112
3244.77108,0.05141
3242.71091,0.05129
3240.65074,0.05056
3238.59057,0.04994
3236.53040,0.04998
3234.47022,0.04998
3232.41005,0.04975
3230.34988,0.04995
3228.28971,0.05035
3226.22954,0.05052
3224.16936,0.05081
3222.10919,0.05121
3220.04902,0.05106
3217.98885,0.05028
3215.92867,0.04946
3213.86850,0.04890
3211.80833,0.04871
3209.74816,0.04901
3207.68799,0.04920
3205.62781,0.04857
3203.56764,0.04772
3201.50747,0.04752
3199.44730,0.04784
3197.38713,0.04812
3195.32695,0.04805
3193.26678,0.04786
3191.20661,0.04773
3189.14644,0.04740
3187.08626,0.04663
3185.02609,0.04565
3182.96592,0.04511
3180.90575,0.04529
3178.84558,0.04556
3176.78540,0.04554
3174.72523,0.04524
3172.66506,0.04438
3170.60489,0.04343
3168.54472,0.04312
3166.48454,0.04312
3164.42437,0.04291
3162.36420,0.04277
3160.30403,0.04256
3158.24386,0.04177
3156.18368,0.04087
3154.12351,0.04062
3152.06334,0.04078
3150.00317,0.04078
3147.94299,0.04052
3145.88282,0.04024
3143.82265,0.04028
3141.76248,0.04055
3139.70231,0.04053
3137.64213,0.04005
3135.58196,0.03960
3133.52179,0.03945
3131.46162,0.03937
3129.40145,0.03924
3127.34127,0.03878
3125.28110,0.03790
3123.22093,0.03718
3121.16076,0.03702
3119.10058,0.03689
3117.04041,0.03628
3114.98024,0.03557
3112.92007,0.03513
3110.85990,0.03511
3108.79972,0.03537
3106.73955,0.03536
3104.67938,0.03512
3102.61921,0.03495
3100.55904,0.03456
3098.49886,0.03405
3096.43869,0.03390
3094.37852,0.03384
3092.31835,0.03371
3090.25818,0.03337
3088.19800,0.03262
3086.13783,0.03193
3084.07766,0.03162
3082.01749,0.03150
3079.95731,0.03147
3077.89714,0.03140
3075.83697,0.03138
3073.77680,0.03149
3071.71663,0.03154
3069.65645,0.03136
3067.59628,0.03093
3065.53611,0.03032
3063.47594,0.02994
3061.41577,0.02989
3059.35559,0.02979
3057.29542,0.02942
3055.23525,0.02895
3053.17508,0.02857
3051.11491,0.02842
3049.05473,0.02859
3046.99456,0.02864
3044.93439,0.02807
3042.87422,0.02739
3040.81404,0.02727
3038.75387,0.02754
3036.69370,0.02763
3034.63353,0.02733
3032.57336,0.02693
3030.51318,0.02655
3028.45301,0.02632
3026.39284,0.02629
3024.33267,0.02592
3022.27250,0.02528
3020.21232,0.02526
3018.15215,0.02573
3016.09198,0.02580
3014.03181,0.02550
3011.97163,0.02545
3009.91146,0.02551
3007.85129,0.02502
3005.79112,0.02426
3003.73095,0.02379
3001.67077,0.02364
2999.61060,0.02371
2997.55043,0.02366
2995.49026,0.02357
2993.43009,0.02357
2991.36991,0.02322
2989.30974,0.02277
2987.24957,0.02289
2985.18940,0.02348
2983.12923,0.02401
2981.06905,0.02428
2979.00888,0.02436
2976.94871,0.02464
2974.88854,0.02548
2972.82836,0.02640
2970.76819,0.02718
2968.70802,0.02843
2966.64785,0.02977
2964.58768,0.03066
2962.52750,0.03167
2960.46733,0.03336
2958.40716,0.03529
2956.34699,0.03669
2954.28682,0.03786
2952.22664,0.03928
2950.16647,0.04090
2948.10630,0.04297
2946.04613,0.04537
2943.98596,0.04759
2941.92578,0.04977
2939.86561,0.05223
2937.80544,0.05468
2935.74527,0.05692
2933.68509,0.05917
2931.62492,0.06149
2929.56475,0.06368
2927.50458,0.06547
2925.44441,0.06673
2923.38423,0.06742
2921.32406,0.06763
2919.26389,0.06765
2917.20372,0.06724
2915.14355,0.06560
2913.08337,0.06292
2911.02320,0.05998
2908.96303,0.05730
2906.90286,0.05517
2904.84268,0.05348
2902.78251,0.05215
2900.72234,0.05096
2898.66217,0.04950
2896.60200,0.04803
2894.54182,0.04704
2892.48165,0.04614
2890.42148,0.04482
2888.36131,0.04345
2886.30114,0.04257
2884.24096,0.04203
2882.18079,0.04142
2880.12062,0.04092
2878.06045,0.04083
2876.00028,0.04090
2873.94010,0.04097
2871.87993,0.04117
2869.81976,0.04167
2867.75959,0.04248
2865.69941,0.04343
2863.63924,0.04444
2861.57907,0.04586
2859.51890,0.04777
2857.45873,0.04952
2855.39855,0.05075
2853.33838,0.05193
2851.27821,0.05281
2849.21804,0.05203
2847.15787,0.04916
2845.09769,0.04548
2843.03752,0.04223
2840.97735,0.03965
2838.91718,0.03733
2836.85700,0.03541
2834.79683,0.03422
2832.73666,0.03320
2830.67649,0.03191
2828.61632,0.03072
2826.55614,0.03004
2824.49597,0.02980
2822.43580,0.02969
2820.37563,0.02916
2818.31546,0.02819
2816.25528,0.02751
2814.19511,0.02721
2812.13494,0.02699
2810.07477,0.02677
2808.01460,0.02647
2805.95442,0.02619
2803.89425,0.02601
2801.83408,0.02573
2799.77391,0.02522
2797.71373,0.02445
2795.65356,0.02377
2793.59339,0.02372
2791.53322,0.02394
2789.47305,0.02396
2787.41287,0.02388
2785.35270,0.02399
2783.29253,0.02431
2781.23236,0.02418
2779.17219,0.02328
2777.11201,0.02240
2775.05184,0.02212
2772.99167,0.02215
2770.93150,0.02205
2768.87133,0.02202
2766.81115,0.02209
2764.75098,0.02212
2762.69081,0.02236
2760.63064,0.02262
2758.57046,0.02252
2756.51029,0.02221
2754.45012,0.02191
2752.38995,0.02167
2750.32978,0.02151
2748.26960,0.02150
2746.20943,0.02158
2744.14926,0.02144
2742.08909,0.02120
2740.02892,0.02115
2737.96874,0.02113
2735.90857,0.02091
2733.84840,0.02059
2731.78823,0.02028
2729.72805,0.02011
2727.66788,0.02012
2725.60771,0.02021
2723.54754,0.02049
2721.48737,0.02087
2719.42719,0.02092
2717.36702,0.02062
2715.30685,0.02018
2713.24668,0.01973
2711.18651,0.01970
2709.12633,0.02001
2707.06616,0.02006
2705.00599,0.01987
2702.94582,0.01965
2700.88565,0.01950
2698.82547,0.01954
2696.76530,0.01973
2694.70513,0.01980
2692.64496,0.01973
2690.58478,0.01960
2688.52461,0.01944
2686.46444,0.01937
2684.40427,0.01938
2682.34410,0.01921
2680.28392,0.01903
2678.22375,0.01923
2676.16358,0.01954
2674.10341,0.01945
2672.04324,0.01901
2669.98306,0.01871
2667.92289,0.01905
2665.86272,0.01963
2663.80255,0.01966
2661.74238,0.01923
2659.68220,0.01886
2657.62203,0.01879
2655.56186,0.01891
2653.50169,0.01878
2651.44151,0.01847
2649.38134,0.01839
2647.32117,0.01842
2645.26100,0.01814
2643.20083,0.01773
2641.14065,0.01774
2639.08048,0.01799
2637.02031,0.01793
2634.96014,0.01770
2632.89997,0.01767
2630.83979,0.01752
2628.77962,0.01731
2626.71945,0.01751
2624.65928,0.01778
2622.59910,0.01749
2620.53893,0.01702
2618.47876,0.01690
2616.41859,0.01700
2614.35842,0.01724
2612.29824,0.01745
2610.23807,0.01720
2608.17790,0.01655
2606.11773,0.01587
2604.05756,0.01524
2601.99738,0.01494
2599.93721,0.01514
2597.87704,0.01533
2595.81687,0.01528
2593.75670,0.01533
2591.69652,0.01558
2589.63635,0.01549
2587.57618,0.01530
2585.51601,0.01562
2583.45583,0.01585
2581.39566,0.01544
2579.33549,0.01492
2577.27532,0.01474
2575.21515,0.01457
2573.15497,0.01466
2571.09480,0.01483
2569.03463,0.01428
2566.97446,0.01419
2564.91429,0.01497
2562.85411,0.01506
2560.79394,0.01481
2558.73377,0.01506
2556.67360,0.01505
2554.61342,0.01417
2552.55325,0.01327
2550.49308,0.01334
2548.43291,0.01380
2546.37274,0.01369
2544.31256,0.01348
2542.25239,0.01370
2540.19222,0.01389
2538.13205,0.01376
2536.07188,0.01363
2534.01170,0.01367
2531.95153,0.01362
2529.89136,0.01332
2527.83119,0.01345
2525.77102,0.01417
2523.71084,0.01437
2521.65067,0.01389
2519.59050,0.01367
2517.53033,0.01375
2515.47015,0.01367
2513.40998,0.01363
2511.34981,0.01361
2509.28964,0.01319
2507.22947,0.01258
2505.16929,0.01204
2503.10912,0.01166
2501.04895,0.01158
2498.98878,0.01182
2496.92861,0.01252
2494.86843,0.01327
2492.80826,0.01321
2490.74809,0.01278
2488.68792,0.01248
2486.62775,0.01198
2484.56757,0.01192
2482.50740,0.01257
2480.44723,0.01303
2478.38706,0.01298
2476.32688,0.01269
2474.26671,0.01234
2472.20654,0.01205
2470.14637,0.01224
2468.08620,0.01297
2466.02602,0.01306
2463.96585,0.01252
2461.90568,0.01262
2459.84551,0.01297
2457.78534,0.01288
2455.72516,0.01266
2453.66499,0.01267
2451.60482,0.01264
2449.54465,0.01210
2447.48447,0.01147
2445.42430,0.01158
2443.36413,0.01215
2441.30396,0.01221
2439.24379,0.01155
2437.18361,0.01060
2435.12344,0.01027
2433.06327,0.01088
2431.00310,0.01158
2428.94293,0.01141
2426.88275,0.01070
2424.82258,0.01064
2422.76241,0.01111
2420.70224,0.01168
2418.64207,0.01212
2416.58189,0.01172
2414.52172,0.01093
2412.46155,0.01115
2410.40138,0.01187
2408.34120,0.01158
2406.28103,0.01095
2404.22086,0.01112
2402.16069,0.01154
2400.10052,0.01161
2398.04034,0.01154
2395.98017,0.01134
2393.92000,0.01108
2391.85983,0.01106
2389.79966,0.01117
2387.73948,0.01111
2385.67931,0.01070
2383.61914,0.01007
2381.55897,0.00980
2379.49880,0.01047
2377.43862,0.01153
2375.37845,0.01165
2373.31828,0.01016
2371.25811,0.00853
2369.19793,0.00878
2367.13776,0.01041
2365.07759,0.01051
2363.01742,0.00842
2360.95725,0.00760
2358.89707,0.01049
2356.83690,0.01210
2354.77673,0.01068
2352.71656,0.00896
2350.65639,0.00749
2348.59621,0.00646
2346.53604,0.00726
2344.47587,0.00829
2342.41570,0.00904
2340.35552,0.00847
2338.29535,0.00842
2336.23518,0.00991
2334.17501,0.01104
2332.11484,0.01099
2330.05466,0.01053
2327.99449,0.01088
2325.93432,0.01107
2323.87415,0.01071
2321.81398,0.01073
2319.75380,0.01172
2317.69363,0.01201
2315.63346,0.01177
2313.57329,0.01122
2311.51312,0.01006
2309.45294,0.00922
2307.39277,0.00935
2305.33260,0.00994
2303.27243,0.01038
2301.21225,0.01075
2299.15208,0.01115
2297.09191,0.01135
2295.03174,0.01085
2292.97157,0.00975
2290.91139,0.00913
2288.85122,0.00972
2286.79105,0.01072
2284.73088,0.01109
2282.67071,0.01061
2280.61053,0.00974
2278.55036,0.00928
2276.49019,0.00943
2274.43002,0.00927
2272.36984,0.00822
2270.30967,0.00694
2268.24950,0.00653
2266.18933,0.00723
2264.12916,0.00840
2262.06898,0.00936
2260.00881,0.00989
2257.94864,0.01038
2255.88847,0.01102
2253.82830,0.01132
2251.76812,0.01076
2249.70795,0.01018
2247.64778,0.01052
2245.58761,0.01072
2243.52744,0.01081
2241.46726,0.01061
2239.40709,0.00912
2237.34692,0.00775
2235.28675,0.00782
2233.22657,0.00767
2231.16640,0.00676
2229.10623,0.00664
2227.04606,0.00733
2224.98589,0.00860
2222.92571,0.01011
2220.86554,0.01034
2218.80537,0.00963
2216.74520,0.00898
2214.68503,0.00788
2212.62485,0.00706
2210.56468,0.00780
2208.50451,0.00829
2206.44434,0.00661
2204.38417,0.00574
2202.32399,0.00752
2200.26382,0.00888
2198.20365,0.00889
2196.14348,0.00900
2194.08330,0.01002
2192.02313,0.01127
2189.96296,0.01083
2187.90279,0.00893
2185.84262,0.00782
2183.78244,0.00776
2181.72227,0.00830
2179.66210,0.00851
2177.60193,0.00630
2175.54176,0.00460
2173.48158,0.00671
2171.42141,0.00929
2169.36124,0.00950
2167.30107,0.00973
2165.24089,0.01083
2163.18072,0.00895
2161.12055,0.00380
2159.06038,0.00000
2157.00021,0.00089
2154.94003,0.00462
2152.87986,0.00677
2150.81969,0.00751
2148.75952,0.00804
2146.69935,0.00640
2144.63917,0.00457
2142.57900,0.00637
2140.51883,0.00904
2138.45866,0.00953
2136.39849,0.00862
2134.33831,0.00659
2132.27814,0.00477
2130.21797,0.00547
2128.15780,0.00854
2126.09762,0.01082
2124.03745,0.01042
2121.97728,0.00953
2119.91711,0.00993
2117.85694,0.01030
2115.79676,0.00920
2113.73659,0.00771
2111.67642,0.00761
2109.61625,0.00846
2107.55608,0.00844
2105.49590,0.00738
2103.43573,0.00676
2101.37556,0.00695
2099.31539,0.00742
2097.25521,0.00820
2095.19504,0.00849
2093.13487,0.00700
2091.07470,0.00538
2089.01453,0.00571
2086.95435,0.00638
2084.89418,0.00609
2082.83401,0.00600
2080.77384,0.00682
2078.71367,0.00750
2076.65349,0.00662
2074.59332,0.00522
2072.53315,0.00499
2070.47298,0.00533
2068.41281,0.00546
2066.35263,0.00483
2064.29246,0.00400
2062.23229,0.00491
2060.17212,0.00620
2058.11194,0.00581
2056.05177,0.00563
2053.99160,0.00749
2051.93143,0.00907
2049.87126,0.00812
2047.81108,0.00660
2045.75091,0.00526
2043.69074,0.00356
2041.63057,0.00381
2039.57040,0.00556
2037.51022,0.00496
2035.45005,0.00230
2033.38988,0.00120
2031.32971,0.00318
2029.26954,0.00569
2027.20936,0.00571
2025.14919,0.00508
2023.08902,0.00539
2021.02885,0.00558
2018.96867,0.00573
2016.90850,0.00404
2014.84833,0.00094
2012.78816,0.00033
2010.72799,0.00169
2008.66781,0.00290
2006.60764,0.00343
2004.54747,0.00379
2002.48730,0.00445
2000.42713,0.00494
1998.36695,0.00482
1996.30678,0.00382
1994.24661,0.00274
1992.18644,0.00311
1990.12626,0.00415
1988.06609,0.00348
1986.00592,0.00189
1983.94575,0.00238
1981.88558,0.00420
1979.82540,0.00371
1977.76523,0.00127
1975.70506,0.00027
1973.64489,0.00097
1971.58472,0.00240
1969.52454,0.00434
1967.46437,0.00589
1965.40420,0.00698
1963.34403,0.00724
1961.28386,0.00569
1959.22368,0.00453
1957.16351,0.00494
1955.10334,0.00445
1953.04317,0.00360
1950.98299,0.00451
1948.92282,0.00548
1946.86265,0.00513
1944.80248,0.00468
1942.74231,0.00435
1940.68213,0.00358
1938.62196,0.00281
1936.56179,0.00250
1934.50162,0.00244
1932.44145,0.00259
1930.38127,0.00288
1928.32110,0.00281
1926.26093,0.00291
1924.20076,0.00361
1922.14059,0.00401
1920.08041,0.00354
1918.02024,0.00287
1915.96007,0.00264
1913.89990,0.00281
1911.83972,0.00335
1909.77955,0.00400
1907.71938,0.00445
1905.65921,0.00472
1903.59904,0.00444
1901.53886,0.00386
1899.47869,0.00341
1897.41852,0.00271
1895.35835,0.00242
1893.29818,0.00311
1891.23800,0.00335
1889.17783,0.00228
1887.11766,0.00131
1885.05749,0.00147
1882.99731,0.00217
1880.93714,0.00274
1878.87697,0.00279
1876.81680,0.00239
1874.75663,0.00224
1872.69645,0.00251
1870.63628,0.00249
1868.57611,0.00214
1866.51594,0.00246
1864.45577,0.00328
1862.39559,0.00356
1860.33542,0.00313
1858.27525,0.00239
1856.21508,0.00192
1854.15491,0.00223
1852.09473,0.00273
1850.03456,0.00276
1847.97439,0.00248
1845.91422,0.00202
1843.85404,0.00144
1841.79387,0.00110
1839.73370,0.00104
1837.67353,0.00116
1835.61336,0.00138
1833.55318,0.00154
1831.49301,0.00132
1829.43284,0.00081
1827.37267,0.00070
1825.31250,0.00114
1823.25232,0.00147
1821.19215,0.00139
1819.13198,0.00110
1817.07181,0.00083
1815.01163,0.00074
1812.95146,0.00067
1810.89129,0.00059
1808.83112,0.00089
1806.77095,0.00147
1804.71077,0.00166
1802.65060,0.00149
1800.59043,0.00158
1798.53026,0.00195
1796.47009,0.00200
1794.40991,0.00140
1792.34974,0.00058
1790.28957,0.00022
1788.22940,0.00010
1786.16923,0.00000
1784.10905,0.00007
1782.04888,0.00043
1779.98871,0.00082
1777.92854,0.00095
1775.86836,0.00085
1773.80819,0.00087
1771.74802,0.00133
1769.68785,0.00159
1767.62768,0.00132
1765.56750,0.00143
1763.50733,0.00235
1761.44716,0.00348
1759.38699,0.00451
1757.32682,0.00580
1755.26664,0.00742
1753.20647,0.00893
1751.14630,0.01024
1749.08613,0.01183
1747.02596,0.01388
1744.96578,0.01554
1742.90561,0.01639
1740.84544,0.01693
1738.78527,0.01745
1736.72509,0.01788
1734.66492,0.01817
1732.60475,0.01795
1730.54458,0.01723
1728.48441,0.01675
1726.42423,0.01668
1724.36406,0.01674
1722.30389,0.01685
1720.24372,0.01722
1718.18355,0.01813
1716.12337,0.01875
1714.06320,0.01810
1712.00303,0.01711
1709.94286,0.01661
1707.88268,0.01649
1705.82251,0.01660
1703.76234,0.01678
1701.70217,0.01700
1699.64200,0.01746
1697.58182,0.01795
1695.52165,0.01805
1693.46148,0.01796
1691.40131,0.01840
1689.34114,0.01991
1687.28096,0.02238
1685.22079,0.02554
1683.16062,0.02860
1681.10045,0.03032
1679.04028,0.03117
1676.98010,0.03185
1674.91993,0.03264
1672.85976,0.03327
1670.79959,0.03313
1668.73941,0.03250
1666.67924,0.03202
1664.61907,0.03149
1662.55890,0.03067
1660.49873,0.02994
1658.43855,0.02957
1656.37838,0.02922
1654.31821,0.02849
1652.25804,0.02796
1650.19787,0.02832
1648.13769,0.02885
1646.07752,0.02891
1644.01735,0.02865
1641.95718,0.02873
1639.89701,0.02946
1637.83683,0.03060
1635.77666,0.03149
1633.71649,0.03186
1631.65632,0.03238
1629.59614,0.03313
1627.53597,0.03351
1625.47580,0.03350
1623.41563,0.03355
1621.35546,0.03372
1619.29528,0.03393
1617.23511,0.03429
1615.17494,0.03495
1613.11477,0.03590
1611.05460,0.03720
1608.99442,0.03889
1606.93425,0.04035
1604.87408,0.04084
1602.81391,0.04024
1600.75373,0.03884
1598.69356,0.03699
1596.63339,0.03517
1594.57322,0.03362
1592.51305,0.03237
1590.45287,0.03148
1588.39270,0.03082
1586.33253,0.02995
1584.27236,0.02880
1582.21219,0.02786
1580.15201,0.02733
1578.09184,0.02670
1576.03167,0.02572
1573.97150,0.02499
1571.91133,0.02451
1569.85115,0.02363
1567.79098,0.02237
1565.73081,0.02154
1563.67064,0.02135
1561.61046,0.02137
1559.55029,0.02056
1557.49012,0.01850
1555.42995,0.01704
1553.36978,0.01644
1551.30960,0.01583
1549.24943,0.01485
1547.18926,0.01366
1545.12909,0.01243
1543.06892,0.01157
1541.00874,0.01126
1538.94857,0.01085
1536.88840,0.01017
1534.82823,0.00943
1532.76805,0.00851
1530.70788,0.00759
1528.64771,0.00692
1526.58754,0.00673
1524.52737,0.00731
1522.46719,0.00867
1520.40702,0.01060
1518.34685,0.01244
1516.28668,0.01358
1514.22651,0.01374
1512.16633,0.01306
1510.10616,0.01166
1508.04599,0.00926
1505.98582,0.00659
1503.92565,0.00529
1501.86547,0.00473
1499.80530,0.00409
1497.74513,0.00343
1495.68496,0.00290
1493.62478,0.00251
1491.56461,0.00222
1489.50444,0.00167
1487.44427,0.00102
1485.38410,0.00095
1483.32392,0.00141
1481.26375,0.00196
1479.20358,0.00244
1477.14341,0.00314
1475.08324,0.00455
1473.02306,0.00671
1470.96289,0.00900
1468.90272,0.01114
1466.84255,0.01340
1464.78238,0.01559
1462.72220,0.01709
1460.66203,0.01790
1458.60186,0.01852
1456.54169,0.01923
1454.48151,0.01995
1452.42134,0.02072
1450.36117,0.02186
1448.30100,0.02325
1446.24083,0.02438
1444.18065,0.02511
1442.12048,0.02583
1440.06031,0.02677
1438.00014,0.02779
1435.93997,0.02849
1433.87979,0.02862
1431.81962,0.02848
1429.75945,0.02833
1427.69928,0.02837
1425.63910,0.02868
1423.57893,0.02917
1421.51876,0.02967
1419.45859,0.02988
1417.39842,0.02960
1415.33824,0.02907
1413.27807,0.02854
1411.21790,0.02800
1409.15773,0.02740
1407.09756,0.02661
1405.03738,0.02563
1402.97721,0.02465
1400.91704,0.02395
1398.85687,0.02367
1396.79670,0.02356
1394.73652,0.02294
1392.67635,0.02188
1390.61618,0.02118
1388.55601,0.02129
1386.49583,0.02201
1384.43566,0.02276
1382.37549,0.02338
1380.31532,0.02414
1378.25515,0.02498
1376.19497,0.02566
1374.13480,0.02612
1372.07463,0.02650
1370.01446,0.02673
1367.95429,0.02657
1365.89411,0.02597
1363.83394,0.02521
1361.77377,0.02458
1359.71360,0.02424
1357.65343,0.02413
1355.59325,0.02408
1353.53308,0.02405
1351.47291,0.02404
1349.41274,0.02382
1347.35256,0.02337
1345.29239,0.02300
1343.23222,0.02294
1341.17205,0.02315
1339.11188,0.02335
1337.05170,0.02337
1334.99153,0.02337
1332.93136,0.02338
1330.87119,0.02334
1328.81102,0.02340
1326.75084,0.02365
1324.69067,0.02398
1322.63050,0.02408
1320.57033,0.02374
1318.51015,0.02330
1316.44998,0.02313
1314.38981,0.02317
1312.32964,0.02317
1310.26947,0.02276
1308.20929,0.02185
1306.14912,0.02087
1304.08895,0.02013
1302.02878,0.01957
1299.96861,0.01919
1297.90843,0.01899
1295.84826,0.01876
1293.78809,0.01855
1291.72792,0.01871
1289.66775,0.01896
1287.60757,0.01905
1285.54740,0.01931
1283.48723,0.01971
1281.42706,0.01988
1279.36688,0.01995
1277.30671,0.02023
1275.24654,0.02052
1273.18637,0.02070
1271.12620,0.02108
1269.06602,0.02171
1267.00585,0.02243
1264.94568,0.02321
1262.88551,0.02406
1260.82534,0.02486
1258.76516,0.02561
1256.70499,0.02634
1254.64482,0.02685
1252.58465,0.02734
1250.52447,0.02800
1248.46430,0.02861
1246.40413,0.02912
1244.34396,0.02948
1242.28379,0.02934
1240.22361,0.02883
1238.16344,0.02849
1236.10327,0.02840
1234.04310,0.02814
1231.98293,0.02759
1229.92275,0.02679
1227.86258,0.02565
1225.80241,0.02433
1223.74224,0.02300
1221.68207,0.02158
1219.62189,0.02005
1217.56172,0.01855
1215.50155,0.01719
1213.44138,0.01585
1211.38120,0.01445
1209.32103,0.01307
1207.26086,0.01179
1205.20069,0.01039
1203.14052,0.00891
1201.08034,0.00748
1199.02017,0.00585
1196.96000,0.00412
1194.89983,0.00286
1192.83966,0.00211
1190.77948,0.00137
1188.71931,0.00066
1186.65914,0.00019
1184.59897,0.00000
1182.53880,0.00017
1180.47862,0.00092
1178.41845,0.00204
1176.35828,0.00334
1174.29811,0.00527
1172.23793,0.00773
1170.17776,0.01007
1168.11759,0.01209
1166.05742,0.01343
1163.99725,0.01395
1161.93707,0.01435
1159.87690,0.01514
1157.81673,0.01605
1155.75656,0.01689
1153.69639,0.01772
1151.63621,0.01861
1149.57604,0.01967
1147.51587,0.02096
1145.45570,0.02233
1143.39552,0.02341
1141.33535,0.02430
1139.27518,0.02520
1137.21501,0.02583
1135.15484,0.02633
1133.09466,0.02685
1131.03449,0.02742
1128.97432,0.02838
1126.91415,0.02983
1124.85398,0.03167
1122.79380,0.03351
1120.73363,0.03491
1118.67346,0.03596
1116.61329,0.03699
1114.55312,0.03807
1112.49294,0.03911
1110.43277,0.04012
1108.37260,0.04107
1106.31243,0.04192
1104.25225,0.04300
1102.19208,0.04470
1100.13191,0.04690
1098.07174,0.04911
1096.01157,0.05103
1093.95139,0.05295
1091.89122,0.05505
1089.83105,0.05713
1087.77088,0.05911
1085.71071,0.06102
1083.65053,0.06307
1081.59036,0.06518
1079.53019,0.06696
1077.47002,0.06887
1075.40985,0.07142
1073.34967,0.07396
1071.28950,0.07594
1069.22933,0.07779
1067.16916,0.07941
1065.10898,0.08071
1063.04881,0.08211
1060.98864,0.08357
1058.92847,0.08499
1056.86830,0.08638
1054.80812,0.08808
1052.74795,0.09048
1050.68778,0.09317
1048.62761,0.09589
1046.56744,0.09877
1044.50726,0.10160
1042.44709,0.10404
1040.38692,0.10612
1038.32675,0.10822
1036.26657,0.11012
1034.20640,0.11117
1032.14623,0.11157
1030.08606,0.11159
1028.02589,0.11140
1025.96571,0.11092
1023.90554,0.11013
1021.84537,0.10961
1019.78520,0.10934
1017.72503,0.10865
1015.66485,0.10802
1013.60468,0.10838
1011.54451,0.10918
1009.48434,0.10954
1007.42417,0.10939
1005.36399,0.10891
1003.30382,0.10836
1001.24365,0.10791
999.18348,0.10731
997.12330,0.10627
995.06313,0.10465
993.00296,0.10230
990.94279,0.09962
988.88262,0.09726
986.82244,0.09539
984.76227,0.09402
982.70210,0.09271
980.64193,0.09084
978.58176,0.08870
976.52158,0.08720
974.46141,0.08629
972.40124,0.08506
970.34107,0.08331
968.28089,0.08143
966.22072,0.07943
964.16055,0.07719
962.10038,0.07515
960.04021,0.07341
957.98003,0.07144
955.91986,0.06917
953.85969,0.06716
951.79952,0.06584
949.73935,0.06514
947.67917,0.06399
945.61900,0.06187
943.55883,0.05957
941.49866,0.05702
939.43849,0.05356
937.37831,0.04956
935.31814,0.04565
933.25797,0.04202
931.19780,0.03867
929.13762,0.03600
927.07745,0.03411
925.01728,0.03207
922.95711,0.02942
920.89694,0.02710
918.83676,0.02568
916.77659,0.02438
914.71642,0.02270
912.65625,0.02095
910.59608,0.01911
908.53590,0.01748
906.47573,0.01685
904.41556,0.01703
902.35539,0.01714
900.29522,0.01687
898.23504,0.01636
896.17487,0.01591
894.11470,0.01587
892.05453,0.01622
889.99435,0.01652
887.93418,0.01659
885.87401,0.01636
883.81384,0.01516
881.75367,0.01287
879.69349,0.01045
877.63332,0.00893
875.57315,0.00867
873.51298,0.00910
871.45281,0.00898
869.39263,0.00840
867.33246,0.00810
865.27229,0.00763
863.21212,0.00720
861.15194,0.00729
859.09177,0.00773
857.03160,0.00813
854.97143,0.00779
852.91126,0.00707
850.85108,0.00755
848.79091,0.00874
846.73074,0.00822
844.67057,0.00587
842.61040,0.00394
840.55022,0.00350
838.49005,0.00382
836.42988,0.00453
834.36971,0.00539
832.30954,0.00561
830.24936,0.00463
828.18919,0.00329
826.12902,0.00274
824.06885,0.00251
822.00867,0.00280
819.94850,0.00356
817.88833,0.00368
815.82816,0.00373
813.76799,0.00391
811.70781,0.00408
809.64764,0.00476
807.58747,0.00531
805.52730,0.00458
803.46713,0.00290
801.40695,0.00256
799.34678,0.00414
797.28661,0.00484
795.22644,0.00345
793.16627,0.00160
791.10609,0.00089
789.04592,0.00075
786.98575,0.00020
784.92558,0.00000
782.86540,-0.00013
780.80523,-0.00013
778.74506,0.00069
776.68489,0.00131
774.62472,0.00134
772.56454,0.00117
770.50437,0.00078
768.44420,0.00112
766.38403,0.00144
764.32386,0.00049
762.26368,0.00059
760.20351,0.00288
758.14334,0.00422
756.08317,0.00260
754.02299,0.00046
751.96282,0.00000
749.90265,0.00018
747.84248,0.00034
745.78231,0.00002
743.72213,-0.00039
741.66196,0.00011
739.60179,0.00084
737.54162,0.00120
735.48145,0.00149
733.42127,0.00076
731.36110,-0.00120
729.30093,-0.00221
727.24076,-0.00118
725.18059,0.00054
723.12041,0.00181
721.06024,0.00260
719.00007,0.00225
716.93990,0.00124
714.87972,0.00035
712.81955,0.00009
710.75938,0.00125
708.69921,0.00381
706.63904,0.00615
704.57886,0.00685
702.51869,0.00689
700.45852,0.00771
698.39835,0.00860
696.33818,0.00827
694.27800,0.00773
692.21783,0.00796
690.15766,0.00747
688.09749,0.00569
686.03731,0.00367
683.97714,0.00277
681.91697,0.00427
679.85680,0.00705
677.79663,0.00867
675.73645,0.00879
673.67628,0.00799
671.61611,0.00658
669.55594,0.00697
667.49577,0.00762
665.43559,0.00508
663.37542,0.00718
661.31525,0.01045
659.25508,0.01045
657.19491,0.00611
655.13473,0.00131
653.07456,0.00019
651.01439,0.00183
648.95422,0.00190
646.89404,0.00000
644.83387,-0.00123
642.77370,-0.00067
640.71353,0.00024
638.65336,0.00131
636.59318,0.00292
634.53301,0.00599
632.47284,0.00917
630.41267,0.00849
628.35250,0.00404
626.29232,0.00022
624.23215,-0.00191
622.17198,-0.00585
620.11181,-0.01030
618.05164,-0.01051
615.99146,-0.00476
613.93129,0.00115
611.87112,0.00038
609.81095,-0.00457
607.75077,-0.00652
605.69060,-0.00415
603.63043,-0.00207
601.57026,-0.00103
599.51009,0.00000
