3996.73391,0.00137
3994.67373,0.00140
3992.61356,0.00112
3990.55339,0.00033
3988.49322,0.00000
3986.43305,0.00052
3984.37287,0.00094
3982.31270,0.00095
3980.25253,0.00111
3978.19236,0.00154
3976.13219,0.00186
3974.07201,0.00194
3972.01184,0.00198
3969.95167,0.00192
3967.89150,0.00159
3965.83133,0.00116
3963.77115,0.00097
3961.71098,0.00127
3959.65081,0.00186
3957.59064,0.00227
3955.53046,0.00253
3953.47029,0.00278
3951.41012,0.00269
3949.34995,0.00219
3947.28978,0.00196
3945.22960,0.00230
3943.16943,0.00279
3941.10926,0.00307
3939.04909,0.00288
3936.98892,0.00238
3934.92874,0.00214
3932.86857,0.00226
3930.80840,0.00230
3928.74823,0.00204
3926.68805,0.00163
3924.62788,0.00141
3922.56771,0.00167
3920.50754,0.00224
3918.44737,0.00284
3916.38719,0.00327
3914.32702,0.00297
3912.26685,0.00193
3910.20668,0.00106
3908.14651,0.00090
3906.08633,0.00121
3904.02616,0.00177
3901.96599,0.00241
3899.90582,0.00264
3897.84565,0.00218
3895.78547,0.00151
3893.72530,0.00131
3891.66513,0.00160
3889.60496,0.00188
3887.54478,0.00189
3885.48461,0.00160
3883.42444,0.00127
3881.36427,0.00145
3879.30410,0.00226
3877.24392,0.00312
3875.18375,0.00348
3873.12358,0.00301
3871.06341,0.00205
3869.00324,0.00146
3866.94306,0.00162
3864.88289,0.00201
3862.82272,0.00232
3860.76255,0.00248
3858.70237,0.00226
3856.64220,0.00190
3854.58203,0.00195
3852.52186,0.00216
3850.46169,0.00212
3848.40151,0.00227
3846.34134,0.00248
3844.28117,0.00214
3842.22100,0.00105
3840.16083,0.00000
3838.10065,0.00036
3836.04048,0.00167
3833.98031,0.00233
3831.92014,0.00247
3829.85997,0.00250
3827.79979,0.00209
3825.73962,0.00156
3823.67945,0.00173
3821.61928,0.00253
3819.55910,0.00304
3817.49893,0.00286
3815.43876,0.00262
3813.37859,0.00281
3811.31842,0.00325
3809.25824,0.00373
3807.19807,0.00431
3805.13790,0.00464
3803.07773,0.00438
3801.01756,0.00398
3798.95738,0.00390
3796.89721,0.00374
3794.83704,0.00328
3792.77687,0.00288
3790.71670,0.00242
3788.65652,0.00160
3786.59635,0.00108
3784.53618,0.00152
3782.47601,0.00213
3780.41583,0.00211
3778.35566,0.00226
3776.29549,0.00304
3774.23532,0.00356
3772.17515,0.00339
3770.11497,0.00259
3768.05480,0.00143
3765.99463,0.00092
3763.93446,0.00142
3761.87429,0.00212
3759.81411,0.00242
3757.75394,0.00218
3755.69377,0.00165
3753.63360,0.00157
3751.57342,0.00247
3749.51325,0.00335
3747.45308,0.00308
3745.39291,0.00278
3743.33274,0.00322
3741.27256,0.00351
3739.21239,0.00315
3737.15222,0.00201
3735.09205,0.00046
3733.03188,0.00000
3730.97170,0.00090
3728.91153,0.00222
3726.85136,0.00332
3724.79119,0.00369
3722.73102,0.00334
3720.67084,0.00280
3718.61067,0.00246
3716.55050,0.00235
3714.49033,0.00218
3712.43015,0.00192
3710.36998,0.00193
3708.30981,0.00252
3706.24964,0.00310
3704.18947,0.00299
3702.12929,0.00241
3700.06912,0.00204
3698.00895,0.00189
3695.94878,0.00173
3693.88861,0.00174
3691.82843,0.00205
3689.76826,0.00251
3687.70809,0.00293
3685.64792,0.00322
3683.58775,0.00350
3681.52757,0.00362
3679.46740,0.00338
3677.40723,0.00305
3675.34706,0.00273
3673.28688,0.00235
3671.22671,0.00230
3669.16654,0.00282
3667.10637,0.00330
3665.04620,0.00340
3662.98602,0.00333
3660.92585,0.00314
3658.86568,0.00302
3656.80551,0.00341
3654.74534,0.00402
3652.68516,0.00358
3650.62499,0.00188
3648.56482,0.00108
3646.50465,0.00252
3644.44447,0.00425
3642.38430,0.00536
3640.32413,0.00593
3638.26396,0.00598
3636.20379,0.00575
3634.14361,0.00559
3632.08344,0.00568
3630.02327,0.00606
3627.96310,0.00636
3625.90293,0.00623
3623.84275,0.00609
3621.78258,0.00634
3619.72241,0.00682
3617.66224,0.00718
3615.60207,0.00745
3613.54189,0.00797
3611.48172,0.00872
3609.42155,0.00937
3607.36138,0.00940
3605.30120,0.00882
3603.24103,0.00835
3601.18086,0.00818
3599.12069,0.00824
3597.06052,0.00873
3595.00034,0.00950
3592.94017,0.01013
3590.88000,0.01028
3588.81983,0.00999
3586.75966,0.01002
3584.69948,0.01039
3582.63931,0.01065
3580.57914,0.01110
3578.51897,0.01164
3576.45879,0.01188
3574.39862,0.01216
3572.33845,0.01268
3570.27828,0.01313
3568.21811,0.01328
3566.15793,0.01331
3564.09776,0.01371
3562.03759,0.01446
3559.97742,0.01507
3557.91725,0.01527
3555.85707,0.01535
3553.79690,0.01563
3551.73673,0.01622
3549.67656,0.01688
3547.61639,0.01729
3545.55621,0.01763
3543.49604,0.01813
3541.43587,0.01854
3539.37570,0.01878
3537.31552,0.01932
3535.25535,0.02028
3533.19518,0.02098
3531.13501,0.02117
3529.07484,0.02129
3527.01466,0.02153
3524.95449,0.02195
3522.89432,0.02258
3520.83415,0.02312
3518.77398,0.02334
3516.71380,0.02356
3514.65363,0.02420
3512.59346,0.02515
3510.53329,0.02569
3508.47312,0.02559
3506.41294,0.02551
3504.35277,0.02593
3502.29260,0.02662
3500.23243,0.02727
3498.17225,0.02791
3496.11208,0.02866
3494.05191,0.02938
3491.99174,0.02985
3489.93157,0.03016
3487.87139,0.03039
3485.81122,0.03050
3483.75105,0.03053
3481.69088,0.03078
3479.63071,0.03174
3477.57053,0.03319
3475.51036,0.03399
3473.45019,0.03383
3471.39002,0.03377
3469.32984,0.03432
3467.26967,0.03498
3465.20950,0.03563
3463.14933,0.03621
3461.08916,0.03644
3459.02898,0.03651
3456.96881,0.03691
3454.90864,0.03760
3452.84847,0.03796
3450.78830,0.03798
3448.72812,0.03828
3446.66795,0.03902
3444.60778,0.03968
3442.54761,0.04000
3440.48744,0.04000
3438.42726,0.03992
3436.36709,0.04009
3434.30692,0.04035
3432.24675,0.04065
3430.18657,0.04129
3428.12640,0.04221
3426.06623,0.04310
3424.00606,0.04355
3421.94589,0.04362
3419.88571,0.04392
3417.82554,0.04437
3415.76537,0.04451
3413.70520,0.04458
3411.64503,0.04485
3409.58485,0.04517
3407.52468,0.04563
3405.46451,0.04644
3403.40434,0.04714
3401.34416,0.04733
3399.28399,0.04727
3397.22382,0.04721
3395.16365,0.04735
3393.10348,0.04767
3391.04330,0.04776
3388.98313,0.04753
3386.92296,0.04746
3384.86279,0.04790
3382.80262,0.04859
3380.74244,0.04895
3378.68227,0.04900
3376.62210,0.04927
3374.56193,0.04985
3372.50176,0.05055
3370.44158,0.05131
3368.38141,0.05172
3366.32124,0.05125
3364.26107,0.05033
3362.20089,0.04996
3360.14072,0.05006
3358.08055,0.05012
3356.02038,0.05029
3353.96021,0.05071
3351.90003,0.05130
3349.83986,0.05177
3347.77969,0.05164
3345.71952,0.05133
3343.65935,0.05177
3341.59917,0.05269
3339.53900,0.05308
3337.47883,0.05286
3335.41866,0.05294
3333.35849,0.05356
3331.29831,0.05396
3329.23814,0.05362
3327.17797,0.05277
3325.11780,0.05206
3323.05762,0.05207
3320.99745,0.05291
3318.93728,0.05375
3316.87711,0.05372
3314.81694,0.05330
3312.75676,0.05336
3310.69659,0.05362
3308.63642,0.05361
3306.57625,0.05365
3304.51608,0.05391
3302.45590,0.05431
3300.39573,0.05456
3298.33556,0.05452
3296.27539,0.05465
3294.21521,0.05494
3292.15504,0.05472
3290.09487,0.05414
3288.03470,0.05388
3285.97453,0.05386
3283.91435,0.05401
3281.85418,0.05429
3279.79401,0.05428
3277.73384,0.05409
3275.67367,0.05407
3273.61349,0.05414
3271.55332,0.05407
3269.49315,0.05373
3267.43298,0.05345
3265.37281,0.05357
3263.31263,0.05367
3261.25246,0.05335
3259.19229,0.05308
3257.13212,0.05305
3255.07194,0.05277
3253.01177,0.05235
3250.95160,0.05236
3248.89143,0.05261
3246.83126,0.05269
3244.77108,0.05269
3242.71091,0.05278
3240.65074,0.05289
3238.59057,0.05277
3236.53040,0.05231
3234.47022,0.05186
3232.41005,0.05192
3230.34988,0.05226
3228.28971,0.05227
3226.22954,0.05202
3224.16936,0.05168
3222.10919,0.05140
3220.04902,0.05143
3217.98885,0.05147
3215.92867,0.05128
3213.86850,0.05102
3211.80833,0.05059
3209.74816,0.05021
3207.68799,0.05000
3205.62781,0.04964
3203.56764,0.04925
3201.50747,0.04929
3199.44730,0.04983
3197.38713,0.05025
3195.32695,0.04980
3193.26678,0.04891
3191.20661,0.04844
3189.14644,0.04826
3187.08626,0.04795
3185.02609,0.04760
3182.96592,0.04727
3180.90575,0.04691
3178.84558,0.04668
3176.78540,0.04659
3174.72523,0.04646
3172.66506,0.04598
3170.60489,0.04521
3168.54472,0.04459
3166.48454,0.04428
3164.42437,0.04427
3162.36420,0.04457
3160.30403,0.04476
3158.24386,0.04417
3156.18368,0.04315
3154.12351,0.04257
3152.06334,0.04261
3150.00317,0.04273
3147.94299,0.04234
3145.88282,0.04177
3143.82265,0.04168
3141.76248,0.04203
3139.70231,0.04205
3137.64213,0.04155
3135.58196,0.04107
3133.52179,0.04075
3131.46162,0.04049
3129.40145,0.04028
3127.34127,0.03983
3125.28110,0.03907
3123.22093,0.03873
3121.16076,0.03901
3119.10058,0.03898
3117.04041,0.03831
3114.98024,0.03765
3112.92007,0.03722
3110.85990,0.03693
3108.79972,0.03683
3106.73955,0.03665
3104.67938,0.03629
3102.61921,0.03600
3100.55904,0.03573
3098.49886,0.03538
3096.43869,0.03516
3094.37852,0.03492
3092.31835,0.03462
3090.25818,0.03450
3088.19800,0.03442
3086.13783,0.03418
3084.07766,0.03375
3082.01749,0.03335
3079.95731,0.03314
3077.89714,0.03291
3075.83697,0.03247
3073.77680,0.03195
3071.71663,0.03164
3069.65645,0.03162
3067.59628,0.03146
3065.53611,0.03105
3063.47594,0.03083
3061.41577,0.03081
3059.35559,0.03064
3057.29542,0.03020
3055.23525,0.02977
3053.17508,0.02964
3051.11491,0.02977
3049.05473,0.02984
3046.99456,0.02940
3044.93439,0.02861
3042.87422,0.02815
3040.81404,0.02812
3038.75387,0.02826
3036.69370,0.02833
3034.63353,0.02822
3032.57336,0.02795
3030.51318,0.02758
3028.45301,0.02734
3026.39284,0.02735
3024.33267,0.02715
3022.27250,0.02674
3020.21232,0.02661
3018.15215,0.02668
3016.09198,0.02672
3014.03181,0.02672
3011.97163,0.02650
3009.91146,0.02597
3007.85129,0.02518
3005.79112,0.02441
3003.73095,0.02409
3001.67077,0.02409
2999.61060,0.02417
2997.55043,0.02426
2995.49026,0.02440
2993.43009,0.02460
2991.36991,0.02452
2989.30974,0.02418
2987.24957,0.02401
2985.18940,0.02390
2983.12923,0.02394
2981.06905,0.02441
2979.00888,0.02510
2976.94871,0.02582
2974.88854,0.02658
2972.82836,0.02735
2970.76819,0.02817
2968.70802,0.02938
2966.64785,0.03086
2964.58768,0.03216
2962.52750,0.03336
2960.46733,0.03460
2958.40716,0.03593
2956.34699,0.03737
2954.28682,0.03902
2952.22664,0.04078
2950.16647,0.04255
2948.10630,0.04453
2946.04613,0.04664
2943.98596,0.04880
2941.92578,0.05130
2939.86561,0.05391
2937.80544,0.05619
2935.74527,0.05836
2933.68509,0.06078
2931.62492,0.06330
2929.56475,0.06574
2927.50458,0.06797
2925.44441,0.06951
2923.38423,0.06999
2921.32406,0.06971
2919.26389,0.06921
2917.20372,0.06849
2915.14355,0.06694
2913.08337,0.06439
2911.02320,0.06141
2908.96303,0.05885
2906.90286,0.05694
2904.84268,0.05535
2902.78251,0.05391
2900.72234,0.05247
2898.66217,0.05103
2896.60200,0.04984
2894.54182,0.04893
2892.48165,0.04797
2890.42148,0.04659
2888.36131,0.04510
2886.30114,0.04402
2884.24096,0.04311
2882.18079,0.04225
2880.12062,0.04181
2878.06045,0.04171
2876.00028,0.04178
2873.94010,0.04228
2871.87993,0.04299
2869.81976,0.04347
2867.75959,0.04379
2865.69941,0.04439
2863.63924,0.04544
2861.57907,0.04686
2859.51890,0.04867
2857.45873,0.05064
2855.39855,0.05248
2853.33838,0.05400
2851.27821,0.05454
2849.21804,0.05346
2847.15787,0.05077
2845.09769,0.04734
2843.03752,0.04414
2840.97735,0.04136
2838.91718,0.03879
2836.85700,0.03686
2834.79683,0.03583
2832.73666,0.03498
2830.67649,0.03384
2828.61632,0.03258
2826.55614,0.03145
2824.49597,0.03058
2822.43580,0.02996
2820.37563,0.02948
2818.31546,0.02905
2816.25528,0.02849
2814.19511,0.02780
2812.13494,0.02734
2810.07477,0.02717
2808.01460,0.02687
2805.95442,0.02636
2803.89425,0.02600
2801.83408,0.02588
2799.77391,0.02566
2797.71373,0.02525
2795.65356,0.02485
2793.59339,0.02471
2791.53322,0.02468
2789.47305,0.02452
2787.41287,0.02415
2785.35270,0.02386
2783.29253,0.02405
2781.23236,0.02431
2779.17219,0.02395
2777.11201,0.02341
2775.05184,0.02328
2772.99167,0.02328
2770.93150,0.02307
2768.87133,0.02287
2766.81115,0.02280
2764.75098,0.02285
2762.69081,0.02309
2760.63064,0.02337
2758.57046,0.02330
2756.51029,0.02280
2754.45012,0.02225
2752.38995,0.02199
2750.32978,0.02186
2748.26960,0.02187
2746.20943,0.02207
2744.14926,0.02213
2742.08909,0.02202
2740.02892,0.02184
2737.96874,0.02157
2735.90857,0.02136
2733.84840,0.02119
2731.78823,0.02110
2729.72805,0.02116
2727.66788,0.02122
2725.60771,0.02110
2723.54754,0.02112
2721.48737,0.02128
2719.42719,0.02120
2717.36702,0.02105
2715.30685,0.02095
2713.24668,0.02066
2711.18651,0.02035
2709.12633,0.02029
2707.06616,0.02034
2705.00599,0.02029
2702.94582,0.02023
2700.88565,0.02028
2698.82547,0.02043
2696.76530,0.02047
2694.70513,0.02026
2692.64496,0.02003
2690.58478,0.02008
2688.52461,0.02010
2686.46444,0.01995
2684.40427,0.01992
2682.34410,0.01994
2680.28392,0.01992
2678.22375,0.02000
2676.16358,0.02011
2674.10341,0.02008
2672.04324,0.01982
2669.98306,0.01947
2667.92289,0.01946
2665.86272,0.01967
2663.80255,0.01961
2661.74238,0.01928
2659.68220,0.01876
2657.62203,0.01827
2655.56186,0.01818
2653.50169,0.01828
2651.44151,0.01850
2649.38134,0.01891
2647.32117,0.01922
2645.26100,0.01906
2643.20083,0.01852
2641.14065,0.01818
2639.08048,0.01807
2637.02031,0.01776
2634.96014,0.01733
2632.89997,0.01720
2630.83979,0.01731
2628.77962,0.01741
2626.71945,0.01760
2624.65928,0.01788
2622.59910,0.01807
2620.53893,0.01787
2618.47876,0.01739
2616.41859,0.01723
2614.35842,0.01747
2612.29824,0.01759
2610.23807,0.01738
2608.17790,0.01702
2606.11773,0.01662
2604.05756,0.01616
2601.99738,0.01593
2599.93721,0.01591
2597.87704,0.01558
2595.81687,0.01510
2593.75670,0.01519
2591.69652,0.01579
2589.63635,0.01607
2587.57618,0.01592
2585.51601,0.01547
2583.45583,0.01460
2581.39566,0.01388
2579.33549,0.01407
2577.27532,0.01494
2575.21515,0.01556
2573.15497,0.01570
2571.09480,0.01504
2569.03463,0.01363
2566.97446,0.01311
2564.91429,0.01391
2562.85411,0.01461
2560.79394,0.01482
2558.73377,0.01529
2556.67360,0.01551
2554.61342,0.01436
2552.55325,0.01307
2550.49308,0.01317
2548.43291,0.01383
2546.37274,0.01408
2544.31256,0.01421
2542.25239,0.01451
2540.19222,0.01456
2538.13205,0.01417
2536.07188,0.01384
2534.01170,0.01372
2531.95153,0.01366
2529.89136,0.01378
2527.83119,0.01420
2525.77102,0.01483
2523.71084,0.01509
2521.65067,0.01447
2519.59050,0.01374
2517.53033,0.01346
2515.47015,0.01296
2513.40998,0.01281
2511.34981,0.01359
2509.28964,0.01427
2507.22947,0.01417
2505.16929,0.01382
2503.10912,0.01358
2501.04895,0.01320
2498.98878,0.01265
2496.92861,0.01255
2494.86843,0.01302
2492.80826,0.01342
2490.74809,0.01340
2488.68792,0.01289
2486.62775,0.01228
2484.56757,0.01231
2482.50740,0.01274
2480.44723,0.01315
2478.38706,0.01329
2476.32688,0.01296
2474.26671,0.01259
2472.20654,0.01228
2470.14637,0.01208
2468.08620,0.01256
2466.02602,0.01311
2463.96585,0.01308
2461.90568,0.01312
2459.84551,0.01295
2457.78534,0.01214
2455.72516,0.01159
2453.66499,0.01180
2451.60482,0.01222
2449.54465,0.01228
2447.48447,0.01196
2445.42430,0.01165
2443.36413,0.01164
2441.30396,0.01154
2439.24379,0.01101
2437.18361,0.01091
2435.12344,0.01141
2433.06327,0.01174
2431.00310,0.01188
2428.94293,0.01175
2426.88275,0.01135
2424.82258,0.01113
2422.76241,0.01091
2420.70224,0.01106
2418.64207,0.01205
2416.58189,0.01269
2414.52172,0.01241
2412.46155,0.01215
2410.40138,0.01200
2408.34120,0.01154
2406.28103,0.01115
2404.22086,0.01119
2402.16069,0.01158
2400.10052,0.01181
2398.04034,0.01139
2395.98017,0.01087
2393.92000,0.01084
2391.85983,0.01129
2389.79966,0.01155
2387.73948,0.01112
2385.67931,0.01032
2383.61914,0.00982
2381.55897,0.01006
2379.49880,0.01096
2377.43862,0.01196
2375.37845,0.01225
2373.31828,0.01139
2371.25811,0.01004
2369.19793,0.00931
2367.13776,0.00887
2365.07759,0.00689
2363.01742,0.00375
2360.95725,0.00272
2358.89707,0.00441
2356.83690,0.00638
2354.77673,0.00789
2352.71656,0.00928
2350.65639,0.01039
2348.59621,0.01053
2346.53604,0.00948
2344.47587,0.00822
2342.41570,0.00745
2340.35552,0.00710
2338.29535,0.00833
2336.23518,0.01070
2334.17501,0.01163
2332.11484,0.01068
2330.05466,0.00968
2327.99449,0.00972
2325.93432,0.01065
2323.87415,0.01192
2321.81398,0.01295
2319.75380,0.01335
2317.69363,0.01290
2315.63346,0.01224
2313.57329,0.01175
2311.51312,0.01082
2309.45294,0.00953
2307.39277,0.00921
2305.33260,0.01018
2303.27243,0.01085
2301.21225,0.01031
2299.15208,0.00956
2297.09191,0.00942
2295.03174,0.00939
2292.97157,0.00910
2290.91139,0.00905
2288.85122,0.00949
2286.79105,0.01007
2284.73088,0.01062
2282.67071,0.01083
2280.61053,0.01019
2278.55036,0.00913
2276.49019,0.00886
2274.43002,0.00947
2272.36984,0.00954
2270.30967,0.00839
2268.24950,0.00716
2266.18933,0.00723
2264.12916,0.00836
2262.06898,0.00908
2260.00881,0.00901
2257.94864,0.00890
2255.88847,0.00939
2253.82830,0.01019
2251.76812,0.01024
2249.70795,0.00990
2247.64778,0.01088
2245.58761,0.01206
2243.52744,0.01155
2241.46726,0.01025
2239.40709,0.00915
2237.34692,0.00888
2235.28675,0.00967
2233.22657,0.00961
2231.16640,0.00868
2229.10623,0.00867
2227.04606,0.00808
2224.98589,0.00698
2222.92571,0.00789
2220.86554,0.00919
2218.80537,0.00871
2216.74520,0.00732
2214.68503,0.00577
2212.62485,0.00556
2210.56468,0.00699
2208.50451,0.00738
2206.44434,0.00589
2204.38417,0.00485
2202.32399,0.00591
2200.26382,0.00755
2198.20365,0.00802
2196.14348,0.00759
2194.08330,0.00728
2192.02313,0.00760
2189.96296,0.00830
2187.90279,0.01016
2185.84262,0.01207
2183.78244,0.01128
2181.72227,0.00977
2179.66210,0.00919
2177.60193,0.00802
2175.54176,0.00727
2173.48158,0.00863
2171.42141,0.01112
2169.36124,0.01144
2167.30107,0.00889
2165.24089,0.00741
2163.18072,0.00801
2161.12055,0.00676
2159.06038,0.00345
2157.00021,0.00321
2154.94003,0.00599
2152.87986,0.00733
2150.81969,0.00630
2148.75952,0.00497
2146.69935,0.00401
2144.63917,0.00435
2142.57900,0.00668
2140.51883,0.00880
2138.45866,0.00960
2136.39849,0.00920
2134.33831,0.00791
2132.27814,0.00702
2130.21797,0.00758
2128.15780,0.00953
2126.09762,0.01136
2124.03745,0.01136
2121.97728,0.01021
2119.91711,0.00967
2117.85694,0.00939
2115.79676,0.00857
2113.73659,0.00813
2111.67642,0.00866
2109.61625,0.00932
2107.55608,0.00929
2105.49590,0.00834
2103.43573,0.00778
2101.37556,0.00872
2099.31539,0.00921
2097.25521,0.00827
2095.19504,0.00747
2093.13487,0.00718
2091.07470,0.00675
2089.01453,0.00659
2086.95435,0.00699
2084.89418,0.00769
2082.83401,0.00846
2080.77384,0.00874
2078.71367,0.00826
2076.65349,0.00710
2074.59332,0.00546
2072.53315,0.00461
2070.47298,0.00515
2068.41281,0.00612
2066.35263,0.00645
2064.29246,0.00639
2062.23229,0.00729
2060.17212,0.00858
2058.11194,0.00868
2056.05177,0.00803
2053.99160,0.00798
2051.93143,0.00792
2049.87126,0.00705
2047.81108,0.00703
2045.75091,0.00780
2043.69074,0.00778
2041.63057,0.00827
2039.57040,0.00887
2037.51022,0.00677
2035.45005,0.00275
2033.38988,0.00000
2031.32971,0.00014
2029.26954,0.00237
2027.20936,0.00420
2025.14919,0.00438
2023.08902,0.00318
2021.02885,0.00194
2018.96867,0.00255
2016.90850,0.00345
2014.84833,0.00335
2012.78816,0.00382
2010.72799,0.00430
2008.66781,0.00474
2006.60764,0.00600
2004.54747,0.00645
2002.48730,0.00481
2000.42713,0.00260
1998.36695,0.00210
1996.30678,0.00262
1994.24661,0.00278
1992.18644,0.00384
1990.12626,0.00616
1988.06609,0.00692
1986.00592,0.00526
1983.94575,0.00432
1981.88558,0.00563
1979.82540,0.00666
1977.76523,0.00596
1975.70506,0.00436
1973.64489,0.00262
1971.58472,0.00211
1969.52454,0.00348
1967.46437,0.00582
1965.40420,0.00758
1963.34403,0.00717
1961.28386,0.00480
1959.22368,0.00334
1957.16351,0.00403
1955.10334,0.00486
1953.04317,0.00490
1950.98299,0.00456
1948.92282,0.00376
1946.86265,0.00309
1944.80248,0.00393
1942.74231,0.00552
1940.68213,0.00546
1938.62196,0.00414
1936.56179,0.00341
1934.50162,0.00373
1932.44145,0.00493
1930.38127,0.00618
1928.32110,0.00583
1926.26093,0.00416
1924.20076,0.00326
1922.14059,0.00334
1920.08041,0.00309
1918.02024,0.00277
1915.96007,0.00320
1913.89990,0.00387
1911.83972,0.00415
1909.77955,0.00421
1907.71938,0.00471
1905.65921,0.00547
1903.59904,0.00538
1901.53886,0.00445
1899.47869,0.00334
1897.41852,0.00229
1895.35835,0.00215
1893.29818,0.00313
1891.23800,0.00351
1889.17783,0.00265
1887.11766,0.00208
1885.05749,0.00248
1882.99731,0.00342
1880.93714,0.00415
1878.87697,0.00392
1876.81680,0.00322
1874.75663,0.00307
1872.69645,0.00326
1870.63628,0.00321
1868.57611,0.00312
1866.51594,0.00344
1864.45577,0.00394
1862.39559,0.00391
1860.33542,0.00320
1858.27525,0.00247
1856.21508,0.00244
1854.15491,0.00302
1852.09473,0.00354
1850.03456,0.00354
1847.97439,0.00290
1845.91422,0.00187
1843.85404,0.00125
1841.79387,0.00153
1839.73370,0.00201
1837.67353,0.00200
1835.61336,0.00180
1833.55318,0.00195
1831.49301,0.00211
1829.43284,0.00179
1827.37267,0.00136
1825.31250,0.00134
1823.25232,0.00137
1821.19215,0.00115
1819.13198,0.00101
1817.07181,0.00120
1815.01163,0.00153
1812.95146,0.00148
1810.89129,0.00108
1808.83112,0.00114
1806.77095,0.00165
1804.71077,0.00172
1802.65060,0.00130
1800.59043,0.00106
1798.53026,0.00112
1796.47009,0.00097
1794.40991,0.00038
1792.34974,0.00000
1790.28957,0.00029
1788.22940,0.00063
1786.16923,0.00059
1784.10905,0.00040
1782.04888,0.00021
1779.98871,0.00002
1777.92854,0.00003
1775.86836,0.00009
1773.80819,-0.00004
1771.74802,-0.00001
1769.68785,0.00033
1767.62768,0.00063
1765.56750,0.00116
1763.50733,0.00219
1761.44716,0.00358
1759.38699,0.00500
1757.32682,0.00633
1755.26664,0.00757
1753.20647,0.00856
1751.14630,0.00962
1749.08613,0.01134
1747.02596,0.01343
1744.96578,0.01502
1742.90561,0.01602
1740.84544,0.01683
1738.78527,0.01745
1736.72509,0.01776
1734.66492,0.01782
1732.60475,0.01758
1730.54458,0.01708
1728.48441,0.01668
1726.42423,0.01680
1724.36406,0.01715
1722.30389,0.01713
1720.24372,0.01677
1718.18355,0.01673
1716.12337,0.01731
1714.06320,0.01778
1712.00303,0.01779
1709.94286,0.01752
1707.88268,0.01722
1705.82251,0.01710
1703.76234,0.01685
1701.70217,0.01620
1699.64200,0.01588
1697.58182,0.01661
1695.52165,0.01778
1693.46148,0.01861
1691.40131,0.01931
1689.34114,0.02035
1687.28096,0.02166
1685.22079,0.02366
1683.16062,0.02677
1681.10045,0.02939
1679.04028,0.03089
1676.98010,0.03209
1674.91993,0.03335
1672.85976,0.03408
1670.79959,0.03389
1668.73941,0.03332
1666.67924,0.03287
1664.61907,0.03226
1662.55890,0.03151
1660.49873,0.03115
1658.43855,0.03103
1656.37838,0.03067
1654.31821,0.03000
1652.25804,0.02937
1650.19787,0.02902
1648.13769,0.02903
1646.07752,0.02924
1644.01735,0.02927
1641.95718,0.02943
1639.89701,0.03005
1637.83683,0.03080
1635.77666,0.03137
1633.71649,0.03207
1631.65632,0.03294
1629.59614,0.03348
1627.53597,0.03353
1625.47580,0.03354
1623.41563,0.03377
1621.35546,0.03400
1619.29528,0.03425
1617.23511,0.03470
1615.17494,0.03547
1613.11477,0.03666
1611.05460,0.03827
1608.99442,0.04007
1606.93425,0.04136
1604.87408,0.04154
1602.81391,0.04070
1600.75373,0.03934
1598.69356,0.03793
1596.63339,0.03658
1594.57322,0.03511
1592.51305,0.03357
1590.45287,0.03231
1588.39270,0.03144
1586.33253,0.03062
1584.27236,0.02953
1582.21219,0.02844
1580.15201,0.02772
1578.09184,0.02699
1576.03167,0.02596
1573.97150,0.02528
1571.91133,0.02490
1569.85115,0.02407
1567.79098,0.02283
1565.73081,0.02178
1563.67064,0.02116
1561.61046,0.02086
1559.55029,0.01991
1557.49012,0.01765
1555.42995,0.01589
1553.36978,0.01505
1551.30960,0.01447
1549.24943,0.01398
1547.18926,0.01342
1545.12909,0.01237
1543.06892,0.01092
1541.00874,0.00967
1538.94857,0.00900
1536.88840,0.00877
1534.82823,0.00844
1532.76805,0.00792
1530.70788,0.00750
1528.64771,0.00704
1526.58754,0.00654
1524.52737,0.00659
1522.46719,0.00765
1520.40702,0.00943
1518.34685,0.01111
1516.28668,0.01236
1514.22651,0.01286
1512.16633,0.01233
1510.10616,0.01087
1508.04599,0.00877
1505.98582,0.00675
1503.92565,0.00547
1501.86547,0.00438
1499.80530,0.00322
1497.74513,0.00228
1495.68496,0.00173
1493.62478,0.00137
1491.56461,0.00110
1489.50444,0.00088
1487.44427,0.00087
1485.38410,0.00111
1483.32392,0.00138
1481.26375,0.00160
1479.20358,0.00193
1477.14341,0.00266
1475.08324,0.00407
1473.02306,0.00622
1470.96289,0.00871
1468.90272,0.01110
1466.84255,0.01338
1464.78238,0.01545
1462.72220,0.01676
1460.66203,0.01722
1458.60186,0.01767
1456.54169,0.01881
1454.48151,0.02005
1452.42134,0.02103
1450.36117,0.02204
1448.30100,0.02317
1446.24083,0.02420
1444.18065,0.02503
1442.12048,0.02579
1440.06031,0.02650
1438.00014,0.02722
1435.93997,0.02796
1433.87979,0.02842
1431.81962,0.02854
1429.75945,0.02860
1427.69928,0.02878
1425.63910,0.02902
1423.57893,0.02923
1421.51876,0.02928
1419.45859,0.02921
1417.39842,0.02925
1415.33824,0.02927
1413.27807,0.02904
1411.21790,0.02863
1409.15773,0.02811
1407.09756,0.02729
1405.03738,0.02610
1402.97721,0.02491
1400.91704,0.02413
1398.85687,0.02374
1396.79670,0.02336
1394.73652,0.02262
1392.67635,0.02182
1390.61618,0.02144
1388.55601,0.02160
1386.49583,0.02224
1384.43566,0.02301
1382.37549,0.02365
1380.31532,0.02440
1378.25515,0.02543
1376.19497,0.02638
1374.13480,0.02682
1372.07463,0.02681
1370.01446,0.02664
1367.95429,0.02642
1365.89411,0.02602
1363.83394,0.02542
1361.77377,0.02486
1359.71360,0.02453
1357.65343,0.02430
1355.59325,0.02413
1353.53308,0.02419
1351.47291,0.02433
1349.41274,0.02427
1347.35256,0.02402
1345.29239,0.02371
1343.23222,0.02340
1341.17205,0.02319
1339.11188,0.02300
1337.05170,0.02275
1334.99153,0.02270
1332.93136,0.02292
1330.87119,0.02320
1328.81102,0.02356
1326.75084,0.02398
1324.69067,0.02419
1322.63050,0.02396
1320.57033,0.02347
1318.51015,0.02316
1316.44998,0.02311
1314.38981,0.02310
1312.32964,0.02306
1310.26947,0.02277
1308.20929,0.02211
1306.14912,0.02132
1304.08895,0.02057
1302.02878,0.01983
1299.96861,0.01916
1297.90843,0.01873
1295.84826,0.01858
1293.78809,0.01856
1291.72792,0.01870
1289.66775,0.01888
1287.60757,0.01903
1285.54740,0.01931
1283.48723,0.01964
1281.42706,0.01978
1279.36688,0.01998
1277.30671,0.02046
1275.24654,0.02082
1273.18637,0.02094
1271.12620,0.02126
1269.06602,0.02176
1267.00585,0.02223
1264.94568,0.02297
1262.88551,0.02406
1260.82534,0.02506
1258.76516,0.02606
1256.70499,0.02696
1254.64482,0.02735
1252.58465,0.02766
1250.52447,0.02818
1248.46430,0.02865
1246.40413,0.02912
1244.34396,0.02951
1242.28379,0.02957
1240.22361,0.02943
1238.16344,0.02918
1236.10327,0.02875
1234.04310,0.02815
1231.98293,0.02740
1229.92275,0.02646
1227.86258,0.02533
1225.80241,0.02406
1223.74224,0.02265
1221.68207,0.02130
1219.62189,0.02008
1217.56172,0.01884
1215.50155,0.01744
1213.44138,0.01589
1211.38120,0.01428
1209.32103,0.01277
1207.26086,0.01145
1205.20069,0.01015
1203.14052,0.00881
1201.08034,0.00745
1199.02017,0.00596
1196.96000,0.00431
1194.89983,0.00275
1192.83966,0.00162
1190.77948,0.00090
1188.71931,0.00037
1186.65914,0.00000
1184.59897,-0.00017
1182.53880,0.00001
1180.47862,0.00068
1178.41845,0.00185
1176.35828,0.00326
1174.29811,0.00502
1172.23793,0.00727
1170.17776,0.00976
1168.11759,0.01187
1166.05742,0.01309
1163.99725,0.01384
1161.93707,0.01466
1159.87690,0.01541
1157.81673,0.01589
1155.75656,0.01659
1153.69639,0.01782
1151.63621,0.01906
1149.57604,0.01998
1147.51587,0.02104
1145.45570,0.02253
1143.39552,0.02381
1141.33535,0.02453
1139.27518,0.02509
1137.21501,0.02580
1135.15484,0.02665
1133.09466,0.02757
1131.03449,0.02842
1128.97432,0.02916
1126.91415,0.03008
1124.85398,0.03155
1122.79380,0.03344
1120.73363,0.03508
1118.67346,0.03633
1116.61329,0.03752
1114.55312,0.03849
1112.49294,0.03914
1110.43277,0.04006
1108.37260,0.04144
1106.31243,0.04295
1104.25225,0.04453
1102.19208,0.04624
1100.13191,0.04804
1098.07174,0.04984
1096.01157,0.05174
1093.95139,0.05382
1091.89122,0.05593
1089.83105,0.05816
1087.77088,0.06050
1085.71071,0.06253
1083.65053,0.06426
1081.59036,0.06630
1079.53019,0.06861
1077.47002,0.07091
1075.40985,0.07352
1073.34967,0.07585
1071.28950,0.07745
1069.22933,0.07923
1067.16916,0.08136
1065.10898,0.08305
1063.04881,0.08445
1060.98864,0.08598
1058.92847,0.08729
1056.86830,0.08847
1054.80812,0.09015
1052.74795,0.09255
1050.68778,0.09544
1048.62761,0.09846
1046.56744,0.10128
1044.50726,0.10406
1042.44709,0.10697
1040.38692,0.10954
1038.32675,0.11143
1036.26657,0.11274
1034.20640,0.11341
1032.14623,0.11378
1030.08606,0.11426
1028.02589,0.11454
1025.96571,0.11422
1023.90554,0.11331
1021.84537,0.11253
1019.78520,0.11250
1017.72503,0.11238
1015.66485,0.11170
1013.60468,0.11155
1011.54451,0.11205
1009.48434,0.11208
1007.42417,0.11149
1005.36399,0.11094
1003.30382,0.11043
1001.24365,0.10960
999.18348,0.10850
997.12330,0.10716
995.06313,0.10554
993.00296,0.10365
990.94279,0.10146
988.88262,0.09935
986.82244,0.09795
984.76227,0.09699
982.70210,0.09573
980.64193,0.09393
978.58176,0.09178
976.52158,0.08976
974.46141,0.08828
972.40124,0.08689
970.34107,0.08494
968.28089,0.08293
966.22072,0.08086
964.16055,0.07806
962.10038,0.07568
960.04021,0.07473
957.98003,0.07358
955.91986,0.07146
953.85969,0.06981
951.79952,0.06866
949.73935,0.06739
947.67917,0.06606
945.61900,0.06439
943.55883,0.06218
941.49866,0.05909
939.43849,0.05480
937.37831,0.05046
935.31814,0.04711
933.25797,0.04404
931.19780,0.04065
929.13762,0.03748
927.07745,0.03503
925.01728,0.03309
922.95711,0.03092
920.89694,0.02848
918.83676,0.02642
916.77659,0.02479
914.71642,0.02337
912.65625,0.02198
910.59608,0.02037
908.53590,0.01878
906.47573,0.01801
904.41556,0.01809
902.35539,0.01785
900.29522,0.01699
898.23504,0.01671
896.17487,0.01706
894.11470,0.01720
892.05453,0.01728
889.99435,0.01711
887.93418,0.01670
885.87401,0.01636
883.81384,0.01519
881.75367,0.01283
879.69349,0.01073
877.63332,0.01019
875.57315,0.01013
873.51298,0.00942
871.45281,0.00883
869.39263,0.00879
867.33246,0.00861
865.27229,0.00798
863.21212,0.00780
861.15194,0.00802
859.09177,0.00792
857.03160,0.00769
854.97143,0.00724
852.91126,0.00678
850.85108,0.00716
848.79091,0.00801
846.73074,0.00791
844.67057,0.00640
842.61040,0.00493
840.55022,0.00440
838.49005,0.00421
836.42988,0.00450
834.36971,0.00508
832.30954,0.00513
830.24936,0.00468
828.18919,0.00435
826.12902,0.00439
824.06885,0.00416
822.00867,0.00380
819.94850,0.00345
817.88833,0.00264
815.82816,0.00191
813.76799,0.00193
811.70781,0.00303
809.64764,0.00458
807.58747,0.00502
805.52730,0.00416
803.46713,0.00320
801.40695,0.00272
799.34678,0.00268
797.28661,0.00287
795.22644,0.00195
793.16627,0.00000
791.10609,-0.00026
789.04592,0.00106
786.98575,0.00128
784.92558,0.00054
782.86540,-0.00005
780.80523,-0.00012
778.74506,0.00025
776.68489,0.00087
774.62472,0.00203
772.56454,0.00287
770.50437,0.00257
768.44420,0.00226
766.38403,0.00230
764.32386,0.00186
762.26368,0.00148
760.20351,0.00138
758.14334,0.00120
756.08317,0.00139
754.02299,0.00175
751.96282,0.00169
749.90265,0.00146
747.84248,0.00094
745.78231,0.00000
743.72213,-0.00041
741.66196,0.00057
739.60179,0.00118
737.54162,0.00079
735.48145,0.00069
733.42127,0.00079
731.36110,0.00006
729.30093,-0.00063
727.24076,0.00004
725.18059,0.00120
723.12041,0.00194
721.06024,0.00145
719.00007,0.00010
716.93990,0.00002
714.87972,0.00191
712.81955,0.00356
710.75938,0.00349
708.69921,0.00320
706.63904,0.00367
704.57886,0.00380
702.51869,0.00351
700.45852,0.00378
698.39835,0.00453
696.33818,0.00505
694.27800,0.00584
692.21783,0.00697
690.15766,0.00719
688.09749,0.00708
686.03731,0.00666
683.97714,0.00444
681.91697,0.00212
679.85680,0.00245
677.79663,0.00461
675.73645,0.00644
673.67628,0.00728
671.61611,0.00753
669.55594,0.00769
667.49577,0.00764
665.43559,0.00727
663.37542,0.00662
661.31525,0.00495
659.25508,0.00188
657.19491,-0.00194
655.13473,-0.00431
653.07456,-0.00272
651.01439,0.00154
648.95422,0.00395
646.89404,0.00405
644.83387,0.00428
642.77370,0.00363
640.71353,0.00146
638.65336,0.00000
636.59318,0.00116
634.53301,0.00619
632.47284,0.01185
630.41267,0.01318
628.35250,0.00991
626.29232,0.00504
624.23215,0.00023
622.17198,-0.00220
620.11181,0.00102
618.05164,0.00730
615.99146,0.00898
613.93129,0.00567
611.87112,0.00375
609.81095,0.00298
607.75077,-0.00143
605.69060,-0.00612
603.63043,-0.00485
601.57026,-0.00046
599.51009,0.00000
