3996.73391,0.00048
3994.67373,0.00048
3992.61356,0.00058
3990.55339,0.00036
3988.49322,0.00007
3986.43305,0.00000
3984.37287,0.00005
3982.31270,0.00029
3980.25253,0.00076
3978.19236,0.00132
3976.13219,0.00170
3974.07201,0.00188
3972.01184,0.00204
3969.95167,0.00188
3967.89150,0.00123
3965.83133,0.00066
3963.77115,0.00073
3961.71098,0.00124
3959.65081,0.00154
3957.59064,0.00146
3955.53046,0.00144
3953.47029,0.00187
3951.41012,0.00229
3949.34995,0.00200
3947.28978,0.00129
3945.22960,0.00100
3943.16943,0.00137
3941.10926,0.00198
3939.04909,0.00208
3936.98892,0.00159
3934.92874,0.00138
3932.86857,0.00184
3930.80840,0.00229
3928.74823,0.00223
3926.68805,0.00185
3924.62788,0.00149
3922.56771,0.00164
3920.50754,0.00225
3918.44737,0.00269
3916.38719,0.00269
3914.32702,0.00236
3912.26685,0.00189
3910.20668,0.00144
3908.14651,0.00104
3906.08633,0.00071
3904.02616,0.00057
3901.96599,0.00075
3899.90582,0.00118
3897.84565,0.00142
3895.78547,0.00127
3893.72530,0.00118
3891.66513,0.00134
3889.60496,0.00127
3887.54478,0.00082
3885.48461,0.00040
3883.42444,0.00057
3881.36427,0.00130
3879.30410,0.00185
3877.24392,0.00188
3875.18375,0.00189
3873.12358,0.00193
3871.06341,0.00171
3869.00324,0.00158
3866.94306,0.00183
3864.88289,0.00204
3862.82272,0.00204
3860.76255,0.00195
3858.70237,0.00155
3856.64220,0.00113
3854.58203,0.00149
3852.52186,0.00230
3850.46169,0.00251
3848.40151,0.00257
3846.34134,0.00265
3844.28117,0.00219
3842.22100,0.00103
3840.16083,0.00000
3838.10065,0.00049
3836.04048,0.00203
3833.98031,0.00282
3831.92014,0.00287
3829.85997,0.00264
3827.79979,0.00205
3825.73962,0.00159
3823.67945,0.00185
3821.61928,0.00271
3819.55910,0.00358
3817.49893,0.00378
3815.43876,0.00315
3813.37859,0.00248
3811.31842,0.00253
3809.25824,0.00304
3807.19807,0.00345
3805.13790,0.00350
3803.07773,0.00352
3801.01756,0.00393
3798.95738,0.00434
3796.89721,0.00408
3794.83704,0.00331
3792.77687,0.00255
3790.71670,0.00174
3788.65652,0.00083
3786.59635,0.00033
3784.53618,0.00056
3782.47601,0.00105
3780.41583,0.00150
3778.35566,0.00217
3776.29549,0.00292
3774.23532,0.00311
3772.17515,0.00275
3770.11497,0.00212
3768.05480,0.00128
3765.99463,0.00084
3763.93446,0.00124
3761.87429,0.00180
3759.81411,0.00193
3757.75394,0.00184
3755.69377,0.00181
3753.63360,0.00201
3751.57342,0.00250
3749.51325,0.00260
3747.45308,0.00159
3745.39291,0.00036
3743.33274,0.00040
3741.27256,0.00134
3739.21239,0.00177
3737.15222,0.00139
3735.09205,0.00055
3733.03188,0.00000
3730.97170,0.00040
3728.91153,0.00170
3726.85136,0.00288
3724.79119,0.00304
3722.73102,0.00263
3720.67084,0.00231
3718.61067,0.00229
3716.55050,0.00224
3714.49033,0.00190
3712.43015,0.00153
3710.36998,0.00133
3708.30981,0.00171
3706.24964,0.00210
3704.18947,0.00197
3702.12929,0.00169
3700.06912,0.00161
3698.00895,0.00151
3695.94878,0.00144
3693.88861,0.00180
3691.82843,0.00245
3689.76826,0.00294
3687.70809,0.00278
3685.64792,0.00224
3683.58775,0.00200
3681.52757,0.00231
3679.46740,0.00272
3677.40723,0.00292
3675.34706,0.00300
3673.28688,0.00273
3671.22671,0.00220
3669.16654,0.00206
3667.10637,0.00239
3665.04620,0.00275
3662.98602,0.00289
3660.92585,0.00268
3658.86568,0.00250
3656.80551,0.00303
3654.74534,0.00399
3652.68516,0.00417
3650.62499,0.00322
3648.56482,0.00243
3646.50465,0.00272
3644.44447,0.00360
3642.38430,0.00461
3640.32413,0.00510
3638.26396,0.00479
3636.20379,0.00433
3634.14361,0.00445
3632.08344,0.00539
3630.02327,0.00689
3627.96310,0.00771
3625.90293,0.00732
3623.84275,0.00682
3621.78258,0.00668
3619.72241,0.00660
3617.66224,0.00676
3615.60207,0.00741
3613.54189,0.00817
3611.48172,0.00872
3609.42155,0.00886
3607.36138,0.00862
3605.30120,0.00830
3603.24103,0.00799
3601.18086,0.00774
3599.12069,0.00777
3597.06052,0.00852
3595.00034,0.00968
3592.94017,0.01040
3590.88000,0.01021
3588.81983,0.00978
3586.75966,0.00995
3584.69948,0.01041
3582.63931,0.01051
3580.57914,0.01057
3578.51897,0.01089
3576.45879,0.01129
3574.39862,0.01167
3572.33845,0.01212
3570.27828,0.01276
3568.21811,0.01327
3566.15793,0.01337
3564.09776,0.01357
3562.03759,0.01404
3559.97742,0.01446
3557.91725,0.01464
3555.85707,0.01473
3553.79690,0.01505
3551.73673,0.01569
3549.67656,0.01644
3547.61639,0.01710
3545.55621,0.01772
3543.49604,0.01822
3541.43587,0.01858
3539.37570,0.01900
3537.31552,0.01947
3535.25535,0.01972
3533.19518,0.01974
3531.13501,0.01986
3529.07484,0.02031
3527.01466,0.02097
3524.95449,0.02155
3522.89432,0.02186
3520.83415,0.02206
3518.77398,0.02254
3516.71380,0.02329
3514.65363,0.02402
3512.59346,0.02446
3510.53329,0.02465
3508.47312,0.02487
3506.41294,0.02527
3504.35277,0.02580
3502.29260,0.02626
3500.23243,0.02649
3498.17225,0.02694
3496.11208,0.02803
3494.05191,0.02919
3491.99174,0.02983
3489.93157,0.03028
3487.87139,0.03058
3485.81122,0.03055
3483.75105,0.03054
3481.69088,0.03067
3479.63071,0.03102
3477.57053,0.03200
3475.51036,0.03319
3473.45019,0.03355
3471.39002,0.03331
3469.32984,0.03320
3467.26967,0.03333
3465.20950,0.03410
3463.14933,0.03531
3461.08916,0.03574
3459.02898,0.03573
3456.96881,0.03646
3454.90864,0.03754
3452.84847,0.03804
3450.78830,0.03807
3448.72812,0.03812
3446.66795,0.03835
3444.60778,0.03869
3442.54761,0.03923
3440.48744,0.03980
3438.42726,0.03988
3436.36709,0.03973
3434.30692,0.04010
3432.24675,0.04069
3430.18657,0.04107
3428.12640,0.04159
3426.06623,0.04216
3424.00606,0.04230
3421.94589,0.04230
3419.88571,0.04275
3417.82554,0.04348
3415.76537,0.04394
3413.70520,0.04426
3411.64503,0.04472
3409.58485,0.04508
3407.52468,0.04542
3405.46451,0.04605
3403.40434,0.04657
3401.34416,0.04653
3399.28399,0.04626
3397.22382,0.04622
3395.16365,0.04638
3393.10348,0.04660
3391.04330,0.04662
3388.98313,0.04653
3386.92296,0.04684
3384.86279,0.04769
3382.80262,0.04848
3380.74244,0.04863
3378.68227,0.04845
3376.62210,0.04858
3374.56193,0.04897
3372.50176,0.04945
3370.44158,0.04989
3368.38141,0.05016
3366.32124,0.05034
3364.26107,0.05022
3362.20089,0.04990
3360.14072,0.05000
3358.08055,0.05040
3356.02038,0.05069
3353.96021,0.05088
3351.90003,0.05121
3349.83986,0.05146
3347.77969,0.05122
3345.71952,0.05092
3343.65935,0.05139
3341.59917,0.05247
3339.53900,0.05311
3337.47883,0.05278
3335.41866,0.05231
3333.35849,0.05238
3331.29831,0.05262
3329.23814,0.05271
3327.17797,0.05256
3325.11780,0.05224
3323.05762,0.05218
3320.99745,0.05251
3318.93728,0.05264
3316.87711,0.05236
3314.81694,0.05213
3312.75676,0.05230
3310.69659,0.05264
3308.63642,0.05273
3306.57625,0.05264
3304.51608,0.05254
3302.45590,0.05265
3300.39573,0.05300
3298.33556,0.05333
3296.27539,0.05362
3294.21521,0.05367
3292.15504,0.05340
3290.09487,0.05308
3288.03470,0.05279
3285.97453,0.05271
3283.91435,0.05313
3281.85418,0.05373
3279.79401,0.05399
3277.73384,0.05397
3275.67367,0.05380
3273.61349,0.05335
3271.55332,0.05275
3269.49315,0.05221
3267.43298,0.05187
3265.37281,0.05189
3263.31263,0.05217
3261.25246,0.05230
3259.19229,0.05225
3257.13212,0.05221
3255.07194,0.05194
3253.01177,0.05161
3250.95160,0.05148
3248.89143,0.05136
3246.83126,0.05143
3244.77108,0.05174
3242.71091,0.05183
3240.65074,0.05164
3238.59057,0.05162
3236.53040,0.05183
3234.47022,0.05183
3232.41005,0.05184
3230.34988,0.05186
3228.28971,0.05154
3226.22954,0.05116
3224.16936,0.05088
3222.10919,0.05070
3220.04902,0.05077
3217.98885,0.05072
3215.92867,0.05039
3213.86850,0.05002
3211.80833,0.04965
3209.74816,0.04964
3207.68799,0.04985
3205.62781,0.04958
3203.56764,0.04902
3201.50747,0.04888
3199.44730,0.04907
3197.38713,0.04904
3195.32695,0.04868
3193.26678,0.04840
3191.20661,0.04819
3189.14644,0.04765
3187.08626,0.04686
3185.02609,0.04627
3182.96592,0.04595
3180.90575,0.04582
3178.84558,0.04568
3176.78540,0.04553
3174.72523,0.04551
3172.66506,0.04540
3170.60489,0.04520
3168.54472,0.04485
3166.48454,0.04415
3164.42437,0.04364
3162.36420,0.04366
3160.30403,0.04347
3158.24386,0.04260
3156.18368,0.04180
3154.12351,0.04159
3152.06334,0.04164
3150.00317,0.04157
3147.94299,0.04127
3145.88282,0.04096
3143.82265,0.04096
3141.76248,0.04091
3139.70231,0.04036
3137.64213,0.03968
3135.58196,0.03950
3133.52179,0.03960
3131.46162,0.03940
3129.40145,0.03900
3127.34127,0.03844
3125.28110,0.03777
3123.22093,0.03747
3121.16076,0.03750
3119.10058,0.03735
3117.04041,0.03680
3114.98024,0.03631
3112.92007,0.03606
3110.85990,0.03572
3108.79972,0.03539
3106.73955,0.03526
3104.67938,0.03519
3102.61921,0.03513
3100.55904,0.03484
3098.49886,0.03437
3096.43869,0.03403
3094.37852,0.03372
3092.31835,0.03356
3090.25818,0.03359
3088.19800,0.03339
3086.13783,0.03289
3084.07766,0.03233
3082.01749,0.03182
3079.95731,0.03146
3077.89714,0.03117
3075.83697,0.03089
3073.77680,0.03083
3071.71663,0.03074
3069.65645,0.03034
3067.59628,0.02982
3065.53611,0.02929
3063.47594,0.02903
3061.41577,0.02922
3059.35559,0.02941
3057.29542,0.02911
3055.23525,0.02849
3053.17508,0.02801
3051.11491,0.02786
3049.05473,0.02786
3046.99456,0.02763
3044.93439,0.02706
3042.87422,0.02655
3040.81404,0.02641
3038.75387,0.02659
3036.69370,0.02664
3034.63353,0.02637
3032.57336,0.02623
3030.51318,0.02616
3028.45301,0.02591
3026.39284,0.02569
3024.33267,0.02545
3022.27250,0.02517
3020.21232,0.02522
3018.15215,0.02534
3016.09198,0.02510
3014.03181,0.02472
3011.97163,0.02455
3009.91146,0.02439
3007.85129,0.02406
3005.79112,0.02367
3003.73095,0.02338
3001.67077,0.02323
2999.61060,0.02319
2997.55043,0.02315
2995.49026,0.02309
2993.43009,0.02299
2991.36991,0.02260
2989.30974,0.02218
2987.24957,0.02216
2985.18940,0.02227
2983.12923,0.02258
2981.06905,0.02332
2979.00888,0.02420
2976.94871,0.02486
2974.88854,0.02525
2972.82836,0.02567
2970.76819,0.02645
2968.70802,0.02763
2966.64785,0.02887
2964.58768,0.03006
2962.52750,0.03161
2960.46733,0.03324
2958.40716,0.03451
2956.34699,0.03586
2954.28682,0.03760
2952.22664,0.03940
2950.16647,0.04123
2948.10630,0.04320
2946.04613,0.04529
2943.98596,0.04759
2941.92578,0.05013
2939.86561,0.05268
2937.80544,0.05506
2935.74527,0.05724
2933.68509,0.05937
2931.62492,0.06166
2929.56475,0.06404
2927.50458,0.06601
2925.44441,0.06724
2923.38423,0.06798
2921.32406,0.06834
2919.26389,0.06814
2917.20372,0.06732
2915.14355,0.06563
2913.08337,0.06316
2911.02320,0.06051
2908.96303,0.05809
2906.90286,0.05608
2904.84268,0.05445
2902.78251,0.05303
2900.72234,0.05149
2898.66217,0.04984
2896.60200,0.04861
2894.54182,0.04760
2892.48165,0.04617
2890.42148,0.04445
2888.36131,0.04317
2886.30114,0.04256
2884.24096,0.04192
2882.18079,0.04085
2880.12062,0.04011
2878.06045,0.04005
2876.00028,0.04018
2873.94010,0.04048
2871.87993,0.04120
2869.81976,0.04197
2867.75959,0.04264
2865.69941,0.04343
2863.63924,0.04437
2861.57907,0.04570
2859.51890,0.04758
2857.45873,0.04963
2855.39855,0.05139
2853.33838,0.05272
2851.27821,0.05320
2849.21804,0.05207
2847.15787,0.04930
2845.09769,0.04570
2843.03752,0.04222
2840.97735,0.03928
2838.91718,0.03686
2836.85700,0.03517
2834.79683,0.03415
2832.73666,0.03311
2830.67649,0.03176
2828.61632,0.03040
2826.55614,0.02939
2824.49597,0.02876
2822.43580,0.02844
2820.37563,0.02815
2818.31546,0.02759
2816.25528,0.02690
2814.19511,0.02634
2812.13494,0.02598
2810.07477,0.02573
2808.01460,0.02529
2805.95442,0.02457
2803.89425,0.02412
2801.83408,0.02403
2799.77391,0.02393
2797.71373,0.02366
2795.65356,0.02316
2793.59339,0.02277
2791.53322,0.02281
2789.47305,0.02286
2787.41287,0.02269
2785.35270,0.02269
2783.29253,0.02298
2781.23236,0.02285
2779.17219,0.02214
2777.11201,0.02153
2775.05184,0.02133
2772.99167,0.02133
2770.93150,0.02123
2768.87133,0.02099
2766.81115,0.02082
2764.75098,0.02085
2762.69081,0.02103
2760.63064,0.02108
2758.57046,0.02094
2756.51029,0.02063
2754.45012,0.02034
2752.38995,0.02023
2750.32978,0.02005
2748.26960,0.02000
2746.20943,0.02021
2744.14926,0.02013
2742.08909,0.01975
2740.02892,0.01946
2737.96874,0.01920
2735.90857,0.01903
2733.84840,0.01911
2731.78823,0.01929
2729.72805,0.01939
2727.66788,0.01930
2725.60771,0.01929
2723.54754,0.01964
2721.48737,0.02002
2719.42719,0.02001
2717.36702,0.01973
2715.30685,0.01920
2713.24668,0.01863
2711.18651,0.01850
2709.12633,0.01853
2707.06616,0.01822
2705.00599,0.01790
2702.94582,0.01811
2700.88565,0.01865
2698.82547,0.01894
2696.76530,0.01879
2694.70513,0.01840
2692.64496,0.01809
2690.58478,0.01799
2688.52461,0.01803
2686.46444,0.01815
2684.40427,0.01811
2682.34410,0.01782
2680.28392,0.01754
2678.22375,0.01757
2676.16358,0.01769
2674.10341,0.01772
2672.04324,0.01775
2669.98306,0.01763
2667.92289,0.01764
2665.86272,0.01779
2663.80255,0.01760
2661.74238,0.01735
2659.68220,0.01728
2657.62203,0.01722
2655.56186,0.01710
2653.50169,0.01671
2651.44151,0.01629
2649.38134,0.01619
2647.32117,0.01635
2645.26100,0.01646
2643.20083,0.01626
2641.14065,0.01605
2639.08048,0.01595
2637.02031,0.01567
2634.96014,0.01535
2632.89997,0.01534
2630.83979,0.01549
2628.77962,0.01555
2626.71945,0.01558
2624.65928,0.01559
2622.59910,0.01549
2620.53893,0.01523
2618.47876,0.01499
2616.41859,0.01519
2614.35842,0.01578
2612.29824,0.01598
2610.23807,0.01548
2608.17790,0.01502
2606.11773,0.01474
2604.05756,0.01425
2601.99738,0.01382
2599.93721,0.01353
2597.87704,0.01335
2595.81687,0.01359
2593.75670,0.01411
2591.69652,0.01430
2589.63635,0.01385
2587.57618,0.01335
2585.51601,0.01332
2583.45583,0.01343
2581.39566,0.01325
2579.33549,0.01292
2577.27532,0.01294
2575.21515,0.01330
2573.15497,0.01337
2571.09480,0.01300
2569.03463,0.01254
2566.97446,0.01241
2564.91429,0.01256
2562.85411,0.01257
2560.79394,0.01246
2558.73377,0.01261
2556.67360,0.01285
2554.61342,0.01248
2552.55325,0.01198
2550.49308,0.01208
2548.43291,0.01223
2546.37274,0.01198
2544.31256,0.01174
2542.25239,0.01185
2540.19222,0.01191
2538.13205,0.01179
2536.07188,0.01180
2534.01170,0.01187
2531.95153,0.01173
2529.89136,0.01168
2527.83119,0.01200
2525.77102,0.01227
2523.71084,0.01217
2521.65067,0.01178
2519.59050,0.01128
2517.53033,0.01078
2515.47015,0.01029
2513.40998,0.01027
2511.34981,0.01078
2509.28964,0.01117
2507.22947,0.01120
2505.16929,0.01092
2503.10912,0.01056
2501.04895,0.01043
2498.98878,0.01034
2496.92861,0.01012
2494.86843,0.01007
2492.80826,0.01021
2490.74809,0.01024
2488.68792,0.00993
2486.62775,0.00965
2484.56757,0.00990
2482.50740,0.01041
2480.44723,0.01072
2478.38706,0.01050
2476.32688,0.00991
2474.26671,0.00959
2472.20654,0.00959
2470.14637,0.00987
2468.08620,0.01025
2466.02602,0.01031
2463.96585,0.01013
2461.90568,0.01019
2459.84551,0.01020
2457.78534,0.00975
2455.72516,0.00945
2453.66499,0.00967
2451.60482,0.00974
2449.54465,0.00945
2447.48447,0.00915
2445.42430,0.00910
2443.36413,0.00947
2441.30396,0.00963
2439.24379,0.00929
2437.18361,0.00931
2435.12344,0.00966
2433.06327,0.00954
2431.00310,0.00921
2428.94293,0.00896
2426.88275,0.00864
2424.82258,0.00861
2422.76241,0.00895
2420.70224,0.00932
2418.64207,0.00966
2416.58189,0.00951
2414.52172,0.00879
2412.46155,0.00847
2410.40138,0.00865
2408.34120,0.00855
2406.28103,0.00840
2404.22086,0.00868
2402.16069,0.00904
2400.10052,0.00911
2398.04034,0.00905
2395.98017,0.00910
2393.92000,0.00914
2391.85983,0.00894
2389.79966,0.00838
2387.73948,0.00776
2385.67931,0.00732
2383.61914,0.00713
2381.55897,0.00738
2379.49880,0.00830
2377.43862,0.00928
2375.37845,0.00967
2373.31828,0.00909
2371.25811,0.00855
2369.19793,0.00913
2367.13776,0.00945
2365.07759,0.00818
2363.01742,0.00659
2360.95725,0.00402
2358.89707,0.00458
2356.83690,0.00707
2354.77673,0.00881
2352.71656,0.00922
2350.65639,0.00651
2348.59621,0.00462
2346.53604,0.00827
2344.47587,0.00880
2342.41570,0.00723
2340.35552,0.00558
2338.29535,0.00510
2336.23518,0.00630
2334.17501,0.00719
2332.11484,0.00751
2330.05466,0.00726
2327.99449,0.00762
2325.93432,0.00776
2323.87415,0.00867
2321.81398,0.00943
2319.75380,0.01012
2317.69363,0.00941
2315.63346,0.00916
2313.57329,0.00948
2311.51312,0.00876
2309.45294,0.00732
2307.39277,0.00688
2305.33260,0.00753
2303.27243,0.00754
2301.21225,0.00678
2299.15208,0.00608
2297.09191,0.00609
2295.03174,0.00642
2292.97157,0.00634
2290.91139,0.00616
2288.85122,0.00660
2286.79105,0.00746
2284.73088,0.00803
2282.67071,0.00812
2280.61053,0.00766
2278.55036,0.00680
2276.49019,0.00638
2274.43002,0.00656
2272.36984,0.00628
2270.30967,0.00526
2268.24950,0.00438
2266.18933,0.00411
2264.12916,0.00444
2262.06898,0.00501
2260.00881,0.00543
2257.94864,0.00600
2255.88847,0.00714
2253.82830,0.00810
2251.76812,0.00799
2249.70795,0.00751
2247.64778,0.00769
2245.58761,0.00767
2243.52744,0.00730
2241.46726,0.00720
2239.40709,0.00679
2237.34692,0.00586
2235.28675,0.00548
2233.22657,0.00555
2231.16640,0.00531
2229.10623,0.00504
2227.04606,0.00445
2224.98589,0.00434
2222.92571,0.00551
2220.86554,0.00641
2218.80537,0.00629
2216.74520,0.00563
2214.68503,0.00476
2212.62485,0.00416
2210.56468,0.00433
2208.50451,0.00440
2206.44434,0.00366
2204.38417,0.00406
2202.32399,0.00600
2200.26382,0.00654
2198.20365,0.00570
2196.14348,0.00542
2194.08330,0.00567
2192.02313,0.00663
2189.96296,0.00764
2187.90279,0.00724
2185.84262,0.00600
2183.78244,0.00478
2181.72227,0.00413
2179.66210,0.00473
2177.60193,0.00487
2175.54176,0.00375
2173.48158,0.00438
2171.42141,0.00700
2169.36124,0.00748
2167.30107,0.00571
2165.24089,0.00568
2163.18072,0.00630
2161.12055,0.00440
2159.06038,0.00188
2157.00021,0.00142
2154.94003,0.00317
2152.87986,0.00460
2150.81969,0.00377
2148.75952,0.00209
2146.69935,0.00096
2144.63917,0.00138
2142.57900,0.00341
2140.51883,0.00507
2138.45866,0.00571
2136.39849,0.00573
2134.33831,0.00509
2132.27814,0.00447
2130.21797,0.00443
2128.15780,0.00555
2126.09762,0.00762
2124.03745,0.00862
2121.97728,0.00820
2119.91711,0.00738
2117.85694,0.00648
2115.79676,0.00551
2113.73659,0.00491
2111.67642,0.00494
2109.61625,0.00502
2107.55608,0.00491
2105.49590,0.00481
2103.43573,0.00487
2101.37556,0.00510
2099.31539,0.00523
2097.25521,0.00502
2095.19504,0.00469
2093.13487,0.00430
2091.07470,0.00404
2089.01453,0.00423
2086.95435,0.00429
2084.89418,0.00395
2082.83401,0.00387
2080.77384,0.00435
2078.71367,0.00475
2076.65349,0.00434
2074.59332,0.00377
2072.53315,0.00365
2070.47298,0.00322
2068.41281,0.00272
2066.35263,0.00230
2064.29246,0.00174
2062.23229,0.00250
2060.17212,0.00447
2058.11194,0.00530
2056.05177,0.00452
2053.99160,0.00437
2051.93143,0.00545
2049.87126,0.00586
2047.81108,0.00519
2045.75091,0.00404
2043.69074,0.00318
2041.63057,0.00394
2039.57040,0.00525
2037.51022,0.00449
2035.45005,0.00219
2033.38988,0.00044
2031.32971,0.00000
2029.26954,0.00076
2027.20936,0.00219
2025.14919,0.00348
2023.08902,0.00358
2021.02885,0.00312
2018.96867,0.00346
2016.90850,0.00294
2014.84833,0.00124
2012.78816,0.00175
2010.72799,0.00438
2008.66781,0.00627
2006.60764,0.00654
2004.54747,0.00520
2002.48730,0.00305
2000.42713,0.00155
1998.36695,0.00100
1996.30678,0.00083
1994.24661,0.00119
1992.18644,0.00282
1990.12626,0.00491
1988.06609,0.00564
1986.00592,0.00523
1983.94575,0.00507
1981.88558,0.00424
1979.82540,0.00201
1977.76523,0.00123
1975.70506,0.00283
1973.64489,0.00349
1971.58472,0.00278
1969.52454,0.00339
1967.46437,0.00523
1965.40420,0.00634
1963.34403,0.00557
1961.28386,0.00283
1959.22368,0.00108
1957.16351,0.00237
1955.10334,0.00377
1953.04317,0.00359
1950.98299,0.00333
1948.92282,0.00327
1946.86265,0.00296
1944.80248,0.00305
1942.74231,0.00333
1940.68213,0.00262
1938.62196,0.00159
1936.56179,0.00116
1934.50162,0.00132
1932.44145,0.00216
1930.38127,0.00317
1928.32110,0.00301
1926.26093,0.00186
1924.20076,0.00130
1922.14059,0.00148
1920.08041,0.00128
1918.02024,0.00101
1915.96007,0.00153
1913.89990,0.00222
1911.83972,0.00269
1909.77955,0.00296
1907.71938,0.00304
1905.65921,0.00334
1903.59904,0.00358
1901.53886,0.00303
1899.47869,0.00194
1897.41852,0.00136
1895.35835,0.00189
1893.29818,0.00287
1891.23800,0.00300
1889.17783,0.00190
1887.11766,0.00087
1885.05749,0.00093
1882.99731,0.00181
1880.93714,0.00279
1878.87697,0.00310
1876.81680,0.00263
1874.75663,0.00217
1872.69645,0.00224
1870.63628,0.00257
1868.57611,0.00264
1866.51594,0.00254
1864.45577,0.00247
1862.39559,0.00210
1860.33542,0.00147
1858.27525,0.00114
1856.21508,0.00133
1854.15491,0.00170
1852.09473,0.00184
1850.03456,0.00180
1847.97439,0.00180
1845.91422,0.00165
1843.85404,0.00132
1841.79387,0.00115
1839.73370,0.00126
1837.67353,0.00141
1835.61336,0.00145
1833.55318,0.00152
1831.49301,0.00152
1829.43284,0.00126
1827.37267,0.00108
1825.31250,0.00118
1823.25232,0.00123
1821.19215,0.00111
1819.13198,0.00090
1817.07181,0.00074
1815.01163,0.00077
1812.95146,0.00083
1810.89129,0.00082
1808.83112,0.00093
1806.77095,0.00118
1804.71077,0.00129
1802.65060,0.00117
1800.59043,0.00096
1798.53026,0.00083
1796.47009,0.00077
1794.40991,0.00043
1792.34974,0.00000
1790.28957,-0.00007
1788.22940,0.00001
1786.16923,-0.00007
1784.10905,-0.00012
1782.04888,0.00000
1779.98871,0.00015
1777.92854,0.00025
1775.86836,0.00028
1773.80819,0.00026
1771.74802,0.00036
1769.68785,0.00048
1767.62768,0.00055
1765.56750,0.00104
1763.50733,0.00216
1761.44716,0.00353
1759.38699,0.00474
1757.32682,0.00594
1755.26664,0.00730
1753.20647,0.00867
1751.14630,0.01021
1749.08613,0.01205
1747.02596,0.01381
1744.96578,0.01509
1742.90561,0.01591
1740.84544,0.01663
1738.78527,0.01745
1736.72509,0.01824
1734.66492,0.01869
1732.60475,0.01826
1730.54458,0.01732
1728.48441,0.01680
1726.42423,0.01687
1724.36406,0.01710
1722.30389,0.01716
1720.24372,0.01712
1718.18355,0.01740
1716.12337,0.01788
1714.06320,0.01791
1712.00303,0.01760
1709.94286,0.01738
1707.88268,0.01745
1705.82251,0.01781
1703.76234,0.01798
1701.70217,0.01761
1699.64200,0.01703
1697.58182,0.01711
1695.52165,0.01785
1693.46148,0.01852
1691.40131,0.01921
1689.34114,0.02054
1687.28096,0.02246
1685.22079,0.02491
1683.16062,0.02776
1681.10045,0.02982
1679.04028,0.03101
1676.98010,0.03204
1674.91993,0.03326
1672.85976,0.03433
1670.79959,0.03456
1668.73941,0.03388
1666.67924,0.03300
1664.61907,0.03217
1662.55890,0.03127
1660.49873,0.03055
1658.43855,0.03020
1656.37838,0.02977
1654.31821,0.02888
1652.25804,0.02814
1650.19787,0.02833
1648.13769,0.02891
1646.07752,0.02925
1644.01735,0.02923
1641.95718,0.02936
1639.89701,0.02992
1637.83683,0.03062
1635.77666,0.03122
1633.71649,0.03188
1631.65632,0.03267
1629.59614,0.03330
1627.53597,0.03363
1625.47580,0.03375
1623.41563,0.03387
1621.35546,0.03405
1619.29528,0.03431
1617.23511,0.03479
1615.17494,0.03553
1613.11477,0.03661
1611.05460,0.03819
1608.99442,0.04008
1606.93425,0.04147
1604.87408,0.04164
1602.81391,0.04065
1600.75373,0.03910
1598.69356,0.03762
1596.63339,0.03623
1594.57322,0.03466
1592.51305,0.03307
1590.45287,0.03190
1588.39270,0.03106
1586.33253,0.03021
1584.27236,0.02917
1582.21219,0.02818
1580.15201,0.02750
1578.09184,0.02673
1576.03167,0.02559
1573.97150,0.02477
1571.91133,0.02436
1569.85115,0.02361
1567.79098,0.02254
1565.73081,0.02163
1563.67064,0.02087
1561.61046,0.02013
1559.55029,0.01897
1557.49012,0.01739
1555.42995,0.01640
1553.36978,0.01573
1551.30960,0.01491
1549.24943,0.01393
1547.18926,0.01294
1545.12909,0.01201
1543.06892,0.01115
1541.00874,0.01023
1538.94857,0.00930
1536.88840,0.00879
1534.82823,0.00829
1532.76805,0.00744
1530.70788,0.00661
1528.64771,0.00606
1526.58754,0.00592
1524.52737,0.00644
1522.46719,0.00768
1520.40702,0.00963
1518.34685,0.01169
1516.28668,0.01297
1514.22651,0.01308
1512.16633,0.01238
1510.10616,0.01117
1508.04599,0.00919
1505.98582,0.00672
1503.92565,0.00510
1501.86547,0.00410
1499.80530,0.00319
1497.74513,0.00240
1495.68496,0.00185
1493.62478,0.00143
1491.56461,0.00105
1489.50444,0.00068
1487.44427,0.00037
1485.38410,0.00033
1483.32392,0.00059
1481.26375,0.00105
1479.20358,0.00160
1477.14341,0.00246
1475.08324,0.00409
1473.02306,0.00646
1470.96289,0.00887
1468.90272,0.01109
1466.84255,0.01340
1464.78238,0.01555
1462.72220,0.01688
1460.66203,0.01747
1458.60186,0.01822
1456.54169,0.01938
1454.48151,0.02018
1452.42134,0.02084
1450.36117,0.02182
1448.30100,0.02300
1446.24083,0.02407
1444.18065,0.02501
1442.12048,0.02592
1440.06031,0.02678
1438.00014,0.02756
1435.93997,0.02818
1433.87979,0.02850
1431.81962,0.02861
1429.75945,0.02870
1427.69928,0.02882
1425.63910,0.02903
1423.57893,0.02946
1421.51876,0.02998
1419.45859,0.03020
1417.39842,0.02990
1415.33824,0.02933
1413.27807,0.02871
1411.21790,0.02820
1409.15773,0.02785
1407.09756,0.02725
1405.03738,0.02608
1402.97721,0.02475
1400.91704,0.02390
1398.85687,0.02358
1396.79670,0.02322
1394.73652,0.02239
1392.67635,0.02153
1390.61618,0.02113
1388.55601,0.02140
1386.49583,0.02228
1384.43566,0.02311
1382.37549,0.02359
1380.31532,0.02412
1378.25515,0.02491
1376.19497,0.02568
1374.13480,0.02612
1372.07463,0.02630
1370.01446,0.02648
1367.95429,0.02650
1365.89411,0.02612
1363.83394,0.02558
1361.77377,0.02504
1359.71360,0.02446
1357.65343,0.02396
1355.59325,0.02371
1353.53308,0.02378
1351.47291,0.02394
1349.41274,0.02385
1347.35256,0.02349
1345.29239,0.02305
1343.23222,0.02273
1341.17205,0.02282
1339.11188,0.02325
1337.05170,0.02344
1334.99153,0.02328
1332.93136,0.02317
1330.87119,0.02332
1328.81102,0.02368
1326.75084,0.02400
1324.69067,0.02400
1322.63050,0.02376
1320.57033,0.02348
1318.51015,0.02320
1316.44998,0.02295
1314.38981,0.02278
1312.32964,0.02268
1310.26947,0.02243
1308.20929,0.02190
1306.14912,0.02112
1304.08895,0.02017
1302.02878,0.01936
1299.96861,0.01890
1297.90843,0.01861
1295.84826,0.01839
1293.78809,0.01830
1291.72792,0.01846
1289.66775,0.01865
1287.60757,0.01878
1285.54740,0.01908
1283.48723,0.01951
1281.42706,0.01987
1279.36688,0.02012
1277.30671,0.02031
1275.24654,0.02049
1273.18637,0.02062
1271.12620,0.02085
1269.06602,0.02130
1267.00585,0.02193
1264.94568,0.02284
1262.88551,0.02386
1260.82534,0.02456
1258.76516,0.02516
1256.70499,0.02605
1254.64482,0.02697
1252.58465,0.02761
1250.52447,0.02794
1248.46430,0.02829
1246.40413,0.02891
1244.34396,0.02935
1242.28379,0.02922
1240.22361,0.02885
1238.16344,0.02856
1236.10327,0.02817
1234.04310,0.02769
1231.98293,0.02716
1229.92275,0.02632
1227.86258,0.02503
1225.80241,0.02366
1223.74224,0.02239
1221.68207,0.02101
1219.62189,0.01937
1217.56172,0.01786
1215.50155,0.01674
1213.44138,0.01549
1211.38120,0.01391
1209.32103,0.01236
1207.26086,0.01086
1205.20069,0.00928
1203.14052,0.00784
1201.08034,0.00658
1199.02017,0.00525
1196.96000,0.00371
1194.89983,0.00220
1192.83966,0.00114
1190.77948,0.00043
1188.71931,0.00000
1186.65914,-0.00019
1184.59897,-0.00029
1182.53880,-0.00023
1180.47862,0.00030
1178.41845,0.00125
1176.35828,0.00261
1174.29811,0.00462
1172.23793,0.00709
1170.17776,0.00952
1168.11759,0.01146
1166.05742,0.01267
1163.99725,0.01358
1161.93707,0.01437
1159.87690,0.01492
1157.81673,0.01550
1155.75656,0.01637
1153.69639,0.01745
1151.63621,0.01857
1149.57604,0.01961
1147.51587,0.02065
1145.45570,0.02187
1143.39552,0.02308
1141.33535,0.02423
1139.27518,0.02540
1137.21501,0.02623
1135.15484,0.02679
1133.09466,0.02747
1131.03449,0.02825
1128.97432,0.02916
1126.91415,0.03044
1124.85398,0.03190
1122.79380,0.03332
1120.73363,0.03470
1118.67346,0.03610
1116.61329,0.03743
1114.55312,0.03856
1112.49294,0.03946
1110.43277,0.04049
1108.37260,0.04191
1106.31243,0.04335
1104.25225,0.04458
1102.19208,0.04598
1100.13191,0.04771
1098.07174,0.04962
1096.01157,0.05175
1093.95139,0.05408
1091.89122,0.05631
1089.83105,0.05838
1087.77088,0.06043
1085.71071,0.06235
1083.65053,0.06425
1081.59036,0.06643
1079.53019,0.06869
1077.47002,0.07096
1075.40985,0.07361
1073.34967,0.07626
1071.28950,0.07824
1069.22933,0.07989
1067.16916,0.08170
1065.10898,0.08341
1063.04881,0.08462
1060.98864,0.08565
1058.92847,0.08705
1056.86830,0.08901
1054.80812,0.09122
1052.74795,0.09327
1050.68778,0.09552
1048.62761,0.09850
1046.56744,0.10171
1044.50726,0.10458
1042.44709,0.10717
1040.38692,0.10937
1038.32675,0.11134
1036.26657,0.11314
1034.20640,0.11425
1032.14623,0.11472
1030.08606,0.11494
1028.02589,0.11516
1025.96571,0.11504
1023.90554,0.11417
1021.84537,0.11355
1019.78520,0.11360
1017.72503,0.11319
1015.66485,0.11246
1013.60468,0.11226
1011.54451,0.11246
1009.48434,0.11273
1007.42417,0.11279
1005.36399,0.11245
1003.30382,0.11152
1001.24365,0.11017
999.18348,0.10898
997.12330,0.10784
995.06313,0.10635
993.00296,0.10453
990.94279,0.10237
988.88262,0.10007
986.82244,0.09803
984.76227,0.09653
982.70210,0.09534
980.64193,0.09384
978.58176,0.09189
976.52158,0.08998
974.46141,0.08842
972.40124,0.08702
970.34107,0.08535
968.28089,0.08331
966.22072,0.08112
964.16055,0.07902
962.10038,0.07730
960.04021,0.07569
957.98003,0.07359
955.91986,0.07137
953.85969,0.06971
951.79952,0.06852
949.73935,0.06756
947.67917,0.06637
945.61900,0.06419
943.55883,0.06141
941.49866,0.05858
939.43849,0.05531
937.37831,0.05173
935.31814,0.04803
933.25797,0.04388
931.19780,0.03985
929.13762,0.03673
927.07745,0.03430
925.01728,0.03211
922.95711,0.03007
920.89694,0.02822
918.83676,0.02638
916.77659,0.02441
914.71642,0.02259
912.65625,0.02100
910.59608,0.01951
908.53590,0.01821
906.47573,0.01733
904.41556,0.01713
902.35539,0.01706
900.29522,0.01666
898.23504,0.01682
896.17487,0.01749
894.11470,0.01746
892.05453,0.01694
889.99435,0.01661
887.93418,0.01636
885.87401,0.01599
883.81384,0.01503
881.75367,0.01331
879.69349,0.01139
877.63332,0.00993
875.57315,0.00930
873.51298,0.00920
871.45281,0.00904
869.39263,0.00850
867.33246,0.00743
865.27229,0.00627
863.21212,0.00623
861.15194,0.00719
859.09177,0.00802
857.03160,0.00854
854.97143,0.00866
852.91126,0.00798
850.85108,0.00713
848.79091,0.00731
846.73074,0.00790
844.67057,0.00711
842.61040,0.00547
840.55022,0.00464
838.49005,0.00435
836.42988,0.00407
834.36971,0.00414
832.30954,0.00461
830.24936,0.00462
828.18919,0.00373
826.12902,0.00325
824.06885,0.00364
822.00867,0.00386
819.94850,0.00379
817.88833,0.00391
815.82816,0.00381
813.76799,0.00299
811.70781,0.00238
809.64764,0.00307
807.58747,0.00431
805.52730,0.00523
803.46713,0.00556
801.40695,0.00503
799.34678,0.00421
797.28661,0.00336
795.22644,0.00226
793.16627,0.00101
791.10609,0.00000
789.04592,-0.00024
786.98575,-0.00002
784.92558,-0.00035
782.86540,-0.00109
780.80523,-0.00157
778.74506,-0.00138
776.68489,-0.00058
774.62472,0.00032
772.56454,0.00081
770.50437,0.00055
768.44420,0.00038
766.38403,0.00070
764.32386,0.00011
762.26368,-0.00060
760.20351,-0.00000
758.14334,0.00078
756.08317,0.00081
754.02299,0.00049
751.96282,0.00000
749.90265,-0.00036
747.84248,-0.00025
745.78231,-0.00091
743.72213,-0.00207
741.66196,-0.00221
739.60179,-0.00202
737.54162,-0.00235
735.48145,-0.00222
733.42127,-0.00150
731.36110,-0.00159
729.30093,-0.00259
727.24076,-0.00287
725.18059,-0.00213
723.12041,-0.00097
721.06024,0.00041
719.00007,0.00024
716.93990,0.00043
714.87972,0.00174
712.81955,0.00200
710.75938,0.00106
708.69921,0.00109
706.63904,0.00224
704.57886,0.00229
702.51869,0.00114
700.45852,0.00077
698.39835,0.00132
696.33818,0.00182
694.27800,0.00241
692.21783,0.00292
690.15766,0.00311
688.09749,0.00292
686.03731,0.00137
683.97714,-0.00098
681.91697,-0.00106
679.85680,0.00110
677.79663,0.00224
675.73645,0.00233
673.67628,0.00131
671.61611,-0.00243
669.55594,-0.00101
667.49577,0.00333
665.43559,-0.00190
663.37542,0.00178
661.31525,0.00523
659.25508,0.00442
657.19491,0.00006
655.13473,-0.00459
653.07456,-0.00553
651.01439,-0.00270
648.95422,0.00000
646.89404,0.00019
644.83387,0.00138
642.77370,0.00400
640.71353,0.00538
638.65336,0.00362
636.59318,0.00184
634.53301,0.00408
632.47284,0.00697
630.41267,0.00540
628.35250,0.00185
626.29232,0.00070
624.23215,0.00082
622.17198,0.00279
620.11181,0.00583
618.05164,0.00511
615.99146,0.00164
613.93129,-0.00119
611.87112,-0.00188
609.81095,0.00033
607.75077,0.00033
605.69060,-0.00301
603.63043,-0.00460
601.57026,-0.00226
599.51009,0.00000
