3996.73391,0.00061
3994.67373,0.00043
3992.61356,0.00031
3990.55339,0.00007
3988.49322,0.00000
3986.43305,0.00032
3984.37287,0.00055
3982.31270,0.00057
3980.25253,0.00068
3978.19236,0.00091
3976.13219,0.00110
3974.07201,0.00110
3972.01184,0.00106
3969.95167,0.00103
3967.89150,0.00086
3965.83133,0.00069
3963.77115,0.00081
3961.71098,0.00123
3959.65081,0.00153
3957.59064,0.00148
3955.53046,0.00157
3953.47029,0.00201
3951.41012,0.00215
3949.34995,0.00171
3947.28978,0.00138
3945.22960,0.00140
3943.16943,0.00153
3941.10926,0.00168
3939.04909,0.00153
3936.98892,0.00107
3934.92874,0.00090
3932.86857,0.00122
3930.80840,0.00163
3928.74823,0.00167
3926.68805,0.00119
3924.62788,0.00062
3922.56771,0.00074
3920.50754,0.00147
3918.44737,0.00207
3916.38719,0.00239
3914.32702,0.00239
3912.26685,0.00187
3910.20668,0.00113
3908.14651,0.00051
3906.08633,0.00006
3904.02616,0.00000
3901.96599,0.00052
3899.90582,0.00119
3897.84565,0.00152
3895.78547,0.00138
3893.72530,0.00120
3891.66513,0.00139
3889.60496,0.00167
3887.54478,0.00153
3885.48461,0.00107
3883.42444,0.00081
3881.36427,0.00110
3879.30410,0.00175
3877.24392,0.00227
3875.18375,0.00239
3873.12358,0.00194
3871.06341,0.00114
3869.00324,0.00076
3866.94306,0.00102
3864.88289,0.00130
3862.82272,0.00148
3860.76255,0.00163
3858.70237,0.00149
3856.64220,0.00120
3854.58203,0.00116
3852.52186,0.00138
3850.46169,0.00157
3848.40151,0.00177
3846.34134,0.00195
3844.28117,0.00179
3842.22100,0.00103
3840.16083,0.00000
3838.10065,0.00007
3836.04048,0.00152
3833.98031,0.00279
3831.92014,0.00326
3829.85997,0.00299
3827.79979,0.00220
3825.73962,0.00167
3823.67945,0.00189
3821.61928,0.00243
3819.55910,0.00275
3817.49893,0.00267
3815.43876,0.00235
3813.37859,0.00222
3811.31842,0.00245
3809.25824,0.00280
3807.19807,0.00307
3805.13790,0.00320
3803.07773,0.00318
3801.01756,0.00337
3798.95738,0.00400
3796.89721,0.00442
3794.83704,0.00403
3792.77687,0.00312
3790.71670,0.00215
3788.65652,0.00130
3786.59635,0.00099
3784.53618,0.00162
3782.47601,0.00244
3780.41583,0.00268
3778.35566,0.00298
3776.29549,0.00384
3774.23532,0.00437
3772.17515,0.00407
3770.11497,0.00323
3768.05480,0.00227
3765.99463,0.00183
3763.93446,0.00209
3761.87429,0.00258
3759.81411,0.00287
3757.75394,0.00284
3755.69377,0.00272
3753.63360,0.00293
3751.57342,0.00338
3749.51325,0.00324
3747.45308,0.00235
3745.39291,0.00188
3743.33274,0.00262
3741.27256,0.00361
3739.21239,0.00364
3737.15222,0.00235
3735.09205,0.00057
3733.03188,0.00000
3730.97170,0.00097
3728.91153,0.00264
3726.85136,0.00397
3724.79119,0.00420
3722.73102,0.00369
3720.67084,0.00331
3718.61067,0.00331
3716.55050,0.00326
3714.49033,0.00278
3712.43015,0.00226
3710.36998,0.00232
3708.30981,0.00288
3706.24964,0.00327
3704.18947,0.00330
3702.12929,0.00336
3700.06912,0.00353
3698.00895,0.00351
3695.94878,0.00337
3693.88861,0.00324
3691.82843,0.00294
3689.76826,0.00266
3687.70809,0.00295
3685.64792,0.00351
3683.58775,0.00410
3681.52757,0.00449
3679.46740,0.00411
3677.40723,0.00318
3675.34706,0.00280
3673.28688,0.00296
3671.22671,0.00311
3669.16654,0.00356
3667.10637,0.00408
3665.04620,0.00424
3662.98602,0.00414
3660.92585,0.00387
3658.86568,0.00375
3656.80551,0.00421
3654.74534,0.00493
3652.68516,0.00484
3650.62499,0.00389
3648.56482,0.00326
3646.50465,0.00355
3644.44447,0.00428
3642.38430,0.00531
3640.32413,0.00619
3638.26396,0.00645
3636.20379,0.00618
3634.14361,0.00582
3632.08344,0.00601
3630.02327,0.00674
3627.96310,0.00718
3625.90293,0.00723
3623.84275,0.00735
3621.78258,0.00735
3619.72241,0.00715
3617.66224,0.00730
3615.60207,0.00796
3613.54189,0.00860
3611.48172,0.00860
3609.42155,0.00818
3607.36138,0.00827
3605.30120,0.00891
3603.24103,0.00923
3601.18086,0.00891
3599.12069,0.00869
3597.06052,0.00920
3595.00034,0.01015
3592.94017,0.01091
3590.88000,0.01118
3588.81983,0.01121
3586.75966,0.01154
3584.69948,0.01211
3582.63931,0.01251
3580.57914,0.01274
3578.51897,0.01285
3576.45879,0.01307
3574.39862,0.01361
3572.33845,0.01415
3570.27828,0.01444
3568.21811,0.01457
3566.15793,0.01470
3564.09776,0.01497
3562.03759,0.01537
3559.97742,0.01576
3557.91725,0.01604
3555.85707,0.01621
3553.79690,0.01645
3551.73673,0.01700
3549.67656,0.01769
3547.61639,0.01816
3545.55621,0.01866
3543.49604,0.01948
3541.43587,0.02012
3539.37570,0.02026
3537.31552,0.02033
3535.25535,0.02077
3533.19518,0.02129
3531.13501,0.02152
3529.07484,0.02172
3527.01466,0.02218
3524.95449,0.02277
3522.89432,0.02334
3520.83415,0.02384
3518.77398,0.02434
3516.71380,0.02504
3514.65363,0.02597
3512.59346,0.02681
3510.53329,0.02714
3508.47312,0.02679
3506.41294,0.02621
3504.35277,0.02615
3502.29260,0.02687
3500.23243,0.02788
3498.17225,0.02873
3496.11208,0.02943
3494.05191,0.02995
3491.99174,0.03036
3489.93157,0.03088
3487.87139,0.03129
3485.81122,0.03155
3483.75105,0.03205
3481.69088,0.03265
3479.63071,0.03320
3477.57053,0.03405
3475.51036,0.03481
3473.45019,0.03484
3471.39002,0.03469
3469.32984,0.03500
3467.26967,0.03543
3465.20950,0.03589
3463.14933,0.03667
3461.08916,0.03732
3459.02898,0.03761
3456.96881,0.03813
3454.90864,0.03886
3452.84847,0.03911
3450.78830,0.03912
3448.72812,0.03956
3446.66795,0.04013
3444.60778,0.04045
3442.54761,0.04084
3440.48744,0.04115
3438.42726,0.04122
3436.36709,0.04142
3434.30692,0.04173
3432.24675,0.04209
3430.18657,0.04274
3428.12640,0.04350
3426.06623,0.04393
3424.00606,0.04394
3421.94589,0.04400
3419.88571,0.04468
3417.82554,0.04558
3415.76537,0.04580
3413.70520,0.04576
3411.64503,0.04609
3409.58485,0.04662
3407.52468,0.04719
3405.46451,0.04761
3403.40434,0.04772
3401.34416,0.04773
3399.28399,0.04780
3397.22382,0.04807
3395.16365,0.04841
3393.10348,0.04868
3391.04330,0.04874
3388.98313,0.04851
3386.92296,0.04841
3384.86279,0.04893
3382.80262,0.04960
3380.74244,0.04980
3378.68227,0.04995
3376.62210,0.05055
3374.56193,0.05123
3372.50176,0.05173
3370.44158,0.05210
3368.38141,0.05226
3366.32124,0.05221
3364.26107,0.05196
3362.20089,0.05164
3360.14072,0.05172
3358.08055,0.05214
3356.02038,0.05233
3353.96021,0.05232
3351.90003,0.05268
3349.83986,0.05336
3347.77969,0.05341
3345.71952,0.05278
3343.65935,0.05267
3341.59917,0.05336
3339.53900,0.05389
3337.47883,0.05396
3335.41866,0.05417
3333.35849,0.05464
3331.29831,0.05501
3329.23814,0.05502
3327.17797,0.05470
3325.11780,0.05436
3323.05762,0.05421
3320.99745,0.05438
3318.93728,0.05447
3316.87711,0.05424
3314.81694,0.05408
3312.75676,0.05417
3310.69659,0.05436
3308.63642,0.05460
3306.57625,0.05491
3304.51608,0.05509
3302.45590,0.05518
3300.39573,0.05539
3298.33556,0.05556
3296.27539,0.05568
3294.21521,0.05557
3292.15504,0.05505
3290.09487,0.05449
3288.03470,0.05409
3285.97453,0.05393
3283.91435,0.05432
3281.85418,0.05506
3279.79401,0.05537
3277.73384,0.05507
3275.67367,0.05462
3273.61349,0.05431
3271.55332,0.05415
3269.49315,0.05408
3267.43298,0.05393
3265.37281,0.05393
3263.31263,0.05440
3261.25246,0.05473
3259.19229,0.05444
3257.13212,0.05390
3255.07194,0.05341
3253.01177,0.05322
3250.95160,0.05329
3248.89143,0.05335
3246.83126,0.05356
3244.77108,0.05382
3242.71091,0.05365
3240.65074,0.05331
3238.59057,0.05334
3236.53040,0.05348
3234.47022,0.05329
3232.41005,0.05302
3230.34988,0.05293
3228.28971,0.05283
3226.22954,0.05258
3224.16936,0.05229
3222.10919,0.05220
3220.04902,0.05224
3217.98885,0.05198
3215.92867,0.05167
3213.86850,0.05170
3211.80833,0.05159
3209.74816,0.05118
3207.68799,0.05084
3205.62781,0.05045
3203.56764,0.04997
3201.50747,0.04966
3199.44730,0.04960
3197.38713,0.04961
3195.32695,0.04954
3193.26678,0.04951
3191.20661,0.04950
3189.14644,0.04924
3187.08626,0.04863
3185.02609,0.04802
3182.96592,0.04773
3180.90575,0.04763
3178.84558,0.04735
3176.78540,0.04699
3174.72523,0.04704
3172.66506,0.04716
3170.60489,0.04678
3168.54472,0.04609
3166.48454,0.04557
3164.42437,0.04534
3162.36420,0.04532
3160.30403,0.04512
3158.24386,0.04442
3156.18368,0.04359
3154.12351,0.04296
3152.06334,0.04258
3150.00317,0.04252
3147.94299,0.04253
3145.88282,0.04239
3143.82265,0.04232
3141.76248,0.04219
3139.70231,0.04174
3137.64213,0.04133
3135.58196,0.04126
3133.52179,0.04122
3131.46162,0.04105
3129.40145,0.04083
3127.34127,0.04018
3125.28110,0.03918
3123.22093,0.03874
3121.16076,0.03910
3119.10058,0.03937
3117.04041,0.03876
3114.98024,0.03777
3112.92007,0.03724
3110.85990,0.03718
3108.79972,0.03716
3106.73955,0.03671
3104.67938,0.03605
3102.61921,0.03574
3100.55904,0.03573
3098.49886,0.03564
3096.43869,0.03534
3094.37852,0.03490
3092.31835,0.03461
3090.25818,0.03440
3088.19800,0.03404
3086.13783,0.03369
3084.07766,0.03348
3082.01749,0.03333
3079.95731,0.03316
3077.89714,0.03286
3075.83697,0.03246
3073.77680,0.03213
3071.71663,0.03178
3069.65645,0.03137
3067.59628,0.03111
3065.53611,0.03095
3063.47594,0.03079
3061.41577,0.03065
3059.35559,0.03045
3057.29542,0.03007
3055.23525,0.02960
3053.17508,0.02936
3051.11491,0.02940
3049.05473,0.02945
3046.99456,0.02910
3044.93439,0.02847
3042.87422,0.02811
3040.81404,0.02805
3038.75387,0.02804
3036.69370,0.02795
3034.63353,0.02761
3032.57336,0.02719
3030.51318,0.02701
3028.45301,0.02707
3026.39284,0.02714
3024.33267,0.02671
3022.27250,0.02593
3020.21232,0.02566
3018.15215,0.02585
3016.09198,0.02592
3014.03181,0.02591
3011.97163,0.02591
3009.91146,0.02570
3007.85129,0.02530
3005.79112,0.02491
3003.73095,0.02458
3001.67077,0.02428
2999.61060,0.02406
2997.55043,0.02389
2995.49026,0.02385
2993.43009,0.02401
2991.36991,0.02389
2989.30974,0.02355
2987.24957,0.02352
2985.18940,0.02368
2983.12923,0.02393
2981.06905,0.02437
2979.00888,0.02496
2976.94871,0.02569
2974.88854,0.02642
2972.82836,0.02702
2970.76819,0.02778
2968.70802,0.02920
2966.64785,0.03071
2964.58768,0.03161
2962.52750,0.03254
2960.46733,0.03405
2958.40716,0.03568
2956.34699,0.03721
2954.28682,0.03897
2952.22664,0.04081
2950.16647,0.04263
2948.10630,0.04475
2946.04613,0.04701
2943.98596,0.04914
2941.92578,0.05136
2939.86561,0.05382
2937.80544,0.05623
2935.74527,0.05865
2933.68509,0.06125
2931.62492,0.06372
2929.56475,0.06595
2927.50458,0.06797
2925.44441,0.06956
2923.38423,0.07037
2921.32406,0.07030
2919.26389,0.06976
2917.20372,0.06893
2915.14355,0.06728
2913.08337,0.06480
2911.02320,0.06204
2908.96303,0.05944
2906.90286,0.05727
2904.84268,0.05563
2902.78251,0.05432
2900.72234,0.05296
2898.66217,0.05137
2896.60200,0.04986
2894.54182,0.04864
2892.48165,0.04739
2890.42148,0.04608
2888.36131,0.04514
2886.30114,0.04455
2884.24096,0.04378
2882.18079,0.04279
2880.12062,0.04214
2878.06045,0.04181
2876.00028,0.04163
2873.94010,0.04191
2871.87993,0.04264
2869.81976,0.04325
2867.75959,0.04370
2865.69941,0.04453
2863.63924,0.04573
2861.57907,0.04711
2859.51890,0.04893
2857.45873,0.05102
2855.39855,0.05277
2853.33838,0.05400
2851.27821,0.05454
2849.21804,0.05358
2847.15787,0.05075
2845.09769,0.04701
2843.03752,0.04366
2840.97735,0.04097
2838.91718,0.03847
2836.85700,0.03643
2834.79683,0.03522
2832.73666,0.03427
2830.67649,0.03304
2828.61632,0.03170
2826.55614,0.03066
2824.49597,0.03002
2822.43580,0.02957
2820.37563,0.02907
2818.31546,0.02845
2816.25528,0.02783
2814.19511,0.02728
2812.13494,0.02692
2810.07477,0.02674
2808.01460,0.02646
2805.95442,0.02594
2803.89425,0.02556
2801.83408,0.02546
2799.77391,0.02519
2797.71373,0.02457
2795.65356,0.02390
2793.59339,0.02368
2791.53322,0.02395
2789.47305,0.02412
2787.41287,0.02381
2785.35270,0.02351
2783.29253,0.02363
2781.23236,0.02359
2779.17219,0.02304
2777.11201,0.02257
2775.05184,0.02250
2772.99167,0.02251
2770.93150,0.02229
2768.87133,0.02198
2766.81115,0.02177
2764.75098,0.02161
2762.69081,0.02168
2760.63064,0.02184
2758.57046,0.02173
2756.51029,0.02142
2754.45012,0.02126
2752.38995,0.02121
2750.32978,0.02099
2748.26960,0.02090
2746.20943,0.02109
2744.14926,0.02110
2742.08909,0.02098
2740.02892,0.02100
2737.96874,0.02093
2735.90857,0.02070
2733.84840,0.02054
2731.78823,0.02053
2729.72805,0.02061
2727.66788,0.02055
2725.60771,0.02025
2723.54754,0.02016
2721.48737,0.02038
2719.42719,0.02044
2717.36702,0.02026
2715.30685,0.01990
2713.24668,0.01950
2711.18651,0.01937
2709.12633,0.01955
2707.06616,0.01960
2705.00599,0.01921
2702.94582,0.01897
2700.88565,0.01929
2698.82547,0.01964
2696.76530,0.01957
2694.70513,0.01917
2692.64496,0.01890
2690.58478,0.01895
2688.52461,0.01898
2686.46444,0.01884
2684.40427,0.01869
2682.34410,0.01860
2680.28392,0.01858
2678.22375,0.01873
2676.16358,0.01887
2674.10341,0.01889
2672.04324,0.01880
2669.98306,0.01865
2667.92289,0.01870
2665.86272,0.01885
2663.80255,0.01874
2661.74238,0.01846
2659.68220,0.01812
2657.62203,0.01790
2655.56186,0.01786
2653.50169,0.01771
2651.44151,0.01757
2649.38134,0.01758
2647.32117,0.01762
2645.26100,0.01759
2643.20083,0.01742
2641.14065,0.01709
2639.08048,0.01677
2637.02031,0.01650
2634.96014,0.01641
2632.89997,0.01655
2630.83979,0.01657
2628.77962,0.01640
2626.71945,0.01635
2624.65928,0.01639
2622.59910,0.01633
2620.53893,0.01622
2618.47876,0.01606
2616.41859,0.01609
2614.35842,0.01626
2612.29824,0.01622
2610.23807,0.01591
2608.17790,0.01560
2606.11773,0.01538
2604.05756,0.01502
2601.99738,0.01475
2599.93721,0.01460
2597.87704,0.01427
2595.81687,0.01408
2593.75670,0.01434
2591.69652,0.01459
2589.63635,0.01442
2587.57618,0.01421
2585.51601,0.01416
2583.45583,0.01394
2581.39566,0.01362
2579.33549,0.01350
2577.27532,0.01366
2575.21515,0.01397
2573.15497,0.01397
2571.09480,0.01345
2569.03463,0.01296
2566.97446,0.01302
2564.91429,0.01329
2562.85411,0.01333
2560.79394,0.01338
2558.73377,0.01389
2556.67360,0.01456
2554.61342,0.01446
2552.55325,0.01383
2550.49308,0.01363
2548.43291,0.01371
2546.37274,0.01367
2544.31256,0.01373
2542.25239,0.01379
2540.19222,0.01326
2538.13205,0.01257
2536.07188,0.01246
2534.01170,0.01257
2531.95153,0.01242
2529.89136,0.01225
2527.83119,0.01245
2525.77102,0.01283
2523.71084,0.01289
2521.65067,0.01262
2519.59050,0.01250
2517.53033,0.01227
2515.47015,0.01159
2513.40998,0.01137
2511.34981,0.01189
2509.28964,0.01229
2507.22947,0.01205
2505.16929,0.01148
2503.10912,0.01141
2501.04895,0.01158
2498.98878,0.01139
2496.92861,0.01131
2494.86843,0.01156
2492.80826,0.01143
2490.74809,0.01101
2488.68792,0.01075
2486.62775,0.01046
2484.56757,0.01021
2482.50740,0.01034
2480.44723,0.01070
2478.38706,0.01097
2476.32688,0.01112
2474.26671,0.01099
2472.20654,0.01061
2470.14637,0.01073
2468.08620,0.01137
2466.02602,0.01145
2463.96585,0.01102
2461.90568,0.01095
2459.84551,0.01092
2457.78534,0.01048
2455.72516,0.01016
2453.66499,0.01017
2451.60482,0.01024
2449.54465,0.01017
2447.48447,0.00994
2445.42430,0.00982
2443.36413,0.01011
2441.30396,0.01034
2439.24379,0.01007
2437.18361,0.00994
2435.12344,0.01030
2433.06327,0.01060
2431.00310,0.01052
2428.94293,0.01001
2426.88275,0.00941
2424.82258,0.00934
2422.76241,0.00965
2420.70224,0.00992
2418.64207,0.01015
2416.58189,0.01005
2414.52172,0.00969
2412.46155,0.00960
2410.40138,0.00963
2408.34120,0.00931
2406.28103,0.00912
2404.22086,0.00962
2402.16069,0.01013
2400.10052,0.01001
2398.04034,0.00963
2395.98017,0.00939
2393.92000,0.00940
2391.85983,0.00956
2389.79966,0.00958
2387.73948,0.00941
2385.67931,0.00921
2383.61914,0.00902
2381.55897,0.00905
2379.49880,0.00952
2377.43862,0.01000
2375.37845,0.00978
2373.31828,0.00840
2371.25811,0.00660
2369.19793,0.00624
2367.13776,0.00786
2365.07759,0.00929
2363.01742,0.00858
2360.95725,0.00707
2358.89707,0.00768
2356.83690,0.00991
2354.77673,0.01107
2352.71656,0.01112
2350.65639,0.01079
2348.59621,0.00979
2346.53604,0.00857
2344.47587,0.00815
2342.41570,0.00797
2340.35552,0.00729
2338.29535,0.00746
2336.23518,0.00838
2334.17501,0.00851
2332.11484,0.00821
2330.05466,0.00816
2327.99449,0.00765
2325.93432,0.00712
2323.87415,0.00798
2321.81398,0.01011
2319.75380,0.01183
2317.69363,0.01195
2315.63346,0.01134
2313.57329,0.01064
2311.51312,0.00907
2309.45294,0.00735
2307.39277,0.00739
2305.33260,0.00869
2303.27243,0.00919
2301.21225,0.00860
2299.15208,0.00804
2297.09191,0.00800
2295.03174,0.00818
2292.97157,0.00815
2290.91139,0.00783
2288.85122,0.00767
2286.79105,0.00819
2284.73088,0.00910
2282.67071,0.00946
2280.61053,0.00886
2278.55036,0.00797
2276.49019,0.00759
2274.43002,0.00753
2272.36984,0.00709
2270.30967,0.00640
2268.24950,0.00614
2266.18933,0.00637
2264.12916,0.00676
2262.06898,0.00692
2260.00881,0.00680
2257.94864,0.00709
2255.88847,0.00802
2253.82830,0.00880
2251.76812,0.00855
2249.70795,0.00755
2247.64778,0.00736
2245.58761,0.00788
2243.52744,0.00774
2241.46726,0.00706
2239.40709,0.00636
2237.34692,0.00600
2235.28675,0.00655
2233.22657,0.00719
2231.16640,0.00722
2229.10623,0.00686
2227.04606,0.00571
2224.98589,0.00503
2222.92571,0.00638
2220.86554,0.00783
2218.80537,0.00768
2216.74520,0.00703
2214.68503,0.00618
2212.62485,0.00520
2210.56468,0.00494
2208.50451,0.00461
2206.44434,0.00356
2204.38417,0.00342
2202.32399,0.00499
2200.26382,0.00588
2198.20365,0.00557
2196.14348,0.00586
2194.08330,0.00662
2192.02313,0.00679
2189.96296,0.00631
2187.90279,0.00685
2185.84262,0.00843
2183.78244,0.00855
2181.72227,0.00712
2179.66210,0.00572
2177.60193,0.00449
2175.54176,0.00421
2173.48158,0.00575
2171.42141,0.00733
2169.36124,0.00718
2167.30107,0.00679
2165.24089,0.00740
2163.18072,0.00662
2161.12055,0.00349
2159.06038,0.00094
2157.00021,0.00159
2154.94003,0.00438
2152.87986,0.00603
2150.81969,0.00585
2148.75952,0.00581
2146.69935,0.00523
2144.63917,0.00420
2142.57900,0.00488
2140.51883,0.00603
2138.45866,0.00614
2136.39849,0.00567
2134.33831,0.00505
2132.27814,0.00473
2130.21797,0.00504
2128.15780,0.00639
2126.09762,0.00788
2124.03745,0.00776
2121.97728,0.00659
2119.91711,0.00604
2117.85694,0.00619
2115.79676,0.00621
2113.73659,0.00582
2111.67642,0.00578
2109.61625,0.00635
2107.55608,0.00687
2105.49590,0.00663
2103.43573,0.00572
2101.37556,0.00521
2099.31539,0.00534
2097.25521,0.00546
2095.19504,0.00555
2093.13487,0.00539
2091.07470,0.00498
2089.01453,0.00489
2086.95435,0.00489
2084.89418,0.00484
2082.83401,0.00495
2080.77384,0.00495
2078.71367,0.00491
2076.65349,0.00487
2074.59332,0.00470
2072.53315,0.00433
2070.47298,0.00351
2068.41281,0.00335
2066.35263,0.00408
2064.29246,0.00455
2062.23229,0.00524
2060.17212,0.00592
2058.11194,0.00560
2056.05177,0.00460
2053.99160,0.00422
2051.93143,0.00439
2049.87126,0.00344
2047.81108,0.00209
2045.75091,0.00148
2043.69074,0.00109
2041.63057,0.00188
2039.57040,0.00372
2037.51022,0.00379
2035.45005,0.00177
2033.38988,0.00000
2031.32971,0.00013
2029.26954,0.00271
2027.20936,0.00556
2025.14919,0.00640
2023.08902,0.00557
2021.02885,0.00445
2018.96867,0.00428
2016.90850,0.00367
2014.84833,0.00169
2012.78816,0.00074
2010.72799,0.00137
2008.66781,0.00281
2006.60764,0.00444
2004.54747,0.00436
2002.48730,0.00247
2000.42713,0.00081
1998.36695,0.00062
1996.30678,0.00100
1994.24661,0.00108
1992.18644,0.00181
1990.12626,0.00353
1988.06609,0.00423
1986.00592,0.00317
1983.94575,0.00252
1981.88558,0.00327
1979.82540,0.00354
1977.76523,0.00283
1975.70506,0.00247
1973.64489,0.00210
1971.58472,0.00177
1969.52454,0.00295
1967.46437,0.00520
1965.40420,0.00654
1963.34403,0.00593
1961.28386,0.00390
1959.22368,0.00284
1957.16351,0.00347
1955.10334,0.00348
1953.04317,0.00279
1950.98299,0.00252
1948.92282,0.00228
1946.86265,0.00227
1944.80248,0.00302
1942.74231,0.00378
1940.68213,0.00364
1938.62196,0.00296
1936.56179,0.00220
1934.50162,0.00134
1932.44145,0.00107
1930.38127,0.00197
1928.32110,0.00278
1926.26093,0.00259
1924.20076,0.00228
1922.14059,0.00228
1920.08041,0.00199
1918.02024,0.00153
1915.96007,0.00186
1913.89990,0.00277
1911.83972,0.00337
1909.77955,0.00318
1907.71938,0.00287
1905.65921,0.00329
1903.59904,0.00371
1901.53886,0.00342
1899.47869,0.00278
1897.41852,0.00220
1895.35835,0.00204
1893.29818,0.00232
1891.23800,0.00236
1889.17783,0.00193
1887.11766,0.00165
1885.05749,0.00181
1882.99731,0.00224
1880.93714,0.00269
1878.87697,0.00282
1876.81680,0.00261
1874.75663,0.00236
1872.69645,0.00205
1870.63628,0.00165
1868.57611,0.00171
1866.51594,0.00247
1864.45577,0.00297
1862.39559,0.00263
1860.33542,0.00202
1858.27525,0.00175
1856.21508,0.00187
1854.15491,0.00212
1852.09473,0.00218
1850.03456,0.00199
1847.97439,0.00176
1845.91422,0.00160
1843.85404,0.00155
1841.79387,0.00150
1839.73370,0.00124
1837.67353,0.00088
1835.61336,0.00074
1833.55318,0.00103
1831.49301,0.00138
1829.43284,0.00134
1827.37267,0.00107
1825.31250,0.00089
1823.25232,0.00079
1821.19215,0.00082
1819.13198,0.00084
1817.07181,0.00072
1815.01163,0.00068
1812.95146,0.00070
1810.89129,0.00061
1808.83112,0.00080
1806.77095,0.00138
1804.71077,0.00173
1802.65060,0.00156
1800.59043,0.00120
1798.53026,0.00104
1796.47009,0.00088
1794.40991,0.00034
1792.34974,0.00000
1790.28957,0.00024
1788.22940,0.00042
1786.16923,0.00021
1784.10905,0.00005
1782.04888,0.00011
1779.98871,0.00024
1777.92854,0.00031
1775.86836,0.00019
1773.80819,-0.00013
1771.74802,-0.00028
1769.68785,-0.00013
1767.62768,0.00018
1765.56750,0.00085
1763.50733,0.00194
1761.44716,0.00326
1759.38699,0.00474
1757.32682,0.00633
1755.26664,0.00778
1753.20647,0.00887
1751.14630,0.00980
1749.08613,0.01105
1747.02596,0.01281
1744.96578,0.01453
1742.90561,0.01578
1740.84544,0.01670
1738.78527,0.01736
1736.72509,0.01769
1734.66492,0.01768
1732.60475,0.01750
1730.54458,0.01748
1728.48441,0.01765
1726.42423,0.01777
1724.36406,0.01761
1722.30389,0.01733
1720.24372,0.01725
1718.18355,0.01744
1716.12337,0.01766
1714.06320,0.01768
1712.00303,0.01764
1709.94286,0.01763
1707.88268,0.01765
1705.82251,0.01760
1703.76234,0.01733
1701.70217,0.01686
1699.64200,0.01642
1697.58182,0.01659
1695.52165,0.01756
1693.46148,0.01857
1691.40131,0.01935
1689.34114,0.02052
1687.28096,0.02219
1685.22079,0.02437
1683.16062,0.02732
1681.10045,0.02989
1679.04028,0.03157
1676.98010,0.03282
1674.91993,0.03383
1672.85976,0.03439
1670.79959,0.03437
1668.73941,0.03395
1666.67924,0.03339
1664.61907,0.03265
1662.55890,0.03178
1660.49873,0.03119
1658.43855,0.03087
1656.37838,0.03045
1654.31821,0.02975
1652.25804,0.02921
1650.19787,0.02915
1648.13769,0.02927
1646.07752,0.02931
1644.01735,0.02922
1641.95718,0.02932
1639.89701,0.02983
1637.83683,0.03063
1635.77666,0.03165
1633.71649,0.03272
1631.65632,0.03345
1629.59614,0.03380
1627.53597,0.03394
1625.47580,0.03397
1623.41563,0.03402
1621.35546,0.03424
1619.29528,0.03465
1617.23511,0.03526
1615.17494,0.03615
1613.11477,0.03729
1611.05460,0.03867
1608.99442,0.04026
1606.93425,0.04152
1604.87408,0.04184
1602.81391,0.04129
1600.75373,0.04023
1598.69356,0.03882
1596.63339,0.03714
1594.57322,0.03536
1592.51305,0.03380
1590.45287,0.03269
1588.39270,0.03189
1586.33253,0.03106
1584.27236,0.03001
1582.21219,0.02898
1580.15201,0.02818
1578.09184,0.02726
1576.03167,0.02605
1573.97150,0.02520
1571.91133,0.02469
1569.85115,0.02380
1567.79098,0.02263
1565.73081,0.02177
1563.67064,0.02123
1561.61046,0.02070
1559.55029,0.01937
1557.49012,0.01726
1555.42995,0.01600
1553.36978,0.01539
1551.30960,0.01470
1549.24943,0.01393
1547.18926,0.01318
1545.12909,0.01216
1543.06892,0.01091
1541.00874,0.01000
1538.94857,0.00963
1536.88840,0.00925
1534.82823,0.00848
1532.76805,0.00748
1530.70788,0.00669
1528.64771,0.00605
1526.58754,0.00554
1524.52737,0.00564
1522.46719,0.00674
1520.40702,0.00875
1518.34685,0.01082
1516.28668,0.01236
1514.22651,0.01290
1512.16633,0.01216
1510.10616,0.01031
1508.04599,0.00788
1505.98582,0.00611
1503.92565,0.00536
1501.86547,0.00459
1499.80530,0.00359
1497.74513,0.00274
1495.68496,0.00212
1493.62478,0.00154
1491.56461,0.00091
1489.50444,0.00041
1487.44427,0.00032
1485.38410,0.00068
1483.32392,0.00120
1481.26375,0.00163
1479.20358,0.00197
1477.14341,0.00259
1475.08324,0.00407
1473.02306,0.00654
1470.96289,0.00931
1468.90272,0.01178
1466.84255,0.01405
1464.78238,0.01612
1462.72220,0.01743
1460.66203,0.01789
1458.60186,0.01831
1456.54169,0.01942
1454.48151,0.02065
1452.42134,0.02159
1450.36117,0.02258
1448.30100,0.02365
1446.24083,0.02465
1444.18065,0.02563
1442.12048,0.02664
1440.06031,0.02754
1438.00014,0.02824
1435.93997,0.02879
1433.87979,0.02913
1431.81962,0.02925
1429.75945,0.02942
1427.69928,0.02970
1425.63910,0.02993
1423.57893,0.03017
1421.51876,0.03039
1419.45859,0.03033
1417.39842,0.03023
1415.33824,0.03025
1413.27807,0.03000
1411.21790,0.02936
1409.15773,0.02856
1407.09756,0.02756
1405.03738,0.02639
1402.97721,0.02536
1400.91704,0.02473
1398.85687,0.02437
1396.79670,0.02385
1394.73652,0.02296
1392.67635,0.02222
1390.61618,0.02199
1388.55601,0.02215
1386.49583,0.02269
1384.43566,0.02346
1382.37549,0.02425
1380.31532,0.02509
1378.25515,0.02591
1376.19497,0.02649
1374.13480,0.02689
1372.07463,0.02723
1370.01446,0.02747
1367.95429,0.02742
1365.89411,0.02694
1363.83394,0.02623
1361.77377,0.02565
1359.71360,0.02530
1357.65343,0.02505
1355.59325,0.02486
1353.53308,0.02477
1351.47291,0.02468
1349.41274,0.02453
1347.35256,0.02437
1345.29239,0.02418
1343.23222,0.02389
1341.17205,0.02367
1339.11188,0.02375
1337.05170,0.02393
1334.99153,0.02404
1332.93136,0.02410
1330.87119,0.02415
1328.81102,0.02424
1326.75084,0.02445
1324.69067,0.02469
1322.63050,0.02474
1320.57033,0.02456
1318.51015,0.02433
1316.44998,0.02410
1314.38981,0.02385
1312.32964,0.02363
1310.26947,0.02330
1308.20929,0.02272
1306.14912,0.02193
1304.08895,0.02094
1302.02878,0.02006
1299.96861,0.01960
1297.90843,0.01938
1295.84826,0.01922
1293.78809,0.01934
1291.72792,0.01970
1289.66775,0.01983
1287.60757,0.01979
1285.54740,0.02004
1283.48723,0.02045
1281.42706,0.02060
1279.36688,0.02057
1277.30671,0.02070
1275.24654,0.02101
1273.18637,0.02132
1271.12620,0.02166
1269.06602,0.02215
1267.00585,0.02286
1264.94568,0.02384
1262.88551,0.02491
1260.82534,0.02569
1258.76516,0.02640
1256.70499,0.02732
1254.64482,0.02820
1252.58465,0.02882
1250.52447,0.02921
1248.46430,0.02958
1246.40413,0.03008
1244.34396,0.03041
1242.28379,0.03026
1240.22361,0.02992
1238.16344,0.02965
1236.10327,0.02927
1234.04310,0.02872
1231.98293,0.02813
1229.92275,0.02733
1227.86258,0.02619
1225.80241,0.02486
1223.74224,0.02345
1221.68207,0.02202
1219.62189,0.02055
1217.56172,0.01912
1215.50155,0.01776
1213.44138,0.01615
1211.38120,0.01440
1209.32103,0.01296
1207.26086,0.01183
1205.20069,0.01068
1203.14052,0.00938
1201.08034,0.00782
1199.02017,0.00609
1196.96000,0.00453
1194.89983,0.00328
1192.83966,0.00228
1190.77948,0.00145
1188.71931,0.00080
1186.65914,0.00030
1184.59897,0.00000
1182.53880,0.00006
1180.47862,0.00083
1178.41845,0.00220
1176.35828,0.00373
1174.29811,0.00553
1172.23793,0.00773
1170.17776,0.01005
1168.11759,0.01206
1166.05742,0.01337
1163.99725,0.01422
1161.93707,0.01509
1159.87690,0.01600
1157.81673,0.01663
1155.75656,0.01706
1153.69639,0.01777
1151.63621,0.01893
1149.57604,0.02030
1147.51587,0.02175
1145.45570,0.02313
1143.39552,0.02421
1141.33535,0.02518
1139.27518,0.02621
1137.21501,0.02708
1135.15484,0.02774
1133.09466,0.02820
1131.03449,0.02879
1128.97432,0.02996
1126.91415,0.03156
1124.85398,0.03315
1122.79380,0.03445
1120.73363,0.03553
1118.67346,0.03678
1116.61329,0.03821
1114.55312,0.03922
1112.49294,0.03996
1110.43277,0.04108
1108.37260,0.04250
1106.31243,0.04398
1104.25225,0.04558
1102.19208,0.04730
1100.13191,0.04911
1098.07174,0.05096
1096.01157,0.05291
1093.95139,0.05501
1091.89122,0.05710
1089.83105,0.05919
1087.77088,0.06133
1085.71071,0.06340
1083.65053,0.06548
1081.59036,0.06780
1079.53019,0.07027
1077.47002,0.07277
1075.40985,0.07523
1073.34967,0.07730
1071.28950,0.07899
1069.22933,0.08098
1067.16916,0.08331
1065.10898,0.08529
1063.04881,0.08667
1060.98864,0.08770
1058.92847,0.08893
1056.86830,0.09073
1054.80812,0.09300
1052.74795,0.09558
1050.68778,0.09821
1048.62761,0.10068
1046.56744,0.10328
1044.50726,0.10629
1042.44709,0.10908
1040.38692,0.11114
1038.32675,0.11302
1036.26657,0.11491
1034.20640,0.11604
1032.14623,0.11646
1030.08606,0.11687
1028.02589,0.11724
1025.96571,0.11699
1023.90554,0.11599
1021.84537,0.11499
1019.78520,0.11455
1017.72503,0.11423
1015.66485,0.11397
1013.60468,0.11405
1011.54451,0.11423
1009.48434,0.11436
1007.42417,0.11438
1005.36399,0.11409
1003.30382,0.11348
1001.24365,0.11259
999.18348,0.11140
997.12330,0.10997
995.06313,0.10829
993.00296,0.10625
990.94279,0.10393
988.88262,0.10162
986.82244,0.09981
984.76227,0.09876
982.70210,0.09767
980.64193,0.09587
978.58176,0.09371
976.52158,0.09180
974.46141,0.09038
972.40124,0.08871
970.34107,0.08647
968.28089,0.08462
966.22072,0.08285
964.16055,0.08043
962.10038,0.07821
960.04021,0.07692
957.98003,0.07553
955.91986,0.07340
953.85969,0.07140
951.79952,0.06989
949.73935,0.06855
947.67917,0.06687
945.61900,0.06453
943.55883,0.06191
941.49866,0.05929
939.43849,0.05610
937.37831,0.05225
935.31814,0.04822
933.25797,0.04434
931.19780,0.04095
929.13762,0.03809
927.07745,0.03572
925.01728,0.03374
922.95711,0.03162
920.89694,0.02924
918.83676,0.02690
916.77659,0.02469
914.71642,0.02285
912.65625,0.02146
910.59608,0.02021
908.53590,0.01890
906.47573,0.01780
904.41556,0.01755
902.35539,0.01758
900.29522,0.01696
898.23504,0.01648
896.17487,0.01677
894.11470,0.01717
892.05453,0.01729
889.99435,0.01702
887.93418,0.01642
885.87401,0.01560
883.81384,0.01447
881.75367,0.01294
879.69349,0.01137
877.63332,0.01045
875.57315,0.00996
873.51298,0.00930
871.45281,0.00848
869.39263,0.00785
867.33246,0.00746
865.27229,0.00709
863.21212,0.00680
861.15194,0.00673
859.09177,0.00675
857.03160,0.00697
854.97143,0.00707
852.91126,0.00652
850.85108,0.00594
848.79091,0.00606
846.73074,0.00663
844.67057,0.00678
842.61040,0.00645
840.55022,0.00608
838.49005,0.00534
836.42988,0.00420
834.36971,0.00351
832.30954,0.00378
830.24936,0.00405
828.18919,0.00338
826.12902,0.00260
824.06885,0.00236
822.00867,0.00227
819.94850,0.00175
817.88833,0.00097
815.82816,0.00088
813.76799,0.00151
811.70781,0.00211
809.64764,0.00262
807.58747,0.00344
805.52730,0.00394
803.46713,0.00355
801.40695,0.00312
799.34678,0.00313
797.28661,0.00283
795.22644,0.00174
793.16627,0.00042
791.10609,0.00000
789.04592,0.00064
786.98575,0.00118
784.92558,0.00087
782.86540,0.00024
780.80523,0.00018
778.74506,0.00062
776.68489,0.00065
774.62472,0.00052
772.56454,0.00096
770.50437,0.00157
768.44420,0.00209
766.38403,0.00244
764.32386,0.00192
762.26368,0.00152
760.20351,0.00250
758.14334,0.00390
756.08317,0.00458
754.02299,0.00417
751.96282,0.00252
749.90265,0.00070
747.84248,0.00000
745.78231,-0.00052
743.72213,-0.00084
741.66196,-0.00055
739.60179,0.00016
737.54162,0.00076
735.48145,0.00094
733.42127,0.00065
731.36110,0.00033
729.30093,0.00044
727.24076,0.00085
725.18059,0.00090
723.12041,0.00083
721.06024,0.00093
719.00007,0.00106
716.93990,0.00153
714.87972,0.00229
712.81955,0.00230
710.75938,0.00191
708.69921,0.00267
706.63904,0.00384
704.57886,0.00355
702.51869,0.00265
700.45852,0.00314
698.39835,0.00469
696.33818,0.00591
694.27800,0.00633
692.21783,0.00553
690.15766,0.00417
688.09749,0.00346
686.03731,0.00247
683.97714,0.00082
681.91697,0.00031
679.85680,0.00092
677.79663,0.00112
675.73645,0.00093
673.67628,0.00049
671.61611,-0.00084
669.55594,-0.00193
667.49577,0.00008
665.43559,0.00377
663.37542,0.00542
661.31525,0.00480
659.25508,0.00325
657.19491,0.00108
655.13473,-0.00150
653.07456,-0.00205
651.01439,0.00068
648.95422,0.00270
646.89404,0.00153
644.83387,0.00000
642.77370,0.00003
640.71353,0.00077
638.65336,-0.00033
636.59318,-0.00257
634.53301,-0.00192
632.47284,0.00162
630.41267,0.00297
628.35250,0.00017
626.29232,-0.00218
624.23215,0.00010
622.17198,0.00193
620.11181,0.00098
618.05164,-0.00008
615.99146,-0.00145
613.93129,-0.00290
611.87112,-0.00172
609.81095,0.00121
607.75077,0.00111
605.69060,-0.00176
603.63043,-0.00291
601.57026,-0.00178
599.51009,0.00000
