3996.73391,0.00002
3994.67373,0.00004
3992.61356,0.00004
3990.55339,0.00006
3988.49322,0.00008
3986.43305,0.00002
3984.37287,0.00000
3982.31270,0.00019
3980.25253,0.00047
3978.19236,0.00068
3976.13219,0.00079
3974.07201,0.00074
3972.01184,0.00055
3969.95167,0.00041
3967.89150,0.00037
3965.83133,0.00035
3963.77115,0.00036
3961.71098,0.00049
3959.65081,0.00061
3957.59064,0.00044
3955.53046,0.00013
3953.47029,0.00013
3951.41012,0.00041
3949.34995,0.00056
3947.28978,0.00056
3945.22960,0.00062
3943.16943,0.00080
3941.10926,0.00094
3939.04909,0.00095
3936.98892,0.00087
3934.92874,0.00076
3932.86857,0.00068
3930.80840,0.00064
3928.74823,0.00055
3926.68805,0.00035
3924.62788,0.00015
3922.56771,0.00013
3920.50754,0.00023
3918.44737,0.00032
3916.38719,0.00042
3914.32702,0.00062
3912.26685,0.00083
3910.20668,0.00096
3908.14651,0.00092
3906.08633,0.00072
3904.02616,0.00048
3901.96599,0.00039
3899.90582,0.00042
3897.84565,0.00040
3895.78547,0.00040
3893.72530,0.00049
3891.66513,0.00054
3889.60496,0.00052
3887.54478,0.00061
3885.48461,0.00070
3883.42444,0.00073
3881.36427,0.00077
3879.30410,0.00075
3877.24392,0.00070
3875.18375,0.00071
3873.12358,0.00067
3871.06341,0.00054
3869.00324,0.00042
3866.94306,0.00033
3864.88289,0.00026
3862.82272,0.00035
3860.76255,0.00062
3858.70237,0.00086
3856.64220,0.00098
3854.58203,0.00098
3852.52186,0.00086
3850.46169,0.00075
3848.40151,0.00063
3846.34134,0.00049
3844.28117,0.00045
3842.22100,0.00058
3840.16083,0.00073
3838.10065,0.00065
3836.04048,0.00035
3833.98031,0.00013
3831.92014,0.00016
3829.85997,0.00025
3827.79979,0.00021
3825.73962,0.00028
3823.67945,0.00059
3821.61928,0.00081
3819.55910,0.00085
3817.49893,0.00092
3815.43876,0.00105
3813.37859,0.00105
3811.31842,0.00086
3809.25824,0.00071
3807.19807,0.00079
3805.13790,0.00096
3803.07773,0.00100
3801.01756,0.00097
3798.95738,0.00093
3796.89721,0.00084
3794.83704,0.00080
3792.77687,0.00083
3790.71670,0.00075
3788.65652,0.00064
3786.59635,0.00064
3784.53618,0.00068
3782.47601,0.00062
3780.41583,0.00063
3778.35566,0.00083
3776.29549,0.00101
3774.23532,0.00103
3772.17515,0.00106
3770.11497,0.00110
3768.05480,0.00107
3765.99463,0.00101
3763.93446,0.00091
3761.87429,0.00076
3759.81411,0.00057
3757.75394,0.00046
3755.69377,0.00053
3753.63360,0.00078
3751.57342,0.00112
3749.51325,0.00134
3747.45308,0.00129
3745.39291,0.00112
3743.33274,0.00103
3741.27256,0.00107
3739.21239,0.00096
3737.15222,0.00058
3735.09205,0.00030
3733.03188,0.00040
3730.97170,0.00059
3728.91153,0.00059
3726.85136,0.00051
3724.79119,0.00048
3722.73102,0.00045
3720.67084,0.00043
3718.61067,0.00050
3716.55050,0.00045
3714.49033,0.00031
3712.43015,0.00033
3710.36998,0.00048
3708.30981,0.00062
3706.24964,0.00068
3704.18947,0.00070
3702.12929,0.00062
3700.06912,0.00045
3698.00895,0.00026
3695.94878,0.00012
3693.88861,0.00015
3691.82843,0.00029
3689.76826,0.00040
3687.70809,0.00056
3685.64792,0.00080
3683.58775,0.00098
3681.52757,0.00100
3679.46740,0.00098
3677.40723,0.00106
3675.34706,0.00112
3673.28688,0.00101
3671.22671,0.00072
3669.16654,0.00043
3667.10637,0.00034
3665.04620,0.00038
3662.98602,0.00042
3660.92585,0.00053
3658.86568,0.00075
3656.80551,0.00084
3654.74534,0.00068
3652.68516,0.00058
3650.62499,0.00067
3648.56482,0.00060
3646.50465,0.00037
3644.44447,0.00037
3642.38430,0.00066
3640.32413,0.00104
3638.26396,0.00128
3636.20379,0.00128
3634.14361,0.00111
3632.08344,0.00086
3630.02327,0.00064
3627.96310,0.00069
3625.90293,0.00103
3623.84275,0.00132
3621.78258,0.00149
3619.72241,0.00157
3617.66224,0.00155
3615.60207,0.00145
3613.54189,0.00136
3611.48172,0.00134
3609.42155,0.00133
3607.36138,0.00124
3605.30120,0.00119
3603.24103,0.00122
3601.18086,0.00129
3599.12069,0.00134
3597.06052,0.00138
3595.00034,0.00152
3592.94017,0.00167
3590.88000,0.00160
3588.81983,0.00147
3586.75966,0.00153
3584.69948,0.00176
3582.63931,0.00189
3580.57914,0.00181
3578.51897,0.00160
3576.45879,0.00141
3574.39862,0.00130
3572.33845,0.00131
3570.27828,0.00148
3568.21811,0.00167
3566.15793,0.00169
3564.09776,0.00166
3562.03759,0.00177
3559.97742,0.00194
3557.91725,0.00205
3555.85707,0.00209
3553.79690,0.00209
3551.73673,0.00211
3549.67656,0.00224
3547.61639,0.00230
3545.55621,0.00223
3543.49604,0.00230
3541.43587,0.00258
3539.37570,0.00274
3537.31552,0.00273
3535.25535,0.00271
3533.19518,0.00274
3531.13501,0.00278
3529.07484,0.00283
3527.01466,0.00302
3524.95449,0.00317
3522.89432,0.00317
3520.83415,0.00324
3518.77398,0.00343
3516.71380,0.00346
3514.65363,0.00328
3512.59346,0.00313
3510.53329,0.00310
3508.47312,0.00313
3506.41294,0.00320
3504.35277,0.00326
3502.29260,0.00325
3500.23243,0.00328
3498.17225,0.00334
3496.11208,0.00340
3494.05191,0.00348
3491.99174,0.00355
3489.93157,0.00358
3487.87139,0.00351
3485.81122,0.00332
3483.75105,0.00331
3481.69088,0.00364
3479.63071,0.00382
3477.57053,0.00355
3475.51036,0.00330
3473.45019,0.00336
3471.39002,0.00353
3469.32984,0.00362
3467.26967,0.00371
3465.20950,0.00394
3463.14933,0.00420
3461.08916,0.00427
3459.02898,0.00417
3456.96881,0.00409
3454.90864,0.00417
3452.84847,0.00430
3450.78830,0.00434
3448.72812,0.00417
3446.66795,0.00398
3444.60778,0.00406
3442.54761,0.00423
3440.48744,0.00414
3438.42726,0.00391
3436.36709,0.00392
3434.30692,0.00415
3432.24675,0.00429
3430.18657,0.00434
3428.12640,0.00446
3426.06623,0.00447
3424.00606,0.00437
3421.94589,0.00444
3419.88571,0.00458
3417.82554,0.00460
3415.76537,0.00460
3413.70520,0.00465
3411.64503,0.00459
3409.58485,0.00442
3407.52468,0.00427
3405.46451,0.00422
3403.40434,0.00424
3401.34416,0.00434
3399.28399,0.00444
3397.22382,0.00457
3395.16365,0.00479
3393.10348,0.00491
3391.04330,0.00474
3388.98313,0.00452
3386.92296,0.00455
3384.86279,0.00478
3382.80262,0.00496
3380.74244,0.00500
3378.68227,0.00496
3376.62210,0.00490
3374.56193,0.00488
3372.50176,0.00496
3370.44158,0.00504
3368.38141,0.00505
3366.32124,0.00504
3364.26107,0.00498
3362.20089,0.00495
3360.14072,0.00505
3358.08055,0.00515
3356.02038,0.00525
3353.96021,0.00541
3351.90003,0.00549
3349.83986,0.00537
3347.77969,0.00513
3345.71952,0.00499
3343.65935,0.00514
3341.59917,0.00544
3339.53900,0.00557
3337.47883,0.00550
3335.41866,0.00541
3333.35849,0.00537
3331.29831,0.00529
3329.23814,0.00515
3327.17797,0.00497
3325.11780,0.00488
3323.05762,0.00503
3320.99745,0.00519
3318.93728,0.00518
3316.87711,0.00513
3314.81694,0.00507
3312.75676,0.00503
3310.69659,0.00512
3308.63642,0.00530
3306.57625,0.00548
3304.51608,0.00558
3302.45590,0.00547
3300.39573,0.00523
3298.33556,0.00516
3296.27539,0.00534
3294.21521,0.00562
3292.15504,0.00570
3290.09487,0.00546
3288.03470,0.00518
3285.97453,0.00513
3283.91435,0.00523
3281.85418,0.00526
3279.79401,0.00525
3277.73384,0.00519
3275.67367,0.00502
3273.61349,0.00485
3271.55332,0.00495
3269.49315,0.00515
3267.43298,0.00515
3265.37281,0.00507
3263.31263,0.00505
3261.25246,0.00498
3259.19229,0.00490
3257.13212,0.00491
3255.07194,0.00495
3253.01177,0.00492
3250.95160,0.00488
3248.89143,0.00490
3246.83126,0.00503
3244.77108,0.00527
3242.71091,0.00540
3240.65074,0.00529
3238.59057,0.00509
3236.53040,0.00489
3234.47022,0.00470
3232.41005,0.00473
3230.34988,0.00500
3228.28971,0.00519
3226.22954,0.00524
3224.16936,0.00531
3222.10919,0.00529
3220.04902,0.00510
3217.98885,0.00495
3215.92867,0.00490
3213.86850,0.00489
3211.80833,0.00493
3209.74816,0.00496
3207.68799,0.00488
3205.62781,0.00472
3203.56764,0.00458
3201.50747,0.00452
3199.44730,0.00458
3197.38713,0.00464
3195.32695,0.00456
3193.26678,0.00439
3191.20661,0.00432
3189.14644,0.00434
3187.08626,0.00432
3185.02609,0.00426
3182.96592,0.00424
3180.90575,0.00432
3178.84558,0.00444
3176.78540,0.00443
3174.72523,0.00436
3172.66506,0.00445
3170.60489,0.00467
3168.54472,0.00472
3166.48454,0.00458
3164.42437,0.00439
3162.36420,0.00419
3160.30403,0.00406
3158.24386,0.00403
3156.18368,0.00404
3154.12351,0.00404
3152.06334,0.00403
3150.00317,0.00403
3147.94299,0.00402
3145.88282,0.00398
3143.82265,0.00390
3141.76248,0.00384
3139.70231,0.00390
3137.64213,0.00401
3135.58196,0.00397
3133.52179,0.00380
3131.46162,0.00376
3129.40145,0.00382
3127.34127,0.00370
3125.28110,0.00347
3123.22093,0.00341
3121.16076,0.00358
3119.10058,0.00368
3117.04041,0.00359
3114.98024,0.00352
3112.92007,0.00352
3110.85990,0.00352
3108.79972,0.00348
3106.73955,0.00341
3104.67938,0.00334
3102.61921,0.00323
3100.55904,0.00308
3098.49886,0.00299
3096.43869,0.00303
3094.37852,0.00311
3092.31835,0.00315
3090.25818,0.00325
3088.19800,0.00330
3086.13783,0.00322
3084.07766,0.00309
3082.01749,0.00295
3079.95731,0.00296
3077.89714,0.00315
3075.83697,0.00325
3073.77680,0.00315
3071.71663,0.00305
3069.65645,0.00301
3067.59628,0.00297
3065.53611,0.00290
3063.47594,0.00279
3061.41577,0.00268
3059.35559,0.00268
3057.29542,0.00282
3055.23525,0.00289
3053.17508,0.00280
3051.11491,0.00274
3049.05473,0.00289
3046.99456,0.00312
3044.93439,0.00315
3042.87422,0.00293
3040.81404,0.00267
3038.75387,0.00256
3036.69370,0.00256
3034.63353,0.00254
3032.57336,0.00250
3030.51318,0.00249
3028.45301,0.00247
3026.39284,0.00241
3024.33267,0.00232
3022.27250,0.00220
3020.21232,0.00212
3018.15215,0.00215
3016.09198,0.00223
3014.03181,0.00230
3011.97163,0.00236
3009.91146,0.00244
3007.85129,0.00243
3005.79112,0.00237
3003.73095,0.00242
3001.67077,0.00244
2999.61060,0.00235
2997.55043,0.00232
2995.49026,0.00239
2993.43009,0.00237
2991.36991,0.00228
2989.30974,0.00228
2987.24957,0.00230
2985.18940,0.00226
2983.12923,0.00221
2981.06905,0.00225
2979.00888,0.00238
2976.94871,0.00236
2974.88854,0.00220
2972.82836,0.00229
2970.76819,0.00254
2968.70802,0.00258
2966.64785,0.00244
2964.58768,0.00242
2962.52750,0.00257
2960.46733,0.00276
2958.40716,0.00294
2956.34699,0.00304
2954.28682,0.00301
2952.22664,0.00286
2950.16647,0.00270
2948.10630,0.00274
2946.04613,0.00300
2943.98596,0.00319
2941.92578,0.00320
2939.86561,0.00315
2937.80544,0.00312
2935.74527,0.00322
2933.68509,0.00344
2931.62492,0.00352
2929.56475,0.00340
2927.50458,0.00330
2925.44441,0.00338
2923.38423,0.00359
2921.32406,0.00366
2919.26389,0.00347
2917.20372,0.00332
2915.14355,0.00330
2913.08337,0.00325
2911.02320,0.00323
2908.96303,0.00321
2906.90286,0.00309
2904.84268,0.00293
2902.78251,0.00282
2900.72234,0.00276
2898.66217,0.00277
2896.60200,0.00286
2894.54182,0.00291
2892.48165,0.00288
2890.42148,0.00290
2888.36131,0.00299
2886.30114,0.00309
2884.24096,0.00321
2882.18079,0.00322
2880.12062,0.00308
2878.06045,0.00294
2876.00028,0.00295
2873.94010,0.00294
2871.87993,0.00283
2869.81976,0.00280
2867.75959,0.00283
2865.69941,0.00280
2863.63924,0.00273
2861.57907,0.00271
2859.51890,0.00274
2857.45873,0.00280
2855.39855,0.00285
2853.33838,0.00284
2851.27821,0.00273
2849.21804,0.00266
2847.15787,0.00264
2845.09769,0.00252
2843.03752,0.00242
2840.97735,0.00241
2838.91718,0.00247
2836.85700,0.00255
2834.79683,0.00256
2832.73666,0.00259
2830.67649,0.00263
2828.61632,0.00252
2826.55614,0.00232
2824.49597,0.00225
2822.43580,0.00224
2820.37563,0.00221
2818.31546,0.00222
2816.25528,0.00231
2814.19511,0.00237
2812.13494,0.00235
2810.07477,0.00233
2808.01460,0.00226
2805.95442,0.00223
2803.89425,0.00225
2801.83408,0.00216
2799.77391,0.00196
2797.71373,0.00189
2795.65356,0.00202
2793.59339,0.00220
2791.53322,0.00230
2789.47305,0.00224
2787.41287,0.00209
2785.35270,0.00201
2783.29253,0.00202
2781.23236,0.00200
2779.17219,0.00195
2777.11201,0.00196
2775.05184,0.00198
2772.99167,0.00197
2770.93150,0.00199
2768.87133,0.00213
2766.81115,0.00227
2764.75098,0.00232
2762.69081,0.00224
2760.63064,0.00217
2758.57046,0.00217
2756.51029,0.00209
2754.45012,0.00195
2752.38995,0.00190
2750.32978,0.00188
2748.26960,0.00182
2746.20943,0.00182
2744.14926,0.00191
2742.08909,0.00196
2740.02892,0.00191
2737.96874,0.00186
2735.90857,0.00185
2733.84840,0.00191
2731.78823,0.00198
2729.72805,0.00205
2727.66788,0.00210
2725.60771,0.00208
2723.54754,0.00201
2721.48737,0.00197
2719.42719,0.00199
2717.36702,0.00201
2715.30685,0.00206
2713.24668,0.00207
2711.18651,0.00204
2709.12633,0.00203
2707.06616,0.00199
2705.00599,0.00190
2702.94582,0.00181
2700.88565,0.00181
2698.82547,0.00193
2696.76530,0.00207
2694.70513,0.00215
2692.64496,0.00214
2690.58478,0.00209
2688.52461,0.00195
2686.46444,0.00181
2684.40427,0.00183
2682.34410,0.00190
2680.28392,0.00188
2678.22375,0.00192
2676.16358,0.00205
2674.10341,0.00210
2672.04324,0.00207
2669.98306,0.00194
2667.92289,0.00180
2665.86272,0.00182
2663.80255,0.00189
2661.74238,0.00196
2659.68220,0.00214
2657.62203,0.00229
2655.56186,0.00226
2653.50169,0.00221
2651.44151,0.00227
2649.38134,0.00234
2647.32117,0.00235
2645.26100,0.00234
2643.20083,0.00230
2641.14065,0.00221
2639.08048,0.00203
2637.02031,0.00190
2634.96014,0.00194
2632.89997,0.00203
2630.83979,0.00207
2628.77962,0.00205
2626.71945,0.00192
2624.65928,0.00189
2622.59910,0.00208
2620.53893,0.00216
2618.47876,0.00207
2616.41859,0.00209
2614.35842,0.00223
2612.29824,0.00227
2610.23807,0.00222
2608.17790,0.00227
2606.11773,0.00226
2604.05756,0.00209
2601.99738,0.00198
2599.93721,0.00192
2597.87704,0.00181
2595.81687,0.00169
2593.75670,0.00170
2591.69652,0.00189
2589.63635,0.00213
2587.57618,0.00219
2585.51601,0.00211
2583.45583,0.00207
2581.39566,0.00211
2579.33549,0.00218
2577.27532,0.00212
2575.21515,0.00194
2573.15497,0.00180
2571.09480,0.00164
2569.03463,0.00151
2566.97446,0.00158
2564.91429,0.00169
2562.85411,0.00167
2560.79394,0.00162
2558.73377,0.00159
2556.67360,0.00157
2554.61342,0.00149
2552.55325,0.00153
2550.49308,0.00177
2548.43291,0.00188
2546.37274,0.00175
2544.31256,0.00159
2542.25239,0.00143
2540.19222,0.00121
2538.13205,0.00112
2536.07188,0.00127
2534.01170,0.00149
2531.95153,0.00165
2529.89136,0.00140
2527.83119,0.00099
2525.77102,0.00090
2523.71084,0.00098
2521.65067,0.00109
2519.59050,0.00133
2517.53033,0.00169
2515.47015,0.00189
2513.40998,0.00186
2511.34981,0.00191
2509.28964,0.00212
2507.22947,0.00218
2505.16929,0.00209
2503.10912,0.00191
2501.04895,0.00169
2498.98878,0.00141
2496.92861,0.00115
2494.86843,0.00125
2492.80826,0.00161
2490.74809,0.00166
2488.68792,0.00142
2486.62775,0.00134
2484.56757,0.00152
2482.50740,0.00173
2480.44723,0.00173
2478.38706,0.00158
2476.32688,0.00156
2474.26671,0.00166
2472.20654,0.00170
2470.14637,0.00159
2468.08620,0.00146
2466.02602,0.00142
2463.96585,0.00138
2461.90568,0.00142
2459.84551,0.00169
2457.78534,0.00188
2455.72516,0.00173
2453.66499,0.00156
2451.60482,0.00171
2449.54465,0.00200
2447.48447,0.00210
2445.42430,0.00191
2443.36413,0.00163
2441.30396,0.00147
2439.24379,0.00152
2437.18361,0.00157
2435.12344,0.00150
2433.06327,0.00146
2431.00310,0.00141
2428.94293,0.00132
2426.88275,0.00135
2424.82258,0.00142
2422.76241,0.00149
2420.70224,0.00149
2418.64207,0.00136
2416.58189,0.00137
2414.52172,0.00155
2412.46155,0.00162
2410.40138,0.00155
2408.34120,0.00148
2406.28103,0.00151
2404.22086,0.00151
2402.16069,0.00143
2400.10052,0.00145
2398.04034,0.00155
2395.98017,0.00165
2393.92000,0.00158
2391.85983,0.00146
2389.79966,0.00142
2387.73948,0.00133
2385.67931,0.00117
2383.61914,0.00126
2381.55897,0.00162
2379.49880,0.00184
2377.43862,0.00167
2375.37845,0.00136
2373.31828,0.00106
2371.25811,0.00128
2369.19793,0.00256
2367.13776,0.00397
2365.07759,0.00402
2363.01742,0.00298
2360.95725,0.00164
2358.89707,0.00153
2356.83690,0.00154
2354.77673,0.00149
2352.71656,0.00200
2350.65639,0.00202
2348.59621,0.00184
2346.53604,0.00287
2344.47587,0.00282
2342.41570,0.00268
2340.35552,0.00295
2338.29535,0.00287
2336.23518,0.00250
2334.17501,0.00245
2332.11484,0.00281
2330.05466,0.00274
2327.99449,0.00248
2325.93432,0.00221
2323.87415,0.00237
2321.81398,0.00250
2319.75380,0.00257
2317.69363,0.00219
2315.63346,0.00198
2313.57329,0.00215
2311.51312,0.00239
2309.45294,0.00244
2307.39277,0.00227
2305.33260,0.00209
2303.27243,0.00200
2301.21225,0.00202
2299.15208,0.00205
2297.09191,0.00221
2295.03174,0.00250
2292.97157,0.00266
2290.91139,0.00251
2288.85122,0.00230
2286.79105,0.00244
2284.73088,0.00272
2282.67071,0.00271
2280.61053,0.00242
2278.55036,0.00203
2276.49019,0.00164
2274.43002,0.00130
2272.36984,0.00110
2270.30967,0.00102
2268.24950,0.00116
2266.18933,0.00152
2264.12916,0.00160
2262.06898,0.00134
2260.00881,0.00142
2257.94864,0.00189
2255.88847,0.00207
2253.82830,0.00182
2251.76812,0.00153
2249.70795,0.00168
2247.64778,0.00230
2245.58761,0.00244
2243.52744,0.00201
2241.46726,0.00180
2239.40709,0.00190
2237.34692,0.00211
2235.28675,0.00264
2233.22657,0.00312
2231.16640,0.00313
2229.10623,0.00285
2227.04606,0.00248
2224.98589,0.00223
2222.92571,0.00192
2220.86554,0.00157
2218.80537,0.00145
2216.74520,0.00168
2214.68503,0.00198
2212.62485,0.00186
2210.56468,0.00193
2208.50451,0.00239
2206.44434,0.00275
2204.38417,0.00299
2202.32399,0.00277
2200.26382,0.00190
2198.20365,0.00138
2196.14348,0.00161
2194.08330,0.00181
2192.02313,0.00209
2189.96296,0.00272
2187.90279,0.00300
2185.84262,0.00233
2183.78244,0.00125
2181.72227,0.00054
2179.66210,0.00027
2177.60193,0.00006
2175.54176,0.00017
2173.48158,0.00126
2171.42141,0.00262
2169.36124,0.00302
2167.30107,0.00255
2165.24089,0.00229
2163.18072,0.00233
2161.12055,0.00143
2159.06038,0.00004
2157.00021,0.00023
2154.94003,0.00097
2152.87986,0.00055
2150.81969,0.00005
2148.75952,0.00035
2146.69935,0.00116
2144.63917,0.00211
2142.57900,0.00252
2140.51883,0.00194
2138.45866,0.00094
2136.39849,0.00032
2134.33831,0.00024
2132.27814,0.00051
2130.21797,0.00088
2128.15780,0.00131
2126.09762,0.00157
2124.03745,0.00127
2121.97728,0.00085
2119.91711,0.00080
2117.85694,0.00084
2115.79676,0.00096
2113.73659,0.00161
2111.67642,0.00245
2109.61625,0.00259
2107.55608,0.00217
2105.49590,0.00199
2103.43573,0.00207
2101.37556,0.00220
2099.31539,0.00233
2097.25521,0.00231
2095.19504,0.00227
2093.13487,0.00228
2091.07470,0.00215
2089.01453,0.00195
2086.95435,0.00170
2084.89418,0.00158
2082.83401,0.00169
2080.77384,0.00173
2078.71367,0.00177
2076.65349,0.00195
2074.59332,0.00222
2072.53315,0.00235
2070.47298,0.00192
2068.41281,0.00130
2066.35263,0.00125
2064.29246,0.00182
2062.23229,0.00233
2060.17212,0.00242
2058.11194,0.00242
2056.05177,0.00235
2053.99160,0.00217
2051.93143,0.00205
2049.87126,0.00201
2047.81108,0.00230
2045.75091,0.00291
2043.69074,0.00314
2041.63057,0.00285
2039.57040,0.00282
2037.51022,0.00312
2035.45005,0.00272
2033.38988,0.00130
2031.32971,0.00013
2029.26954,0.00006
2027.20936,0.00040
2025.14919,0.00071
2023.08902,0.00059
2021.02885,0.00022
2018.96867,0.00044
2016.90850,0.00104
2014.84833,0.00156
2012.78816,0.00157
2010.72799,0.00112
2008.66781,0.00125
2006.60764,0.00196
2004.54747,0.00206
2002.48730,0.00142
2000.42713,0.00066
1998.36695,0.00043
1996.30678,0.00100
1994.24661,0.00187
1992.18644,0.00227
1990.12626,0.00205
1988.06609,0.00213
1986.00592,0.00273
1983.94575,0.00304
1981.88558,0.00285
1979.82540,0.00242
1977.76523,0.00205
1975.70506,0.00209
1973.64489,0.00231
1971.58472,0.00220
1969.52454,0.00173
1967.46437,0.00094
1965.40420,0.00029
1963.34403,0.00009
1961.28386,0.00005
1959.22368,0.00019
1957.16351,0.00048
1955.10334,0.00074
1953.04317,0.00090
1950.98299,0.00082
1948.92282,0.00071
1946.86265,0.00095
1944.80248,0.00124
1942.74231,0.00102
1940.68213,0.00065
1938.62196,0.00067
1936.56179,0.00072
1934.50162,0.00067
1932.44145,0.00090
1930.38127,0.00131
1928.32110,0.00140
1926.26093,0.00110
1924.20076,0.00082
1922.14059,0.00081
1920.08041,0.00096
1918.02024,0.00118
1915.96007,0.00143
1913.89990,0.00158
1911.83972,0.00144
1909.77955,0.00097
1907.71938,0.00059
1905.65921,0.00059
1903.59904,0.00087
1901.53886,0.00111
1899.47869,0.00125
1897.41852,0.00136
1895.35835,0.00129
1893.29818,0.00102
1891.23800,0.00085
1889.17783,0.00089
1887.11766,0.00101
1885.05749,0.00110
1882.99731,0.00114
1880.93714,0.00104
1878.87697,0.00086
1876.81680,0.00075
1874.75663,0.00076
1872.69645,0.00083
1870.63628,0.00083
1868.57611,0.00082
1866.51594,0.00098
1864.45577,0.00112
1862.39559,0.00115
1860.33542,0.00120
1858.27525,0.00132
1856.21508,0.00128
1854.15491,0.00100
1852.09473,0.00073
1850.03456,0.00070
1847.97439,0.00084
1845.91422,0.00094
1843.85404,0.00096
1841.79387,0.00093
1839.73370,0.00087
1837.67353,0.00090
1835.61336,0.00109
1833.55318,0.00129
1831.49301,0.00129
1829.43284,0.00115
1827.37267,0.00108
1825.31250,0.00113
1823.25232,0.00119
1821.19215,0.00118
1819.13198,0.00109
1817.07181,0.00098
1815.01163,0.00097
1812.95146,0.00103
1810.89129,0.00097
1808.83112,0.00079
1806.77095,0.00069
1804.71077,0.00068
1802.65060,0.00069
1800.59043,0.00080
1798.53026,0.00096
1796.47009,0.00094
1794.40991,0.00072
1792.34974,0.00058
1790.28957,0.00066
1788.22940,0.00082
1786.16923,0.00089
1784.10905,0.00085
1782.04888,0.00081
1779.98871,0.00090
1777.92854,0.00102
1775.86836,0.00098
1773.80819,0.00083
1771.74802,0.00074
1769.68785,0.00081
1767.62768,0.00087
1765.56750,0.00084
1763.50733,0.00084
1761.44716,0.00094
1759.38699,0.00101
1757.32682,0.00103
1755.26664,0.00105
1753.20647,0.00102
1751.14630,0.00099
1749.08613,0.00109
1747.02596,0.00127
1744.96578,0.00141
1742.90561,0.00155
1740.84544,0.00175
1738.78527,0.00190
1736.72509,0.00193
1734.66492,0.00199
1732.60475,0.00213
1730.54458,0.00220
1728.48441,0.00214
1726.42423,0.00199
1724.36406,0.00187
1722.30389,0.00179
1720.24372,0.00167
1718.18355,0.00145
1716.12337,0.00129
1714.06320,0.00130
1712.00303,0.00139
1709.94286,0.00151
1707.88268,0.00158
1705.82251,0.00159
1703.76234,0.00154
1701.70217,0.00146
1699.64200,0.00126
1697.58182,0.00097
1695.52165,0.00092
1693.46148,0.00110
1691.40131,0.00124
1689.34114,0.00126
1687.28096,0.00123
1685.22079,0.00125
1683.16062,0.00129
1681.10045,0.00126
1679.04028,0.00123
1676.98010,0.00133
1674.91993,0.00149
1672.85976,0.00157
1670.79959,0.00158
1668.73941,0.00171
1666.67924,0.00191
1664.61907,0.00202
1662.55890,0.00208
1660.49873,0.00216
1658.43855,0.00220
1656.37838,0.00225
1654.31821,0.00236
1652.25804,0.00249
1650.19787,0.00255
1648.13769,0.00258
1646.07752,0.00256
1644.01735,0.00250
1641.95718,0.00253
1639.89701,0.00269
1637.83683,0.00284
1635.77666,0.00290
1633.71649,0.00293
1631.65632,0.00291
1629.59614,0.00288
1627.53597,0.00291
1625.47580,0.00301
1623.41563,0.00310
1621.35546,0.00316
1619.29528,0.00320
1617.23511,0.00317
1615.17494,0.00307
1613.11477,0.00301
1611.05460,0.00296
1608.99442,0.00284
1606.93425,0.00271
1604.87408,0.00272
1602.81391,0.00280
1600.75373,0.00276
1598.69356,0.00263
1596.63339,0.00245
1594.57322,0.00223
1592.51305,0.00208
1590.45287,0.00202
1588.39270,0.00195
1586.33253,0.00185
1584.27236,0.00176
1582.21219,0.00169
1580.15201,0.00164
1578.09184,0.00165
1576.03167,0.00165
1573.97150,0.00152
1571.91133,0.00130
1569.85115,0.00115
1567.79098,0.00113
1565.73081,0.00111
1563.67064,0.00106
1561.61046,0.00109
1559.55029,0.00123
1557.49012,0.00140
1555.42995,0.00133
1553.36978,0.00105
1551.30960,0.00079
1549.24943,0.00070
1547.18926,0.00069
1545.12909,0.00057
1543.06892,0.00035
1541.00874,0.00030
1538.94857,0.00059
1536.88840,0.00081
1534.82823,0.00075
1532.76805,0.00057
1530.70788,0.00053
1528.64771,0.00054
1526.58754,0.00043
1524.52737,0.00021
1522.46719,0.00004
1520.40702,0.00010
1518.34685,0.00026
1516.28668,0.00038
1514.22651,0.00049
1512.16633,0.00058
1510.10616,0.00055
1508.04599,0.00049
1505.98582,0.00057
1503.92565,0.00070
1501.86547,0.00075
1499.80530,0.00080
1497.74513,0.00092
1495.68496,0.00099
1493.62478,0.00094
1491.56461,0.00082
1489.50444,0.00072
1487.44427,0.00077
1485.38410,0.00091
1483.32392,0.00100
1481.26375,0.00096
1479.20358,0.00090
1477.14341,0.00096
1475.08324,0.00112
1473.02306,0.00128
1470.96289,0.00137
1468.90272,0.00141
1466.84255,0.00143
1464.78238,0.00141
1462.72220,0.00137
1460.66203,0.00135
1458.60186,0.00137
1456.54169,0.00152
1454.48151,0.00174
1452.42134,0.00189
1450.36117,0.00198
1448.30100,0.00206
1446.24083,0.00209
1444.18065,0.00210
1442.12048,0.00208
1440.06031,0.00199
1438.00014,0.00190
1435.93997,0.00195
1433.87979,0.00206
1431.81962,0.00212
1429.75945,0.00216
1427.69928,0.00223
1425.63910,0.00235
1423.57893,0.00249
1421.51876,0.00259
1419.45859,0.00262
1417.39842,0.00263
1415.33824,0.00267
1413.27807,0.00275
1411.21790,0.00282
1409.15773,0.00284
1407.09756,0.00275
1405.03738,0.00260
1402.97721,0.00256
1400.91704,0.00255
1398.85687,0.00250
1396.79670,0.00242
1394.73652,0.00229
1392.67635,0.00216
1390.61618,0.00214
1388.55601,0.00222
1386.49583,0.00232
1384.43566,0.00239
1382.37549,0.00239
1380.31532,0.00239
1378.25515,0.00243
1376.19497,0.00252
1374.13480,0.00262
1372.07463,0.00274
1370.01446,0.00279
1367.95429,0.00271
1365.89411,0.00249
1363.83394,0.00231
1361.77377,0.00228
1359.71360,0.00237
1357.65343,0.00241
1355.59325,0.00240
1353.53308,0.00241
1351.47291,0.00245
1349.41274,0.00243
1347.35256,0.00238
1345.29239,0.00235
1343.23222,0.00232
1341.17205,0.00226
1339.11188,0.00218
1337.05170,0.00209
1334.99153,0.00204
1332.93136,0.00210
1330.87119,0.00219
1328.81102,0.00224
1326.75084,0.00224
1324.69067,0.00219
1322.63050,0.00214
1320.57033,0.00214
1318.51015,0.00218
1316.44998,0.00221
1314.38981,0.00221
1312.32964,0.00214
1310.26947,0.00207
1308.20929,0.00208
1306.14912,0.00210
1304.08895,0.00204
1302.02878,0.00192
1299.96861,0.00185
1297.90843,0.00186
1295.84826,0.00180
1293.78809,0.00165
1291.72792,0.00153
1289.66775,0.00153
1287.60757,0.00161
1285.54740,0.00168
1283.48723,0.00170
1281.42706,0.00172
1279.36688,0.00175
1277.30671,0.00180
1275.24654,0.00184
1273.18637,0.00177
1271.12620,0.00168
1269.06602,0.00174
1267.00585,0.00192
1264.94568,0.00205
1262.88551,0.00218
1260.82534,0.00232
1258.76516,0.00244
1256.70499,0.00255
1254.64482,0.00260
1252.58465,0.00263
1250.52447,0.00268
1248.46430,0.00267
1246.40413,0.00261
1244.34396,0.00262
1242.28379,0.00265
1240.22361,0.00260
1238.16344,0.00246
1236.10327,0.00235
1234.04310,0.00237
1231.98293,0.00235
1229.92275,0.00221
1227.86258,0.00205
1225.80241,0.00195
1223.74224,0.00190
1221.68207,0.00181
1219.62189,0.00163
1217.56172,0.00146
1215.50155,0.00140
1213.44138,0.00138
1211.38120,0.00134
1209.32103,0.00127
1207.26086,0.00115
1205.20069,0.00099
1203.14052,0.00082
1201.08034,0.00071
1199.02017,0.00066
1196.96000,0.00058
1194.89983,0.00040
1192.83966,0.00019
1190.77948,0.00006
1188.71931,0.00002
1186.65914,0.00006
1184.59897,0.00018
1182.53880,0.00029
1180.47862,0.00035
1178.41845,0.00043
1176.35828,0.00058
1174.29811,0.00079
1172.23793,0.00101
1170.17776,0.00117
1168.11759,0.00131
1166.05742,0.00150
1163.99725,0.00166
1161.93707,0.00176
1159.87690,0.00190
1157.81673,0.00209
1155.75656,0.00229
1153.69639,0.00249
1151.63621,0.00268
1149.57604,0.00285
1147.51587,0.00300
1145.45570,0.00309
1143.39552,0.00314
1141.33535,0.00321
1139.27518,0.00329
1137.21501,0.00342
1135.15484,0.00353
1133.09466,0.00361
1131.03449,0.00383
1128.97432,0.00420
1126.91415,0.00447
1124.85398,0.00452
1122.79380,0.00444
1120.73363,0.00448
1118.67346,0.00473
1116.61329,0.00500
1114.55312,0.00518
1112.49294,0.00532
1110.43277,0.00557
1108.37260,0.00591
1106.31243,0.00612
1104.25225,0.00625
1102.19208,0.00645
1100.13191,0.00672
1098.07174,0.00696
1096.01157,0.00720
1093.95139,0.00747
1091.89122,0.00778
1089.83105,0.00812
1087.77088,0.00846
1085.71071,0.00876
1083.65053,0.00891
1081.59036,0.00894
1079.53019,0.00911
1077.47002,0.00944
1075.40985,0.00973
1073.34967,0.00996
1071.28950,0.01015
1069.22933,0.01034
1067.16916,0.01063
1065.10898,0.01088
1063.04881,0.01095
1060.98864,0.01098
1058.92847,0.01104
1056.86830,0.01106
1054.80812,0.01107
1052.74795,0.01122
1050.68778,0.01143
1048.62761,0.01153
1046.56744,0.01164
1044.50726,0.01191
1042.44709,0.01217
1040.38692,0.01231
1038.32675,0.01243
1036.26657,0.01252
1034.20640,0.01242
1032.14623,0.01225
1030.08606,0.01221
1028.02589,0.01221
1025.96571,0.01210
1023.90554,0.01191
1021.84537,0.01178
1019.78520,0.01172
1017.72503,0.01164
1015.66485,0.01161
1013.60468,0.01169
1011.54451,0.01180
1009.48434,0.01182
1007.42417,0.01163
1005.36399,0.01135
1003.30382,0.01106
1001.24365,0.01070
999.18348,0.01038
997.12330,0.01021
995.06313,0.01014
993.00296,0.01005
990.94279,0.00988
988.88262,0.00968
986.82244,0.00946
984.76227,0.00918
982.70210,0.00895
980.64193,0.00886
978.58176,0.00886
976.52158,0.00881
974.46141,0.00859
972.40124,0.00835
970.34107,0.00829
968.28089,0.00831
966.22072,0.00834
964.16055,0.00816
962.10038,0.00779
960.04021,0.00760
957.98003,0.00759
955.91986,0.00754
953.85969,0.00744
951.79952,0.00722
949.73935,0.00686
947.67917,0.00642
945.61900,0.00600
943.55883,0.00580
941.49866,0.00575
939.43849,0.00550
937.37831,0.00506
935.31814,0.00468
933.25797,0.00429
931.19780,0.00384
929.13762,0.00352
927.07745,0.00333
925.01728,0.00308
922.95711,0.00267
920.89694,0.00229
918.83676,0.00212
916.77659,0.00212
914.71642,0.00211
912.65625,0.00187
910.59608,0.00156
908.53590,0.00155
906.47573,0.00175
904.41556,0.00177
902.35539,0.00170
900.29522,0.00175
898.23504,0.00177
896.17487,0.00167
894.11470,0.00163
892.05453,0.00167
889.99435,0.00169
887.93418,0.00182
885.87401,0.00189
883.81384,0.00179
881.75367,0.00162
879.69349,0.00143
877.63332,0.00124
875.57315,0.00105
873.51298,0.00093
871.45281,0.00105
869.39263,0.00134
867.33246,0.00155
865.27229,0.00162
863.21212,0.00160
861.15194,0.00157
859.09177,0.00152
857.03160,0.00135
854.97143,0.00124
852.91126,0.00122
850.85108,0.00100
848.79091,0.00064
846.73074,0.00047
844.67057,0.00057
842.61040,0.00079
840.55022,0.00096
838.49005,0.00097
836.42988,0.00078
834.36971,0.00048
832.30954,0.00043
830.24936,0.00048
828.18919,0.00052
826.12902,0.00080
824.06885,0.00103
822.00867,0.00081
819.94850,0.00040
817.88833,0.00030
815.82816,0.00058
813.76799,0.00083
811.70781,0.00085
809.64764,0.00088
807.58747,0.00114
805.52730,0.00123
803.46713,0.00076
801.40695,0.00041
799.34678,0.00062
797.28661,0.00077
795.22644,0.00071
793.16627,0.00060
791.10609,0.00023
789.04592,0.00001
786.98575,0.00031
784.92558,0.00069
782.86540,0.00076
780.80523,0.00068
778.74506,0.00057
776.68489,0.00045
774.62472,0.00047
772.56454,0.00079
770.50437,0.00103
768.44420,0.00075
766.38403,0.00028
764.32386,0.00022
762.26368,0.00039
760.20351,0.00029
758.14334,0.00010
756.08317,0.00017
754.02299,0.00043
751.96282,0.00069
749.90265,0.00088
747.84248,0.00094
745.78231,0.00070
743.72213,0.00025
741.66196,0.00013
739.60179,0.00046
737.54162,0.00075
735.48145,0.00077
733.42127,0.00082
731.36110,0.00093
729.30093,0.00095
727.24076,0.00107
725.18059,0.00139
723.12041,0.00157
721.06024,0.00173
719.00007,0.00160
716.93990,0.00147
714.87972,0.00160
712.81955,0.00171
710.75938,0.00153
708.69921,0.00137
706.63904,0.00134
704.57886,0.00122
702.51869,0.00122
700.45852,0.00157
698.39835,0.00199
696.33818,0.00211
694.27800,0.00215
692.21783,0.00241
690.15766,0.00262
688.09749,0.00254
686.03731,0.00233
683.97714,0.00205
681.91697,0.00170
679.85680,0.00149
677.79663,0.00166
675.73645,0.00193
673.67628,0.00163
671.61611,0.00053
669.55594,0.00105
667.49577,0.00291
665.43559,0.00126
663.37542,0.00210
661.31525,0.00281
659.25508,0.00307
657.19491,0.00304
655.13473,0.00245
653.07456,0.00157
651.01439,0.00090
648.95422,0.00053
646.89404,0.00015
644.83387,0.00000
642.77370,0.00023
640.71353,0.00114
638.65336,0.00227
636.59318,0.00248
634.53301,0.00165
632.47284,0.00119
630.41267,0.00198
628.35250,0.00328
626.29232,0.00325
624.23215,0.00162
622.17198,0.00080
620.11181,0.00111
618.05164,0.00170
615.99146,0.00233
613.93129,0.00258
611.87112,0.00264
609.81095,0.00243
607.75077,0.00188
605.69060,0.00207
603.63043,0.00320
601.57026,0.00288
599.51009,0.00000
