3996.73391,0.00037
3994.67373,0.00039
3992.61356,0.00041
3990.55339,0.00046
3988.49322,0.00048
3986.43305,0.00046
3984.37287,0.00037
3982.31270,0.00026
3980.25253,0.00018
3978.19236,0.00019
3976.13219,0.00024
3974.07201,0.00023
3972.01184,0.00015
3969.95167,0.00003
3967.89150,0.00000
3965.83133,0.00017
3963.77115,0.00050
3961.71098,0.00085
3959.65081,0.00110
3957.59064,0.00124
3955.53046,0.00127
3953.47029,0.00119
3951.41012,0.00102
3949.34995,0.00074
3947.28978,0.00039
3945.22960,0.00010
3943.16943,0.00000
3941.10926,0.00013
3939.04909,0.00037
3936.98892,0.00054
3934.92874,0.00060
3932.86857,0.00064
3930.80840,0.00073
3928.74823,0.00082
3926.68805,0.00085
3924.62788,0.00083
3922.56771,0.00082
3920.50754,0.00084
3918.44737,0.00090
3916.38719,0.00093
3914.32702,0.00086
3912.26685,0.00074
3910.20668,0.00063
3908.14651,0.00056
3906.08633,0.00055
3904.02616,0.00057
3901.96599,0.00063
3899.90582,0.00073
3897.84565,0.00084
3895.78547,0.00101
3893.72530,0.00125
3891.66513,0.00146
3889.60496,0.00146
3887.54478,0.00123
3885.48461,0.00094
3883.42444,0.00074
3881.36427,0.00064
3879.30410,0.00057
3877.24392,0.00057
3875.18375,0.00069
3873.12358,0.00090
3871.06341,0.00112
3869.00324,0.00129
3866.94306,0.00142
3864.88289,0.00154
3862.82272,0.00156
3860.76255,0.00147
3858.70237,0.00131
3856.64220,0.00116
3854.58203,0.00109
3852.52186,0.00104
3850.46169,0.00089
3848.40151,0.00064
3846.34134,0.00053
3844.28117,0.00071
3842.22100,0.00110
3840.16083,0.00146
3838.10065,0.00153
3836.04048,0.00130
3833.98031,0.00101
3831.92014,0.00088
3829.85997,0.00098
3827.79979,0.00118
3825.73962,0.00140
3823.67945,0.00158
3821.61928,0.00160
3819.55910,0.00140
3817.49893,0.00108
3815.43876,0.00073
3813.37859,0.00042
3811.31842,0.00024
3809.25824,0.00026
3807.19807,0.00052
3805.13790,0.00097
3803.07773,0.00144
3801.01756,0.00172
3798.95738,0.00165
3796.89721,0.00132
3794.83704,0.00096
3792.77687,0.00074
3790.71670,0.00070
3788.65652,0.00072
3786.59635,0.00069
3784.53618,0.00067
3782.47601,0.00076
3780.41583,0.00095
3778.35566,0.00109
3776.29549,0.00115
3774.23532,0.00122
3772.17515,0.00132
3770.11497,0.00139
3768.05480,0.00133
3765.99463,0.00114
3763.93446,0.00096
3761.87429,0.00089
3759.81411,0.00090
3757.75394,0.00087
3755.69377,0.00074
3753.63360,0.00061
3751.57342,0.00055
3749.51325,0.00058
3747.45308,0.00070
3745.39291,0.00090
3743.33274,0.00115
3741.27256,0.00146
3739.21239,0.00190
3737.15222,0.00235
3735.09205,0.00257
3733.03188,0.00238
3730.97170,0.00185
3728.91153,0.00129
3726.85136,0.00094
3724.79119,0.00081
3722.73102,0.00078
3720.67084,0.00075
3718.61067,0.00074
3716.55050,0.00083
3714.49033,0.00111
3712.43015,0.00147
3710.36998,0.00168
3708.30981,0.00162
3706.24964,0.00148
3704.18947,0.00142
3702.12929,0.00134
3700.06912,0.00115
3698.00895,0.00096
3695.94878,0.00089
3693.88861,0.00100
3691.82843,0.00117
3689.76826,0.00128
3687.70809,0.00122
3685.64792,0.00109
3683.58775,0.00105
3681.52757,0.00121
3679.46740,0.00156
3677.40723,0.00198
3675.34706,0.00226
3673.28688,0.00232
3671.22671,0.00228
3669.16654,0.00220
3667.10637,0.00213
3665.04620,0.00213
3662.98602,0.00219
3660.92585,0.00229
3658.86568,0.00248
3656.80551,0.00278
3654.74534,0.00320
3652.68516,0.00370
3650.62499,0.00414
3648.56482,0.00429
3646.50465,0.00408
3644.44447,0.00370
3642.38430,0.00343
3640.32413,0.00345
3638.26396,0.00370
3636.20379,0.00401
3634.14361,0.00423
3632.08344,0.00432
3630.02327,0.00433
3627.96310,0.00429
3625.90293,0.00430
3623.84275,0.00451
3621.78258,0.00495
3619.72241,0.00545
3617.66224,0.00584
3615.60207,0.00607
3613.54189,0.00616
3611.48172,0.00615
3609.42155,0.00615
3607.36138,0.00633
3605.30120,0.00672
3603.24103,0.00718
3601.18086,0.00749
3599.12069,0.00760
3597.06052,0.00768
3595.00034,0.00787
3592.94017,0.00814
3590.88000,0.00842
3588.81983,0.00876
3586.75966,0.00912
3584.69948,0.00941
3582.63931,0.00958
3580.57914,0.00966
3578.51897,0.00967
3576.45879,0.00961
3574.39862,0.00951
3572.33845,0.00948
3570.27828,0.00966
3568.21811,0.01005
3566.15793,0.01047
3564.09776,0.01072
3562.03759,0.01083
3559.97742,0.01092
3557.91725,0.01107
3555.85707,0.01126
3553.79690,0.01149
3551.73673,0.01178
3549.67656,0.01220
3547.61639,0.01273
3545.55621,0.01325
3543.49604,0.01361
3541.43587,0.01382
3539.37570,0.01394
3537.31552,0.01404
3535.25535,0.01416
3533.19518,0.01434
3531.13501,0.01456
3529.07484,0.01480
3527.01466,0.01507
3524.95449,0.01536
3522.89432,0.01564
3520.83415,0.01588
3518.77398,0.01607
3516.71380,0.01613
3514.65363,0.01605
3512.59346,0.01592
3510.53329,0.01590
3508.47312,0.01608
3506.41294,0.01649
3504.35277,0.01704
3502.29260,0.01756
3500.23243,0.01795
3498.17225,0.01822
3496.11208,0.01838
3494.05191,0.01844
3491.99174,0.01845
3489.93157,0.01846
3487.87139,0.01850
3485.81122,0.01862
3483.75105,0.01883
3481.69088,0.01909
3479.63071,0.01938
3477.57053,0.01968
3475.51036,0.01997
3473.45019,0.02022
3471.39002,0.02042
3469.32984,0.02059
3467.26967,0.02070
3465.20950,0.02079
3463.14933,0.02095
3461.08916,0.02123
3459.02898,0.02163
3456.96881,0.02205
3454.90864,0.02243
3452.84847,0.02271
3450.78830,0.02288
3448.72812,0.02292
3446.66795,0.02284
3444.60778,0.02277
3442.54761,0.02282
3440.48744,0.02300
3438.42726,0.02322
3436.36709,0.02344
3434.30692,0.02366
3432.24675,0.02388
3430.18657,0.02404
3428.12640,0.02412
3426.06623,0.02418
3424.00606,0.02431
3421.94589,0.02452
3419.88571,0.02480
3417.82554,0.02510
3415.76537,0.02539
3413.70520,0.02566
3411.64503,0.02593
3409.58485,0.02618
3407.52468,0.02632
3405.46451,0.02633
3403.40434,0.02623
3401.34416,0.02614
3399.28399,0.02617
3397.22382,0.02636
3395.16365,0.02662
3393.10348,0.02687
3391.04330,0.02711
3388.98313,0.02735
3386.92296,0.02757
3384.86279,0.02764
3382.80262,0.02755
3380.74244,0.02736
3378.68227,0.02724
3376.62210,0.02730
3374.56193,0.02750
3372.50176,0.02770
3370.44158,0.02776
3368.38141,0.02771
3366.32124,0.02767
3364.26107,0.02771
3362.20089,0.02785
3360.14072,0.02805
3358.08055,0.02824
3356.02038,0.02838
3353.96021,0.02844
3351.90003,0.02850
3349.83986,0.02864
3347.77969,0.02882
3345.71952,0.02894
3343.65935,0.02888
3341.59917,0.02869
3339.53900,0.02851
3337.47883,0.02848
3335.41866,0.02861
3333.35849,0.02882
3331.29831,0.02900
3329.23814,0.02913
3327.17797,0.02924
3325.11780,0.02935
3323.05762,0.02945
3320.99745,0.02949
3318.93728,0.02946
3316.87711,0.02940
3314.81694,0.02940
3312.75676,0.02951
3310.69659,0.02970
3308.63642,0.02986
3306.57625,0.02987
3304.51608,0.02970
3302.45590,0.02945
3300.39573,0.02931
3298.33556,0.02934
3296.27539,0.02944
3294.21521,0.02954
3292.15504,0.02966
3290.09487,0.02981
3288.03470,0.02993
3285.97453,0.02998
3283.91435,0.02999
3281.85418,0.02997
3279.79401,0.02989
3277.73384,0.02972
3275.67367,0.02949
3273.61349,0.02924
3271.55332,0.02906
3269.49315,0.02900
3267.43298,0.02905
3265.37281,0.02912
3263.31263,0.02916
3261.25246,0.02911
3259.19229,0.02902
3257.13212,0.02895
3255.07194,0.02894
3253.01177,0.02901
3250.95160,0.02916
3248.89143,0.02931
3246.83126,0.02934
3244.77108,0.02922
3242.71091,0.02903
3240.65074,0.02887
3238.59057,0.02874
3236.53040,0.02862
3234.47022,0.02851
3232.41005,0.02841
3230.34988,0.02826
3228.28971,0.02800
3226.22954,0.02774
3224.16936,0.02760
3222.10919,0.02757
3220.04902,0.02757
3217.98885,0.02753
3215.92867,0.02745
3213.86850,0.02733
3211.80833,0.02718
3209.74816,0.02699
3207.68799,0.02676
3205.62781,0.02657
3203.56764,0.02643
3201.50747,0.02634
3199.44730,0.02629
3197.38713,0.02625
3195.32695,0.02618
3193.26678,0.02606
3191.20661,0.02589
3189.14644,0.02570
3187.08626,0.02556
3185.02609,0.02548
3182.96592,0.02541
3180.90575,0.02527
3178.84558,0.02502
3176.78540,0.02470
3174.72523,0.02440
3172.66506,0.02420
3170.60489,0.02409
3168.54472,0.02402
3166.48454,0.02389
3164.42437,0.02369
3162.36420,0.02344
3160.30403,0.02318
3158.24386,0.02290
3156.18368,0.02259
3154.12351,0.02230
3152.06334,0.02207
3150.00317,0.02187
3147.94299,0.02168
3145.88282,0.02149
3143.82265,0.02132
3141.76248,0.02118
3139.70231,0.02104
3137.64213,0.02082
3135.58196,0.02054
3133.52179,0.02024
3131.46162,0.01998
3129.40145,0.01980
3127.34127,0.01966
3125.28110,0.01953
3123.22093,0.01937
3121.16076,0.01917
3119.10058,0.01892
3117.04041,0.01866
3114.98024,0.01839
3112.92007,0.01812
3110.85990,0.01783
3108.79972,0.01751
3106.73955,0.01721
3104.67938,0.01699
3102.61921,0.01685
3100.55904,0.01675
3098.49886,0.01668
3096.43869,0.01661
3094.37852,0.01651
3092.31835,0.01633
3090.25818,0.01609
3088.19800,0.01582
3086.13783,0.01556
3084.07766,0.01537
3082.01749,0.01530
3079.95731,0.01533
3077.89714,0.01534
3075.83697,0.01528
3073.77680,0.01513
3071.71663,0.01488
3069.65645,0.01457
3067.59628,0.01426
3065.53611,0.01399
3063.47594,0.01375
3061.41577,0.01353
3059.35559,0.01332
3057.29542,0.01311
3055.23525,0.01290
3053.17508,0.01273
3051.11491,0.01265
3049.05473,0.01265
3046.99456,0.01264
3044.93439,0.01254
3042.87422,0.01235
3040.81404,0.01215
3038.75387,0.01197
3036.69370,0.01179
3034.63353,0.01159
3032.57336,0.01137
3030.51318,0.01118
3028.45301,0.01106
3026.39284,0.01096
3024.33267,0.01088
3022.27250,0.01082
3020.21232,0.01076
3018.15215,0.01068
3016.09198,0.01057
3014.03181,0.01047
3011.97163,0.01037
3009.91146,0.01029
3007.85129,0.01023
3005.79112,0.01022
3003.73095,0.01022
3001.67077,0.01025
2999.61060,0.01028
2997.55043,0.01024
2995.49026,0.01001
2993.43009,0.00972
2991.36991,0.00957
2989.30974,0.00962
2987.24957,0.00975
2985.18940,0.00988
2983.12923,0.01007
2981.06905,0.01036
2979.00888,0.01069
2976.94871,0.01086
2974.88854,0.01079
2972.82836,0.01072
2970.76819,0.01085
2968.70802,0.01114
2966.64785,0.01151
2964.58768,0.01189
2962.52750,0.01206
2960.46733,0.01200
2958.40716,0.01198
2956.34699,0.01221
2954.28682,0.01259
2952.22664,0.01300
2950.16647,0.01336
2948.10630,0.01366
2946.04613,0.01391
2943.98596,0.01413
2941.92578,0.01439
2939.86561,0.01463
2937.80544,0.01468
2935.74527,0.01457
2933.68509,0.01452
2931.62492,0.01462
2929.56475,0.01479
2927.50458,0.01484
2925.44441,0.01473
2923.38423,0.01453
2921.32406,0.01438
2919.26389,0.01437
2917.20372,0.01438
2915.14355,0.01428
2913.08337,0.01404
2911.02320,0.01373
2908.96303,0.01351
2906.90286,0.01341
2904.84268,0.01333
2902.78251,0.01321
2900.72234,0.01306
2898.66217,0.01296
2896.60200,0.01301
2894.54182,0.01316
2892.48165,0.01317
2890.42148,0.01299
2888.36131,0.01278
2886.30114,0.01267
2884.24096,0.01263
2882.18079,0.01258
2880.12062,0.01248
2878.06045,0.01240
2876.00028,0.01231
2873.94010,0.01214
2871.87993,0.01186
2869.81976,0.01160
2867.75959,0.01145
2865.69941,0.01134
2863.63924,0.01108
2861.57907,0.01072
2859.51890,0.01050
2857.45873,0.01040
2855.39855,0.01034
2853.33838,0.01025
2851.27821,0.01013
2849.21804,0.00999
2847.15787,0.00986
2845.09769,0.00974
2843.03752,0.00966
2840.97735,0.00956
2838.91718,0.00941
2836.85700,0.00926
2834.79683,0.00911
2832.73666,0.00894
2830.67649,0.00874
2828.61632,0.00851
2826.55614,0.00835
2824.49597,0.00833
2822.43580,0.00840
2820.37563,0.00843
2818.31546,0.00838
2816.25528,0.00830
2814.19511,0.00819
2812.13494,0.00809
2810.07477,0.00803
2808.01460,0.00803
2805.95442,0.00802
2803.89425,0.00793
2801.83408,0.00770
2799.77391,0.00745
2797.71373,0.00731
2795.65356,0.00743
2793.59339,0.00772
2791.53322,0.00787
2789.47305,0.00771
2787.41287,0.00740
2785.35270,0.00723
2783.29253,0.00724
2781.23236,0.00724
2779.17219,0.00711
2777.11201,0.00700
2775.05184,0.00703
2772.99167,0.00709
2770.93150,0.00702
2768.87133,0.00691
2766.81115,0.00685
2764.75098,0.00679
2762.69081,0.00668
2760.63064,0.00657
2758.57046,0.00650
2756.51029,0.00650
2754.45012,0.00654
2752.38995,0.00656
2750.32978,0.00660
2748.26960,0.00666
2746.20943,0.00670
2744.14926,0.00665
2742.08909,0.00651
2740.02892,0.00639
2737.96874,0.00645
2735.90857,0.00658
2733.84840,0.00657
2731.78823,0.00641
2729.72805,0.00622
2727.66788,0.00604
2725.60771,0.00593
2723.54754,0.00604
2721.48737,0.00633
2719.42719,0.00654
2717.36702,0.00648
2715.30685,0.00628
2713.24668,0.00617
2711.18651,0.00624
2709.12633,0.00642
2707.06616,0.00655
2705.00599,0.00650
2702.94582,0.00631
2700.88565,0.00617
2698.82547,0.00617
2696.76530,0.00619
2694.70513,0.00610
2692.64496,0.00593
2690.58478,0.00580
2688.52461,0.00571
2686.46444,0.00559
2684.40427,0.00549
2682.34410,0.00551
2680.28392,0.00561
2678.22375,0.00572
2676.16358,0.00581
2674.10341,0.00585
2672.04324,0.00582
2669.98306,0.00567
2667.92289,0.00548
2665.86272,0.00536
2663.80255,0.00545
2661.74238,0.00566
2659.68220,0.00578
2657.62203,0.00574
2655.56186,0.00566
2653.50169,0.00561
2651.44151,0.00558
2649.38134,0.00550
2647.32117,0.00538
2645.26100,0.00531
2643.20083,0.00536
2641.14065,0.00547
2639.08048,0.00551
2637.02031,0.00537
2634.96014,0.00505
2632.89997,0.00472
2630.83979,0.00460
2628.77962,0.00469
2626.71945,0.00476
2624.65928,0.00467
2622.59910,0.00454
2620.53893,0.00453
2618.47876,0.00465
2616.41859,0.00475
2614.35842,0.00476
2612.29824,0.00473
2610.23807,0.00472
2608.17790,0.00463
2606.11773,0.00444
2604.05756,0.00424
2601.99738,0.00417
2599.93721,0.00428
2597.87704,0.00444
2595.81687,0.00455
2593.75670,0.00462
2591.69652,0.00467
2589.63635,0.00462
2587.57618,0.00448
2585.51601,0.00436
2583.45583,0.00430
2581.39566,0.00426
2579.33549,0.00421
2577.27532,0.00418
2575.21515,0.00418
2573.15497,0.00419
2571.09480,0.00421
2569.03463,0.00422
2566.97446,0.00417
2564.91429,0.00405
2562.85411,0.00401
2560.79394,0.00402
2558.73377,0.00392
2556.67360,0.00379
2554.61342,0.00382
2552.55325,0.00393
2550.49308,0.00391
2548.43291,0.00367
2546.37274,0.00343
2544.31256,0.00347
2542.25239,0.00371
2540.19222,0.00390
2538.13205,0.00403
2536.07188,0.00409
2534.01170,0.00394
2531.95153,0.00352
2529.89136,0.00306
2527.83119,0.00296
2525.77102,0.00328
2523.71084,0.00362
2521.65067,0.00368
2519.59050,0.00366
2517.53033,0.00386
2515.47015,0.00417
2513.40998,0.00429
2511.34981,0.00412
2509.28964,0.00378
2507.22947,0.00361
2505.16929,0.00372
2503.10912,0.00378
2501.04895,0.00354
2498.98878,0.00324
2496.92861,0.00322
2494.86843,0.00336
2492.80826,0.00343
2490.74809,0.00339
2488.68792,0.00328
2486.62775,0.00320
2484.56757,0.00326
2482.50740,0.00339
2480.44723,0.00339
2478.38706,0.00328
2476.32688,0.00321
2474.26671,0.00318
2472.20654,0.00315
2470.14637,0.00314
2468.08620,0.00316
2466.02602,0.00320
2463.96585,0.00329
2461.90568,0.00349
2459.84551,0.00369
2457.78534,0.00362
2455.72516,0.00316
2453.66499,0.00257
2451.60482,0.00232
2449.54465,0.00255
2447.48447,0.00300
2445.42430,0.00339
2443.36413,0.00350
2441.30396,0.00334
2439.24379,0.00313
2437.18361,0.00305
2435.12344,0.00313
2433.06327,0.00322
2431.00310,0.00313
2428.94293,0.00295
2426.88275,0.00287
2424.82258,0.00286
2422.76241,0.00278
2420.70224,0.00262
2418.64207,0.00256
2416.58189,0.00272
2414.52172,0.00286
2412.46155,0.00276
2410.40138,0.00251
2408.34120,0.00239
2406.28103,0.00255
2404.22086,0.00290
2402.16069,0.00318
2400.10052,0.00322
2398.04034,0.00306
2395.98017,0.00282
2393.92000,0.00262
2391.85983,0.00254
2389.79966,0.00253
2387.73948,0.00245
2385.67931,0.00230
2383.61914,0.00216
2381.55897,0.00208
2379.49880,0.00198
2377.43862,0.00174
2375.37845,0.00143
2373.31828,0.00131
2371.25811,0.00154
2369.19793,0.00204
2367.13776,0.00262
2365.07759,0.00308
2363.01742,0.00329
2360.95725,0.00333
2358.89707,0.00338
2356.83690,0.00345
2354.77673,0.00352
2352.71656,0.00348
2350.65639,0.00332
2348.59621,0.00310
2346.53604,0.00291
2344.47587,0.00280
2342.41570,0.00279
2340.35552,0.00280
2338.29535,0.00263
2336.23518,0.00222
2334.17501,0.00167
2332.11484,0.00138
2330.05466,0.00178
2327.99449,0.00272
2325.93432,0.00358
2323.87415,0.00391
2321.81398,0.00373
2319.75380,0.00338
2317.69363,0.00314
2315.63346,0.00305
2313.57329,0.00296
2311.51312,0.00283
2309.45294,0.00275
2307.39277,0.00277
2305.33260,0.00288
2303.27243,0.00307
2301.21225,0.00332
2299.15208,0.00353
2297.09191,0.00365
2295.03174,0.00370
2292.97157,0.00365
2290.91139,0.00353
2288.85122,0.00340
2286.79105,0.00334
2284.73088,0.00338
2282.67071,0.00343
2280.61053,0.00343
2278.55036,0.00341
2276.49019,0.00334
2274.43002,0.00317
2272.36984,0.00292
2270.30967,0.00273
2268.24950,0.00278
2266.18933,0.00312
2264.12916,0.00348
2262.06898,0.00353
2260.00881,0.00324
2257.94864,0.00292
2255.88847,0.00284
2253.82830,0.00304
2251.76812,0.00330
2249.70795,0.00334
2247.64778,0.00302
2245.58761,0.00279
2243.52744,0.00309
2241.46726,0.00378
2239.40709,0.00404
2237.34692,0.00348
2235.28675,0.00269
2233.22657,0.00239
2231.16640,0.00282
2229.10623,0.00363
2227.04606,0.00409
2224.98589,0.00400
2222.92571,0.00380
2220.86554,0.00391
2218.80537,0.00431
2216.74520,0.00434
2214.68503,0.00366
2212.62485,0.00283
2210.56468,0.00273
2208.50451,0.00350
2206.44434,0.00429
2204.38417,0.00432
2202.32399,0.00371
2200.26382,0.00311
2198.20365,0.00315
2196.14348,0.00397
2194.08330,0.00478
2192.02313,0.00464
2189.96296,0.00369
2187.90279,0.00286
2185.84262,0.00273
2183.78244,0.00320
2181.72227,0.00393
2179.66210,0.00477
2177.60193,0.00533
2175.54176,0.00515
2173.48158,0.00456
2171.42141,0.00417
2169.36124,0.00408
2167.30107,0.00390
2165.24089,0.00371
2163.18072,0.00382
2161.12055,0.00374
2159.06038,0.00314
2157.00021,0.00258
2154.94003,0.00240
2152.87986,0.00267
2150.81969,0.00284
2148.75952,0.00202
2146.69935,0.00068
2144.63917,0.00000
2142.57900,0.00037
2140.51883,0.00142
2138.45866,0.00252
2136.39849,0.00315
2134.33831,0.00317
2132.27814,0.00293
2130.21797,0.00286
2128.15780,0.00302
2126.09762,0.00324
2124.03745,0.00334
2121.97728,0.00330
2119.91711,0.00343
2117.85694,0.00377
2115.79676,0.00393
2113.73659,0.00364
2111.67642,0.00312
2109.61625,0.00282
2107.55608,0.00287
2105.49590,0.00282
2103.43573,0.00247
2101.37556,0.00225
2099.31539,0.00237
2097.25521,0.00272
2095.19504,0.00315
2093.13487,0.00352
2091.07470,0.00370
2089.01453,0.00367
2086.95435,0.00351
2084.89418,0.00334
2082.83401,0.00324
2080.77384,0.00324
2078.71367,0.00331
2076.65349,0.00333
2074.59332,0.00323
2072.53315,0.00313
2070.47298,0.00314
2068.41281,0.00317
2066.35263,0.00306
2064.29246,0.00275
2062.23229,0.00231
2060.17212,0.00191
2058.11194,0.00171
2056.05177,0.00172
2053.99160,0.00169
2051.93143,0.00143
2049.87126,0.00109
2047.81108,0.00090
2045.75091,0.00090
2043.69074,0.00097
2041.63057,0.00119
2039.57040,0.00161
2037.51022,0.00208
2035.45005,0.00244
2033.38988,0.00270
2031.32971,0.00304
2029.26954,0.00352
2027.20936,0.00401
2025.14919,0.00429
2023.08902,0.00427
2021.02885,0.00393
2018.96867,0.00333
2016.90850,0.00254
2014.84833,0.00163
2012.78816,0.00075
2010.72799,0.00014
2008.66781,0.00000
2006.60764,0.00029
2004.54747,0.00090
2002.48730,0.00170
2000.42713,0.00247
1998.36695,0.00299
1996.30678,0.00317
1994.24661,0.00322
1992.18644,0.00331
1990.12626,0.00347
1988.06609,0.00373
1986.00592,0.00415
1983.94575,0.00464
1981.88558,0.00493
1979.82540,0.00471
1977.76523,0.00393
1975.70506,0.00296
1973.64489,0.00238
1971.58472,0.00244
1969.52454,0.00284
1967.46437,0.00318
1965.40420,0.00338
1963.34403,0.00340
1961.28386,0.00317
1959.22368,0.00280
1957.16351,0.00253
1955.10334,0.00240
1953.04317,0.00230
1950.98299,0.00219
1948.92282,0.00205
1946.86265,0.00183
1944.80248,0.00155
1942.74231,0.00126
1940.68213,0.00108
1938.62196,0.00108
1936.56179,0.00115
1934.50162,0.00120
1932.44145,0.00124
1930.38127,0.00136
1928.32110,0.00169
1926.26093,0.00214
1924.20076,0.00243
1922.14059,0.00230
1920.08041,0.00186
1918.02024,0.00146
1915.96007,0.00135
1913.89990,0.00149
1911.83972,0.00166
1909.77955,0.00166
1907.71938,0.00153
1905.65921,0.00143
1903.59904,0.00149
1901.53886,0.00168
1899.47869,0.00187
1897.41852,0.00188
1895.35835,0.00167
1893.29818,0.00134
1891.23800,0.00112
1889.17783,0.00107
1887.11766,0.00115
1885.05749,0.00127
1882.99731,0.00130
1880.93714,0.00123
1878.87697,0.00116
1876.81680,0.00116
1874.75663,0.00119
1872.69645,0.00116
1870.63628,0.00102
1868.57611,0.00082
1866.51594,0.00068
1864.45577,0.00065
1862.39559,0.00073
1860.33542,0.00085
1858.27525,0.00089
1856.21508,0.00085
1854.15491,0.00074
1852.09473,0.00063
1850.03456,0.00059
1847.97439,0.00068
1845.91422,0.00087
1843.85404,0.00100
1841.79387,0.00095
1839.73370,0.00076
1837.67353,0.00057
1835.61336,0.00048
1833.55318,0.00048
1831.49301,0.00052
1829.43284,0.00057
1827.37267,0.00064
1825.31250,0.00073
1823.25232,0.00076
1821.19215,0.00070
1819.13198,0.00053
1817.07181,0.00028
1815.01163,0.00008
1812.95146,0.00005
1810.89129,0.00016
1808.83112,0.00033
1806.77095,0.00050
1804.71077,0.00067
1802.65060,0.00082
1800.59043,0.00093
1798.53026,0.00099
1796.47009,0.00105
1794.40991,0.00110
1792.34974,0.00103
1790.28957,0.00076
1788.22940,0.00041
1786.16923,0.00012
1784.10905,-0.00003
1782.04888,0.00000
1779.98871,0.00013
1777.92854,0.00028
1775.86836,0.00045
1773.80819,0.00067
1771.74802,0.00089
1769.68785,0.00105
1767.62768,0.00115
1765.56750,0.00128
1763.50733,0.00155
1761.44716,0.00190
1759.38699,0.00224
1757.32682,0.00253
1755.26664,0.00283
1753.20647,0.00324
1751.14630,0.00379
1749.08613,0.00434
1747.02596,0.00476
1744.96578,0.00505
1742.90561,0.00529
1740.84544,0.00553
1738.78527,0.00578
1736.72509,0.00608
1734.66492,0.00634
1732.60475,0.00637
1730.54458,0.00611
1728.48441,0.00574
1726.42423,0.00544
1724.36406,0.00532
1722.30389,0.00538
1720.24372,0.00552
1718.18355,0.00556
1716.12337,0.00532
1714.06320,0.00484
1712.00303,0.00429
1709.94286,0.00385
1707.88268,0.00356
1705.82251,0.00341
1703.76234,0.00338
1701.70217,0.00348
1699.64200,0.00358
1697.58182,0.00351
1695.52165,0.00326
1693.46148,0.00302
1691.40131,0.00306
1689.34114,0.00343
1687.28096,0.00403
1685.22079,0.00466
1683.16062,0.00508
1681.10045,0.00520
1679.04028,0.00523
1676.98010,0.00543
1674.91993,0.00585
1672.85976,0.00633
1670.79959,0.00669
1668.73941,0.00692
1666.67924,0.00713
1664.61907,0.00750
1662.55890,0.00802
1660.49873,0.00856
1658.43855,0.00910
1656.37838,0.00969
1654.31821,0.01031
1652.25804,0.01079
1650.19787,0.01105
1648.13769,0.01120
1646.07752,0.01126
1644.01735,0.01129
1641.95718,0.01138
1639.89701,0.01158
1637.83683,0.01181
1635.77666,0.01195
1633.71649,0.01195
1631.65632,0.01193
1629.59614,0.01199
1627.53597,0.01216
1625.47580,0.01239
1623.41563,0.01261
1621.35546,0.01276
1619.29528,0.01287
1617.23511,0.01293
1615.17494,0.01284
1613.11477,0.01260
1611.05460,0.01228
1608.99442,0.01194
1606.93425,0.01154
1604.87408,0.01108
1602.81391,0.01056
1600.75373,0.01002
1598.69356,0.00947
1596.63339,0.00889
1594.57322,0.00828
1592.51305,0.00763
1590.45287,0.00698
1588.39270,0.00636
1586.33253,0.00575
1584.27236,0.00515
1582.21219,0.00464
1580.15201,0.00426
1578.09184,0.00395
1576.03167,0.00360
1573.97150,0.00316
1571.91133,0.00279
1569.85115,0.00255
1567.79098,0.00239
1565.73081,0.00230
1563.67064,0.00236
1561.61046,0.00258
1559.55029,0.00278
1557.49012,0.00265
1555.42995,0.00219
1553.36978,0.00164
1551.30960,0.00123
1549.24943,0.00104
1547.18926,0.00111
1545.12909,0.00146
1543.06892,0.00194
1541.00874,0.00227
1538.94857,0.00214
1536.88840,0.00164
1534.82823,0.00107
1532.76805,0.00065
1530.70788,0.00043
1528.64771,0.00047
1526.58754,0.00071
1524.52737,0.00101
1522.46719,0.00122
1520.40702,0.00125
1518.34685,0.00111
1516.28668,0.00091
1514.22651,0.00076
1512.16633,0.00078
1510.10616,0.00097
1508.04599,0.00113
1505.98582,0.00107
1503.92565,0.00084
1501.86547,0.00067
1499.80530,0.00062
1497.74513,0.00060
1495.68496,0.00059
1493.62478,0.00067
1491.56461,0.00090
1489.50444,0.00116
1487.44427,0.00126
1485.38410,0.00125
1483.32392,0.00128
1481.26375,0.00149
1479.20358,0.00189
1477.14341,0.00247
1475.08324,0.00310
1473.02306,0.00363
1470.96289,0.00390
1468.90272,0.00403
1466.84255,0.00422
1464.78238,0.00454
1462.72220,0.00494
1460.66203,0.00543
1458.60186,0.00596
1456.54169,0.00636
1454.48151,0.00649
1452.42134,0.00647
1450.36117,0.00647
1448.30100,0.00657
1446.24083,0.00667
1444.18065,0.00677
1442.12048,0.00691
1440.06031,0.00714
1438.00014,0.00748
1435.93997,0.00783
1433.87979,0.00812
1431.81962,0.00837
1429.75945,0.00862
1427.69928,0.00892
1425.63910,0.00932
1423.57893,0.00983
1421.51876,0.01033
1419.45859,0.01067
1417.39842,0.01074
1415.33824,0.01061
1413.27807,0.01043
1411.21790,0.01030
1409.15773,0.01022
1407.09756,0.01015
1405.03738,0.01001
1402.97721,0.00981
1400.91704,0.00960
1398.85687,0.00941
1396.79670,0.00924
1394.73652,0.00906
1392.67635,0.00888
1390.61618,0.00876
1388.55601,0.00877
1386.49583,0.00887
1384.43566,0.00901
1382.37549,0.00921
1380.31532,0.00949
1378.25515,0.00984
1376.19497,0.01015
1374.13480,0.01033
1372.07463,0.01037
1370.01446,0.01034
1367.95429,0.01027
1365.89411,0.01020
1363.83394,0.01012
1361.77377,0.00996
1359.71360,0.00971
1357.65343,0.00940
1355.59325,0.00913
1353.53308,0.00892
1351.47291,0.00878
1349.41274,0.00866
1347.35256,0.00855
1345.29239,0.00844
1343.23222,0.00837
1341.17205,0.00834
1339.11188,0.00827
1337.05170,0.00814
1334.99153,0.00804
1332.93136,0.00802
1330.87119,0.00806
1328.81102,0.00815
1326.75084,0.00822
1324.69067,0.00829
1322.63050,0.00834
1320.57033,0.00837
1318.51015,0.00840
1316.44998,0.00846
1314.38981,0.00855
1312.32964,0.00863
1310.26947,0.00861
1308.20929,0.00847
1306.14912,0.00822
1304.08895,0.00791
1302.02878,0.00762
1299.96861,0.00741
1297.90843,0.00729
1295.84826,0.00722
1293.78809,0.00719
1291.72792,0.00718
1289.66775,0.00716
1287.60757,0.00710
1285.54740,0.00697
1283.48723,0.00680
1281.42706,0.00670
1279.36688,0.00672
1277.30671,0.00685
1275.24654,0.00705
1273.18637,0.00728
1271.12620,0.00757
1269.06602,0.00792
1267.00585,0.00829
1264.94568,0.00866
1262.88551,0.00900
1260.82534,0.00932
1258.76516,0.00961
1256.70499,0.00985
1254.64482,0.01007
1252.58465,0.01027
1250.52447,0.01044
1248.46430,0.01058
1246.40413,0.01067
1244.34396,0.01067
1242.28379,0.01055
1240.22361,0.01036
1238.16344,0.01015
1236.10327,0.00992
1234.04310,0.00965
1231.98293,0.00931
1229.92275,0.00892
1227.86258,0.00853
1225.80241,0.00815
1223.74224,0.00778
1221.68207,0.00740
1219.62189,0.00700
1217.56172,0.00658
1215.50155,0.00612
1213.44138,0.00562
1211.38120,0.00509
1209.32103,0.00454
1207.26086,0.00395
1205.20069,0.00331
1203.14052,0.00261
1201.08034,0.00193
1199.02017,0.00137
1196.96000,0.00098
1194.89983,0.00062
1192.83966,0.00028
1190.77948,0.00007
1188.71931,0.00000
1186.65914,-0.00000
1184.59897,0.00017
1182.53880,0.00051
1180.47862,0.00092
1178.41845,0.00129
1176.35828,0.00166
1174.29811,0.00221
1172.23793,0.00292
1170.17776,0.00368
1168.11759,0.00442
1166.05742,0.00520
1163.99725,0.00601
1161.93707,0.00683
1159.87690,0.00761
1157.81673,0.00828
1155.75656,0.00875
1153.69639,0.00906
1151.63621,0.00939
1149.57604,0.00986
1147.51587,0.01044
1145.45570,0.01096
1143.39552,0.01128
1141.33535,0.01140
1139.27518,0.01143
1137.21501,0.01153
1135.15484,0.01178
1133.09466,0.01215
1131.03449,0.01261
1128.97432,0.01317
1126.91415,0.01385
1124.85398,0.01454
1122.79380,0.01512
1120.73363,0.01564
1118.67346,0.01616
1116.61329,0.01664
1114.55312,0.01707
1112.49294,0.01750
1110.43277,0.01794
1108.37260,0.01843
1106.31243,0.01907
1104.25225,0.01986
1102.19208,0.02066
1100.13191,0.02149
1098.07174,0.02240
1096.01157,0.02328
1093.95139,0.02400
1091.89122,0.02470
1089.83105,0.02543
1087.77088,0.02614
1085.71071,0.02696
1083.65053,0.02792
1081.59036,0.02882
1079.53019,0.02959
1077.47002,0.03032
1075.40985,0.03106
1073.34967,0.03177
1071.28950,0.03231
1069.22933,0.03263
1067.16916,0.03284
1065.10898,0.03315
1063.04881,0.03358
1060.98864,0.03401
1058.92847,0.03443
1056.86830,0.03487
1054.80812,0.03537
1052.74795,0.03584
1050.68778,0.03618
1048.62761,0.03647
1046.56744,0.03697
1044.50726,0.03768
1042.44709,0.03836
1040.38692,0.03886
1038.32675,0.03915
1036.26657,0.03933
1034.20640,0.03953
1032.14623,0.03976
1030.08606,0.03996
1028.02589,0.04013
1025.96571,0.04019
1023.90554,0.04014
1021.84537,0.04016
1019.78520,0.04019
1017.72503,0.04011
1015.66485,0.04003
1013.60468,0.04009
1011.54451,0.04017
1009.48434,0.04014
1007.42417,0.04003
1005.36399,0.03984
1003.30382,0.03942
1001.24365,0.03884
999.18348,0.03829
997.12330,0.03788
995.06313,0.03753
993.00296,0.03714
990.94279,0.03669
988.88262,0.03618
986.82244,0.03569
984.76227,0.03535
982.70210,0.03517
980.64193,0.03495
978.58176,0.03458
976.52158,0.03409
974.46141,0.03351
972.40124,0.03298
970.34107,0.03257
968.28089,0.03222
966.22072,0.03183
964.16055,0.03129
962.10038,0.03060
960.04021,0.02996
957.98003,0.02950
955.91986,0.02914
953.85969,0.02862
951.79952,0.02779
949.73935,0.02678
947.67917,0.02582
945.61900,0.02489
943.55883,0.02376
941.49866,0.02240
939.43849,0.02088
937.37831,0.01924
935.31814,0.01754
933.25797,0.01592
931.19780,0.01445
929.13762,0.01318
927.07745,0.01216
925.01728,0.01131
922.95711,0.01047
920.89694,0.00965
918.83676,0.00904
916.77659,0.00860
914.71642,0.00807
912.65625,0.00732
910.59608,0.00649
908.53590,0.00582
906.47573,0.00541
904.41556,0.00529
902.35539,0.00541
900.29522,0.00559
898.23504,0.00568
896.17487,0.00576
894.11470,0.00593
892.05453,0.00611
889.99435,0.00608
887.93418,0.00572
885.87401,0.00518
883.81384,0.00464
881.75367,0.00415
879.69349,0.00379
877.63332,0.00360
875.57315,0.00349
873.51298,0.00331
871.45281,0.00294
869.39263,0.00257
867.33246,0.00247
865.27229,0.00252
863.21212,0.00242
861.15194,0.00211
859.09177,0.00187
857.03160,0.00189
854.97143,0.00197
852.91126,0.00186
850.85108,0.00166
848.79091,0.00154
846.73074,0.00138
844.67057,0.00106
842.61040,0.00069
840.55022,0.00040
838.49005,0.00017
836.42988,0.00000
834.36971,-0.00009
832.30954,-0.00018
830.24936,-0.00033
828.18919,-0.00029
826.12902,-0.00004
824.06885,0.00022
822.00867,0.00041
819.94850,0.00055
817.88833,0.00058
815.82816,0.00041
813.76799,0.00021
811.70781,0.00043
809.64764,0.00126
807.58747,0.00211
805.52730,0.00230
803.46713,0.00186
801.40695,0.00144
799.34678,0.00139
797.28661,0.00131
795.22644,0.00088
793.16627,0.00031
791.10609,0.00000
789.04592,0.00003
786.98575,0.00017
784.92558,0.00015
782.86540,-0.00002
780.80523,-0.00010
778.74506,0.00004
776.68489,0.00033
774.62472,0.00057
772.56454,0.00078
770.50437,0.00108
768.44420,0.00135
766.38403,0.00128
764.32386,0.00096
762.26368,0.00065
760.20351,0.00050
758.14334,0.00047
756.08317,0.00056
754.02299,0.00087
751.96282,0.00115
749.90265,0.00109
747.84248,0.00092
745.78231,0.00095
743.72213,0.00095
741.66196,0.00055
739.60179,0.00000
737.54162,-0.00006
735.48145,0.00042
733.42127,0.00074
731.36110,0.00088
729.30093,0.00134
727.24076,0.00211
725.18059,0.00269
723.12041,0.00273
721.06024,0.00250
719.00007,0.00236
716.93990,0.00253
714.87972,0.00288
712.81955,0.00313
710.75938,0.00315
708.69921,0.00307
706.63904,0.00312
704.57886,0.00334
702.51869,0.00355
700.45852,0.00355
698.39835,0.00331
696.33818,0.00287
694.27800,0.00236
692.21783,0.00197
690.15766,0.00187
688.09749,0.00202
686.03731,0.00225
683.97714,0.00222
681.91697,0.00168
679.85680,0.00087
677.79663,0.00025
675.73645,0.00000
673.67628,-0.00002
671.61611,0.00019
669.55594,0.00057
667.49577,0.00103
665.43559,0.00136
663.37542,0.00138
661.31525,0.00116
659.25508,0.00095
657.19491,0.00077
655.13473,0.00053
653.07456,0.00029
651.01439,0.00014
648.95422,0.00000
646.89404,-0.00023
644.83387,-0.00026
642.77370,0.00009
640.71353,0.00067
638.65336,0.00114
636.59318,0.00134
634.53301,0.00134
632.47284,0.00110
630.41267,0.00046
628.35250,-0.00058
626.29232,-0.00172
624.23215,-0.00229
622.17198,-0.00158
620.11181,0.00062
618.05164,0.00349
615.99146,0.00467
613.93129,0.00302
611.87112,0.00062
609.81095,-0.00004
607.75077,0.00152
605.69060,0.00325
603.63043,0.00249
601.57026,0.00047
599.51009,0.00000
