3996.73391,0.00091
3994.67373,0.00085
3992.61356,0.00079
3990.55339,0.00073
3988.49322,0.00043
3986.43305,0.00011
3984.37287,0.00012
3982.31270,0.00034
3980.25253,0.00067
3978.19236,0.00101
3976.13219,0.00097
3974.07201,0.00053
3972.01184,0.00015
3969.95167,0.00000
3967.89150,0.00007
3965.83133,0.00024
3963.77115,0.00033
3961.71098,0.00028
3959.65081,0.00030
3957.59064,0.00059
3955.53046,0.00093
3953.47029,0.00111
3951.41012,0.00120
3949.34995,0.00107
3947.28978,0.00047
3945.22960,0.00014
3943.16943,0.00049
3941.10926,0.00070
3939.04909,0.00081
3936.98892,0.00105
3934.92874,0.00132
3932.86857,0.00148
3930.80840,0.00106
3928.74823,0.00050
3926.68805,0.00065
3924.62788,0.00092
3922.56771,0.00061
3920.50754,0.00059
3918.44737,0.00091
3916.38719,0.00081
3914.32702,0.00043
3912.26685,0.00035
3910.20668,0.00030
3908.14651,0.00036
3906.08633,0.00102
3904.02616,0.00149
3901.96599,0.00135
3899.90582,0.00117
3897.84565,0.00048
3895.78547,0.00000
3893.72530,0.00073
3891.66513,0.00127
3889.60496,0.00045
3887.54478,0.00056
3885.48461,0.00137
3883.42444,0.00122
3881.36427,0.00159
3879.30410,0.00138
3877.24392,0.00062
3875.18375,0.00092
3873.12358,0.00130
3871.06341,0.00180
3869.00324,0.00115
3866.94306,0.00020
3864.88289,0.00106
3862.82272,0.00155
3860.76255,0.00086
3858.70237,0.00009
3856.64220,0.00065
3854.58203,0.00264
3852.52186,0.00264
3850.46169,0.00077
3848.40151,0.00017
3846.34134,0.00063
3844.28117,0.00088
3842.22100,0.00041
3840.16083,0.00046
3838.10065,0.00095
3836.04048,0.00057
3833.98031,0.00033
3831.92014,0.00063
3829.85997,0.00072
3827.79979,0.00089
3825.73962,0.00078
3823.67945,0.00117
3821.61928,0.00218
3819.55910,0.00141
3817.49893,0.00139
3815.43876,0.00193
3813.37859,0.00109
3811.31842,0.00073
3809.25824,0.00148
3807.19807,0.00198
3805.13790,0.00102
3803.07773,0.00105
3801.01756,0.00129
3798.95738,0.00054
3796.89721,0.00108
3794.83704,0.00154
3792.77687,0.00141
3790.71670,0.00144
3788.65652,0.00154
3786.59635,0.00171
3784.53618,0.00156
3782.47601,0.00130
3780.41583,0.00173
3778.35566,0.00187
3776.29549,0.00152
3774.23532,0.00146
3772.17515,0.00174
3770.11497,0.00189
3768.05480,0.00145
3765.99463,0.00138
3763.93446,0.00130
3761.87429,0.00169
3759.81411,0.00242
3757.75394,0.00188
3755.69377,0.00100
3753.63360,0.00164
3751.57342,0.00250
3749.51325,0.00103
3747.45308,0.00000
3745.39291,0.00202
3743.33274,0.00246
3741.27256,0.00090
3739.21239,0.00089
3737.15222,0.00215
3735.09205,0.00277
3733.03188,0.00227
3730.97170,0.00140
3728.91153,0.00114
3726.85136,0.00173
3724.79119,0.00208
3722.73102,0.00244
3720.67084,0.00270
3718.61067,0.00249
3716.55050,0.00182
3714.49033,0.00174
3712.43015,0.00256
3710.36998,0.00266
3708.30981,0.00197
3706.24964,0.00168
3704.18947,0.00251
3702.12929,0.00343
3700.06912,0.00298
3698.00895,0.00228
3695.94878,0.00198
3693.88861,0.00185
3691.82843,0.00230
3689.76826,0.00294
3687.70809,0.00259
3685.64792,0.00218
3683.58775,0.00259
3681.52757,0.00290
3679.46740,0.00285
3677.40723,0.00372
3675.34706,0.00431
3673.28688,0.00294
3671.22671,0.00357
3669.16654,0.00476
3667.10637,0.00434
3665.04620,0.00445
3662.98602,0.00505
3660.92585,0.00546
3658.86568,0.00622
3656.80551,0.00697
3654.74534,0.00614
3652.68516,0.00574
3650.62499,0.00728
3648.56482,0.00849
3646.50465,0.00841
3644.44447,0.00816
3642.38430,0.00851
3640.32413,0.00892
3638.26396,0.00923
3636.20379,0.00956
3634.14361,0.00979
3632.08344,0.01023
3630.02327,0.01196
3627.96310,0.01275
3625.90293,0.01193
3623.84275,0.01197
3621.78258,0.01325
3619.72241,0.01449
3617.66224,0.01432
3615.60207,0.01437
3613.54189,0.01541
3611.48172,0.01626
3609.42155,0.01719
3607.36138,0.01803
3605.30120,0.01838
3603.24103,0.01889
3601.18086,0.01939
3599.12069,0.01936
3597.06052,0.01963
3595.00034,0.02054
3592.94017,0.02127
3590.88000,0.02192
3588.81983,0.02325
3586.75966,0.02411
3584.69948,0.02409
3582.63931,0.02452
3580.57914,0.02540
3578.51897,0.02616
3576.45879,0.02682
3574.39862,0.02744
3572.33845,0.02781
3570.27828,0.02837
3568.21811,0.02933
3566.15793,0.02960
3564.09776,0.02952
3562.03759,0.03037
3559.97742,0.03137
3557.91725,0.03176
3555.85707,0.03210
3553.79690,0.03296
3551.73673,0.03375
3549.67656,0.03423
3547.61639,0.03506
3545.55621,0.03592
3543.49604,0.03626
3541.43587,0.03644
3539.37570,0.03682
3537.31552,0.03760
3535.25535,0.03863
3533.19518,0.03953
3531.13501,0.04013
3529.07484,0.04058
3527.01466,0.04113
3524.95449,0.04184
3522.89432,0.04252
3520.83415,0.04306
3518.77398,0.04360
3516.71380,0.04398
3514.65363,0.04430
3512.59346,0.04488
3510.53329,0.04560
3508.47312,0.04604
3506.41294,0.04662
3504.35277,0.04790
3502.29260,0.04885
3500.23243,0.04900
3498.17225,0.04916
3496.11208,0.04944
3494.05191,0.04965
3491.99174,0.04995
3489.93157,0.05046
3487.87139,0.05101
3485.81122,0.05168
3483.75105,0.05277
3481.69088,0.05376
3479.63071,0.05411
3477.57053,0.05445
3475.51036,0.05507
3473.45019,0.05562
3471.39002,0.05598
3469.32984,0.05627
3467.26967,0.05667
3465.20950,0.05724
3463.14933,0.05786
3461.08916,0.05815
3459.02898,0.05817
3456.96881,0.05842
3454.90864,0.05896
3452.84847,0.05960
3450.78830,0.06030
3448.72812,0.06106
3446.66795,0.06146
3444.60778,0.06155
3442.54761,0.06214
3440.48744,0.06298
3438.42726,0.06355
3436.36709,0.06377
3434.30692,0.06377
3432.24675,0.06384
3430.18657,0.06429
3428.12640,0.06501
3426.06623,0.06566
3424.00606,0.06617
3421.94589,0.06655
3419.88571,0.06683
3417.82554,0.06729
3415.76537,0.06783
3413.70520,0.06795
3411.64503,0.06786
3409.58485,0.06807
3407.52468,0.06857
3405.46451,0.06889
3403.40434,0.06906
3401.34416,0.06957
3399.28399,0.07039
3397.22382,0.07098
3395.16365,0.07119
3393.10348,0.07128
3391.04330,0.07131
3388.98313,0.07138
3386.92296,0.07148
3384.86279,0.07153
3382.80262,0.07173
3380.74244,0.07218
3378.68227,0.07270
3376.62210,0.07325
3374.56193,0.07377
3372.50176,0.07387
3370.44158,0.07359
3368.38141,0.07346
3366.32124,0.07366
3364.26107,0.07387
3362.20089,0.07397
3360.14072,0.07409
3358.08055,0.07413
3356.02038,0.07411
3353.96021,0.07420
3351.90003,0.07441
3349.83986,0.07456
3347.77969,0.07464
3345.71952,0.07466
3343.65935,0.07459
3341.59917,0.07450
3339.53900,0.07448
3337.47883,0.07453
3335.41866,0.07478
3333.35849,0.07507
3331.29831,0.07518
3329.23814,0.07516
3327.17797,0.07504
3325.11780,0.07506
3323.05762,0.07536
3320.99745,0.07553
3318.93728,0.07532
3316.87711,0.07510
3314.81694,0.07509
3312.75676,0.07508
3310.69659,0.07505
3308.63642,0.07503
3306.57625,0.07493
3304.51608,0.07503
3302.45590,0.07529
3300.39573,0.07533
3298.33556,0.07511
3296.27539,0.07493
3294.21521,0.07497
3292.15504,0.07504
3290.09487,0.07499
3288.03470,0.07504
3285.97453,0.07514
3283.91435,0.07499
3281.85418,0.07472
3279.79401,0.07468
3277.73384,0.07489
3275.67367,0.07498
3273.61349,0.07464
3271.55332,0.07422
3269.49315,0.07417
3267.43298,0.07432
3265.37281,0.07424
3263.31263,0.07398
3261.25246,0.07394
3259.19229,0.07407
3257.13212,0.07403
3255.07194,0.07377
3253.01177,0.07347
3250.95160,0.07329
3248.89143,0.07319
3246.83126,0.07311
3244.77108,0.07295
3242.71091,0.07247
3240.65074,0.07204
3238.59057,0.07192
3236.53040,0.07184
3234.47022,0.07168
3232.41005,0.07153
3230.34988,0.07135
3228.28971,0.07112
3226.22954,0.07081
3224.16936,0.07038
3222.10919,0.06999
3220.04902,0.06969
3217.98885,0.06922
3215.92867,0.06872
3213.86850,0.06844
3211.80833,0.06815
3209.74816,0.06792
3207.68799,0.06781
3205.62781,0.06752
3203.56764,0.06691
3201.50747,0.06622
3199.44730,0.06565
3197.38713,0.06529
3195.32695,0.06511
3193.26678,0.06494
3191.20661,0.06463
3189.14644,0.06420
3187.08626,0.06360
3185.02609,0.06294
3182.96592,0.06240
3180.90575,0.06197
3178.84558,0.06154
3176.78540,0.06101
3174.72523,0.06056
3172.66506,0.06017
3170.60489,0.05963
3168.54472,0.05900
3166.48454,0.05834
3164.42437,0.05771
3162.36420,0.05720
3160.30403,0.05677
3158.24386,0.05636
3156.18368,0.05591
3154.12351,0.05545
3152.06334,0.05510
3150.00317,0.05470
3147.94299,0.05412
3145.88282,0.05341
3143.82265,0.05268
3141.76248,0.05207
3139.70231,0.05150
3137.64213,0.05089
3135.58196,0.05043
3133.52179,0.05011
3131.46162,0.04963
3129.40145,0.04919
3127.34127,0.04893
3125.28110,0.04839
3123.22093,0.04757
3121.16076,0.04688
3119.10058,0.04640
3117.04041,0.04591
3114.98024,0.04536
3112.92007,0.04486
3110.85990,0.04450
3108.79972,0.04425
3106.73955,0.04394
3104.67938,0.04349
3102.61921,0.04289
3100.55904,0.04216
3098.49886,0.04150
3096.43869,0.04114
3094.37852,0.04087
3092.31835,0.04047
3090.25818,0.03990
3088.19800,0.03922
3086.13783,0.03865
3084.07766,0.03841
3082.01749,0.03824
3079.95731,0.03780
3077.89714,0.03724
3075.83697,0.03682
3073.77680,0.03646
3071.71663,0.03604
3069.65645,0.03557
3067.59628,0.03505
3065.53611,0.03460
3063.47594,0.03422
3061.41577,0.03378
3059.35559,0.03332
3057.29542,0.03296
3055.23525,0.03266
3053.17508,0.03229
3051.11491,0.03178
3049.05473,0.03123
3046.99456,0.03078
3044.93439,0.03049
3042.87422,0.03021
3040.81404,0.02977
3038.75387,0.02918
3036.69370,0.02868
3034.63353,0.02849
3032.57336,0.02852
3030.51318,0.02844
3028.45301,0.02806
3026.39284,0.02768
3024.33267,0.02744
3022.27250,0.02714
3020.21232,0.02670
3018.15215,0.02629
3016.09198,0.02600
3014.03181,0.02575
3011.97163,0.02550
3009.91146,0.02528
3007.85129,0.02508
3005.79112,0.02482
3003.73095,0.02465
3001.67077,0.02464
2999.61060,0.02455
2997.55043,0.02445
2995.49026,0.02442
2993.43009,0.02424
2991.36991,0.02392
2989.30974,0.02389
2987.24957,0.02424
2985.18940,0.02445
2983.12923,0.02437
2981.06905,0.02439
2979.00888,0.02449
2976.94871,0.02449
2974.88854,0.02462
2972.82836,0.02498
2970.76819,0.02536
2968.70802,0.02566
2966.64785,0.02597
2964.58768,0.02639
2962.52750,0.02696
2960.46733,0.02752
2958.40716,0.02789
2956.34699,0.02816
2954.28682,0.02854
2952.22664,0.02906
2950.16647,0.02958
2948.10630,0.02998
2946.04613,0.03035
2943.98596,0.03077
2941.92578,0.03123
2939.86561,0.03163
2937.80544,0.03202
2935.74527,0.03238
2933.68509,0.03247
2931.62492,0.03224
2929.56475,0.03205
2927.50458,0.03202
2925.44441,0.03193
2923.38423,0.03164
2921.32406,0.03129
2919.26389,0.03106
2917.20372,0.03091
2915.14355,0.03058
2913.08337,0.03003
2911.02320,0.02947
2908.96303,0.02900
2906.90286,0.02872
2904.84268,0.02871
2902.78251,0.02869
2900.72234,0.02852
2898.66217,0.02838
2896.60200,0.02818
2894.54182,0.02788
2892.48165,0.02757
2890.42148,0.02723
2888.36131,0.02711
2886.30114,0.02723
2884.24096,0.02724
2882.18079,0.02707
2880.12062,0.02683
2878.06045,0.02664
2876.00028,0.02640
2873.94010,0.02597
2871.87993,0.02552
2869.81976,0.02516
2867.75959,0.02475
2865.69941,0.02427
2863.63924,0.02375
2861.57907,0.02327
2859.51890,0.02298
2857.45873,0.02279
2855.39855,0.02248
2853.33838,0.02204
2851.27821,0.02161
2849.21804,0.02132
2847.15787,0.02106
2845.09769,0.02068
2843.03752,0.02022
2840.97735,0.01988
2838.91718,0.01971
2836.85700,0.01956
2834.79683,0.01930
2832.73666,0.01897
2830.67649,0.01869
2828.61632,0.01859
2826.55614,0.01855
2824.49597,0.01841
2822.43580,0.01820
2820.37563,0.01801
2818.31546,0.01774
2816.25528,0.01741
2814.19511,0.01719
2812.13494,0.01702
2810.07477,0.01686
2808.01460,0.01677
2805.95442,0.01671
2803.89425,0.01656
2801.83408,0.01635
2799.77391,0.01626
2797.71373,0.01626
2795.65356,0.01622
2793.59339,0.01607
2791.53322,0.01591
2789.47305,0.01577
2787.41287,0.01565
2785.35270,0.01548
2783.29253,0.01528
2781.23236,0.01520
2779.17219,0.01516
2777.11201,0.01504
2775.05184,0.01488
2772.99167,0.01471
2770.93150,0.01455
2768.87133,0.01446
2766.81115,0.01444
2764.75098,0.01443
2762.69081,0.01438
2760.63064,0.01426
2758.57046,0.01414
2756.51029,0.01413
2754.45012,0.01419
2752.38995,0.01415
2750.32978,0.01394
2748.26960,0.01369
2746.20943,0.01354
2744.14926,0.01353
2742.08909,0.01350
2740.02892,0.01331
2737.96874,0.01319
2735.90857,0.01326
2733.84840,0.01322
2731.78823,0.01299
2729.72805,0.01287
2727.66788,0.01298
2725.60771,0.01307
2723.54754,0.01307
2721.48737,0.01303
2719.42719,0.01293
2717.36702,0.01282
2715.30685,0.01278
2713.24668,0.01277
2711.18651,0.01264
2709.12633,0.01248
2707.06616,0.01244
2705.00599,0.01239
2702.94582,0.01231
2700.88565,0.01224
2698.82547,0.01212
2696.76530,0.01202
2694.70513,0.01193
2692.64496,0.01185
2690.58478,0.01184
2688.52461,0.01179
2686.46444,0.01169
2684.40427,0.01169
2682.34410,0.01173
2680.28392,0.01166
2678.22375,0.01162
2676.16358,0.01156
2674.10341,0.01134
2672.04324,0.01115
2669.98306,0.01105
2667.92289,0.01087
2665.86272,0.01075
2663.80255,0.01075
2661.74238,0.01076
2659.68220,0.01078
2657.62203,0.01078
2655.56186,0.01067
2653.50169,0.01045
2651.44151,0.01019
2649.38134,0.01002
2647.32117,0.00985
2645.26100,0.00969
2643.20083,0.00967
2641.14065,0.00968
2639.08048,0.00975
2637.02031,0.00982
2634.96014,0.00966
2632.89997,0.00938
2630.83979,0.00914
2628.77962,0.00895
2626.71945,0.00893
2624.65928,0.00896
2622.59910,0.00875
2620.53893,0.00840
2618.47876,0.00832
2616.41859,0.00845
2614.35842,0.00847
2612.29824,0.00837
2610.23807,0.00816
2608.17790,0.00792
2606.11773,0.00776
2604.05756,0.00765
2601.99738,0.00771
2599.93721,0.00792
2597.87704,0.00792
2595.81687,0.00787
2593.75670,0.00799
2591.69652,0.00793
2589.63635,0.00763
2587.57618,0.00728
2585.51601,0.00689
2583.45583,0.00666
2581.39566,0.00677
2579.33549,0.00695
2577.27532,0.00696
2575.21515,0.00688
2573.15497,0.00675
2571.09480,0.00665
2569.03463,0.00677
2566.97446,0.00704
2564.91429,0.00721
2562.85411,0.00712
2560.79394,0.00689
2558.73377,0.00670
2556.67360,0.00667
2554.61342,0.00670
2552.55325,0.00657
2550.49308,0.00638
2548.43291,0.00632
2546.37274,0.00635
2544.31256,0.00643
2542.25239,0.00651
2540.19222,0.00657
2538.13205,0.00660
2536.07188,0.00651
2534.01170,0.00633
2531.95153,0.00613
2529.89136,0.00615
2527.83119,0.00639
2525.77102,0.00658
2523.71084,0.00659
2521.65067,0.00651
2519.59050,0.00651
2517.53033,0.00653
2515.47015,0.00636
2513.40998,0.00605
2511.34981,0.00579
2509.28964,0.00575
2507.22947,0.00589
2505.16929,0.00602
2503.10912,0.00607
2501.04895,0.00602
2498.98878,0.00603
2496.92861,0.00611
2494.86843,0.00611
2492.80826,0.00611
2490.74809,0.00610
2488.68792,0.00598
2486.62775,0.00592
2484.56757,0.00592
2482.50740,0.00594
2480.44723,0.00583
2478.38706,0.00569
2476.32688,0.00580
2474.26671,0.00600
2472.20654,0.00616
2470.14637,0.00629
2468.08620,0.00623
2466.02602,0.00592
2463.96585,0.00559
2461.90568,0.00555
2459.84551,0.00586
2457.78534,0.00616
2455.72516,0.00619
2453.66499,0.00592
2451.60482,0.00550
2449.54465,0.00537
2447.48447,0.00549
2445.42430,0.00558
2443.36413,0.00568
2441.30396,0.00582
2439.24379,0.00581
2437.18361,0.00555
2435.12344,0.00531
2433.06327,0.00532
2431.00310,0.00526
2428.94293,0.00508
2426.88275,0.00512
2424.82258,0.00517
2422.76241,0.00499
2420.70224,0.00493
2418.64207,0.00516
2416.58189,0.00534
2414.52172,0.00536
2412.46155,0.00526
2410.40138,0.00493
2408.34120,0.00459
2406.28103,0.00463
2404.22086,0.00499
2402.16069,0.00516
2400.10052,0.00501
2398.04034,0.00497
2395.98017,0.00505
2393.92000,0.00509
2391.85983,0.00503
2389.79966,0.00496
2387.73948,0.00498
2385.67931,0.00485
2383.61914,0.00465
2381.55897,0.00480
2379.49880,0.00526
2377.43862,0.00568
2375.37845,0.00648
2373.31828,0.00699
2371.25811,0.00654
2369.19793,0.00569
2367.13776,0.00485
2365.07759,0.00451
2363.01742,0.00547
2360.95725,0.00449
2358.89707,0.00403
2356.83690,0.00423
2354.77673,0.00515
2352.71656,0.00580
2350.65639,0.00321
2348.59621,0.00169
2346.53604,0.00631
2344.47587,0.00733
2342.41570,0.00622
2340.35552,0.00559
2338.29535,0.00498
2336.23518,0.00470
2334.17501,0.00491
2332.11484,0.00545
2330.05466,0.00523
2327.99449,0.00557
2325.93432,0.00577
2323.87415,0.00640
2321.81398,0.00609
2319.75380,0.00589
2317.69363,0.00510
2315.63346,0.00499
2313.57329,0.00545
2311.51312,0.00566
2309.45294,0.00557
2307.39277,0.00540
2305.33260,0.00545
2303.27243,0.00568
2301.21225,0.00601
2299.15208,0.00560
2297.09191,0.00466
2295.03174,0.00404
2292.97157,0.00415
2290.91139,0.00480
2288.85122,0.00524
2286.79105,0.00494
2284.73088,0.00448
2282.67071,0.00461
2280.61053,0.00506
2278.55036,0.00530
2276.49019,0.00544
2274.43002,0.00563
2272.36984,0.00572
2270.30967,0.00562
2268.24950,0.00551
2266.18933,0.00558
2264.12916,0.00575
2262.06898,0.00548
2260.00881,0.00480
2257.94864,0.00437
2255.88847,0.00430
2253.82830,0.00438
2251.76812,0.00445
2249.70795,0.00430
2247.64778,0.00404
2245.58761,0.00395
2243.52744,0.00416
2241.46726,0.00437
2239.40709,0.00434
2237.34692,0.00434
2235.28675,0.00454
2233.22657,0.00465
2231.16640,0.00451
2229.10623,0.00443
2227.04606,0.00436
2224.98589,0.00410
2222.92571,0.00398
2220.86554,0.00417
2218.80537,0.00453
2216.74520,0.00506
2214.68503,0.00562
2212.62485,0.00574
2210.56468,0.00559
2208.50451,0.00559
2206.44434,0.00521
2204.38417,0.00450
2202.32399,0.00433
2200.26382,0.00431
2198.20365,0.00389
2196.14348,0.00352
2194.08330,0.00364
2192.02313,0.00421
2189.96296,0.00483
2187.90279,0.00484
2185.84262,0.00415
2183.78244,0.00339
2181.72227,0.00338
2179.66210,0.00422
2177.60193,0.00446
2175.54176,0.00355
2173.48158,0.00285
2171.42141,0.00325
2169.36124,0.00376
2167.30107,0.00279
2165.24089,0.00107
2163.18072,0.00050
2161.12055,0.00055
2159.06038,0.00008
2157.00021,0.00000
2154.94003,0.00110
2152.87986,0.00284
2150.81969,0.00414
2148.75952,0.00412
2146.69935,0.00341
2144.63917,0.00330
2142.57900,0.00365
2140.51883,0.00392
2138.45866,0.00432
2136.39849,0.00458
2134.33831,0.00440
2132.27814,0.00421
2130.21797,0.00402
2128.15780,0.00382
2126.09762,0.00406
2124.03745,0.00451
2121.97728,0.00461
2119.91711,0.00453
2117.85694,0.00447
2115.79676,0.00449
2113.73659,0.00478
2111.67642,0.00514
2109.61625,0.00520
2107.55608,0.00513
2105.49590,0.00510
2103.43573,0.00495
2101.37556,0.00447
2099.31539,0.00434
2097.25521,0.00485
2095.19504,0.00500
2093.13487,0.00481
2091.07470,0.00499
2089.01453,0.00524
2086.95435,0.00536
2084.89418,0.00536
2082.83401,0.00505
2080.77384,0.00464
2078.71367,0.00407
2076.65349,0.00326
2074.59332,0.00300
2072.53315,0.00354
2070.47298,0.00397
2068.41281,0.00378
2066.35263,0.00346
2064.29246,0.00322
2062.23229,0.00302
2060.17212,0.00319
2058.11194,0.00346
2056.05177,0.00357
2053.99160,0.00394
2051.93143,0.00399
2049.87126,0.00274
2047.81108,0.00141
2045.75091,0.00169
2043.69074,0.00285
2041.63057,0.00349
2039.57040,0.00374
2037.51022,0.00370
2035.45005,0.00293
2033.38988,0.00196
2031.32971,0.00116
2029.26954,0.00072
2027.20936,0.00090
2025.14919,0.00135
2023.08902,0.00164
2021.02885,0.00192
2018.96867,0.00232
2016.90850,0.00218
2014.84833,0.00163
2012.78816,0.00172
2010.72799,0.00198
2008.66781,0.00172
2006.60764,0.00181
2004.54747,0.00234
2002.48730,0.00224
2000.42713,0.00183
1998.36695,0.00192
1996.30678,0.00222
1994.24661,0.00225
1992.18644,0.00176
1990.12626,0.00108
1988.06609,0.00114
1986.00592,0.00162
1983.94575,0.00236
1981.88558,0.00307
1979.82540,0.00268
1977.76523,0.00151
1975.70506,0.00105
1973.64489,0.00134
1971.58472,0.00131
1969.52454,0.00119
1967.46437,0.00121
1965.40420,0.00057
1963.34403,0.00000
1961.28386,0.00033
1959.22368,0.00118
1957.16351,0.00173
1955.10334,0.00117
1953.04317,0.00014
1950.98299,0.00013
1948.92282,0.00093
1946.86265,0.00131
1944.80248,0.00128
1942.74231,0.00112
1940.68213,0.00039
1938.62196,0.00009
1936.56179,0.00072
1934.50162,0.00139
1932.44145,0.00158
1930.38127,0.00132
1928.32110,0.00081
1926.26093,0.00045
1924.20076,0.00062
1922.14059,0.00068
1920.08041,0.00068
1918.02024,0.00085
1915.96007,0.00049
1913.89990,0.00063
1911.83972,0.00139
1909.77955,0.00171
1907.71938,0.00137
1905.65921,0.00101
1903.59904,0.00082
1901.53886,0.00050
1899.47869,0.00015
1897.41852,0.00029
1895.35835,0.00080
1893.29818,0.00093
1891.23800,0.00107
1889.17783,0.00106
1887.11766,0.00057
1885.05749,0.00048
1882.99731,0.00070
1880.93714,0.00076
1878.87697,0.00065
1876.81680,0.00051
1874.75663,0.00032
1872.69645,0.00015
1870.63628,0.00056
1868.57611,0.00100
1866.51594,0.00063
1864.45577,0.00030
1862.39559,0.00046
1860.33542,0.00067
1858.27525,0.00074
1856.21508,0.00067
1854.15491,0.00045
1852.09473,0.00014
1850.03456,0.00002
1847.97439,0.00002
1845.91422,0.00033
1843.85404,0.00064
1841.79387,0.00025
1839.73370,0.00033
1837.67353,0.00080
1835.61336,0.00059
1833.55318,0.00008
1831.49301,0.00030
1829.43284,0.00047
1827.37267,0.00014
1825.31250,0.00034
1823.25232,0.00027
1821.19215,-0.00000
1819.13198,0.00015
1817.07181,0.00021
1815.01163,-0.00016
1812.95146,-0.00025
1810.89129,0.00007
1808.83112,0.00012
1806.77095,-0.00001
1804.71077,0.00000
1802.65060,0.00034
1800.59043,0.00056
1798.53026,0.00008
1796.47009,-0.00054
1794.40991,-0.00034
1792.34974,0.00032
1790.28957,-0.00006
1788.22940,-0.00043
1786.16923,0.00000
1784.10905,0.00031
1782.04888,0.00048
1779.98871,0.00047
1777.92854,0.00000
1775.86836,-0.00005
1773.80819,0.00076
1771.74802,0.00113
1769.68785,0.00065
1767.62768,0.00064
1765.56750,0.00088
1763.50733,0.00180
1761.44716,0.00262
1759.38699,0.00282
1757.32682,0.00356
1755.26664,0.00399
1753.20647,0.00467
1751.14630,0.00610
1749.08613,0.00680
1747.02596,0.00699
1744.96578,0.00760
1742.90561,0.00856
1740.84544,0.00945
1738.78527,0.00933
1736.72509,0.00948
1734.66492,0.01132
1732.60475,0.01140
1730.54458,0.01047
1728.48441,0.01044
1726.42423,0.01066
1724.36406,0.01072
1722.30389,0.01007
1720.24372,0.00996
1718.18355,0.01086
1716.12337,0.01037
1714.06320,0.00891
1712.00303,0.00795
1709.94286,0.00763
1707.88268,0.00772
1705.82251,0.00743
1703.76234,0.00645
1701.70217,0.00709
1699.64200,0.00786
1697.58182,0.00786
1695.52165,0.00872
1693.46148,0.00838
1691.40131,0.00842
1689.34114,0.00891
1687.28096,0.00964
1685.22079,0.01212
1683.16062,0.01324
1681.10045,0.01253
1679.04028,0.01306
1676.98010,0.01501
1674.91993,0.01658
1672.85976,0.01711
1670.79959,0.01907
1668.73941,0.02079
1666.67924,0.02090
1664.61907,0.02219
1662.55890,0.02430
1660.49873,0.02504
1658.43855,0.02518
1656.37838,0.02652
1654.31821,0.02982
1652.25804,0.03035
1650.19787,0.02841
1648.13769,0.02998
1646.07752,0.03183
1644.01735,0.03125
1641.95718,0.03095
1639.89701,0.03138
1637.83683,0.03283
1635.77666,0.03438
1633.71649,0.03315
1631.65632,0.03186
1629.59614,0.03226
1627.53597,0.03248
1625.47580,0.03245
1623.41563,0.03261
1621.35546,0.03168
1619.29528,0.03148
1617.23511,0.03235
1615.17494,0.03123
1613.11477,0.02971
1611.05460,0.02955
1608.99442,0.02947
1606.93425,0.02874
1604.87408,0.02778
1602.81391,0.02675
1600.75373,0.02542
1598.69356,0.02407
1596.63339,0.02285
1594.57322,0.02141
1592.51305,0.01976
1590.45287,0.01823
1588.39270,0.01683
1586.33253,0.01555
1584.27236,0.01437
1582.21219,0.01296
1580.15201,0.01162
1578.09184,0.01149
1576.03167,0.01115
1573.97150,0.00879
1571.91133,0.00786
1569.85115,0.00832
1567.79098,0.00711
1565.73081,0.00558
1563.67064,0.00436
1561.61046,0.00479
1559.55029,0.00699
1557.49012,0.00519
1555.42995,0.00305
1553.36978,0.00302
1551.30960,0.00341
1549.24943,0.00324
1547.18926,0.00243
1545.12909,0.00197
1543.06892,0.00193
1541.00874,0.00280
1538.94857,0.00204
1536.88840,0.00006
1534.82823,0.00092
1532.76805,0.00197
1530.70788,0.00115
1528.64771,0.00107
1526.58754,0.00124
1524.52737,0.00095
1522.46719,0.00147
1520.40702,0.00122
1518.34685,0.00066
1516.28668,0.00091
1514.22651,0.00047
1512.16633,0.00000
1510.10616,0.00052
1508.04599,0.00276
1505.98582,0.00319
1503.92565,0.00109
1501.86547,0.00077
1499.80530,0.00213
1497.74513,0.00318
1495.68496,0.00259
1493.62478,0.00154
1491.56461,0.00227
1489.50444,0.00340
1487.44427,0.00312
1485.38410,0.00270
1483.32392,0.00322
1481.26375,0.00411
1479.20358,0.00457
1477.14341,0.00519
1475.08324,0.00644
1473.02306,0.00802
1470.96289,0.00834
1468.90272,0.00840
1466.84255,0.01006
1464.78238,0.01153
1462.72220,0.01103
1460.66203,0.01109
1458.60186,0.01327
1456.54169,0.01449
1454.48151,0.01343
1452.42134,0.01333
1450.36117,0.01444
1448.30100,0.01558
1446.24083,0.01588
1444.18065,0.01593
1442.12048,0.01618
1440.06031,0.01659
1438.00014,0.01784
1435.93997,0.01847
1433.87979,0.01789
1431.81962,0.01851
1429.75945,0.01965
1427.69928,0.02000
1425.63910,0.02053
1423.57893,0.02108
1421.51876,0.02178
1419.45859,0.02319
1417.39842,0.02329
1415.33824,0.02268
1413.27807,0.02279
1411.21790,0.02299
1409.15773,0.02272
1407.09756,0.02248
1405.03738,0.02210
1402.97721,0.02094
1400.91704,0.02007
1398.85687,0.01961
1396.79670,0.01907
1394.73652,0.01875
1392.67635,0.01805
1390.61618,0.01780
1388.55601,0.01854
1386.49583,0.01897
1384.43566,0.01896
1382.37549,0.01949
1380.31532,0.02025
1378.25515,0.02075
1376.19497,0.02135
1374.13480,0.02191
1372.07463,0.02185
1370.01446,0.02190
1367.95429,0.02188
1365.89411,0.02150
1363.83394,0.02149
1361.77377,0.02123
1359.71360,0.02048
1357.65343,0.02008
1355.59325,0.01999
1353.53308,0.01977
1351.47291,0.01943
1349.41274,0.01914
1347.35256,0.01882
1345.29239,0.01839
1343.23222,0.01792
1341.17205,0.01777
1339.11188,0.01780
1337.05170,0.01766
1334.99153,0.01772
1332.93136,0.01803
1330.87119,0.01828
1328.81102,0.01839
1326.75084,0.01844
1324.69067,0.01840
1322.63050,0.01835
1320.57033,0.01856
1318.51015,0.01888
1316.44998,0.01894
1314.38981,0.01883
1312.32964,0.01855
1310.26947,0.01822
1308.20929,0.01801
1306.14912,0.01768
1304.08895,0.01722
1302.02878,0.01681
1299.96861,0.01638
1297.90843,0.01589
1295.84826,0.01549
1293.78809,0.01528
1291.72792,0.01514
1289.66775,0.01499
1287.60757,0.01487
1285.54740,0.01476
1283.48723,0.01459
1281.42706,0.01443
1279.36688,0.01447
1277.30671,0.01462
1275.24654,0.01478
1273.18637,0.01515
1271.12620,0.01574
1269.06602,0.01634
1267.00585,0.01707
1264.94568,0.01813
1262.88551,0.01930
1260.82534,0.02034
1258.76516,0.02107
1256.70499,0.02165
1254.64482,0.02220
1252.58465,0.02267
1250.52447,0.02294
1248.46430,0.02302
1246.40413,0.02298
1244.34396,0.02278
1242.28379,0.02249
1240.22361,0.02216
1238.16344,0.02172
1236.10327,0.02111
1234.04310,0.02039
1231.98293,0.01961
1229.92275,0.01880
1227.86258,0.01792
1225.80241,0.01698
1223.74224,0.01610
1221.68207,0.01527
1219.62189,0.01439
1217.56172,0.01347
1215.50155,0.01245
1213.44138,0.01139
1211.38120,0.01030
1209.32103,0.00910
1207.26086,0.00777
1205.20069,0.00643
1203.14052,0.00521
1201.08034,0.00402
1199.02017,0.00278
1196.96000,0.00161
1194.89983,0.00074
1192.83966,0.00030
1190.77948,0.00012
1188.71931,0.00000
1186.65914,-0.00006
1184.59897,0.00023
1182.53880,0.00076
1180.47862,0.00155
1178.41845,0.00261
1176.35828,0.00382
1174.29811,0.00521
1172.23793,0.00685
1170.17776,0.00868
1168.11759,0.01063
1166.05742,0.01265
1163.99725,0.01460
1161.93707,0.01639
1159.87690,0.01797
1157.81673,0.01936
1155.75656,0.02073
1153.69639,0.02216
1151.63621,0.02349
1149.57604,0.02466
1147.51587,0.02568
1145.45570,0.02645
1143.39552,0.02697
1141.33535,0.02738
1139.27518,0.02781
1137.21501,0.02837
1135.15484,0.02912
1133.09466,0.03009
1131.03449,0.03130
1128.97432,0.03276
1126.91415,0.03446
1124.85398,0.03630
1122.79380,0.03813
1120.73363,0.03974
1118.67346,0.04110
1116.61329,0.04248
1114.55312,0.04405
1112.49294,0.04562
1110.43277,0.04705
1108.37260,0.04845
1106.31243,0.04997
1104.25225,0.05172
1102.19208,0.05372
1100.13191,0.05585
1098.07174,0.05816
1096.01157,0.06078
1093.95139,0.06341
1091.89122,0.06572
1089.83105,0.06785
1087.77088,0.06987
1085.71071,0.07167
1083.65053,0.07343
1081.59036,0.07539
1079.53019,0.07764
1077.47002,0.07994
1075.40985,0.08204
1073.34967,0.08407
1071.28950,0.08602
1069.22933,0.08764
1067.16916,0.08874
1065.10898,0.08942
1063.04881,0.09012
1060.98864,0.09099
1058.92847,0.09185
1056.86830,0.09268
1054.80812,0.09359
1052.74795,0.09481
1050.68778,0.09625
1048.62761,0.09775
1046.56744,0.09936
1044.50726,0.10108
1042.44709,0.10262
1040.38692,0.10386
1038.32675,0.10483
1036.26657,0.10543
1034.20640,0.10565
1032.14623,0.10571
1030.08606,0.10575
1028.02589,0.10566
1025.96571,0.10540
1023.90554,0.10518
1021.84537,0.10498
1019.78520,0.10466
1017.72503,0.10421
1015.66485,0.10366
1013.60468,0.10308
1011.54451,0.10253
1009.48434,0.10191
1007.42417,0.10095
1005.36399,0.09957
1003.30382,0.09813
1001.24365,0.09673
999.18348,0.09508
997.12330,0.09310
995.06313,0.09118
993.00296,0.08956
990.94279,0.08812
988.88262,0.08676
986.82244,0.08541
984.76227,0.08417
982.70210,0.08320
980.64193,0.08219
978.58176,0.08088
976.52158,0.07952
974.46141,0.07823
972.40124,0.07672
970.34107,0.07501
968.28089,0.07336
966.22072,0.07176
964.16055,0.07000
962.10038,0.06815
960.04021,0.06634
957.98003,0.06474
955.91986,0.06319
953.85969,0.06128
951.79952,0.05913
949.73935,0.05690
947.67917,0.05434
945.61900,0.05137
943.55883,0.04809
941.49866,0.04439
939.43849,0.04032
937.37831,0.03626
935.31814,0.03235
933.25797,0.02865
931.19780,0.02528
929.13762,0.02246
927.07745,0.02023
925.01728,0.01834
922.95711,0.01673
920.89694,0.01538
918.83676,0.01394
916.77659,0.01232
914.71642,0.01065
912.65625,0.00924
910.59608,0.00833
908.53590,0.00774
906.47573,0.00737
904.41556,0.00734
902.35539,0.00765
900.29522,0.00815
898.23504,0.00854
896.17487,0.00872
894.11470,0.00881
892.05453,0.00879
889.99435,0.00842
887.93418,0.00759
885.87401,0.00680
883.81384,0.00645
881.75367,0.00600
879.69349,0.00506
877.63332,0.00423
875.57315,0.00386
873.51298,0.00379
871.45281,0.00385
869.39263,0.00402
867.33246,0.00424
865.27229,0.00431
863.21212,0.00408
861.15194,0.00371
859.09177,0.00355
857.03160,0.00345
854.97143,0.00305
852.91126,0.00264
850.85108,0.00260
848.79091,0.00275
846.73074,0.00279
844.67057,0.00264
842.61040,0.00250
840.55022,0.00220
838.49005,0.00147
836.42988,0.00060
834.36971,0.00000
832.30954,-0.00029
830.24936,-0.00029
828.18919,-0.00033
826.12902,-0.00036
824.06885,-0.00025
822.00867,-0.00012
819.94850,-0.00002
817.88833,0.00022
815.82816,0.00072
813.76799,0.00142
811.70781,0.00208
809.64764,0.00248
807.58747,0.00256
805.52730,0.00231
803.46713,0.00202
801.40695,0.00184
799.34678,0.00159
797.28661,0.00106
795.22644,0.00055
793.16627,0.00036
791.10609,0.00037
789.04592,0.00043
786.98575,0.00031
784.92558,-0.00012
782.86540,-0.00045
780.80523,-0.00044
778.74506,-0.00033
776.68489,-0.00010
774.62472,0.00017
772.56454,0.00017
770.50437,0.00013
768.44420,0.00005
766.38403,-0.00018
764.32386,-0.00029
762.26368,-0.00024
760.20351,-0.00005
758.14334,0.00010
756.08317,0.00008
754.02299,-0.00000
751.96282,0.00000
749.90265,0.00000
747.84248,-0.00006
745.78231,-0.00035
743.72213,-0.00092
741.66196,-0.00145
739.60179,-0.00189
737.54162,-0.00210
735.48145,-0.00175
733.42127,-0.00124
731.36110,-0.00115
729.30093,-0.00129
727.24076,-0.00104
725.18059,-0.00070
723.12041,-0.00102
721.06024,-0.00097
719.00007,-0.00126
716.93990,-0.00069
714.87972,0.00075
712.81955,0.00209
710.75938,0.00288
708.69921,0.00327
706.63904,0.00373
704.57886,0.00427
702.51869,0.00475
700.45852,0.00504
698.39835,0.00490
696.33818,0.00439
694.27800,0.00388
692.21783,0.00334
690.15766,0.00269
688.09749,0.00197
686.03731,0.00099
683.97714,0.00000
681.91697,-0.00039
679.85680,-0.00009
677.79663,0.00079
675.73645,0.00164
673.67628,0.00072
671.61611,-0.00218
669.55594,0.00024
667.49577,0.00456
665.43559,-0.00297
663.37542,-0.00111
661.31525,0.00184
659.25508,0.00286
657.19491,0.00292
655.13473,0.00242
653.07456,0.00144
651.01439,0.00040
648.95422,0.00000
646.89404,-0.00009
644.83387,0.00029
642.77370,0.00056
640.71353,0.00061
638.65336,0.00050
636.59318,0.00076
634.53301,0.00163
632.47284,0.00244
630.41267,0.00264
628.35250,0.00256
626.29232,0.00253
624.23215,0.00217
622.17198,0.00152
620.11181,0.00119
618.05164,0.00153
615.99146,0.00164
613.93129,0.00106
611.87112,0.00023
609.81095,-0.00052
607.75077,-0.00052
605.69060,0.00004
603.63043,0.00023
601.57026,-0.00002
599.51009,0.00000
