3996.73391,0.00077
3994.67373,0.00046
3992.61356,0.00021
3990.55339,0.00019
3988.49322,0.00026
3986.43305,0.00019
3984.37287,0.00008
3982.31270,0.00002
3980.25253,0.00019
3978.19236,0.00045
3976.13219,0.00045
3974.07201,0.00030
3972.01184,0.00013
3969.95167,0.00000
3967.89150,0.00019
3965.83133,0.00052
3963.77115,0.00043
3961.71098,0.00019
3959.65081,0.00027
3957.59064,0.00051
3955.53046,0.00088
3953.47029,0.00119
3951.41012,0.00101
3949.34995,0.00054
3947.28978,0.00053
3945.22960,0.00069
3943.16943,0.00057
3941.10926,0.00066
3939.04909,0.00101
3936.98892,0.00141
3934.92874,0.00143
3932.86857,0.00089
3930.80840,0.00078
3928.74823,0.00140
3926.68805,0.00173
3924.62788,0.00166
3922.56771,0.00181
3920.50754,0.00170
3918.44737,0.00123
3916.38719,0.00106
3914.32702,0.00117
3912.26685,0.00115
3910.20668,0.00139
3908.14651,0.00174
3906.08633,0.00140
3904.02616,0.00108
3901.96599,0.00135
3899.90582,0.00139
3897.84565,0.00183
3895.78547,0.00241
3893.72530,0.00193
3891.66513,0.00141
3889.60496,0.00214
3887.54478,0.00213
3885.48461,0.00169
3883.42444,0.00218
3881.36427,0.00184
3879.30410,0.00202
3877.24392,0.00283
3875.18375,0.00257
3873.12358,0.00241
3871.06341,0.00220
3869.00324,0.00241
3866.94306,0.00263
3864.88289,0.00168
3862.82272,0.00165
3860.76255,0.00280
3858.70237,0.00363
3856.64220,0.00268
3854.58203,0.00011
3852.52186,0.00000
3850.46169,0.00230
3848.40151,0.00319
3846.34134,0.00280
3844.28117,0.00244
3842.22100,0.00252
3840.16083,0.00215
3838.10065,0.00180
3836.04048,0.00229
3833.98031,0.00234
3831.92014,0.00195
3829.85997,0.00206
3827.79979,0.00220
3825.73962,0.00263
3823.67945,0.00242
3821.61928,0.00147
3819.55910,0.00250
3817.49893,0.00275
3815.43876,0.00218
3813.37859,0.00309
3811.31842,0.00365
3809.25824,0.00296
3807.19807,0.00230
3805.13790,0.00283
3803.07773,0.00199
3801.01756,0.00103
3798.95738,0.00187
3796.89721,0.00201
3794.83704,0.00205
3792.77687,0.00221
3790.71670,0.00218
3788.65652,0.00225
3786.59635,0.00201
3784.53618,0.00193
3782.47601,0.00223
3780.41583,0.00192
3778.35566,0.00182
3776.29549,0.00238
3774.23532,0.00263
3772.17515,0.00220
3770.11497,0.00178
3768.05480,0.00209
3765.99463,0.00224
3763.93446,0.00262
3761.87429,0.00261
3759.81411,0.00184
3757.75394,0.00203
3755.69377,0.00303
3753.63360,0.00297
3751.57342,0.00214
3749.51325,0.00290
3747.45308,0.00364
3745.39291,0.00211
3743.33274,0.00201
3741.27256,0.00350
3739.21239,0.00350
3737.15222,0.00224
3735.09205,0.00140
3733.03188,0.00162
3730.97170,0.00237
3728.91153,0.00294
3726.85136,0.00290
3724.79119,0.00301
3722.73102,0.00295
3720.67084,0.00286
3718.61067,0.00303
3716.55050,0.00342
3714.49033,0.00305
3712.43015,0.00195
3710.36998,0.00217
3708.30981,0.00321
3706.24964,0.00350
3704.18947,0.00272
3702.12929,0.00191
3700.06912,0.00229
3698.00895,0.00277
3695.94878,0.00288
3693.88861,0.00278
3691.82843,0.00187
3689.76826,0.00063
3687.70809,0.00111
3685.64792,0.00257
3683.58775,0.00320
3681.52757,0.00315
3679.46740,0.00295
3677.40723,0.00218
3675.34706,0.00207
3673.28688,0.00357
3671.22671,0.00283
3669.16654,0.00194
3667.10637,0.00305
3665.04620,0.00355
3662.98602,0.00348
3660.92585,0.00374
3658.86568,0.00366
3656.80551,0.00329
3654.74534,0.00424
3652.68516,0.00464
3650.62499,0.00330
3648.56482,0.00306
3646.50465,0.00434
3644.44447,0.00508
3642.38430,0.00488
3640.32413,0.00463
3638.26396,0.00458
3636.20379,0.00474
3634.14361,0.00524
3632.08344,0.00557
3630.02327,0.00468
3627.96310,0.00486
3625.90293,0.00665
3623.84275,0.00754
3621.78258,0.00716
3619.72241,0.00648
3617.66224,0.00689
3615.60207,0.00745
3613.54189,0.00749
3611.48172,0.00773
3609.42155,0.00786
3607.36138,0.00839
3605.30120,0.00941
3603.24103,0.00954
3601.18086,0.00889
3599.12069,0.00879
3597.06052,0.00900
3595.00034,0.00915
3592.94017,0.00970
3590.88000,0.01009
3588.81983,0.00938
3586.75966,0.00935
3584.69948,0.01059
3582.63931,0.01123
3580.57914,0.01117
3578.51897,0.01114
3576.45879,0.01128
3574.39862,0.01178
3572.33845,0.01257
3570.27828,0.01270
3568.21811,0.01182
3566.15793,0.01153
3564.09776,0.01238
3562.03759,0.01301
3559.97742,0.01316
3557.91725,0.01329
3555.85707,0.01347
3553.79690,0.01347
3551.73673,0.01366
3549.67656,0.01421
3547.61639,0.01453
3545.55621,0.01460
3543.49604,0.01480
3541.43587,0.01506
3539.37570,0.01528
3537.31552,0.01543
3535.25535,0.01586
3533.19518,0.01651
3531.13501,0.01678
3529.07484,0.01673
3527.01466,0.01679
3524.95449,0.01693
3522.89432,0.01704
3520.83415,0.01716
3518.77398,0.01720
3516.71380,0.01733
3514.65363,0.01768
3512.59346,0.01806
3510.53329,0.01827
3508.47312,0.01864
3506.41294,0.01919
3504.35277,0.01932
3502.29260,0.01924
3500.23243,0.01934
3498.17225,0.01953
3496.11208,0.01978
3494.05191,0.01993
3491.99174,0.01999
3489.93157,0.02009
3487.87139,0.02026
3485.81122,0.02061
3483.75105,0.02087
3481.69088,0.02105
3479.63071,0.02138
3477.57053,0.02160
3475.51036,0.02179
3473.45019,0.02208
3471.39002,0.02219
3469.32984,0.02206
3467.26967,0.02216
3465.20950,0.02257
3463.14933,0.02284
3461.08916,0.02297
3459.02898,0.02307
3456.96881,0.02320
3454.90864,0.02341
3452.84847,0.02361
3450.78830,0.02390
3448.72812,0.02400
3446.66795,0.02391
3444.60778,0.02405
3442.54761,0.02438
3440.48744,0.02484
3438.42726,0.02493
3436.36709,0.02451
3434.30692,0.02431
3432.24675,0.02453
3430.18657,0.02489
3428.12640,0.02536
3426.06623,0.02574
3424.00606,0.02586
3421.94589,0.02590
3419.88571,0.02608
3417.82554,0.02633
3415.76537,0.02648
3413.70520,0.02641
3411.64503,0.02630
3409.58485,0.02648
3407.52468,0.02680
3405.46451,0.02691
3403.40434,0.02689
3401.34416,0.02714
3399.28399,0.02750
3397.22382,0.02769
3395.16365,0.02763
3393.10348,0.02743
3391.04330,0.02745
3388.98313,0.02759
3386.92296,0.02745
3384.86279,0.02718
3382.80262,0.02727
3380.74244,0.02772
3378.68227,0.02810
3376.62210,0.02836
3374.56193,0.02859
3372.50176,0.02869
3370.44158,0.02864
3368.38141,0.02859
3366.32124,0.02865
3364.26107,0.02871
3362.20089,0.02867
3360.14072,0.02877
3358.08055,0.02888
3356.02038,0.02878
3353.96021,0.02866
3351.90003,0.02863
3349.83986,0.02862
3347.77969,0.02862
3345.71952,0.02863
3343.65935,0.02867
3341.59917,0.02888
3339.53900,0.02906
3337.47883,0.02898
3335.41866,0.02889
3333.35849,0.02891
3331.29831,0.02881
3329.23814,0.02868
3327.17797,0.02868
3325.11780,0.02886
3323.05762,0.02917
3320.99745,0.02936
3318.93728,0.02928
3316.87711,0.02905
3314.81694,0.02881
3312.75676,0.02872
3310.69659,0.02879
3308.63642,0.02871
3306.57625,0.02856
3304.51608,0.02862
3302.45590,0.02876
3300.39573,0.02882
3298.33556,0.02891
3296.27539,0.02897
3294.21521,0.02893
3292.15504,0.02881
3290.09487,0.02869
3288.03470,0.02871
3285.97453,0.02897
3283.91435,0.02921
3281.85418,0.02916
3279.79401,0.02895
3277.73384,0.02880
3275.67367,0.02876
3273.61349,0.02867
3271.55332,0.02850
3269.49315,0.02838
3267.43298,0.02841
3265.37281,0.02851
3263.31263,0.02850
3261.25246,0.02840
3259.19229,0.02835
3257.13212,0.02838
3255.07194,0.02836
3253.01177,0.02833
3250.95160,0.02843
3248.89143,0.02851
3246.83126,0.02840
3244.77108,0.02814
3242.71091,0.02791
3240.65074,0.02788
3238.59057,0.02796
3236.53040,0.02794
3234.47022,0.02793
3232.41005,0.02798
3230.34988,0.02792
3228.28971,0.02770
3226.22954,0.02741
3224.16936,0.02717
3222.10919,0.02706
3220.04902,0.02693
3217.98885,0.02670
3215.92867,0.02650
3213.86850,0.02649
3211.80833,0.02655
3209.74816,0.02641
3207.68799,0.02622
3205.62781,0.02616
3203.56764,0.02613
3201.50747,0.02605
3199.44730,0.02590
3197.38713,0.02575
3195.32695,0.02569
3193.26678,0.02552
3191.20661,0.02510
3189.14644,0.02481
3187.08626,0.02488
3185.02609,0.02496
3182.96592,0.02482
3180.90575,0.02464
3178.84558,0.02440
3176.78540,0.02419
3174.72523,0.02409
3172.66506,0.02401
3170.60489,0.02382
3168.54472,0.02336
3166.48454,0.02273
3164.42437,0.02234
3162.36420,0.02231
3160.30403,0.02250
3158.24386,0.02264
3156.18368,0.02251
3154.12351,0.02229
3152.06334,0.02217
3150.00317,0.02199
3147.94299,0.02172
3145.88282,0.02150
3143.82265,0.02132
3141.76248,0.02112
3139.70231,0.02077
3137.64213,0.02029
3135.58196,0.01995
3133.52179,0.01985
3131.46162,0.01983
3129.40145,0.01986
3127.34127,0.01992
3125.28110,0.01973
3123.22093,0.01925
3121.16076,0.01902
3119.10058,0.01893
3117.04041,0.01869
3114.98024,0.01848
3112.92007,0.01828
3110.85990,0.01810
3108.79972,0.01812
3106.73955,0.01821
3104.67938,0.01806
3102.61921,0.01768
3100.55904,0.01737
3098.49886,0.01728
3096.43869,0.01729
3094.37852,0.01723
3092.31835,0.01691
3090.25818,0.01653
3088.19800,0.01636
3086.13783,0.01629
3084.07766,0.01625
3082.01749,0.01619
3079.95731,0.01605
3077.89714,0.01591
3075.83697,0.01580
3073.77680,0.01559
3071.71663,0.01533
3069.65645,0.01510
3067.59628,0.01485
3065.53611,0.01471
3063.47594,0.01474
3061.41577,0.01464
3059.35559,0.01441
3057.29542,0.01429
3055.23525,0.01424
3053.17508,0.01400
3051.11491,0.01360
3049.05473,0.01337
3046.99456,0.01333
3044.93439,0.01328
3042.87422,0.01312
3040.81404,0.01300
3038.75387,0.01286
3036.69370,0.01259
3034.63353,0.01239
3032.57336,0.01235
3030.51318,0.01237
3028.45301,0.01242
3026.39284,0.01243
3024.33267,0.01227
3022.27250,0.01201
3020.21232,0.01181
3018.15215,0.01171
3016.09198,0.01161
3014.03181,0.01149
3011.97163,0.01132
3009.91146,0.01113
3007.85129,0.01101
3005.79112,0.01095
3003.73095,0.01095
3001.67077,0.01097
2999.61060,0.01101
2997.55043,0.01107
2995.49026,0.01104
2993.43009,0.01086
2991.36991,0.01063
2989.30974,0.01055
2987.24957,0.01075
2985.18940,0.01102
2983.12923,0.01110
2981.06905,0.01107
2979.00888,0.01096
2976.94871,0.01086
2974.88854,0.01098
2972.82836,0.01125
2970.76819,0.01144
2968.70802,0.01157
2966.64785,0.01162
2964.58768,0.01159
2962.52750,0.01162
2960.46733,0.01179
2958.40716,0.01197
2956.34699,0.01213
2954.28682,0.01233
2952.22664,0.01258
2950.16647,0.01284
2948.10630,0.01308
2946.04613,0.01329
2943.98596,0.01341
2941.92578,0.01336
2939.86561,0.01332
2937.80544,0.01340
2935.74527,0.01347
2933.68509,0.01352
2931.62492,0.01362
2929.56475,0.01374
2927.50458,0.01375
2925.44441,0.01360
2923.38423,0.01341
2921.32406,0.01327
2919.26389,0.01325
2917.20372,0.01333
2915.14355,0.01332
2913.08337,0.01315
2911.02320,0.01295
2908.96303,0.01268
2906.90286,0.01238
2904.84268,0.01224
2902.78251,0.01212
2900.72234,0.01203
2898.66217,0.01208
2896.60200,0.01212
2894.54182,0.01207
2892.48165,0.01203
2890.42148,0.01202
2888.36131,0.01209
2886.30114,0.01211
2884.24096,0.01204
2882.18079,0.01196
2880.12062,0.01176
2878.06045,0.01156
2876.00028,0.01149
2873.94010,0.01139
2871.87993,0.01124
2869.81976,0.01112
2867.75959,0.01099
2865.69941,0.01089
2863.63924,0.01079
2861.57907,0.01053
2859.51890,0.01033
2857.45873,0.01034
2855.39855,0.01023
2853.33838,0.00989
2851.27821,0.00960
2849.21804,0.00950
2847.15787,0.00948
2845.09769,0.00946
2843.03752,0.00939
2840.97735,0.00922
2838.91718,0.00904
2836.85700,0.00888
2834.79683,0.00878
2832.73666,0.00861
2830.67649,0.00849
2828.61632,0.00861
2826.55614,0.00872
2824.49597,0.00859
2822.43580,0.00834
2820.37563,0.00824
2818.31546,0.00834
2816.25528,0.00840
2814.19511,0.00830
2812.13494,0.00811
2810.07477,0.00794
2808.01460,0.00790
2805.95442,0.00796
2803.89425,0.00796
2801.83408,0.00784
2799.77391,0.00771
2797.71373,0.00767
2795.65356,0.00776
2793.59339,0.00781
2791.53322,0.00770
2789.47305,0.00751
2787.41287,0.00741
2785.35270,0.00732
2783.29253,0.00727
2781.23236,0.00734
2779.17219,0.00736
2777.11201,0.00731
2775.05184,0.00728
2772.99167,0.00723
2770.93150,0.00720
2768.87133,0.00721
2766.81115,0.00714
2764.75098,0.00703
2762.69081,0.00705
2760.63064,0.00707
2758.57046,0.00704
2756.51029,0.00712
2754.45012,0.00721
2752.38995,0.00722
2750.32978,0.00718
2748.26960,0.00703
2746.20943,0.00678
2744.14926,0.00658
2742.08909,0.00654
2740.02892,0.00663
2737.96874,0.00669
2735.90857,0.00667
2733.84840,0.00661
2731.78823,0.00649
2729.72805,0.00645
2727.66788,0.00650
2725.60771,0.00646
2723.54754,0.00632
2721.48737,0.00631
2719.42719,0.00643
2717.36702,0.00650
2715.30685,0.00650
2713.24668,0.00650
2711.18651,0.00639
2709.12633,0.00624
2707.06616,0.00625
2705.00599,0.00626
2702.94582,0.00623
2700.88565,0.00625
2698.82547,0.00617
2696.76530,0.00604
2694.70513,0.00598
2692.64496,0.00600
2690.58478,0.00610
2688.52461,0.00612
2686.46444,0.00598
2684.40427,0.00582
2682.34410,0.00573
2680.28392,0.00561
2678.22375,0.00557
2676.16358,0.00566
2674.10341,0.00569
2672.04324,0.00566
2669.98306,0.00568
2667.92289,0.00566
2665.86272,0.00559
2663.80255,0.00562
2661.74238,0.00573
2659.68220,0.00585
2657.62203,0.00596
2655.56186,0.00597
2653.50169,0.00579
2651.44151,0.00561
2649.38134,0.00553
2647.32117,0.00539
2645.26100,0.00524
2643.20083,0.00523
2641.14065,0.00528
2639.08048,0.00533
2637.02031,0.00537
2634.96014,0.00527
2632.89997,0.00521
2630.83979,0.00513
2628.77962,0.00492
2626.71945,0.00485
2624.65928,0.00502
2622.59910,0.00503
2620.53893,0.00472
2618.47876,0.00449
2616.41859,0.00457
2614.35842,0.00491
2612.29824,0.00523
2610.23807,0.00519
2608.17790,0.00493
2606.11773,0.00466
2604.05756,0.00436
2601.99738,0.00432
2599.93721,0.00461
2597.87704,0.00466
2595.81687,0.00437
2593.75670,0.00410
2591.69652,0.00410
2589.63635,0.00429
2587.57618,0.00425
2585.51601,0.00389
2583.45583,0.00375
2581.39566,0.00402
2579.33549,0.00433
2577.27532,0.00432
2575.21515,0.00399
2573.15497,0.00370
2571.09480,0.00368
2569.03463,0.00387
2566.97446,0.00415
2564.91429,0.00443
2562.85411,0.00460
2560.79394,0.00458
2558.73377,0.00444
2556.67360,0.00420
2554.61342,0.00382
2552.55325,0.00358
2550.49308,0.00362
2548.43291,0.00371
2546.37274,0.00370
2544.31256,0.00373
2542.25239,0.00384
2540.19222,0.00398
2538.13205,0.00415
2536.07188,0.00421
2534.01170,0.00415
2531.95153,0.00411
2529.89136,0.00405
2527.83119,0.00392
2525.77102,0.00372
2523.71084,0.00367
2521.65067,0.00395
2519.59050,0.00429
2517.53033,0.00435
2515.47015,0.00398
2513.40998,0.00353
2511.34981,0.00349
2509.28964,0.00367
2507.22947,0.00371
2505.16929,0.00365
2503.10912,0.00370
2501.04895,0.00381
2498.98878,0.00378
2496.92861,0.00370
2494.86843,0.00385
2492.80826,0.00409
2490.74809,0.00411
2488.68792,0.00392
2486.62775,0.00362
2484.56757,0.00354
2482.50740,0.00376
2480.44723,0.00382
2478.38706,0.00356
2476.32688,0.00333
2474.26671,0.00334
2472.20654,0.00357
2470.14637,0.00388
2468.08620,0.00404
2466.02602,0.00383
2463.96585,0.00349
2461.90568,0.00342
2459.84551,0.00365
2457.78534,0.00397
2455.72516,0.00416
2453.66499,0.00406
2451.60482,0.00384
2449.54465,0.00376
2447.48447,0.00362
2445.42430,0.00339
2443.36413,0.00348
2441.30396,0.00379
2439.24379,0.00393
2437.18361,0.00377
2435.12344,0.00354
2433.06327,0.00346
2431.00310,0.00346
2428.94293,0.00350
2426.88275,0.00354
2424.82258,0.00349
2422.76241,0.00344
2420.70224,0.00335
2418.64207,0.00338
2416.58189,0.00352
2414.52172,0.00337
2412.46155,0.00301
2410.40138,0.00280
2408.34120,0.00281
2406.28103,0.00295
2404.22086,0.00311
2402.16069,0.00312
2400.10052,0.00310
2398.04034,0.00332
2395.98017,0.00360
2393.92000,0.00376
2391.85983,0.00373
2389.79966,0.00363
2387.73948,0.00361
2385.67931,0.00370
2383.61914,0.00368
2381.55897,0.00354
2379.49880,0.00352
2377.43862,0.00380
2375.37845,0.00392
2373.31828,0.00449
2371.25811,0.00482
2369.19793,0.00336
2367.13776,0.00186
2365.07759,0.00236
2363.01742,0.00209
2360.95725,0.00265
2358.89707,0.00152
2356.83690,0.00086
2354.77673,0.00158
2352.71656,0.00311
2350.65639,0.00714
2348.59621,0.00885
2346.53604,0.00265
2344.47587,0.00147
2342.41570,0.00322
2340.35552,0.00476
2338.29535,0.00541
2336.23518,0.00477
2334.17501,0.00428
2332.11484,0.00393
2330.05466,0.00419
2327.99449,0.00415
2325.93432,0.00506
2323.87415,0.00445
2321.81398,0.00388
2319.75380,0.00339
2317.69363,0.00466
2315.63346,0.00520
2313.57329,0.00464
2311.51312,0.00409
2309.45294,0.00372
2307.39277,0.00364
2305.33260,0.00390
2303.27243,0.00432
2301.21225,0.00434
2299.15208,0.00413
2297.09191,0.00356
2295.03174,0.00307
2292.97157,0.00332
2290.91139,0.00392
2288.85122,0.00418
2286.79105,0.00399
2284.73088,0.00365
2282.67071,0.00352
2280.61053,0.00361
2278.55036,0.00372
2276.49019,0.00380
2274.43002,0.00399
2272.36984,0.00417
2270.30967,0.00419
2268.24950,0.00405
2266.18933,0.00391
2264.12916,0.00388
2262.06898,0.00378
2260.00881,0.00347
2257.94864,0.00333
2255.88847,0.00314
2253.82830,0.00274
2251.76812,0.00233
2249.70795,0.00206
2247.64778,0.00222
2245.58761,0.00268
2243.52744,0.00304
2241.46726,0.00318
2239.40709,0.00329
2237.34692,0.00347
2235.28675,0.00333
2233.22657,0.00301
2231.16640,0.00309
2229.10623,0.00340
2227.04606,0.00317
2224.98589,0.00251
2222.92571,0.00255
2220.86554,0.00309
2218.80537,0.00327
2216.74520,0.00341
2214.68503,0.00368
2212.62485,0.00379
2210.56468,0.00401
2208.50451,0.00413
2206.44434,0.00345
2204.38417,0.00305
2202.32399,0.00356
2200.26382,0.00346
2198.20365,0.00264
2196.14348,0.00276
2194.08330,0.00358
2192.02313,0.00378
2189.96296,0.00370
2187.90279,0.00363
2185.84262,0.00338
2183.78244,0.00317
2181.72227,0.00331
2179.66210,0.00366
2177.60193,0.00305
2175.54176,0.00203
2173.48158,0.00233
2171.42141,0.00341
2169.36124,0.00357
2167.30107,0.00256
2165.24089,0.00170
2163.18072,0.00159
2161.12055,0.00149
2159.06038,0.00077
2157.00021,0.00000
2154.94003,0.00029
2152.87986,0.00177
2150.81969,0.00337
2148.75952,0.00390
2146.69935,0.00341
2144.63917,0.00277
2142.57900,0.00242
2140.51883,0.00230
2138.45866,0.00248
2136.39849,0.00265
2134.33831,0.00232
2132.27814,0.00204
2130.21797,0.00198
2128.15780,0.00194
2126.09762,0.00220
2124.03745,0.00266
2121.97728,0.00300
2119.91711,0.00308
2117.85694,0.00266
2115.79676,0.00219
2113.73659,0.00246
2111.67642,0.00313
2109.61625,0.00340
2107.55608,0.00324
2105.49590,0.00287
2103.43573,0.00252
2101.37556,0.00240
2099.31539,0.00260
2097.25521,0.00310
2095.19504,0.00345
2093.13487,0.00334
2091.07470,0.00311
2089.01453,0.00318
2086.95435,0.00340
2084.89418,0.00338
2082.83401,0.00334
2080.77384,0.00355
2078.71367,0.00338
2076.65349,0.00259
2074.59332,0.00221
2072.53315,0.00266
2070.47298,0.00318
2068.41281,0.00313
2066.35263,0.00262
2064.29246,0.00223
2062.23229,0.00227
2060.17212,0.00241
2058.11194,0.00238
2056.05177,0.00265
2053.99160,0.00349
2051.93143,0.00374
2049.87126,0.00284
2047.81108,0.00182
2045.75091,0.00158
2043.69074,0.00231
2041.63057,0.00349
2039.57040,0.00431
2037.51022,0.00451
2035.45005,0.00417
2033.38988,0.00351
2031.32971,0.00295
2029.26954,0.00279
2027.20936,0.00275
2025.14919,0.00263
2023.08902,0.00248
2021.02885,0.00233
2018.96867,0.00227
2016.90850,0.00241
2014.84833,0.00268
2012.78816,0.00277
2010.72799,0.00275
2008.66781,0.00274
2006.60764,0.00314
2004.54747,0.00352
2002.48730,0.00313
2000.42713,0.00270
1998.36695,0.00292
1996.30678,0.00334
1994.24661,0.00296
1992.18644,0.00192
1990.12626,0.00170
1988.06609,0.00214
1986.00592,0.00257
1983.94575,0.00290
1981.88558,0.00306
1979.82540,0.00287
1977.76523,0.00194
1975.70506,0.00051
1973.64489,0.00000
1971.58472,0.00100
1969.52454,0.00209
1967.46437,0.00191
1965.40420,0.00144
1963.34403,0.00138
1961.28386,0.00133
1959.22368,0.00172
1957.16351,0.00208
1955.10334,0.00117
1953.04317,-0.00010
1950.98299,0.00007
1948.92282,0.00126
1946.86265,0.00184
1944.80248,0.00141
1942.74231,0.00069
1940.68213,0.00057
1938.62196,0.00101
1936.56179,0.00188
1934.50162,0.00246
1932.44145,0.00199
1930.38127,0.00101
1928.32110,0.00051
1926.26093,0.00082
1924.20076,0.00136
1922.14059,0.00210
1920.08041,0.00227
1918.02024,0.00140
1915.96007,0.00113
1913.89990,0.00159
1911.83972,0.00204
1909.77955,0.00214
1907.71938,0.00198
1905.65921,0.00166
1903.59904,0.00125
1901.53886,0.00098
1899.47869,0.00099
1897.41852,0.00106
1895.35835,0.00116
1893.29818,0.00155
1891.23800,0.00156
1889.17783,0.00131
1887.11766,0.00147
1885.05749,0.00154
1882.99731,0.00152
1880.93714,0.00149
1878.87697,0.00142
1876.81680,0.00154
1874.75663,0.00183
1872.69645,0.00193
1870.63628,0.00129
1868.57611,0.00074
1866.51594,0.00115
1864.45577,0.00145
1862.39559,0.00130
1860.33542,0.00119
1858.27525,0.00112
1856.21508,0.00105
1854.15491,0.00095
1852.09473,0.00092
1850.03456,0.00113
1847.97439,0.00139
1845.91422,0.00092
1843.85404,0.00033
1841.79387,0.00095
1839.73370,0.00135
1837.67353,0.00114
1835.61336,0.00119
1833.55318,0.00130
1831.49301,0.00089
1829.43284,0.00090
1827.37267,0.00147
1825.31250,0.00125
1823.25232,0.00103
1821.19215,0.00102
1819.13198,0.00082
1817.07181,0.00077
1815.01163,0.00092
1812.95146,0.00077
1810.89129,0.00059
1808.83112,0.00091
1806.77095,0.00131
1804.71077,0.00136
1802.65060,0.00103
1800.59043,0.00083
1798.53026,0.00125
1796.47009,0.00161
1794.40991,0.00097
1792.34974,0.00012
1790.28957,0.00072
1788.22940,0.00138
1786.16923,0.00101
1784.10905,0.00075
1782.04888,0.00075
1779.98871,0.00093
1777.92854,0.00154
1775.86836,0.00164
1773.80819,0.00073
1771.74802,0.00034
1769.68785,0.00111
1767.62768,0.00159
1765.56750,0.00195
1763.50733,0.00168
1761.44716,0.00147
1759.38699,0.00202
1757.32682,0.00232
1755.26664,0.00296
1753.20647,0.00319
1751.14630,0.00269
1749.08613,0.00308
1747.02596,0.00404
1744.96578,0.00452
1742.90561,0.00453
1740.84544,0.00455
1738.78527,0.00545
1736.72509,0.00585
1734.66492,0.00437
1732.60475,0.00433
1730.54458,0.00513
1728.48441,0.00520
1726.42423,0.00507
1724.36406,0.00489
1722.30389,0.00530
1720.24372,0.00511
1718.18355,0.00373
1716.12337,0.00369
1714.06320,0.00461
1712.00303,0.00489
1709.94286,0.00448
1707.88268,0.00382
1705.82251,0.00378
1703.76234,0.00476
1701.70217,0.00437
1699.64200,0.00384
1697.58182,0.00404
1695.52165,0.00370
1693.46148,0.00471
1691.40131,0.00523
1689.34114,0.00534
1687.28096,0.00544
1685.22079,0.00408
1683.16062,0.00441
1681.10045,0.00657
1679.04028,0.00738
1676.98010,0.00683
1674.91993,0.00677
1672.85976,0.00780
1670.79959,0.00749
1668.73941,0.00765
1666.67924,0.00931
1664.61907,0.00953
1662.55890,0.00904
1660.49873,0.01026
1658.43855,0.01195
1656.37838,0.01200
1654.31821,0.01003
1652.25804,0.01102
1650.19787,0.01391
1648.13769,0.01270
1646.07752,0.01109
1644.01735,0.01225
1641.95718,0.01339
1639.89701,0.01375
1637.83683,0.01293
1635.77666,0.01168
1633.71649,0.01268
1631.65632,0.01360
1629.59614,0.01297
1627.53597,0.01256
1625.47580,0.01242
1623.41563,0.01209
1621.35546,0.01299
1619.29528,0.01311
1617.23511,0.01148
1615.17494,0.01143
1613.11477,0.01223
1611.05460,0.01184
1608.99442,0.01121
1606.93425,0.01114
1604.87408,0.01105
1602.81391,0.01056
1600.75373,0.01005
1598.69356,0.00968
1596.63339,0.00919
1594.57322,0.00858
1592.51305,0.00802
1590.45287,0.00741
1588.39270,0.00677
1586.33253,0.00625
1584.27236,0.00589
1582.21219,0.00589
1580.15201,0.00603
1578.09184,0.00503
1576.03167,0.00404
1573.97150,0.00518
1571.91133,0.00513
1569.85115,0.00351
1567.79098,0.00354
1565.73081,0.00420
1563.67064,0.00484
1561.61046,0.00389
1559.55029,0.00078
1557.49012,0.00178
1555.42995,0.00379
1553.36978,0.00366
1551.30960,0.00293
1549.24943,0.00288
1547.18926,0.00346
1545.12909,0.00328
1543.06892,0.00229
1541.00874,0.00054
1538.94857,0.00110
1536.88840,0.00336
1534.82823,0.00275
1532.76805,0.00175
1530.70788,0.00256
1528.64771,0.00256
1526.58754,0.00221
1524.52737,0.00238
1522.46719,0.00178
1520.40702,0.00195
1518.34685,0.00243
1516.28668,0.00211
1514.22651,0.00253
1512.16633,0.00310
1510.10616,0.00260
1508.04599,0.00026
1505.98582,0.00000
1503.92565,0.00269
1501.86547,0.00357
1499.80530,0.00250
1497.74513,0.00155
1495.68496,0.00219
1493.62478,0.00325
1491.56461,0.00252
1489.50444,0.00143
1487.44427,0.00180
1485.38410,0.00246
1483.32392,0.00257
1481.26375,0.00270
1479.20358,0.00337
1477.14341,0.00372
1475.08324,0.00329
1473.02306,0.00274
1470.96289,0.00392
1468.90272,0.00533
1466.84255,0.00488
1464.78238,0.00451
1462.72220,0.00599
1460.66203,0.00669
1458.60186,0.00513
1456.54169,0.00455
1454.48151,0.00628
1452.42134,0.00700
1450.36117,0.00650
1448.30100,0.00594
1446.24083,0.00619
1444.18065,0.00681
1442.12048,0.00735
1440.06031,0.00771
1438.00014,0.00712
1435.93997,0.00713
1433.87979,0.00834
1431.81962,0.00836
1429.75945,0.00793
1427.69928,0.00831
1425.63910,0.00863
1423.57893,0.00907
1421.51876,0.00929
1419.45859,0.00852
1417.39842,0.00871
1415.33824,0.00937
1413.27807,0.00925
1411.21790,0.00896
1409.15773,0.00898
1407.09756,0.00877
1405.03738,0.00845
1402.97721,0.00871
1400.91704,0.00854
1398.85687,0.00790
1396.79670,0.00752
1394.73652,0.00723
1392.67635,0.00768
1390.61618,0.00803
1388.55601,0.00749
1386.49583,0.00728
1384.43566,0.00771
1382.37549,0.00791
1380.31532,0.00807
1378.25515,0.00846
1376.19497,0.00854
1374.13480,0.00836
1372.07463,0.00863
1370.01446,0.00885
1367.95429,0.00898
1365.89411,0.00904
1363.83394,0.00850
1361.77377,0.00818
1359.71360,0.00836
1357.65343,0.00820
1355.59325,0.00780
1353.53308,0.00762
1351.47291,0.00755
1349.41274,0.00741
1347.35256,0.00735
1345.29239,0.00742
1343.23222,0.00739
1341.17205,0.00692
1339.11188,0.00656
1337.05170,0.00683
1334.99153,0.00716
1332.93136,0.00724
1330.87119,0.00722
1328.81102,0.00719
1326.75084,0.00718
1324.69067,0.00723
1322.63050,0.00729
1320.57033,0.00725
1318.51015,0.00726
1316.44998,0.00739
1314.38981,0.00731
1312.32964,0.00718
1310.26947,0.00718
1308.20929,0.00703
1306.14912,0.00679
1304.08895,0.00662
1302.02878,0.00661
1299.96861,0.00657
1297.90843,0.00635
1295.84826,0.00607
1293.78809,0.00589
1291.72792,0.00581
1289.66775,0.00581
1287.60757,0.00584
1285.54740,0.00581
1283.48723,0.00559
1281.42706,0.00536
1279.36688,0.00537
1277.30671,0.00552
1275.24654,0.00562
1273.18637,0.00570
1271.12620,0.00587
1269.06602,0.00617
1267.00585,0.00649
1264.94568,0.00689
1262.88551,0.00736
1260.82534,0.00768
1258.76516,0.00787
1256.70499,0.00799
1254.64482,0.00813
1252.58465,0.00837
1250.52447,0.00853
1248.46430,0.00851
1246.40413,0.00840
1244.34396,0.00823
1242.28379,0.00807
1240.22361,0.00795
1238.16344,0.00786
1236.10327,0.00770
1234.04310,0.00745
1231.98293,0.00717
1229.92275,0.00686
1227.86258,0.00650
1225.80241,0.00617
1223.74224,0.00595
1221.68207,0.00570
1219.62189,0.00537
1217.56172,0.00500
1215.50155,0.00458
1213.44138,0.00418
1211.38120,0.00381
1209.32103,0.00337
1207.26086,0.00280
1205.20069,0.00222
1203.14052,0.00186
1201.08034,0.00160
1199.02017,0.00111
1196.96000,0.00049
1194.89983,0.00007
1192.83966,0.00000
1190.77948,-0.00005
1188.71931,-0.00017
1186.65914,-0.00022
1184.59897,-0.00013
1182.53880,0.00009
1180.47862,0.00043
1178.41845,0.00082
1176.35828,0.00124
1174.29811,0.00174
1172.23793,0.00228
1170.17776,0.00286
1168.11759,0.00365
1166.05742,0.00456
1163.99725,0.00533
1161.93707,0.00590
1159.87690,0.00642
1157.81673,0.00701
1155.75656,0.00767
1153.69639,0.00831
1151.63621,0.00877
1149.57604,0.00916
1147.51587,0.00963
1145.45570,0.00996
1143.39552,0.00998
1141.33535,0.00999
1139.27518,0.01020
1137.21501,0.01047
1135.15484,0.01074
1133.09466,0.01117
1131.03449,0.01169
1128.97432,0.01219
1126.91415,0.01277
1124.85398,0.01355
1122.79380,0.01443
1120.73363,0.01513
1118.67346,0.01564
1116.61329,0.01619
1114.55312,0.01680
1112.49294,0.01739
1110.43277,0.01796
1108.37260,0.01852
1106.31243,0.01914
1104.25225,0.01988
1102.19208,0.02069
1100.13191,0.02153
1098.07174,0.02241
1096.01157,0.02341
1093.95139,0.02449
1091.89122,0.02548
1089.83105,0.02627
1087.77088,0.02686
1085.71071,0.02733
1083.65053,0.02789
1081.59036,0.02867
1079.53019,0.02969
1077.47002,0.03069
1075.40985,0.03142
1073.34967,0.03201
1071.28950,0.03251
1069.22933,0.03283
1067.16916,0.03311
1065.10898,0.03347
1063.04881,0.03375
1060.98864,0.03391
1058.92847,0.03408
1056.86830,0.03429
1054.80812,0.03451
1052.74795,0.03489
1050.68778,0.03541
1048.62761,0.03591
1046.56744,0.03631
1044.50726,0.03670
1042.44709,0.03714
1040.38692,0.03748
1038.32675,0.03771
1036.26657,0.03774
1034.20640,0.03739
1032.14623,0.03706
1030.08606,0.03703
1028.02589,0.03689
1025.96571,0.03659
1023.90554,0.03637
1021.84537,0.03613
1019.78520,0.03577
1017.72503,0.03537
1015.66485,0.03502
1013.60468,0.03470
1011.54451,0.03433
1009.48434,0.03401
1007.42417,0.03360
1005.36399,0.03298
1003.30382,0.03241
1001.24365,0.03178
999.18348,0.03097
997.12330,0.03012
995.06313,0.02942
993.00296,0.02894
990.94279,0.02856
988.88262,0.02820
986.82244,0.02786
984.76227,0.02740
982.70210,0.02692
980.64193,0.02642
978.58176,0.02578
976.52158,0.02525
974.46141,0.02485
972.40124,0.02422
970.34107,0.02344
968.28089,0.02284
966.22072,0.02234
964.16055,0.02166
962.10038,0.02087
960.04021,0.02014
957.98003,0.01948
955.91986,0.01881
953.85969,0.01809
951.79952,0.01730
949.73935,0.01658
947.67917,0.01591
945.61900,0.01502
943.55883,0.01392
941.49866,0.01275
939.43849,0.01154
937.37831,0.01032
935.31814,0.00902
933.25797,0.00768
931.19780,0.00652
929.13762,0.00565
927.07745,0.00494
925.01728,0.00442
922.95711,0.00411
920.89694,0.00375
918.83676,0.00327
916.77659,0.00269
914.71642,0.00205
912.65625,0.00166
910.59608,0.00151
908.53590,0.00127
906.47573,0.00093
904.41556,0.00075
902.35539,0.00084
900.29522,0.00110
898.23504,0.00135
896.17487,0.00161
894.11470,0.00191
892.05453,0.00200
889.99435,0.00175
887.93418,0.00144
885.87401,0.00115
883.81384,0.00105
881.75367,0.00109
879.69349,0.00080
877.63332,0.00027
875.57315,-0.00002
873.51298,0.00016
871.45281,0.00064
869.39263,0.00093
867.33246,0.00100
865.27229,0.00104
863.21212,0.00105
861.15194,0.00091
859.09177,0.00063
857.03160,0.00036
854.97143,0.00026
852.91126,0.00045
850.85108,0.00066
848.79091,0.00056
846.73074,0.00026
844.67057,0.00012
842.61040,0.00020
840.55022,0.00027
838.49005,0.00025
836.42988,0.00012
834.36971,-0.00018
832.30954,-0.00040
830.24936,-0.00044
828.18919,-0.00041
826.12902,-0.00034
824.06885,-0.00034
822.00867,-0.00036
819.94850,-0.00026
817.88833,-0.00013
815.82816,-0.00008
813.76799,0.00006
811.70781,0.00028
809.64764,0.00033
807.58747,0.00011
805.52730,-0.00012
803.46713,0.00000
801.40695,0.00043
799.34678,0.00084
797.28661,0.00097
795.22644,0.00093
793.16627,0.00095
791.10609,0.00084
789.04592,0.00046
786.98575,-0.00007
784.92558,-0.00044
782.86540,-0.00036
780.80523,-0.00020
778.74506,-0.00011
776.68489,0.00028
774.62472,0.00073
772.56454,0.00062
770.50437,0.00023
768.44420,-0.00001
766.38403,-0.00011
764.32386,0.00014
762.26368,0.00061
760.20351,0.00085
758.14334,0.00071
756.08317,0.00058
754.02299,0.00083
751.96282,0.00134
749.90265,0.00175
747.84248,0.00177
745.78231,0.00158
743.72213,0.00152
741.66196,0.00133
739.60179,0.00077
737.54162,0.00052
735.48145,0.00084
733.42127,0.00108
731.36110,0.00106
729.30093,0.00099
727.24076,0.00111
725.18059,0.00152
723.12041,0.00189
721.06024,0.00125
719.00007,0.00171
716.93990,0.00232
714.87972,0.00260
712.81955,0.00309
710.75938,0.00371
708.69921,0.00426
706.63904,0.00482
704.57886,0.00551
702.51869,0.00609
700.45852,0.00613
698.39835,0.00557
696.33818,0.00505
694.27800,0.00526
692.21783,0.00590
690.15766,0.00656
688.09749,0.00701
686.03731,0.00662
683.97714,0.00574
681.91697,0.00567
679.85680,0.00649
677.79663,0.00729
675.73645,0.00768
673.67628,0.00921
671.61611,0.01247
669.55594,0.00755
667.49577,0.00000
665.43559,0.01064
663.37542,0.00914
661.31525,0.00673
659.25508,0.00700
657.19491,0.00713
655.13473,0.00656
653.07456,0.00620
651.01439,0.00606
648.95422,0.00505
646.89404,0.00344
644.83387,0.00192
642.77370,0.00228
640.71353,0.00382
638.65336,0.00479
636.59318,0.00504
634.53301,0.00516
632.47284,0.00531
630.41267,0.00570
628.35250,0.00584
626.29232,0.00486
624.23215,0.00308
622.17198,0.00175
620.11181,0.00134
618.05164,0.00160
615.99146,0.00177
613.93129,0.00152
611.87112,0.00135
609.81095,0.00150
607.75077,0.00041
605.69060,-0.00180
603.63043,-0.00229
601.57026,-0.00131
599.51009,0.00000
