3996.73391,0.00008
3994.67373,0.00020
3992.61356,0.00024
3990.55339,0.00018
3988.49322,0.00008
3986.43305,0.00000
3984.37287,0.00000
3982.31270,0.00008
3980.25253,0.00026
3978.19236,0.00051
3976.13219,0.00075
3974.07201,0.00089
3972.01184,0.00094
3969.95167,0.00095
3967.89150,0.00095
3965.83133,0.00098
3963.77115,0.00104
3961.71098,0.00111
3959.65081,0.00117
3957.59064,0.00123
3955.53046,0.00124
3953.47029,0.00121
3951.41012,0.00124
3949.34995,0.00137
3947.28978,0.00154
3945.22960,0.00173
3943.16943,0.00193
3941.10926,0.00207
3939.04909,0.00211
3936.98892,0.00207
3934.92874,0.00201
3932.86857,0.00199
3930.80840,0.00203
3928.74823,0.00217
3926.68805,0.00236
3924.62788,0.00249
3922.56771,0.00253
3920.50754,0.00253
3918.44737,0.00261
3916.38719,0.00277
3914.32702,0.00287
3912.26685,0.00289
3910.20668,0.00293
3908.14651,0.00311
3906.08633,0.00343
3904.02616,0.00376
3901.96599,0.00396
3899.90582,0.00391
3897.84565,0.00358
3895.78547,0.00312
3893.72530,0.00279
3891.66513,0.00275
3889.60496,0.00299
3887.54478,0.00338
3885.48461,0.00385
3883.42444,0.00423
3881.36427,0.00438
3879.30410,0.00431
3877.24392,0.00421
3875.18375,0.00421
3873.12358,0.00435
3871.06341,0.00454
3869.00324,0.00469
3866.94306,0.00483
3864.88289,0.00500
3862.82272,0.00517
3860.76255,0.00528
3858.70237,0.00535
3856.64220,0.00546
3854.58203,0.00561
3852.52186,0.00565
3850.46169,0.00542
3848.40151,0.00500
3846.34134,0.00466
3844.28117,0.00455
3842.22100,0.00463
3840.16083,0.00485
3838.10065,0.00518
3836.04048,0.00552
3833.98031,0.00569
3831.92014,0.00565
3829.85997,0.00552
3827.79979,0.00545
3825.73962,0.00551
3823.67945,0.00580
3821.61928,0.00626
3819.55910,0.00663
3817.49893,0.00660
3815.43876,0.00622
3813.37859,0.00574
3811.31842,0.00542
3809.25824,0.00540
3807.19807,0.00556
3805.13790,0.00572
3803.07773,0.00582
3801.01756,0.00589
3798.95738,0.00592
3796.89721,0.00586
3794.83704,0.00569
3792.77687,0.00548
3790.71670,0.00531
3788.65652,0.00525
3786.59635,0.00529
3784.53618,0.00541
3782.47601,0.00561
3780.41583,0.00580
3778.35566,0.00589
3776.29549,0.00584
3774.23532,0.00574
3772.17515,0.00580
3770.11497,0.00620
3768.05480,0.00684
3765.99463,0.00742
3763.93446,0.00770
3761.87429,0.00778
3759.81411,0.00782
3757.75394,0.00796
3755.69377,0.00835
3753.63360,0.00898
3751.57342,0.00952
3749.51325,0.00966
3747.45308,0.00963
3745.39291,0.00984
3743.33274,0.01017
3741.27256,0.01028
3739.21239,0.01017
3737.15222,0.01011
3735.09205,0.01014
3733.03188,0.01002
3730.97170,0.00962
3728.91153,0.00910
3726.85136,0.00872
3724.79119,0.00850
3722.73102,0.00831
3720.67084,0.00811
3718.61067,0.00803
3716.55050,0.00824
3714.49033,0.00873
3712.43015,0.00917
3710.36998,0.00918
3708.30981,0.00870
3706.24964,0.00807
3704.18947,0.00769
3702.12929,0.00767
3700.06912,0.00783
3698.00895,0.00793
3695.94878,0.00798
3693.88861,0.00811
3691.82843,0.00848
3689.76826,0.00904
3687.70809,0.00946
3685.64792,0.00955
3683.58775,0.00943
3681.52757,0.00934
3679.46740,0.00943
3677.40723,0.00971
3675.34706,0.00999
3673.28688,0.01004
3671.22671,0.00983
3669.16654,0.00940
3667.10637,0.00880
3665.04620,0.00824
3662.98602,0.00793
3660.92585,0.00789
3658.86568,0.00803
3656.80551,0.00830
3654.74534,0.00865
3652.68516,0.00910
3650.62499,0.00957
3648.56482,0.00987
3646.50465,0.00978
3644.44447,0.00933
3642.38430,0.00880
3640.32413,0.00839
3638.26396,0.00817
3636.20379,0.00814
3634.14361,0.00830
3632.08344,0.00863
3630.02327,0.00901
3627.96310,0.00924
3625.90293,0.00913
3623.84275,0.00879
3621.78258,0.00847
3619.72241,0.00831
3617.66224,0.00824
3615.60207,0.00812
3613.54189,0.00791
3611.48172,0.00768
3609.42155,0.00758
3607.36138,0.00767
3605.30120,0.00781
3603.24103,0.00790
3601.18086,0.00790
3599.12069,0.00773
3597.06052,0.00741
3595.00034,0.00707
3592.94017,0.00683
3590.88000,0.00685
3588.81983,0.00712
3586.75966,0.00742
3584.69948,0.00748
3582.63931,0.00727
3580.57914,0.00691
3578.51897,0.00652
3576.45879,0.00620
3574.39862,0.00600
3572.33845,0.00594
3570.27828,0.00601
3568.21811,0.00621
3566.15793,0.00638
3564.09776,0.00628
3562.03759,0.00594
3559.97742,0.00556
3557.91725,0.00522
3555.85707,0.00481
3553.79690,0.00441
3551.73673,0.00426
3549.67656,0.00448
3547.61639,0.00500
3545.55621,0.00552
3543.49604,0.00576
3541.43587,0.00569
3539.37570,0.00550
3537.31552,0.00534
3535.25535,0.00520
3533.19518,0.00500
3531.13501,0.00476
3529.07484,0.00453
3527.01466,0.00436
3524.95449,0.00423
3522.89432,0.00413
3520.83415,0.00409
3518.77398,0.00413
3516.71380,0.00419
3514.65363,0.00424
3512.59346,0.00417
3510.53329,0.00391
3508.47312,0.00354
3506.41294,0.00329
3504.35277,0.00327
3502.29260,0.00343
3500.23243,0.00355
3498.17225,0.00344
3496.11208,0.00312
3494.05191,0.00277
3491.99174,0.00263
3489.93157,0.00281
3487.87139,0.00313
3485.81122,0.00328
3483.75105,0.00316
3481.69088,0.00292
3479.63071,0.00272
3477.57053,0.00265
3475.51036,0.00270
3473.45019,0.00279
3471.39002,0.00280
3469.32984,0.00274
3467.26967,0.00270
3465.20950,0.00271
3463.14933,0.00268
3461.08916,0.00254
3459.02898,0.00230
3456.96881,0.00207
3454.90864,0.00194
3452.84847,0.00190
3450.78830,0.00189
3448.72812,0.00189
3446.66795,0.00194
3444.60778,0.00204
3442.54761,0.00214
3440.48744,0.00218
3438.42726,0.00208
3436.36709,0.00189
3434.30692,0.00163
3432.24675,0.00133
3430.18657,0.00105
3428.12640,0.00092
3426.06623,0.00095
3424.00606,0.00108
3421.94589,0.00117
3419.88571,0.00114
3417.82554,0.00099
3415.76537,0.00082
3413.70520,0.00074
3411.64503,0.00077
3409.58485,0.00090
3407.52468,0.00114
3405.46451,0.00145
3403.40434,0.00180
3401.34416,0.00206
3399.28399,0.00207
3397.22382,0.00178
3395.16365,0.00130
3393.10348,0.00079
3391.04330,0.00038
3388.98313,0.00010
3386.92296,0.00000
3384.86279,0.00009
3382.80262,0.00032
3380.74244,0.00065
3378.68227,0.00102
3376.62210,0.00136
3374.56193,0.00158
3372.50176,0.00165
3370.44158,0.00154
3368.38141,0.00134
3366.32124,0.00116
3364.26107,0.00107
3362.20089,0.00106
3360.14072,0.00107
3358.08055,0.00104
3356.02038,0.00096
3353.96021,0.00086
3351.90003,0.00080
3349.83986,0.00083
3347.77969,0.00095
3345.71952,0.00110
3343.65935,0.00122
3341.59917,0.00127
3339.53900,0.00118
3337.47883,0.00095
3335.41866,0.00059
3333.35849,0.00021
3331.29831,0.00000
3329.23814,0.00005
3327.17797,0.00032
3325.11780,0.00059
3323.05762,0.00075
3320.99745,0.00084
3318.93728,0.00096
3316.87711,0.00108
3314.81694,0.00116
3312.75676,0.00116
3310.69659,0.00108
3308.63642,0.00101
3306.57625,0.00104
3304.51608,0.00111
3302.45590,0.00112
3300.39573,0.00110
3298.33556,0.00108
3296.27539,0.00107
3294.21521,0.00105
3292.15504,0.00098
3290.09487,0.00087
3288.03470,0.00076
3285.97453,0.00073
3283.91435,0.00077
3281.85418,0.00079
3279.79401,0.00085
3277.73384,0.00103
3275.67367,0.00127
3273.61349,0.00142
3271.55332,0.00137
3269.49315,0.00120
3267.43298,0.00108
3265.37281,0.00111
3263.31263,0.00125
3261.25246,0.00135
3259.19229,0.00138
3257.13212,0.00141
3255.07194,0.00147
3253.01177,0.00152
3250.95160,0.00152
3248.89143,0.00143
3246.83126,0.00130
3244.77108,0.00122
3242.71091,0.00127
3240.65074,0.00137
3238.59057,0.00146
3236.53040,0.00147
3234.47022,0.00141
3232.41005,0.00139
3230.34988,0.00154
3228.28971,0.00181
3226.22954,0.00209
3224.16936,0.00226
3222.10919,0.00228
3220.04902,0.00221
3217.98885,0.00216
3215.92867,0.00219
3213.86850,0.00228
3211.80833,0.00236
3209.74816,0.00237
3207.68799,0.00229
3205.62781,0.00213
3203.56764,0.00199
3201.50747,0.00201
3199.44730,0.00229
3197.38713,0.00275
3195.32695,0.00318
3193.26678,0.00344
3191.20661,0.00353
3189.14644,0.00347
3187.08626,0.00334
3185.02609,0.00326
3182.96592,0.00337
3180.90575,0.00368
3178.84558,0.00403
3176.78540,0.00426
3174.72523,0.00433
3172.66506,0.00427
3170.60489,0.00417
3168.54472,0.00407
3166.48454,0.00401
3164.42437,0.00402
3162.36420,0.00413
3160.30403,0.00433
3158.24386,0.00452
3156.18368,0.00465
3154.12351,0.00480
3152.06334,0.00502
3150.00317,0.00526
3147.94299,0.00550
3145.88282,0.00572
3143.82265,0.00589
3141.76248,0.00597
3139.70231,0.00594
3137.64213,0.00585
3135.58196,0.00578
3133.52179,0.00580
3131.46162,0.00592
3129.40145,0.00609
3127.34127,0.00624
3125.28110,0.00630
3123.22093,0.00628
3121.16076,0.00628
3119.10058,0.00639
3117.04041,0.00656
3114.98024,0.00677
3112.92007,0.00701
3110.85990,0.00726
3108.79972,0.00751
3106.73955,0.00773
3104.67938,0.00783
3102.61921,0.00778
3100.55904,0.00766
3098.49886,0.00762
3096.43869,0.00772
3094.37852,0.00787
3092.31835,0.00796
3090.25818,0.00790
3088.19800,0.00773
3086.13783,0.00756
3084.07766,0.00747
3082.01749,0.00751
3079.95731,0.00767
3077.89714,0.00787
3075.83697,0.00806
3073.77680,0.00823
3071.71663,0.00837
3069.65645,0.00845
3067.59628,0.00844
3065.53611,0.00837
3063.47594,0.00831
3061.41577,0.00831
3059.35559,0.00839
3057.29542,0.00853
3055.23525,0.00876
3053.17508,0.00904
3051.11491,0.00934
3049.05473,0.00958
3046.99456,0.00967
3044.93439,0.00964
3042.87422,0.00959
3040.81404,0.00960
3038.75387,0.00972
3036.69370,0.00992
3034.63353,0.01013
3032.57336,0.01023
3030.51318,0.01017
3028.45301,0.01001
3026.39284,0.00987
3024.33267,0.00983
3022.27250,0.00987
3020.21232,0.00990
3018.15215,0.00989
3016.09198,0.00987
3014.03181,0.00990
3011.97163,0.01002
3009.91146,0.01019
3007.85129,0.01031
3005.79112,0.01034
3003.73095,0.01032
3001.67077,0.01030
2999.61060,0.01034
2997.55043,0.01044
2995.49026,0.01052
2993.43009,0.01048
2991.36991,0.01031
2989.30974,0.01020
2987.24957,0.01033
2985.18940,0.01054
2983.12923,0.01061
2981.06905,0.01053
2979.00888,0.01035
2976.94871,0.01000
2974.88854,0.00958
2972.82836,0.00930
2970.76819,0.00926
2968.70802,0.00940
2966.64785,0.00960
2964.58768,0.00968
2962.52750,0.00966
2960.46733,0.00968
2958.40716,0.00983
2956.34699,0.01001
2954.28682,0.01014
2952.22664,0.01016
2950.16647,0.00999
2948.10630,0.00971
2946.04613,0.00957
2943.98596,0.00964
2941.92578,0.00971
2939.86561,0.00960
2937.80544,0.00945
2935.74527,0.00941
2933.68509,0.00943
2931.62492,0.00938
2929.56475,0.00937
2927.50458,0.00954
2925.44441,0.00975
2923.38423,0.00976
2921.32406,0.00964
2919.26389,0.00966
2917.20372,0.00983
2915.14355,0.00990
2913.08337,0.00989
2911.02320,0.01005
2908.96303,0.01036
2906.90286,0.01059
2904.84268,0.01061
2902.78251,0.01042
2900.72234,0.01022
2898.66217,0.01023
2896.60200,0.01040
2894.54182,0.01048
2892.48165,0.01037
2890.42148,0.01032
2888.36131,0.01039
2886.30114,0.01041
2884.24096,0.01037
2882.18079,0.01029
2880.12062,0.01029
2878.06045,0.01046
2876.00028,0.01066
2873.94010,0.01071
2871.87993,0.01069
2869.81976,0.01076
2867.75959,0.01086
2865.69941,0.01085
2863.63924,0.01078
2861.57907,0.01086
2859.51890,0.01110
2857.45873,0.01129
2855.39855,0.01132
2853.33838,0.01126
2851.27821,0.01129
2849.21804,0.01153
2847.15787,0.01183
2845.09769,0.01194
2843.03752,0.01184
2840.97735,0.01172
2838.91718,0.01177
2836.85700,0.01195
2834.79683,0.01212
2832.73666,0.01219
2830.67649,0.01218
2828.61632,0.01217
2826.55614,0.01219
2824.49597,0.01218
2822.43580,0.01211
2820.37563,0.01203
2818.31546,0.01203
2816.25528,0.01209
2814.19511,0.01209
2812.13494,0.01202
2810.07477,0.01202
2808.01460,0.01214
2805.95442,0.01230
2803.89425,0.01244
2801.83408,0.01258
2799.77391,0.01278
2797.71373,0.01300
2795.65356,0.01303
2793.59339,0.01291
2791.53322,0.01284
2789.47305,0.01288
2787.41287,0.01292
2785.35270,0.01288
2783.29253,0.01279
2781.23236,0.01273
2779.17219,0.01281
2777.11201,0.01304
2775.05184,0.01330
2772.99167,0.01342
2770.93150,0.01332
2768.87133,0.01310
2766.81115,0.01285
2764.75098,0.01268
2762.69081,0.01273
2760.63064,0.01297
2758.57046,0.01312
2756.51029,0.01308
2754.45012,0.01305
2752.38995,0.01311
2750.32978,0.01315
2748.26960,0.01306
2746.20943,0.01295
2744.14926,0.01295
2742.08909,0.01303
2740.02892,0.01303
2737.96874,0.01289
2735.90857,0.01278
2733.84840,0.01281
2731.78823,0.01293
2729.72805,0.01302
2727.66788,0.01304
2725.60771,0.01299
2723.54754,0.01297
2721.48737,0.01304
2719.42719,0.01317
2717.36702,0.01337
2715.30685,0.01360
2713.24668,0.01372
2711.18651,0.01366
2709.12633,0.01348
2707.06616,0.01337
2705.00599,0.01340
2702.94582,0.01345
2700.88565,0.01350
2698.82547,0.01358
2696.76530,0.01365
2694.70513,0.01366
2692.64496,0.01361
2690.58478,0.01355
2688.52461,0.01355
2686.46444,0.01364
2684.40427,0.01375
2682.34410,0.01379
2680.28392,0.01376
2678.22375,0.01373
2676.16358,0.01365
2674.10341,0.01354
2672.04324,0.01356
2669.98306,0.01369
2667.92289,0.01376
2665.86272,0.01379
2663.80255,0.01383
2661.74238,0.01384
2659.68220,0.01385
2657.62203,0.01385
2655.56186,0.01387
2653.50169,0.01400
2651.44151,0.01425
2649.38134,0.01439
2647.32117,0.01428
2645.26100,0.01402
2643.20083,0.01390
2641.14065,0.01399
2639.08048,0.01417
2637.02031,0.01438
2634.96014,0.01451
2632.89997,0.01448
2630.83979,0.01441
2628.77962,0.01442
2626.71945,0.01444
2624.65928,0.01439
2622.59910,0.01443
2620.53893,0.01462
2618.47876,0.01471
2616.41859,0.01461
2614.35842,0.01446
2612.29824,0.01431
2610.23807,0.01410
2608.17790,0.01389
2606.11773,0.01384
2604.05756,0.01396
2601.99738,0.01413
2599.93721,0.01424
2597.87704,0.01424
2595.81687,0.01417
2593.75670,0.01416
2591.69652,0.01423
2589.63635,0.01436
2587.57618,0.01457
2585.51601,0.01464
2583.45583,0.01433
2581.39566,0.01378
2579.33549,0.01350
2577.27532,0.01373
2575.21515,0.01416
2573.15497,0.01440
2571.09480,0.01444
2569.03463,0.01434
2566.97446,0.01418
2564.91429,0.01404
2562.85411,0.01392
2560.79394,0.01385
2558.73377,0.01380
2556.67360,0.01376
2554.61342,0.01395
2552.55325,0.01435
2550.49308,0.01456
2548.43291,0.01449
2546.37274,0.01433
2544.31256,0.01419
2542.25239,0.01400
2540.19222,0.01383
2538.13205,0.01389
2536.07188,0.01421
2534.01170,0.01453
2531.95153,0.01466
2529.89136,0.01471
2527.83119,0.01471
2525.77102,0.01450
2523.71084,0.01418
2521.65067,0.01415
2519.59050,0.01445
2517.53033,0.01463
2515.47015,0.01446
2513.40998,0.01427
2511.34981,0.01433
2509.28964,0.01447
2507.22947,0.01452
2505.16929,0.01465
2503.10912,0.01481
2501.04895,0.01473
2498.98878,0.01440
2496.92861,0.01391
2494.86843,0.01352
2492.80826,0.01358
2490.74809,0.01406
2488.68792,0.01457
2486.62775,0.01480
2484.56757,0.01468
2482.50740,0.01440
2480.44723,0.01428
2478.38706,0.01452
2476.32688,0.01497
2474.26671,0.01514
2472.20654,0.01484
2470.14637,0.01446
2468.08620,0.01429
2466.02602,0.01437
2463.96585,0.01453
2461.90568,0.01446
2459.84551,0.01420
2457.78534,0.01406
2455.72516,0.01419
2453.66499,0.01429
2451.60482,0.01422
2449.54465,0.01426
2447.48447,0.01435
2445.42430,0.01423
2443.36413,0.01406
2441.30396,0.01404
2439.24379,0.01410
2437.18361,0.01424
2435.12344,0.01446
2433.06327,0.01464
2431.00310,0.01463
2428.94293,0.01453
2426.88275,0.01451
2424.82258,0.01449
2422.76241,0.01434
2420.70224,0.01425
2418.64207,0.01453
2416.58189,0.01503
2414.52172,0.01526
2412.46155,0.01508
2410.40138,0.01476
2408.34120,0.01446
2406.28103,0.01423
2404.22086,0.01418
2402.16069,0.01434
2400.10052,0.01470
2398.04034,0.01509
2395.98017,0.01535
2393.92000,0.01545
2391.85983,0.01540
2389.79966,0.01527
2387.73948,0.01511
2385.67931,0.01504
2383.61914,0.01504
2381.55897,0.01509
2379.49880,0.01521
2377.43862,0.01538
2375.37845,0.01551
2373.31828,0.01535
2371.25811,0.01465
2369.19793,0.01356
2367.13776,0.01266
2365.07759,0.01265
2363.01742,0.01375
2360.95725,0.01528
2358.89707,0.01628
2356.83690,0.01664
2354.77673,0.01680
2352.71656,0.01699
2350.65639,0.01724
2348.59621,0.01728
2346.53604,0.01704
2344.47587,0.01682
2342.41570,0.01666
2340.35552,0.01638
2338.29535,0.01572
2336.23518,0.01470
2334.17501,0.01384
2332.11484,0.01365
2330.05466,0.01428
2327.99449,0.01546
2325.93432,0.01652
2323.87415,0.01689
2321.81398,0.01672
2319.75380,0.01653
2317.69363,0.01672
2315.63346,0.01723
2313.57329,0.01776
2311.51312,0.01791
2309.45294,0.01762
2307.39277,0.01710
2305.33260,0.01660
2303.27243,0.01620
2301.21225,0.01588
2299.15208,0.01569
2297.09191,0.01564
2295.03174,0.01568
2292.97157,0.01575
2290.91139,0.01578
2288.85122,0.01573
2286.79105,0.01559
2284.73088,0.01543
2282.67071,0.01537
2280.61053,0.01548
2278.55036,0.01563
2276.49019,0.01560
2274.43002,0.01539
2272.36984,0.01519
2270.30967,0.01514
2268.24950,0.01519
2266.18933,0.01523
2264.12916,0.01511
2262.06898,0.01481
2260.00881,0.01447
2257.94864,0.01431
2255.88847,0.01449
2253.82830,0.01497
2251.76812,0.01544
2249.70795,0.01549
2247.64778,0.01516
2245.58761,0.01500
2243.52744,0.01502
2241.46726,0.01511
2239.40709,0.01505
2237.34692,0.01468
2235.28675,0.01434
2233.22657,0.01444
2231.16640,0.01472
2229.10623,0.01482
2227.04606,0.01462
2224.98589,0.01396
2222.92571,0.01322
2220.86554,0.01347
2218.80537,0.01470
2216.74520,0.01565
2214.68503,0.01550
2212.62485,0.01479
2210.56468,0.01456
2208.50451,0.01477
2206.44434,0.01463
2204.38417,0.01444
2202.32399,0.01517
2200.26382,0.01646
2198.20365,0.01702
2196.14348,0.01660
2194.08330,0.01587
2192.02313,0.01524
2189.96296,0.01485
2187.90279,0.01493
2185.84262,0.01513
2183.78244,0.01446
2181.72227,0.01333
2179.66210,0.01340
2177.60193,0.01495
2175.54176,0.01649
2173.48158,0.01662
2171.42141,0.01517
2169.36124,0.01319
2167.30107,0.01218
2165.24089,0.01267
2163.18072,0.01333
2161.12055,0.01283
2159.06038,0.01175
2157.00021,0.01138
2154.94003,0.01178
2152.87986,0.01241
2150.81969,0.01304
2148.75952,0.01343
2146.69935,0.01356
2144.63917,0.01335
2142.57900,0.01283
2140.51883,0.01253
2138.45866,0.01256
2136.39849,0.01243
2134.33831,0.01213
2132.27814,0.01214
2130.21797,0.01252
2128.15780,0.01302
2126.09762,0.01362
2124.03745,0.01408
2121.97728,0.01409
2119.91711,0.01390
2117.85694,0.01357
2115.79676,0.01325
2113.73659,0.01339
2111.67642,0.01392
2109.61625,0.01436
2107.55608,0.01456
2105.49590,0.01477
2103.43573,0.01500
2101.37556,0.01501
2099.31539,0.01477
2097.25521,0.01450
2095.19504,0.01448
2093.13487,0.01477
2091.07470,0.01512
2089.01453,0.01530
2086.95435,0.01540
2084.89418,0.01562
2082.83401,0.01597
2080.77384,0.01619
2078.71367,0.01604
2076.65349,0.01560
2074.59332,0.01521
2072.53315,0.01513
2070.47298,0.01527
2068.41281,0.01536
2066.35263,0.01519
2064.29246,0.01475
2062.23229,0.01425
2060.17212,0.01401
2058.11194,0.01412
2056.05177,0.01430
2053.99160,0.01436
2051.93143,0.01445
2049.87126,0.01472
2047.81108,0.01502
2045.75091,0.01522
2043.69074,0.01536
2041.63057,0.01552
2039.57040,0.01561
2037.51022,0.01558
2035.45005,0.01556
2033.38988,0.01588
2031.32971,0.01653
2029.26954,0.01695
2027.20936,0.01679
2025.14919,0.01634
2023.08902,0.01604
2021.02885,0.01595
2018.96867,0.01570
2016.90850,0.01499
2014.84833,0.01411
2012.78816,0.01358
2010.72799,0.01348
2008.66781,0.01363
2006.60764,0.01408
2004.54747,0.01480
2002.48730,0.01541
2000.42713,0.01551
1998.36695,0.01519
1996.30678,0.01487
1994.24661,0.01468
1992.18644,0.01447
1990.12626,0.01419
1988.06609,0.01403
1986.00592,0.01409
1983.94575,0.01417
1981.88558,0.01395
1979.82540,0.01338
1977.76523,0.01287
1975.70506,0.01276
1973.64489,0.01299
1971.58472,0.01330
1969.52454,0.01369
1967.46437,0.01434
1965.40420,0.01526
1963.34403,0.01620
1961.28386,0.01672
1959.22368,0.01641
1957.16351,0.01531
1955.10334,0.01404
1953.04317,0.01333
1950.98299,0.01349
1948.92282,0.01426
1946.86265,0.01498
1944.80248,0.01521
1942.74231,0.01507
1940.68213,0.01489
1938.62196,0.01488
1936.56179,0.01506
1934.50162,0.01522
1932.44145,0.01517
1930.38127,0.01494
1928.32110,0.01470
1926.26093,0.01458
1924.20076,0.01471
1922.14059,0.01513
1920.08041,0.01571
1918.02024,0.01627
1915.96007,0.01656
1913.89990,0.01638
1911.83972,0.01583
1909.77955,0.01526
1907.71938,0.01494
1905.65921,0.01482
1903.59904,0.01481
1901.53886,0.01496
1899.47869,0.01525
1897.41852,0.01555
1895.35835,0.01576
1893.29818,0.01582
1891.23800,0.01574
1889.17783,0.01560
1887.11766,0.01553
1885.05749,0.01557
1882.99731,0.01565
1880.93714,0.01568
1878.87697,0.01567
1876.81680,0.01560
1874.75663,0.01552
1872.69645,0.01552
1870.63628,0.01562
1868.57611,0.01573
1866.51594,0.01570
1864.45577,0.01556
1862.39559,0.01549
1860.33542,0.01552
1858.27525,0.01556
1856.21508,0.01555
1854.15491,0.01557
1852.09473,0.01567
1850.03456,0.01587
1847.97439,0.01608
1845.91422,0.01628
1843.85404,0.01644
1841.79387,0.01653
1839.73370,0.01651
1837.67353,0.01633
1835.61336,0.01601
1833.55318,0.01569
1831.49301,0.01552
1829.43284,0.01560
1827.37267,0.01586
1825.31250,0.01617
1823.25232,0.01636
1821.19215,0.01637
1819.13198,0.01627
1817.07181,0.01616
1815.01163,0.01604
1812.95146,0.01590
1810.89129,0.01578
1808.83112,0.01573
1806.77095,0.01576
1804.71077,0.01590
1802.65060,0.01610
1800.59043,0.01629
1798.53026,0.01637
1796.47009,0.01634
1794.40991,0.01629
1792.34974,0.01627
1790.28957,0.01627
1788.22940,0.01629
1786.16923,0.01633
1784.10905,0.01632
1782.04888,0.01623
1779.98871,0.01608
1777.92854,0.01589
1775.86836,0.01577
1773.80819,0.01579
1771.74802,0.01592
1769.68785,0.01601
1767.62768,0.01599
1765.56750,0.01591
1763.50733,0.01585
1761.44716,0.01585
1759.38699,0.01590
1757.32682,0.01596
1755.26664,0.01602
1753.20647,0.01611
1751.14630,0.01621
1749.08613,0.01628
1747.02596,0.01628
1744.96578,0.01621
1742.90561,0.01613
1740.84544,0.01611
1738.78527,0.01614
1736.72509,0.01620
1734.66492,0.01623
1732.60475,0.01616
1730.54458,0.01591
1728.48441,0.01557
1726.42423,0.01534
1724.36406,0.01532
1722.30389,0.01549
1720.24372,0.01578
1718.18355,0.01605
1716.12337,0.01610
1714.06320,0.01584
1712.00303,0.01540
1709.94286,0.01504
1707.88268,0.01489
1705.82251,0.01501
1703.76234,0.01530
1701.70217,0.01562
1699.64200,0.01578
1697.58182,0.01567
1695.52165,0.01535
1693.46148,0.01499
1691.40131,0.01473
1689.34114,0.01467
1687.28096,0.01481
1685.22079,0.01501
1683.16062,0.01501
1681.10045,0.01468
1679.04028,0.01418
1676.98010,0.01375
1674.91993,0.01354
1672.85976,0.01350
1670.79959,0.01348
1668.73941,0.01333
1666.67924,0.01303
1664.61907,0.01266
1662.55890,0.01233
1660.49873,0.01210
1658.43855,0.01206
1656.37838,0.01227
1654.31821,0.01268
1652.25804,0.01308
1650.19787,0.01329
1648.13769,0.01327
1646.07752,0.01299
1644.01735,0.01253
1641.95718,0.01211
1639.89701,0.01194
1637.83683,0.01200
1635.77666,0.01213
1633.71649,0.01217
1631.65632,0.01218
1629.59614,0.01225
1627.53597,0.01242
1625.47580,0.01262
1623.41563,0.01279
1621.35546,0.01288
1619.29528,0.01292
1617.23511,0.01297
1615.17494,0.01297
1613.11477,0.01292
1611.05460,0.01289
1608.99442,0.01292
1606.93425,0.01301
1604.87408,0.01310
1602.81391,0.01318
1600.75373,0.01324
1598.69356,0.01329
1596.63339,0.01334
1594.57322,0.01343
1592.51305,0.01355
1590.45287,0.01369
1588.39270,0.01384
1586.33253,0.01399
1584.27236,0.01409
1582.21219,0.01414
1580.15201,0.01419
1578.09184,0.01429
1576.03167,0.01438
1573.97150,0.01444
1571.91133,0.01455
1569.85115,0.01474
1567.79098,0.01494
1565.73081,0.01509
1563.67064,0.01530
1561.61046,0.01569
1559.55029,0.01619
1557.49012,0.01658
1555.42995,0.01664
1553.36978,0.01645
1551.30960,0.01622
1549.24943,0.01614
1547.18926,0.01634
1545.12909,0.01684
1543.06892,0.01743
1541.00874,0.01774
1538.94857,0.01755
1536.88840,0.01700
1534.82823,0.01642
1532.76805,0.01605
1530.70788,0.01594
1528.64771,0.01602
1526.58754,0.01619
1524.52737,0.01636
1522.46719,0.01650
1520.40702,0.01666
1518.34685,0.01679
1516.28668,0.01688
1514.22651,0.01696
1512.16633,0.01715
1510.10616,0.01745
1508.04599,0.01765
1505.98582,0.01746
1503.92565,0.01692
1501.86547,0.01632
1499.80530,0.01589
1497.74513,0.01573
1495.68496,0.01581
1493.62478,0.01611
1491.56461,0.01652
1489.50444,0.01679
1487.44427,0.01663
1485.38410,0.01610
1483.32392,0.01552
1481.26375,0.01518
1479.20358,0.01516
1477.14341,0.01537
1475.08324,0.01561
1473.02306,0.01569
1470.96289,0.01555
1468.90272,0.01527
1466.84255,0.01500
1464.78238,0.01484
1462.72220,0.01486
1460.66203,0.01502
1458.60186,0.01518
1456.54169,0.01514
1454.48151,0.01486
1452.42134,0.01450
1450.36117,0.01426
1448.30100,0.01414
1446.24083,0.01411
1444.18065,0.01416
1442.12048,0.01427
1440.06031,0.01442
1438.00014,0.01455
1435.93997,0.01457
1433.87979,0.01449
1431.81962,0.01437
1429.75945,0.01427
1427.69928,0.01424
1425.63910,0.01427
1423.57893,0.01435
1421.51876,0.01442
1419.45859,0.01444
1417.39842,0.01428
1415.33824,0.01392
1413.27807,0.01351
1411.21790,0.01328
1409.15773,0.01327
1407.09756,0.01341
1405.03738,0.01357
1402.97721,0.01374
1400.91704,0.01396
1398.85687,0.01424
1396.79670,0.01446
1394.73652,0.01451
1392.67635,0.01440
1390.61618,0.01423
1388.55601,0.01408
1386.49583,0.01390
1384.43566,0.01370
1382.37549,0.01357
1380.31532,0.01357
1378.25515,0.01367
1376.19497,0.01375
1374.13480,0.01369
1372.07463,0.01352
1370.01446,0.01335
1367.95429,0.01332
1365.89411,0.01349
1363.83394,0.01378
1361.77377,0.01397
1359.71360,0.01394
1357.65343,0.01377
1355.59325,0.01362
1353.53308,0.01355
1351.47291,0.01352
1349.41274,0.01349
1347.35256,0.01346
1345.29239,0.01351
1343.23222,0.01368
1341.17205,0.01394
1339.11188,0.01411
1337.05170,0.01405
1334.99153,0.01383
1332.93136,0.01359
1330.87119,0.01342
1328.81102,0.01332
1326.75084,0.01324
1324.69067,0.01320
1322.63050,0.01322
1320.57033,0.01331
1318.51015,0.01343
1316.44998,0.01356
1314.38981,0.01364
1312.32964,0.01364
1310.26947,0.01356
1308.20929,0.01345
1306.14912,0.01339
1304.08895,0.01339
1302.02878,0.01349
1299.96861,0.01363
1297.90843,0.01375
1295.84826,0.01378
1293.78809,0.01375
1291.72792,0.01374
1289.66775,0.01381
1287.60757,0.01393
1285.54740,0.01401
1283.48723,0.01400
1281.42706,0.01389
1279.36688,0.01377
1277.30671,0.01370
1275.24654,0.01372
1273.18637,0.01375
1271.12620,0.01374
1269.06602,0.01365
1267.00585,0.01356
1264.94568,0.01352
1262.88551,0.01352
1260.82534,0.01349
1258.76516,0.01337
1256.70499,0.01320
1254.64482,0.01304
1252.58465,0.01297
1250.52447,0.01298
1248.46430,0.01301
1246.40413,0.01306
1244.34396,0.01314
1242.28379,0.01321
1240.22361,0.01321
1238.16344,0.01315
1236.10327,0.01309
1234.04310,0.01310
1231.98293,0.01320
1229.92275,0.01339
1227.86258,0.01360
1225.80241,0.01378
1223.74224,0.01386
1221.68207,0.01385
1219.62189,0.01383
1217.56172,0.01387
1215.50155,0.01398
1213.44138,0.01411
1211.38120,0.01420
1209.32103,0.01421
1207.26086,0.01416
1205.20069,0.01415
1203.14052,0.01419
1201.08034,0.01430
1199.02017,0.01447
1196.96000,0.01473
1194.89983,0.01499
1192.83966,0.01518
1190.77948,0.01521
1188.71931,0.01506
1186.65914,0.01484
1184.59897,0.01473
1182.53880,0.01480
1180.47862,0.01498
1178.41845,0.01517
1176.35828,0.01524
1174.29811,0.01509
1172.23793,0.01482
1170.17776,0.01454
1168.11759,0.01428
1166.05742,0.01409
1163.99725,0.01399
1161.93707,0.01387
1159.87690,0.01365
1157.81673,0.01333
1155.75656,0.01308
1153.69639,0.01302
1151.63621,0.01311
1149.57604,0.01318
1147.51587,0.01310
1145.45570,0.01285
1143.39552,0.01254
1141.33535,0.01230
1139.27518,0.01216
1137.21501,0.01208
1135.15484,0.01204
1133.09466,0.01206
1131.03449,0.01206
1128.97432,0.01196
1126.91415,0.01177
1124.85398,0.01145
1122.79380,0.01107
1120.73363,0.01082
1118.67346,0.01070
1116.61329,0.01059
1114.55312,0.01041
1112.49294,0.01015
1110.43277,0.00991
1108.37260,0.00970
1106.31243,0.00942
1104.25225,0.00909
1102.19208,0.00889
1100.13191,0.00882
1098.07174,0.00863
1096.01157,0.00819
1093.95139,0.00765
1091.89122,0.00730
1089.83105,0.00715
1087.77088,0.00704
1085.71071,0.00688
1083.65053,0.00664
1081.59036,0.00636
1079.53019,0.00612
1077.47002,0.00591
1075.40985,0.00580
1073.34967,0.00581
1071.28950,0.00575
1069.22933,0.00540
1067.16916,0.00499
1065.10898,0.00485
1063.04881,0.00495
1060.98864,0.00513
1058.92847,0.00521
1056.86830,0.00506
1054.80812,0.00469
1052.74795,0.00419
1050.68778,0.00366
1048.62761,0.00319
1046.56744,0.00289
1044.50726,0.00285
1042.44709,0.00302
1040.38692,0.00312
1038.32675,0.00302
1036.26657,0.00296
1034.20640,0.00318
1032.14623,0.00356
1030.08606,0.00406
1028.02589,0.00470
1025.96571,0.00519
1023.90554,0.00534
1021.84537,0.00539
1019.78520,0.00560
1017.72503,0.00590
1015.66485,0.00615
1013.60468,0.00619
1011.54451,0.00595
1009.48434,0.00580
1007.42417,0.00611
1005.36399,0.00670
1003.30382,0.00713
1001.24365,0.00722
999.18348,0.00715
997.12330,0.00709
995.06313,0.00708
993.00296,0.00717
990.94279,0.00738
988.88262,0.00771
986.82244,0.00796
984.76227,0.00797
982.70210,0.00772
980.64193,0.00745
978.58176,0.00749
976.52158,0.00779
974.46141,0.00801
972.40124,0.00807
970.34107,0.00818
968.28089,0.00834
966.22072,0.00846
964.16055,0.00854
962.10038,0.00863
960.04021,0.00876
957.98003,0.00900
955.91986,0.00937
953.85969,0.00970
951.79952,0.00989
949.73935,0.01000
947.67917,0.01012
945.61900,0.01026
943.55883,0.01037
941.49866,0.01043
939.43849,0.01054
937.37831,0.01078
935.31814,0.01114
933.25797,0.01149
931.19780,0.01173
929.13762,0.01199
927.07745,0.01226
925.01728,0.01239
922.95711,0.01237
920.89694,0.01235
918.83676,0.01224
916.77659,0.01187
914.71642,0.01157
912.65625,0.01174
910.59608,0.01212
908.53590,0.01233
906.47573,0.01230
904.41556,0.01197
902.35539,0.01153
900.29522,0.01131
898.23504,0.01125
896.17487,0.01111
894.11470,0.01097
892.05453,0.01087
889.99435,0.01057
887.93418,0.01018
885.87401,0.01000
883.81384,0.01006
881.75367,0.01023
879.69349,0.01027
877.63332,0.01003
875.57315,0.00978
873.51298,0.00988
871.45281,0.01025
869.39263,0.01062
867.33246,0.01082
865.27229,0.01078
863.21212,0.01056
861.15194,0.01043
859.09177,0.01057
857.03160,0.01093
854.97143,0.01127
852.91126,0.01130
850.85108,0.01113
848.79091,0.01100
846.73074,0.01088
844.67057,0.01073
842.61040,0.01077
840.55022,0.01092
838.49005,0.01084
836.42988,0.01051
834.36971,0.01024
832.30954,0.01020
830.24936,0.01016
828.18919,0.01003
826.12902,0.01015
824.06885,0.01059
822.00867,0.01080
819.94850,0.01055
817.88833,0.01028
815.82816,0.01030
813.76799,0.01032
811.70781,0.01004
809.64764,0.00944
807.58747,0.00895
805.52730,0.00904
803.46713,0.00967
801.40695,0.01038
799.34678,0.01068
797.28661,0.01064
795.22644,0.01064
793.16627,0.01050
791.10609,0.00991
789.04592,0.00913
786.98575,0.00864
784.92558,0.00850
782.86540,0.00867
780.80523,0.00909
778.74506,0.00938
776.68489,0.00928
774.62472,0.00930
772.56454,0.00984
770.50437,0.01025
768.44420,0.00978
766.38403,0.00878
764.32386,0.00804
762.26368,0.00788
760.20351,0.00826
758.14334,0.00902
756.08317,0.00957
754.02299,0.00949
751.96282,0.00931
749.90265,0.00962
747.84248,0.01020
745.78231,0.01046
743.72213,0.01012
741.66196,0.00941
739.60179,0.00883
737.54162,0.00855
735.48145,0.00848
733.42127,0.00869
731.36110,0.00891
729.30093,0.00883
727.24076,0.00864
725.18059,0.00843
723.12041,0.00803
721.06024,0.00766
719.00007,0.00764
716.93990,0.00797
714.87972,0.00830
712.81955,0.00828
710.75938,0.00787
708.69921,0.00730
706.63904,0.00694
704.57886,0.00690
702.51869,0.00700
700.45852,0.00706
698.39835,0.00704
696.33818,0.00692
694.27800,0.00668
692.21783,0.00644
690.15766,0.00638
688.09749,0.00650
686.03731,0.00639
683.97714,0.00589
681.91697,0.00534
679.85680,0.00512
677.79663,0.00522
675.73645,0.00528
673.67628,0.00511
671.61611,0.00483
669.55594,0.00470
667.49577,0.00498
665.43559,0.00541
663.37542,0.00557
661.31525,0.00554
659.25508,0.00544
657.19491,0.00530
655.13473,0.00528
653.07456,0.00561
651.01439,0.00643
648.95422,0.00776
646.89404,0.00925
644.83387,0.01013
642.77370,0.00986
640.71353,0.00853
638.65336,0.00679
636.59318,0.00552
634.53301,0.00536
632.47284,0.00639
630.41267,0.00799
628.35250,0.00930
626.29232,0.00957
624.23215,0.00842
622.17198,0.00597
620.11181,0.00346
618.05164,0.00200
615.99146,0.00175
613.93129,0.00336
611.87112,0.00657
609.81095,0.00857
607.75077,0.00677
605.69060,0.00261
603.63043,0.00000
601.57026,-0.00100
599.51009,0.00000
