3996.73391,0.00074
3994.67373,0.00068
3992.61356,0.00050
3990.55339,0.00022
3988.49322,0.00001
3986.43305,0.00000
3984.37287,0.00021
3982.31270,0.00056
3980.25253,0.00091
3978.19236,0.00117
3976.13219,0.00126
3974.07201,0.00123
3972.01184,0.00119
3969.95167,0.00114
3967.89150,0.00111
3965.83133,0.00114
3963.77115,0.00124
3961.71098,0.00132
3959.65081,0.00129
3957.59064,0.00118
3955.53046,0.00104
3953.47029,0.00099
3951.41012,0.00109
3949.34995,0.00132
3947.28978,0.00158
3945.22960,0.00179
3943.16943,0.00193
3941.10926,0.00200
3939.04909,0.00196
3936.98892,0.00184
3934.92874,0.00173
3932.86857,0.00168
3930.80840,0.00168
3928.74823,0.00169
3926.68805,0.00170
3924.62788,0.00173
3922.56771,0.00178
3920.50754,0.00184
3918.44737,0.00195
3916.38719,0.00216
3914.32702,0.00233
3912.26685,0.00234
3910.20668,0.00221
3908.14651,0.00209
3906.08633,0.00209
3904.02616,0.00222
3901.96599,0.00236
3899.90582,0.00236
3897.84565,0.00220
3895.78547,0.00197
3893.72530,0.00192
3891.66513,0.00216
3889.60496,0.00257
3887.54478,0.00288
3885.48461,0.00301
3883.42444,0.00297
3881.36427,0.00275
3879.30410,0.00242
3877.24392,0.00206
3875.18375,0.00177
3873.12358,0.00159
3871.06341,0.00154
3869.00324,0.00169
3866.94306,0.00207
3864.88289,0.00264
3862.82272,0.00324
3860.76255,0.00362
3858.70237,0.00365
3856.64220,0.00338
3854.58203,0.00307
3852.52186,0.00292
3850.46169,0.00289
3848.40151,0.00293
3846.34134,0.00303
3844.28117,0.00317
3842.22100,0.00325
3840.16083,0.00316
3838.10065,0.00298
3836.04048,0.00293
3833.98031,0.00306
3831.92014,0.00320
3829.85997,0.00324
3827.79979,0.00325
3825.73962,0.00339
3823.67945,0.00371
3821.61928,0.00409
3819.55910,0.00426
3817.49893,0.00410
3815.43876,0.00373
3813.37859,0.00335
3811.31842,0.00309
3809.25824,0.00303
3807.19807,0.00315
3805.13790,0.00331
3803.07773,0.00338
3801.01756,0.00338
3798.95738,0.00339
3796.89721,0.00344
3794.83704,0.00356
3792.77687,0.00367
3790.71670,0.00373
3788.65652,0.00372
3786.59635,0.00364
3784.53618,0.00355
3782.47601,0.00355
3780.41583,0.00365
3778.35566,0.00374
3776.29549,0.00377
3774.23532,0.00380
3772.17515,0.00399
3770.11497,0.00434
3768.05480,0.00470
3765.99463,0.00489
3763.93446,0.00491
3761.87429,0.00483
3759.81411,0.00473
3757.75394,0.00468
3755.69377,0.00476
3753.63360,0.00497
3751.57342,0.00520
3749.51325,0.00539
3747.45308,0.00569
3745.39291,0.00618
3743.33274,0.00663
3741.27256,0.00669
3739.21239,0.00634
3737.15222,0.00602
3735.09205,0.00609
3733.03188,0.00645
3730.97170,0.00670
3728.91153,0.00669
3726.85136,0.00658
3724.79119,0.00646
3722.73102,0.00629
3720.67084,0.00603
3718.61067,0.00579
3716.55050,0.00567
3714.49033,0.00561
3712.43015,0.00551
3710.36998,0.00532
3708.30981,0.00513
3706.24964,0.00508
3704.18947,0.00523
3702.12929,0.00550
3700.06912,0.00572
3698.00895,0.00571
3695.94878,0.00545
3693.88861,0.00514
3691.82843,0.00505
3689.76826,0.00526
3687.70809,0.00561
3685.64792,0.00581
3683.58775,0.00577
3681.52757,0.00556
3679.46740,0.00533
3677.40723,0.00524
3675.34706,0.00535
3673.28688,0.00557
3671.22671,0.00573
3669.16654,0.00572
3667.10637,0.00556
3665.04620,0.00534
3662.98602,0.00520
3660.92585,0.00517
3658.86568,0.00520
3656.80551,0.00523
3654.74534,0.00515
3652.68516,0.00496
3650.62499,0.00483
3648.56482,0.00491
3646.50465,0.00515
3644.44447,0.00537
3642.38430,0.00546
3640.32413,0.00541
3638.26396,0.00525
3636.20379,0.00508
3634.14361,0.00503
3632.08344,0.00512
3630.02327,0.00528
3627.96310,0.00536
3625.90293,0.00519
3623.84275,0.00472
3621.78258,0.00421
3619.72241,0.00403
3617.66224,0.00422
3615.60207,0.00443
3613.54189,0.00441
3611.48172,0.00421
3609.42155,0.00407
3607.36138,0.00406
3605.30120,0.00411
3603.24103,0.00414
3601.18086,0.00418
3599.12069,0.00425
3597.06052,0.00430
3595.00034,0.00425
3592.94017,0.00414
3590.88000,0.00411
3588.81983,0.00420
3586.75966,0.00433
3584.69948,0.00440
3582.63931,0.00438
3580.57914,0.00424
3578.51897,0.00395
3576.45879,0.00355
3574.39862,0.00320
3572.33845,0.00298
3570.27828,0.00290
3568.21811,0.00301
3566.15793,0.00324
3564.09776,0.00336
3562.03759,0.00329
3559.97742,0.00313
3557.91725,0.00299
3555.85707,0.00284
3553.79690,0.00269
3551.73673,0.00263
3549.67656,0.00274
3547.61639,0.00301
3545.55621,0.00328
3543.49604,0.00337
3541.43587,0.00320
3539.37570,0.00291
3537.31552,0.00272
3535.25535,0.00270
3533.19518,0.00282
3531.13501,0.00301
3529.07484,0.00318
3527.01466,0.00323
3524.95449,0.00302
3522.89432,0.00264
3520.83415,0.00228
3518.77398,0.00208
3516.71380,0.00201
3514.65363,0.00197
3512.59346,0.00193
3510.53329,0.00187
3508.47312,0.00183
3506.41294,0.00189
3504.35277,0.00204
3502.29260,0.00215
3500.23243,0.00212
3498.17225,0.00198
3496.11208,0.00185
3494.05191,0.00183
3491.99174,0.00192
3489.93157,0.00203
3487.87139,0.00207
3485.81122,0.00197
3483.75105,0.00177
3481.69088,0.00161
3479.63071,0.00158
3477.57053,0.00163
3475.51036,0.00168
3473.45019,0.00165
3471.39002,0.00152
3469.32984,0.00135
3467.26967,0.00129
3465.20950,0.00139
3463.14933,0.00151
3461.08916,0.00152
3459.02898,0.00142
3456.96881,0.00129
3454.90864,0.00122
3452.84847,0.00119
3450.78830,0.00109
3448.72812,0.00086
3446.66795,0.00061
3444.60778,0.00050
3442.54761,0.00066
3440.48744,0.00098
3438.42726,0.00126
3436.36709,0.00133
3434.30692,0.00121
3432.24675,0.00097
3430.18657,0.00069
3428.12640,0.00043
3426.06623,0.00027
3424.00606,0.00025
3421.94589,0.00037
3419.88571,0.00054
3417.82554,0.00065
3415.76537,0.00065
3413.70520,0.00055
3411.64503,0.00043
3409.58485,0.00031
3407.52468,0.00025
3405.46451,0.00029
3403.40434,0.00045
3401.34416,0.00064
3399.28399,0.00074
3397.22382,0.00070
3395.16365,0.00058
3393.10348,0.00045
3391.04330,0.00029
3388.98313,0.00012
3386.92296,0.00001
3384.86279,0.00000
3382.80262,0.00006
3380.74244,0.00020
3378.68227,0.00042
3376.62210,0.00070
3374.56193,0.00097
3372.50176,0.00117
3370.44158,0.00126
3368.38141,0.00120
3366.32124,0.00096
3364.26107,0.00062
3362.20089,0.00038
3360.14072,0.00035
3358.08055,0.00041
3356.02038,0.00039
3353.96021,0.00027
3351.90003,0.00010
3349.83986,0.00000
3347.77969,0.00003
3345.71952,0.00019
3343.65935,0.00040
3341.59917,0.00055
3339.53900,0.00062
3337.47883,0.00064
3335.41866,0.00061
3333.35849,0.00053
3331.29831,0.00042
3329.23814,0.00031
3327.17797,0.00026
3325.11780,0.00026
3323.05762,0.00028
3320.99745,0.00029
3318.93728,0.00032
3316.87711,0.00037
3314.81694,0.00045
3312.75676,0.00052
3310.69659,0.00053
3308.63642,0.00053
3306.57625,0.00062
3304.51608,0.00076
3302.45590,0.00085
3300.39573,0.00087
3298.33556,0.00086
3296.27539,0.00081
3294.21521,0.00072
3292.15504,0.00058
3290.09487,0.00046
3288.03470,0.00042
3285.97453,0.00042
3283.91435,0.00037
3281.85418,0.00024
3279.79401,0.00010
3277.73384,0.00003
3275.67367,0.00008
3273.61349,0.00016
3271.55332,0.00018
3269.49315,0.00013
3267.43298,0.00012
3265.37281,0.00026
3263.31263,0.00049
3261.25246,0.00065
3259.19229,0.00062
3257.13212,0.00047
3255.07194,0.00032
3253.01177,0.00022
3250.95160,0.00021
3248.89143,0.00023
3246.83126,0.00028
3244.77108,0.00041
3242.71091,0.00063
3240.65074,0.00081
3238.59057,0.00089
3236.53040,0.00083
3234.47022,0.00068
3232.41005,0.00056
3230.34988,0.00059
3228.28971,0.00071
3226.22954,0.00082
3224.16936,0.00086
3222.10919,0.00086
3220.04902,0.00090
3217.98885,0.00099
3215.92867,0.00109
3213.86850,0.00111
3211.80833,0.00103
3209.74816,0.00095
3207.68799,0.00092
3205.62781,0.00091
3203.56764,0.00090
3201.50747,0.00095
3199.44730,0.00115
3197.38713,0.00150
3195.32695,0.00188
3193.26678,0.00216
3191.20661,0.00228
3189.14644,0.00228
3187.08626,0.00218
3185.02609,0.00210
3182.96592,0.00214
3180.90575,0.00228
3178.84558,0.00242
3176.78540,0.00249
3174.72523,0.00250
3172.66506,0.00254
3170.60489,0.00261
3168.54472,0.00268
3166.48454,0.00274
3164.42437,0.00279
3162.36420,0.00280
3160.30403,0.00277
3158.24386,0.00270
3156.18368,0.00263
3154.12351,0.00265
3152.06334,0.00280
3150.00317,0.00309
3147.94299,0.00344
3145.88282,0.00368
3143.82265,0.00371
3141.76248,0.00356
3139.70231,0.00337
3137.64213,0.00326
3135.58196,0.00328
3133.52179,0.00338
3131.46162,0.00348
3129.40145,0.00356
3127.34127,0.00366
3125.28110,0.00378
3123.22093,0.00388
3121.16076,0.00391
3119.10058,0.00388
3117.04041,0.00385
3114.98024,0.00393
3112.92007,0.00417
3110.85990,0.00444
3108.79972,0.00463
3106.73955,0.00472
3104.67938,0.00473
3102.61921,0.00467
3100.55904,0.00457
3098.49886,0.00450
3096.43869,0.00450
3094.37852,0.00459
3092.31835,0.00472
3090.25818,0.00483
3088.19800,0.00495
3086.13783,0.00504
3084.07766,0.00507
3082.01749,0.00507
3079.95731,0.00509
3077.89714,0.00514
3075.83697,0.00518
3073.77680,0.00523
3071.71663,0.00528
3069.65645,0.00533
3067.59628,0.00533
3065.53611,0.00530
3063.47594,0.00528
3061.41577,0.00525
3059.35559,0.00522
3057.29542,0.00522
3055.23525,0.00529
3053.17508,0.00541
3051.11491,0.00559
3049.05473,0.00586
3046.99456,0.00614
3044.93439,0.00635
3042.87422,0.00644
3040.81404,0.00643
3038.75387,0.00637
3036.69370,0.00629
3034.63353,0.00625
3032.57336,0.00620
3030.51318,0.00615
3028.45301,0.00611
3026.39284,0.00614
3024.33267,0.00624
3022.27250,0.00632
3020.21232,0.00629
3018.15215,0.00617
3016.09198,0.00606
3014.03181,0.00608
3011.97163,0.00625
3009.91146,0.00646
3007.85129,0.00655
3005.79112,0.00649
3003.73095,0.00639
3001.67077,0.00636
2999.61060,0.00647
2997.55043,0.00668
2995.49026,0.00683
2993.43009,0.00678
2991.36991,0.00665
2989.30974,0.00667
2987.24957,0.00682
2985.18940,0.00681
2983.12923,0.00652
2981.06905,0.00623
2979.00888,0.00617
2976.94871,0.00623
2974.88854,0.00621
2972.82836,0.00605
2970.76819,0.00584
2968.70802,0.00566
2966.64785,0.00563
2964.58768,0.00580
2962.52750,0.00614
2960.46733,0.00655
2958.40716,0.00689
2956.34699,0.00703
2954.28682,0.00705
2952.22664,0.00702
2950.16647,0.00690
2948.10630,0.00671
2946.04613,0.00651
2943.98596,0.00644
2941.92578,0.00658
2939.86561,0.00690
2937.80544,0.00717
2935.74527,0.00721
2933.68509,0.00694
2931.62492,0.00653
2929.56475,0.00631
2927.50458,0.00636
2925.44441,0.00653
2923.38423,0.00662
2921.32406,0.00664
2919.26389,0.00677
2917.20372,0.00707
2915.14355,0.00728
2913.08337,0.00721
2911.02320,0.00702
2908.96303,0.00696
2906.90286,0.00711
2904.84268,0.00727
2902.78251,0.00727
2900.72234,0.00720
2898.66217,0.00718
2896.60200,0.00719
2894.54182,0.00723
2892.48165,0.00724
2890.42148,0.00719
2888.36131,0.00708
2886.30114,0.00693
2884.24096,0.00686
2882.18079,0.00690
2880.12062,0.00702
2878.06045,0.00725
2876.00028,0.00758
2873.94010,0.00775
2871.87993,0.00756
2869.81976,0.00729
2867.75959,0.00726
2865.69941,0.00744
2863.63924,0.00769
2861.57907,0.00798
2859.51890,0.00823
2857.45873,0.00831
2855.39855,0.00814
2853.33838,0.00791
2851.27821,0.00785
2849.21804,0.00796
2847.15787,0.00808
2845.09769,0.00817
2843.03752,0.00824
2840.97735,0.00826
2838.91718,0.00820
2836.85700,0.00819
2834.79683,0.00832
2832.73666,0.00844
2830.67649,0.00841
2828.61632,0.00827
2826.55614,0.00813
2824.49597,0.00813
2822.43580,0.00825
2820.37563,0.00839
2818.31546,0.00845
2816.25528,0.00841
2814.19511,0.00834
2812.13494,0.00836
2810.07477,0.00847
2808.01460,0.00858
2805.95442,0.00869
2803.89425,0.00885
2801.83408,0.00897
2799.77391,0.00901
2797.71373,0.00904
2795.65356,0.00904
2793.59339,0.00891
2791.53322,0.00876
2789.47305,0.00881
2787.41287,0.00903
2785.35270,0.00916
2783.29253,0.00913
2781.23236,0.00904
2779.17219,0.00894
2777.11201,0.00892
2775.05184,0.00898
2772.99167,0.00893
2770.93150,0.00868
2768.87133,0.00843
2766.81115,0.00827
2764.75098,0.00827
2762.69081,0.00848
2760.63064,0.00871
2758.57046,0.00880
2756.51029,0.00884
2754.45012,0.00893
2752.38995,0.00899
2750.32978,0.00891
2748.26960,0.00878
2746.20943,0.00875
2744.14926,0.00887
2742.08909,0.00904
2740.02892,0.00913
2737.96874,0.00911
2735.90857,0.00911
2733.84840,0.00912
2731.78823,0.00907
2729.72805,0.00900
2727.66788,0.00898
2725.60771,0.00893
2723.54754,0.00885
2721.48737,0.00887
2719.42719,0.00905
2717.36702,0.00932
2715.30685,0.00948
2713.24668,0.00945
2711.18651,0.00930
2709.12633,0.00916
2707.06616,0.00916
2705.00599,0.00933
2702.94582,0.00949
2700.88565,0.00953
2698.82547,0.00951
2696.76530,0.00950
2694.70513,0.00951
2692.64496,0.00952
2690.58478,0.00949
2688.52461,0.00938
2686.46444,0.00931
2684.40427,0.00936
2682.34410,0.00948
2680.28392,0.00956
2678.22375,0.00958
2676.16358,0.00961
2674.10341,0.00969
2672.04324,0.00989
2669.98306,0.01007
2667.92289,0.01008
2665.86272,0.01000
2663.80255,0.01000
2661.74238,0.01005
2659.68220,0.01003
2657.62203,0.00992
2655.56186,0.00986
2653.50169,0.00990
2651.44151,0.00996
2649.38134,0.00998
2647.32117,0.00991
2645.26100,0.00981
2643.20083,0.00980
2641.14065,0.00993
2639.08048,0.01011
2637.02031,0.01022
2634.96014,0.01017
2632.89997,0.01003
2630.83979,0.00988
2628.77962,0.00975
2626.71945,0.00966
2624.65928,0.00970
2622.59910,0.01000
2620.53893,0.01034
2618.47876,0.01040
2616.41859,0.01025
2614.35842,0.01011
2612.29824,0.01005
2610.23807,0.00999
2608.17790,0.00997
2606.11773,0.01006
2604.05756,0.01009
2601.99738,0.00986
2599.93721,0.00951
2597.87704,0.00931
2595.81687,0.00926
2593.75670,0.00926
2591.69652,0.00939
2589.63635,0.00972
2587.57618,0.01006
2585.51601,0.01017
2583.45583,0.01001
2581.39566,0.00959
2579.33549,0.00919
2577.27532,0.00921
2575.21515,0.00967
2573.15497,0.01019
2571.09480,0.01045
2569.03463,0.01042
2566.97446,0.01026
2564.91429,0.01014
2562.85411,0.01003
2560.79394,0.00984
2558.73377,0.00967
2556.67360,0.00978
2554.61342,0.01011
2552.55325,0.01023
2550.49308,0.01000
2548.43291,0.00982
2546.37274,0.00992
2544.31256,0.01009
2542.25239,0.01008
2540.19222,0.00994
2538.13205,0.00982
2536.07188,0.00985
2534.01170,0.00994
2531.95153,0.00997
2529.89136,0.00998
2527.83119,0.00997
2525.77102,0.00985
2523.71084,0.00966
2521.65067,0.00960
2519.59050,0.00967
2517.53033,0.00964
2515.47015,0.00942
2513.40998,0.00933
2511.34981,0.00961
2509.28964,0.01014
2507.22947,0.01065
2505.16929,0.01091
2503.10912,0.01077
2501.04895,0.01028
2498.98878,0.00973
2496.92861,0.00936
2494.86843,0.00931
2492.80826,0.00949
2490.74809,0.00976
2488.68792,0.01000
2486.62775,0.01005
2484.56757,0.00987
2482.50740,0.00975
2480.44723,0.01000
2478.38706,0.01047
2476.32688,0.01071
2474.26671,0.01055
2472.20654,0.01028
2470.14637,0.01012
2468.08620,0.01005
2466.02602,0.01014
2463.96585,0.01029
2461.90568,0.01015
2459.84551,0.00962
2457.78534,0.00913
2455.72516,0.00913
2453.66499,0.00938
2451.60482,0.00951
2449.54465,0.00959
2447.48447,0.00969
2445.42430,0.00966
2443.36413,0.00953
2441.30396,0.00953
2439.24379,0.00980
2437.18361,0.01014
2435.12344,0.01023
2433.06327,0.01005
2431.00310,0.00979
2428.94293,0.00957
2426.88275,0.00956
2424.82258,0.00970
2422.76241,0.00962
2420.70224,0.00937
2418.64207,0.00941
2416.58189,0.00974
2414.52172,0.01009
2412.46155,0.01027
2410.40138,0.01017
2408.34120,0.00978
2406.28103,0.00938
2404.22086,0.00931
2402.16069,0.00954
2400.10052,0.00984
2398.04034,0.01011
2395.98017,0.01025
2393.92000,0.01025
2391.85983,0.01016
2389.79966,0.01008
2387.73948,0.01007
2385.67931,0.01018
2383.61914,0.01031
2381.55897,0.01033
2379.49880,0.01027
2377.43862,0.01025
2375.37845,0.01029
2373.31828,0.01018
2371.25811,0.00964
2369.19793,0.00864
2367.13776,0.00741
2365.07759,0.00654
2363.01742,0.00695
2360.95725,0.00866
2358.89707,0.01056
2356.83690,0.01169
2354.77673,0.01201
2352.71656,0.01195
2350.65639,0.01192
2348.59621,0.01190
2346.53604,0.01177
2344.47587,0.01151
2342.41570,0.01108
2340.35552,0.01081
2338.29535,0.01100
2336.23518,0.01144
2334.17501,0.01171
2332.11484,0.01170
2330.05466,0.01163
2327.99449,0.01169
2325.93432,0.01175
2323.87415,0.01153
2321.81398,0.01111
2319.75380,0.01085
2317.69363,0.01107
2315.63346,0.01171
2313.57329,0.01244
2311.51312,0.01283
2309.45294,0.01270
2307.39277,0.01224
2305.33260,0.01174
2303.27243,0.01136
2301.21225,0.01105
2299.15208,0.01074
2297.09191,0.01046
2295.03174,0.01035
2292.97157,0.01049
2290.91139,0.01078
2288.85122,0.01102
2286.79105,0.01107
2284.73088,0.01089
2282.67071,0.01066
2280.61053,0.01058
2278.55036,0.01064
2276.49019,0.01063
2274.43002,0.01043
2272.36984,0.01009
2270.30967,0.00976
2268.24950,0.00959
2266.18933,0.00975
2264.12916,0.01021
2262.06898,0.01070
2260.00881,0.01097
2257.94864,0.01101
2255.88847,0.01092
2253.82830,0.01079
2251.76812,0.01057
2249.70795,0.01021
2247.64778,0.00992
2245.58761,0.01028
2243.52744,0.01112
2241.46726,0.01180
2239.40709,0.01175
2237.34692,0.01098
2235.28675,0.01007
2233.22657,0.00961
2231.16640,0.00986
2229.10623,0.01046
2227.04606,0.01061
2224.98589,0.00986
2222.92571,0.00885
2220.86554,0.00862
2218.80537,0.00907
2216.74520,0.00936
2214.68503,0.00936
2212.62485,0.00969
2210.56468,0.01060
2208.50451,0.01141
2206.44434,0.01156
2204.38417,0.01134
2202.32399,0.01136
2200.26382,0.01180
2198.20365,0.01221
2196.14348,0.01210
2194.08330,0.01139
2192.02313,0.01042
2189.96296,0.00964
2187.90279,0.00920
2185.84262,0.00865
2183.78244,0.00802
2181.72227,0.00801
2179.66210,0.00864
2177.60193,0.00920
2175.54176,0.00935
2173.48158,0.00907
2171.42141,0.00841
2169.36124,0.00790
2167.30107,0.00834
2165.24089,0.00949
2163.18072,0.01000
2161.12055,0.00937
2159.06038,0.00832
2157.00021,0.00745
2154.94003,0.00726
2152.87986,0.00814
2150.81969,0.00920
2148.75952,0.00955
2146.69935,0.00963
2144.63917,0.00985
2142.57900,0.00986
2140.51883,0.00948
2138.45866,0.00894
2136.39849,0.00834
2134.33831,0.00791
2132.27814,0.00810
2130.21797,0.00878
2128.15780,0.00937
2126.09762,0.00972
2124.03745,0.01014
2121.97728,0.01056
2119.91711,0.01052
2117.85694,0.00982
2115.79676,0.00913
2113.73659,0.00912
2111.67642,0.00947
2109.61625,0.00988
2107.55608,0.01045
2105.49590,0.01097
2103.43573,0.01099
2101.37556,0.01050
2099.31539,0.01002
2097.25521,0.00968
2095.19504,0.00939
2093.13487,0.00913
2091.07470,0.00901
2089.01453,0.00912
2086.95435,0.00950
2084.89418,0.01016
2082.83401,0.01097
2080.77384,0.01159
2078.71367,0.01175
2076.65349,0.01150
2074.59332,0.01110
2072.53315,0.01073
2070.47298,0.01034
2068.41281,0.00981
2066.35263,0.00918
2064.29246,0.00878
2062.23229,0.00885
2060.17212,0.00934
2058.11194,0.00993
2056.05177,0.01034
2053.99160,0.01057
2051.93143,0.01078
2049.87126,0.01101
2047.81108,0.01131
2045.75091,0.01169
2043.69074,0.01204
2041.63057,0.01214
2039.57040,0.01182
2037.51022,0.01100
2035.45005,0.00988
2033.38988,0.00898
2031.32971,0.00883
2029.26954,0.00941
2027.20936,0.01027
2025.14919,0.01100
2023.08902,0.01149
2021.02885,0.01178
2018.96867,0.01178
2016.90850,0.01132
2014.84833,0.01040
2012.78816,0.00931
2010.72799,0.00855
2008.66781,0.00852
2006.60764,0.00928
2004.54747,0.01040
2002.48730,0.01122
2000.42713,0.01142
1998.36695,0.01123
1996.30678,0.01109
1994.24661,0.01111
1992.18644,0.01093
1990.12626,0.01035
1988.06609,0.00984
1986.00592,0.00980
1983.94575,0.01011
1981.88558,0.01046
1979.82540,0.01069
1977.76523,0.01087
1975.70506,0.01102
1973.64489,0.01098
1971.58472,0.01066
1969.52454,0.01033
1967.46437,0.01042
1965.40420,0.01100
1963.34403,0.01177
1961.28386,0.01217
1959.22368,0.01177
1957.16351,0.01065
1955.10334,0.00943
1953.04317,0.00882
1950.98299,0.00903
1948.92282,0.00974
1946.86265,0.01040
1944.80248,0.01062
1942.74231,0.01048
1940.68213,0.01032
1938.62196,0.01029
1936.56179,0.01026
1934.50162,0.01011
1932.44145,0.00988
1930.38127,0.00969
1928.32110,0.00959
1926.26093,0.00957
1924.20076,0.00967
1922.14059,0.00997
1920.08041,0.01048
1918.02024,0.01104
1915.96007,0.01138
1913.89990,0.01133
1911.83972,0.01098
1909.77955,0.01058
1907.71938,0.01029
1905.65921,0.01011
1903.59904,0.01003
1901.53886,0.01006
1899.47869,0.01024
1897.41852,0.01049
1895.35835,0.01070
1893.29818,0.01082
1891.23800,0.01094
1889.17783,0.01115
1887.11766,0.01143
1885.05749,0.01163
1882.99731,0.01164
1880.93714,0.01145
1878.87697,0.01113
1876.81680,0.01077
1874.75663,0.01048
1872.69645,0.01037
1870.63628,0.01046
1868.57611,0.01070
1866.51594,0.01093
1864.45577,0.01103
1862.39559,0.01100
1860.33542,0.01091
1858.27525,0.01088
1856.21508,0.01093
1854.15491,0.01103
1852.09473,0.01107
1850.03456,0.01105
1847.97439,0.01108
1845.91422,0.01126
1843.85404,0.01157
1841.79387,0.01184
1839.73370,0.01196
1837.67353,0.01191
1835.61336,0.01173
1833.55318,0.01150
1831.49301,0.01129
1829.43284,0.01115
1827.37267,0.01109
1825.31250,0.01110
1823.25232,0.01114
1821.19215,0.01120
1819.13198,0.01129
1817.07181,0.01136
1815.01163,0.01133
1812.95146,0.01125
1810.89129,0.01120
1808.83112,0.01120
1806.77095,0.01126
1804.71077,0.01135
1802.65060,0.01145
1800.59043,0.01153
1798.53026,0.01160
1796.47009,0.01166
1794.40991,0.01166
1792.34974,0.01157
1790.28957,0.01146
1788.22940,0.01145
1786.16923,0.01158
1784.10905,0.01178
1782.04888,0.01192
1779.98871,0.01194
1777.92854,0.01179
1775.86836,0.01150
1773.80819,0.01119
1771.74802,0.01101
1769.68785,0.01103
1767.62768,0.01119
1765.56750,0.01136
1763.50733,0.01146
1761.44716,0.01150
1759.38699,0.01154
1757.32682,0.01163
1755.26664,0.01174
1753.20647,0.01184
1751.14630,0.01194
1749.08613,0.01204
1747.02596,0.01211
1744.96578,0.01207
1742.90561,0.01189
1740.84544,0.01170
1738.78527,0.01160
1736.72509,0.01160
1734.66492,0.01164
1732.60475,0.01166
1730.54458,0.01164
1728.48441,0.01162
1726.42423,0.01168
1724.36406,0.01178
1722.30389,0.01178
1720.24372,0.01165
1718.18355,0.01148
1716.12337,0.01137
1714.06320,0.01127
1712.00303,0.01113
1709.94286,0.01096
1707.88268,0.01082
1705.82251,0.01079
1703.76234,0.01089
1701.70217,0.01108
1699.64200,0.01126
1697.58182,0.01129
1695.52165,0.01109
1693.46148,0.01073
1691.40131,0.01040
1689.34114,0.01022
1687.28096,0.01024
1685.22079,0.01037
1683.16062,0.01050
1681.10045,0.01047
1679.04028,0.01029
1676.98010,0.01003
1674.91993,0.00978
1672.85976,0.00956
1670.79959,0.00936
1668.73941,0.00923
1666.67924,0.00915
1664.61907,0.00907
1662.55890,0.00895
1660.49873,0.00883
1658.43855,0.00874
1656.37838,0.00866
1654.31821,0.00857
1652.25804,0.00849
1650.19787,0.00844
1648.13769,0.00842
1646.07752,0.00846
1644.01735,0.00853
1641.95718,0.00858
1639.89701,0.00864
1637.83683,0.00872
1635.77666,0.00885
1633.71649,0.00904
1631.65632,0.00928
1629.59614,0.00955
1627.53597,0.00983
1625.47580,0.01002
1623.41563,0.01009
1621.35546,0.01006
1619.29528,0.01004
1617.23511,0.01007
1615.17494,0.01010
1613.11477,0.01007
1611.05460,0.01001
1608.99442,0.01002
1606.93425,0.01008
1604.87408,0.01014
1602.81391,0.01016
1600.75373,0.01019
1598.69356,0.01025
1596.63339,0.01032
1594.57322,0.01038
1592.51305,0.01038
1590.45287,0.01036
1588.39270,0.01038
1586.33253,0.01044
1584.27236,0.01052
1582.21219,0.01054
1580.15201,0.01051
1578.09184,0.01043
1576.03167,0.01034
1573.97150,0.01029
1571.91133,0.01030
1569.85115,0.01044
1567.79098,0.01068
1565.73081,0.01088
1563.67064,0.01100
1561.61046,0.01109
1559.55029,0.01127
1557.49012,0.01158
1555.42995,0.01183
1553.36978,0.01189
1551.30960,0.01179
1549.24943,0.01168
1547.18926,0.01165
1545.12909,0.01167
1543.06892,0.01168
1541.00874,0.01162
1538.94857,0.01149
1536.88840,0.01133
1534.82823,0.01124
1532.76805,0.01131
1530.70788,0.01151
1528.64771,0.01173
1526.58754,0.01190
1524.52737,0.01204
1522.46719,0.01214
1520.40702,0.01222
1518.34685,0.01227
1516.28668,0.01228
1514.22651,0.01231
1512.16633,0.01236
1510.10616,0.01239
1508.04599,0.01235
1505.98582,0.01224
1503.92565,0.01211
1501.86547,0.01200
1499.80530,0.01194
1497.74513,0.01194
1495.68496,0.01197
1493.62478,0.01196
1491.56461,0.01191
1489.50444,0.01190
1487.44427,0.01193
1485.38410,0.01191
1483.32392,0.01184
1481.26375,0.01179
1479.20358,0.01181
1477.14341,0.01184
1475.08324,0.01183
1473.02306,0.01180
1470.96289,0.01179
1468.90272,0.01177
1466.84255,0.01174
1464.78238,0.01173
1462.72220,0.01175
1460.66203,0.01174
1458.60186,0.01169
1456.54169,0.01163
1454.48151,0.01157
1452.42134,0.01155
1450.36117,0.01155
1448.30100,0.01161
1446.24083,0.01172
1444.18065,0.01186
1442.12048,0.01198
1440.06031,0.01208
1438.00014,0.01211
1435.93997,0.01205
1433.87979,0.01191
1431.81962,0.01174
1429.75945,0.01164
1427.69928,0.01166
1425.63910,0.01177
1423.57893,0.01192
1421.51876,0.01202
1419.45859,0.01203
1417.39842,0.01188
1415.33824,0.01158
1413.27807,0.01130
1411.21790,0.01119
1409.15773,0.01126
1407.09756,0.01138
1405.03738,0.01146
1402.97721,0.01151
1400.91704,0.01157
1398.85687,0.01164
1396.79670,0.01172
1394.73652,0.01179
1392.67635,0.01182
1390.61618,0.01181
1388.55601,0.01178
1386.49583,0.01173
1384.43566,0.01165
1382.37549,0.01158
1380.31532,0.01153
1378.25515,0.01148
1376.19497,0.01144
1374.13480,0.01138
1372.07463,0.01132
1370.01446,0.01131
1367.95429,0.01142
1365.89411,0.01162
1363.83394,0.01183
1361.77377,0.01197
1359.71360,0.01200
1357.65343,0.01198
1355.59325,0.01196
1353.53308,0.01192
1351.47291,0.01180
1349.41274,0.01163
1347.35256,0.01148
1345.29239,0.01141
1343.23222,0.01144
1341.17205,0.01157
1339.11188,0.01172
1337.05170,0.01182
1334.99153,0.01185
1332.93136,0.01182
1330.87119,0.01177
1328.81102,0.01168
1326.75084,0.01160
1324.69067,0.01156
1322.63050,0.01155
1320.57033,0.01156
1318.51015,0.01155
1316.44998,0.01151
1314.38981,0.01140
1312.32964,0.01127
1310.26947,0.01119
1308.20929,0.01118
1306.14912,0.01123
1304.08895,0.01130
1302.02878,0.01137
1299.96861,0.01143
1297.90843,0.01143
1295.84826,0.01137
1293.78809,0.01134
1291.72792,0.01138
1289.66775,0.01150
1287.60757,0.01162
1285.54740,0.01169
1283.48723,0.01168
1281.42706,0.01160
1279.36688,0.01149
1277.30671,0.01141
1275.24654,0.01139
1273.18637,0.01146
1271.12620,0.01154
1269.06602,0.01158
1267.00585,0.01156
1264.94568,0.01153
1262.88551,0.01154
1260.82534,0.01161
1258.76516,0.01169
1256.70499,0.01173
1254.64482,0.01172
1252.58465,0.01167
1250.52447,0.01160
1248.46430,0.01153
1246.40413,0.01152
1244.34396,0.01158
1242.28379,0.01166
1240.22361,0.01165
1238.16344,0.01153
1236.10327,0.01137
1234.04310,0.01126
1231.98293,0.01127
1229.92275,0.01140
1227.86258,0.01159
1225.80241,0.01175
1223.74224,0.01186
1221.68207,0.01191
1219.62189,0.01197
1217.56172,0.01201
1215.50155,0.01203
1213.44138,0.01201
1211.38120,0.01194
1209.32103,0.01183
1207.26086,0.01174
1205.20069,0.01173
1203.14052,0.01178
1201.08034,0.01190
1199.02017,0.01206
1196.96000,0.01223
1194.89983,0.01238
1192.83966,0.01243
1190.77948,0.01235
1188.71931,0.01226
1186.65914,0.01236
1184.59897,0.01269
1182.53880,0.01308
1180.47862,0.01339
1178.41845,0.01363
1176.35828,0.01377
1174.29811,0.01371
1172.23793,0.01354
1170.17776,0.01338
1168.11759,0.01331
1166.05742,0.01330
1163.99725,0.01320
1161.93707,0.01298
1159.87690,0.01278
1157.81673,0.01266
1155.75656,0.01266
1153.69639,0.01275
1151.63621,0.01289
1149.57604,0.01300
1147.51587,0.01295
1145.45570,0.01275
1143.39552,0.01257
1141.33535,0.01255
1139.27518,0.01259
1137.21501,0.01252
1135.15484,0.01238
1133.09466,0.01237
1131.03449,0.01240
1128.97432,0.01232
1126.91415,0.01217
1124.85398,0.01202
1122.79380,0.01191
1120.73363,0.01183
1118.67346,0.01174
1116.61329,0.01164
1114.55312,0.01155
1112.49294,0.01145
1110.43277,0.01146
1108.37260,0.01155
1106.31243,0.01151
1104.25225,0.01135
1102.19208,0.01132
1100.13191,0.01137
1098.07174,0.01128
1096.01157,0.01102
1093.95139,0.01067
1091.89122,0.01042
1089.83105,0.01034
1087.77088,0.01034
1085.71071,0.01025
1083.65053,0.01004
1081.59036,0.00986
1079.53019,0.00989
1077.47002,0.00999
1075.40985,0.00999
1073.34967,0.00994
1071.28950,0.00980
1069.22933,0.00952
1067.16916,0.00936
1065.10898,0.00957
1063.04881,0.00992
1060.98864,0.00994
1058.92847,0.00962
1056.86830,0.00937
1054.80812,0.00928
1052.74795,0.00905
1050.68778,0.00864
1048.62761,0.00830
1046.56744,0.00809
1044.50726,0.00802
1042.44709,0.00813
1040.38692,0.00828
1038.32675,0.00840
1036.26657,0.00861
1034.20640,0.00882
1032.14623,0.00885
1030.08606,0.00883
1028.02589,0.00905
1025.96571,0.00951
1023.90554,0.00993
1021.84537,0.01013
1019.78520,0.01017
1017.72503,0.01017
1015.66485,0.01024
1013.60468,0.01042
1011.54451,0.01051
1009.48434,0.01038
1007.42417,0.01019
1005.36399,0.01027
1003.30382,0.01067
1001.24365,0.01097
999.18348,0.01088
997.12330,0.01058
995.06313,0.01035
993.00296,0.01029
990.94279,0.01027
988.88262,0.01020
986.82244,0.01028
984.76227,0.01060
982.70210,0.01075
980.64193,0.01037
978.58176,0.00992
976.52158,0.00992
974.46141,0.01010
972.40124,0.01020
970.34107,0.01036
968.28089,0.01056
966.22072,0.01061
964.16055,0.01051
962.10038,0.01045
960.04021,0.01059
957.98003,0.01081
955.91986,0.01099
953.85969,0.01102
951.79952,0.01094
949.73935,0.01090
947.67917,0.01095
945.61900,0.01105
943.55883,0.01114
941.49866,0.01112
939.43849,0.01093
937.37831,0.01080
935.31814,0.01096
933.25797,0.01128
931.19780,0.01152
929.13762,0.01171
927.07745,0.01177
925.01728,0.01153
922.95711,0.01121
920.89694,0.01108
918.83676,0.01096
916.77659,0.01056
914.71642,0.01014
912.65625,0.01019
910.59608,0.01062
908.53590,0.01096
906.47573,0.01091
904.41556,0.01052
902.35539,0.01027
900.29522,0.01035
898.23504,0.01032
896.17487,0.01004
894.11470,0.00990
892.05453,0.00993
889.99435,0.00983
887.93418,0.00966
885.87401,0.00960
883.81384,0.00963
881.75367,0.00970
879.69349,0.00966
877.63332,0.00945
875.57315,0.00941
873.51298,0.00969
871.45281,0.01003
869.39263,0.01037
867.33246,0.01081
865.27229,0.01104
863.21212,0.01064
861.15194,0.00998
859.09177,0.00987
857.03160,0.01034
854.97143,0.01073
852.91126,0.01068
850.85108,0.01045
848.79091,0.01034
846.73074,0.01026
844.67057,0.01012
842.61040,0.01007
840.55022,0.01012
838.49005,0.01003
836.42988,0.00975
834.36971,0.00946
832.30954,0.00928
830.24936,0.00916
828.18919,0.00902
826.12902,0.00892
824.06885,0.00906
822.00867,0.00936
819.94850,0.00957
817.88833,0.00943
815.82816,0.00892
813.76799,0.00844
811.70781,0.00830
809.64764,0.00842
807.58747,0.00866
805.52730,0.00888
803.46713,0.00897
801.40695,0.00909
799.34678,0.00928
797.28661,0.00938
795.22644,0.00935
793.16627,0.00910
791.10609,0.00846
789.04592,0.00771
786.98575,0.00739
784.92558,0.00744
782.86540,0.00747
780.80523,0.00732
778.74506,0.00704
776.68489,0.00689
774.62472,0.00728
772.56454,0.00827
770.50437,0.00928
768.44420,0.00962
766.38403,0.00927
764.32386,0.00855
762.26368,0.00762
760.20351,0.00686
758.14334,0.00676
756.08317,0.00726
754.02299,0.00771
751.96282,0.00761
749.90265,0.00722
747.84248,0.00705
745.78231,0.00727
743.72213,0.00745
741.66196,0.00724
739.60179,0.00686
737.54162,0.00666
735.48145,0.00676
733.42127,0.00719
731.36110,0.00754
729.30093,0.00733
727.24076,0.00695
725.18059,0.00691
723.12041,0.00715
721.06024,0.00751
719.00007,0.00793
716.93990,0.00831
714.87972,0.00839
712.81955,0.00808
710.75938,0.00764
708.69921,0.00739
706.63904,0.00745
704.57886,0.00762
702.51869,0.00765
700.45852,0.00740
698.39835,0.00682
696.33818,0.00612
694.27800,0.00562
692.21783,0.00553
690.15766,0.00584
688.09749,0.00630
686.03731,0.00647
683.97714,0.00618
681.91697,0.00571
679.85680,0.00539
677.79663,0.00529
675.73645,0.00526
673.67628,0.00516
671.61611,0.00512
669.55594,0.00539
667.49577,0.00601
665.43559,0.00646
663.37542,0.00648
661.31525,0.00637
659.25508,0.00626
657.19491,0.00608
655.13473,0.00585
653.07456,0.00570
651.01439,0.00585
648.95422,0.00652
646.89404,0.00757
644.83387,0.00826
642.77370,0.00789
640.71353,0.00660
638.65336,0.00527
636.59318,0.00471
634.53301,0.00509
632.47284,0.00619
630.41267,0.00755
628.35250,0.00840
626.29232,0.00823
624.23215,0.00772
622.17198,0.00787
620.11181,0.00903
618.05164,0.00975
615.99146,0.00876
613.93129,0.00746
611.87112,0.00679
609.81095,0.00604
607.75077,0.00495
605.69060,0.00394
603.63043,0.00276
601.57026,0.00118
599.51009,0.00000
