3996.73391,0.00019
3994.67373,0.00041
3992.61356,0.00064
3990.55339,0.00063
3988.49322,0.00035
3986.43305,0.00005
3984.37287,0.00000
3982.31270,0.00020
3980.25253,0.00050
3978.19236,0.00074
3976.13219,0.00082
3974.07201,0.00082
3972.01184,0.00080
3969.95167,0.00069
3967.89150,0.00059
3965.83133,0.00060
3963.77115,0.00059
3961.71098,0.00054
3959.65081,0.00058
3957.59064,0.00080
3955.53046,0.00094
3953.47029,0.00073
3951.41012,0.00048
3949.34995,0.00058
3947.28978,0.00090
3945.22960,0.00106
3943.16943,0.00100
3941.10926,0.00079
3939.04909,0.00049
3936.98892,0.00015
3934.92874,0.00000
3932.86857,0.00033
3930.80840,0.00089
3928.74823,0.00105
3926.68805,0.00079
3924.62788,0.00065
3922.56771,0.00082
3920.50754,0.00103
3918.44737,0.00115
3916.38719,0.00116
3914.32702,0.00109
3912.26685,0.00109
3910.20668,0.00115
3908.14651,0.00115
3906.08633,0.00118
3904.02616,0.00137
3901.96599,0.00174
3899.90582,0.00207
3897.84565,0.00193
3895.78547,0.00140
3893.72530,0.00101
3891.66513,0.00096
3889.60496,0.00101
3887.54478,0.00115
3885.48461,0.00150
3883.42444,0.00156
3881.36427,0.00114
3879.30410,0.00076
3877.24392,0.00064
3875.18375,0.00053
3873.12358,0.00044
3871.06341,0.00069
3869.00324,0.00133
3866.94306,0.00166
3864.88289,0.00146
3862.82272,0.00126
3860.76255,0.00133
3858.70237,0.00145
3856.64220,0.00150
3854.58203,0.00145
3852.52186,0.00139
3850.46169,0.00136
3848.40151,0.00111
3846.34134,0.00059
3844.28117,0.00009
3842.22100,0.00000
3840.16083,0.00030
3838.10065,0.00077
3836.04048,0.00114
3833.98031,0.00123
3831.92014,0.00107
3829.85997,0.00082
3827.79979,0.00074
3825.73962,0.00078
3823.67945,0.00063
3821.61928,0.00046
3819.55910,0.00052
3817.49893,0.00061
3815.43876,0.00066
3813.37859,0.00064
3811.31842,0.00044
3809.25824,0.00030
3807.19807,0.00056
3805.13790,0.00098
3803.07773,0.00116
3801.01756,0.00116
3798.95738,0.00115
3796.89721,0.00135
3794.83704,0.00158
3792.77687,0.00145
3790.71670,0.00103
3788.65652,0.00083
3786.59635,0.00094
3784.53618,0.00105
3782.47601,0.00101
3780.41583,0.00094
3778.35566,0.00093
3776.29549,0.00096
3774.23532,0.00091
3772.17515,0.00071
3770.11497,0.00067
3768.05480,0.00107
3765.99463,0.00159
3763.93446,0.00179
3761.87429,0.00160
3759.81411,0.00125
3757.75394,0.00112
3755.69377,0.00130
3753.63360,0.00143
3751.57342,0.00137
3749.51325,0.00144
3747.45308,0.00174
3745.39291,0.00214
3743.33274,0.00218
3741.27256,0.00166
3739.21239,0.00111
3737.15222,0.00094
3735.09205,0.00114
3733.03188,0.00147
3730.97170,0.00164
3728.91153,0.00155
3726.85136,0.00145
3724.79119,0.00129
3722.73102,0.00118
3720.67084,0.00146
3718.61067,0.00182
3716.55050,0.00198
3714.49033,0.00191
3712.43015,0.00169
3710.36998,0.00168
3708.30981,0.00184
3706.24964,0.00185
3704.18947,0.00174
3702.12929,0.00169
3700.06912,0.00161
3698.00895,0.00142
3695.94878,0.00139
3693.88861,0.00147
3691.82843,0.00144
3689.76826,0.00153
3687.70809,0.00203
3685.64792,0.00229
3683.58775,0.00193
3681.52757,0.00145
3679.46740,0.00138
3677.40723,0.00160
3675.34706,0.00169
3673.28688,0.00155
3671.22671,0.00161
3669.16654,0.00208
3667.10637,0.00246
3665.04620,0.00255
3662.98602,0.00253
3660.92585,0.00245
3658.86568,0.00242
3656.80551,0.00265
3654.74534,0.00292
3652.68516,0.00287
3650.62499,0.00279
3648.56482,0.00307
3646.50465,0.00330
3644.44447,0.00314
3642.38430,0.00299
3640.32413,0.00318
3638.26396,0.00361
3636.20379,0.00415
3634.14361,0.00463
3632.08344,0.00481
3630.02327,0.00494
3627.96310,0.00531
3625.90293,0.00539
3623.84275,0.00502
3621.78258,0.00462
3619.72241,0.00452
3617.66224,0.00474
3615.60207,0.00498
3613.54189,0.00526
3611.48172,0.00578
3609.42155,0.00651
3607.36138,0.00713
3605.30120,0.00727
3603.24103,0.00716
3601.18086,0.00718
3599.12069,0.00741
3597.06052,0.00782
3595.00034,0.00819
3592.94017,0.00818
3590.88000,0.00794
3588.81983,0.00804
3586.75966,0.00880
3584.69948,0.00956
3582.63931,0.00975
3580.57914,0.00966
3578.51897,0.00965
3576.45879,0.00987
3574.39862,0.01037
3572.33845,0.01076
3570.27828,0.01068
3568.21811,0.01053
3566.15793,0.01085
3564.09776,0.01130
3562.03759,0.01146
3559.97742,0.01149
3557.91725,0.01160
3555.85707,0.01171
3553.79690,0.01185
3551.73673,0.01225
3549.67656,0.01301
3547.61639,0.01370
3545.55621,0.01389
3543.49604,0.01384
3541.43587,0.01400
3539.37570,0.01438
3537.31552,0.01471
3535.25535,0.01483
3533.19518,0.01493
3531.13501,0.01516
3529.07484,0.01539
3527.01466,0.01540
3524.95449,0.01524
3522.89432,0.01528
3520.83415,0.01560
3518.77398,0.01597
3516.71380,0.01630
3514.65363,0.01659
3512.59346,0.01677
3510.53329,0.01703
3508.47312,0.01750
3506.41294,0.01783
3504.35277,0.01791
3502.29260,0.01803
3500.23243,0.01828
3498.17225,0.01857
3496.11208,0.01877
3494.05191,0.01885
3491.99174,0.01895
3489.93157,0.01913
3487.87139,0.01931
3485.81122,0.01942
3483.75105,0.01954
3481.69088,0.01974
3479.63071,0.01984
3477.57053,0.01981
3475.51036,0.02009
3473.45019,0.02069
3471.39002,0.02115
3469.32984,0.02123
3467.26967,0.02120
3465.20950,0.02139
3463.14933,0.02168
3461.08916,0.02185
3459.02898,0.02196
3456.96881,0.02214
3454.90864,0.02234
3452.84847,0.02253
3450.78830,0.02272
3448.72812,0.02298
3446.66795,0.02338
3444.60778,0.02382
3442.54761,0.02410
3440.48744,0.02399
3438.42726,0.02370
3436.36709,0.02373
3434.30692,0.02405
3432.24675,0.02432
3430.18657,0.02442
3428.12640,0.02443
3426.06623,0.02439
3424.00606,0.02448
3421.94589,0.02462
3419.88571,0.02479
3417.82554,0.02512
3415.76537,0.02548
3413.70520,0.02576
3411.64503,0.02594
3409.58485,0.02607
3407.52468,0.02630
3405.46451,0.02655
3403.40434,0.02660
3401.34416,0.02641
3399.28399,0.02646
3397.22382,0.02680
3395.16365,0.02703
3393.10348,0.02711
3391.04330,0.02718
3388.98313,0.02718
3386.92296,0.02709
3384.86279,0.02709
3382.80262,0.02737
3380.74244,0.02768
3378.68227,0.02771
3376.62210,0.02758
3374.56193,0.02778
3372.50176,0.02838
3370.44158,0.02880
3368.38141,0.02859
3366.32124,0.02815
3364.26107,0.02813
3362.20089,0.02845
3360.14072,0.02858
3358.08055,0.02855
3356.02038,0.02870
3353.96021,0.02892
3351.90003,0.02896
3349.83986,0.02892
3347.77969,0.02894
3345.71952,0.02911
3343.65935,0.02940
3341.59917,0.02968
3339.53900,0.02983
3337.47883,0.02977
3335.41866,0.02952
3333.35849,0.02926
3331.29831,0.02922
3329.23814,0.02934
3327.17797,0.02938
3325.11780,0.02928
3323.05762,0.02921
3320.99745,0.02926
3318.93728,0.02946
3316.87711,0.02968
3314.81694,0.02979
3312.75676,0.02981
3310.69659,0.02977
3308.63642,0.02973
3306.57625,0.02971
3304.51608,0.02970
3302.45590,0.02977
3300.39573,0.02982
3298.33556,0.02985
3296.27539,0.02994
3294.21521,0.02998
3292.15504,0.03005
3290.09487,0.03029
3288.03470,0.03046
3285.97453,0.03033
3283.91435,0.02998
3281.85418,0.02977
3279.79401,0.02999
3277.73384,0.03027
3275.67367,0.03024
3273.61349,0.03008
3271.55332,0.02995
3269.49315,0.02995
3267.43298,0.03009
3265.37281,0.03005
3263.31263,0.02977
3261.25246,0.02967
3259.19229,0.02974
3257.13212,0.02980
3255.07194,0.02993
3253.01177,0.02994
3250.95160,0.02964
3248.89143,0.02924
3246.83126,0.02898
3244.77108,0.02902
3242.71091,0.02922
3240.65074,0.02935
3238.59057,0.02934
3236.53040,0.02928
3234.47022,0.02919
3232.41005,0.02912
3230.34988,0.02905
3228.28971,0.02889
3226.22954,0.02875
3224.16936,0.02871
3222.10919,0.02865
3220.04902,0.02854
3217.98885,0.02848
3215.92867,0.02841
3213.86850,0.02826
3211.80833,0.02801
3209.74816,0.02776
3207.68799,0.02761
3205.62781,0.02750
3203.56764,0.02736
3201.50747,0.02735
3199.44730,0.02746
3197.38713,0.02747
3195.32695,0.02737
3193.26678,0.02710
3191.20661,0.02656
3189.14644,0.02618
3187.08626,0.02620
3185.02609,0.02630
3182.96592,0.02613
3180.90575,0.02573
3178.84558,0.02545
3176.78540,0.02539
3174.72523,0.02544
3172.66506,0.02551
3170.60489,0.02531
3168.54472,0.02473
3166.48454,0.02431
3164.42437,0.02426
3162.36420,0.02422
3160.30403,0.02394
3158.24386,0.02362
3156.18368,0.02339
3154.12351,0.02325
3152.06334,0.02326
3150.00317,0.02325
3147.94299,0.02302
3145.88282,0.02245
3143.82265,0.02179
3141.76248,0.02148
3139.70231,0.02149
3137.64213,0.02148
3135.58196,0.02148
3133.52179,0.02150
3131.46162,0.02134
3129.40145,0.02092
3127.34127,0.02052
3125.28110,0.02038
3123.22093,0.02032
3121.16076,0.02014
3119.10058,0.01990
3117.04041,0.01976
3114.98024,0.01970
3112.92007,0.01957
3110.85990,0.01936
3108.79972,0.01907
3106.73955,0.01889
3104.67938,0.01882
3102.61921,0.01857
3100.55904,0.01827
3098.49886,0.01813
3096.43869,0.01795
3094.37852,0.01773
3092.31835,0.01754
3090.25818,0.01729
3088.19800,0.01702
3086.13783,0.01673
3084.07766,0.01648
3082.01749,0.01641
3079.95731,0.01637
3077.89714,0.01626
3075.83697,0.01608
3073.77680,0.01594
3071.71663,0.01596
3069.65645,0.01592
3067.59628,0.01569
3065.53611,0.01538
3063.47594,0.01504
3061.41577,0.01489
3059.35559,0.01489
3057.29542,0.01466
3055.23525,0.01426
3053.17508,0.01399
3051.11491,0.01388
3049.05473,0.01386
3046.99456,0.01382
3044.93439,0.01359
3042.87422,0.01327
3040.81404,0.01315
3038.75387,0.01323
3036.69370,0.01332
3034.63353,0.01326
3032.57336,0.01304
3030.51318,0.01287
3028.45301,0.01274
3026.39284,0.01247
3024.33267,0.01218
3022.27250,0.01209
3020.21232,0.01205
3018.15215,0.01195
3016.09198,0.01189
3014.03181,0.01183
3011.97163,0.01173
3009.91146,0.01168
3007.85129,0.01172
3005.79112,0.01178
3003.73095,0.01176
3001.67077,0.01165
2999.61060,0.01149
2997.55043,0.01134
2995.49026,0.01126
2993.43009,0.01130
2991.36991,0.01145
2989.30974,0.01167
2987.24957,0.01182
2985.18940,0.01186
2983.12923,0.01185
2981.06905,0.01186
2979.00888,0.01188
2976.94871,0.01197
2974.88854,0.01214
2972.82836,0.01234
2970.76819,0.01260
2968.70802,0.01279
2966.64785,0.01277
2964.58768,0.01275
2962.52750,0.01292
2960.46733,0.01321
2958.40716,0.01347
2956.34699,0.01369
2954.28682,0.01394
2952.22664,0.01419
2950.16647,0.01436
2948.10630,0.01459
2946.04613,0.01488
2943.98596,0.01511
2941.92578,0.01541
2939.86561,0.01574
2937.80544,0.01594
2935.74527,0.01610
2933.68509,0.01632
2931.62492,0.01637
2929.56475,0.01609
2927.50458,0.01579
2925.44441,0.01579
2923.38423,0.01594
2921.32406,0.01595
2919.26389,0.01576
2917.20372,0.01551
2915.14355,0.01525
2913.08337,0.01508
2911.02320,0.01497
2908.96303,0.01475
2906.90286,0.01448
2904.84268,0.01432
2902.78251,0.01432
2900.72234,0.01433
2898.66217,0.01429
2896.60200,0.01437
2894.54182,0.01450
2892.48165,0.01438
2890.42148,0.01402
2888.36131,0.01373
2886.30114,0.01360
2884.24096,0.01363
2882.18079,0.01385
2880.12062,0.01393
2878.06045,0.01369
2876.00028,0.01342
2873.94010,0.01336
2871.87993,0.01332
2869.81976,0.01313
2867.75959,0.01272
2865.69941,0.01232
2863.63924,0.01210
2861.57907,0.01202
2859.51890,0.01197
2857.45873,0.01195
2855.39855,0.01199
2853.33838,0.01208
2851.27821,0.01208
2849.21804,0.01191
2847.15787,0.01165
2845.09769,0.01143
2843.03752,0.01119
2840.97735,0.01100
2838.91718,0.01086
2836.85700,0.01060
2834.79683,0.01023
2832.73666,0.01009
2830.67649,0.01013
2828.61632,0.01004
2826.55614,0.00986
2824.49597,0.00977
2822.43580,0.00970
2820.37563,0.00966
2818.31546,0.00968
2816.25528,0.00971
2814.19511,0.00974
2812.13494,0.00972
2810.07477,0.00960
2808.01460,0.00947
2805.95442,0.00936
2803.89425,0.00931
2801.83408,0.00937
2799.77391,0.00937
2797.71373,0.00924
2795.65356,0.00914
2793.59339,0.00914
2791.53322,0.00917
2789.47305,0.00908
2787.41287,0.00894
2785.35270,0.00888
2783.29253,0.00892
2781.23236,0.00890
2779.17219,0.00867
2777.11201,0.00838
2775.05184,0.00831
2772.99167,0.00841
2770.93150,0.00845
2768.87133,0.00845
2766.81115,0.00850
2764.75098,0.00851
2762.69081,0.00843
2760.63064,0.00829
2758.57046,0.00818
2756.51029,0.00815
2754.45012,0.00808
2752.38995,0.00801
2750.32978,0.00806
2748.26960,0.00820
2746.20943,0.00835
2744.14926,0.00839
2742.08909,0.00826
2740.02892,0.00816
2737.96874,0.00825
2735.90857,0.00830
2733.84840,0.00822
2731.78823,0.00816
2729.72805,0.00815
2727.66788,0.00809
2725.60771,0.00795
2723.54754,0.00778
2721.48737,0.00775
2719.42719,0.00781
2717.36702,0.00773
2715.30685,0.00762
2713.24668,0.00759
2711.18651,0.00756
2709.12633,0.00756
2707.06616,0.00767
2705.00599,0.00775
2702.94582,0.00779
2700.88565,0.00791
2698.82547,0.00796
2696.76530,0.00786
2694.70513,0.00772
2692.64496,0.00762
2690.58478,0.00749
2688.52461,0.00727
2686.46444,0.00717
2684.40427,0.00728
2682.34410,0.00744
2680.28392,0.00748
2678.22375,0.00744
2676.16358,0.00740
2674.10341,0.00742
2672.04324,0.00742
2669.98306,0.00733
2667.92289,0.00722
2665.86272,0.00725
2663.80255,0.00741
2661.74238,0.00742
2659.68220,0.00727
2657.62203,0.00725
2655.56186,0.00733
2653.50169,0.00731
2651.44151,0.00719
2649.38134,0.00714
2647.32117,0.00718
2645.26100,0.00718
2643.20083,0.00705
2641.14065,0.00694
2639.08048,0.00698
2637.02031,0.00701
2634.96014,0.00680
2632.89997,0.00646
2630.83979,0.00635
2628.77962,0.00650
2626.71945,0.00672
2624.65928,0.00677
2622.59910,0.00655
2620.53893,0.00630
2618.47876,0.00623
2616.41859,0.00603
2614.35842,0.00575
2612.29824,0.00581
2610.23807,0.00606
2608.17790,0.00605
2606.11773,0.00590
2604.05756,0.00594
2601.99738,0.00604
2599.93721,0.00593
2597.87704,0.00565
2595.81687,0.00559
2593.75670,0.00583
2591.69652,0.00602
2589.63635,0.00584
2587.57618,0.00541
2585.51601,0.00513
2583.45583,0.00533
2581.39566,0.00576
2579.33549,0.00602
2577.27532,0.00587
2575.21515,0.00553
2573.15497,0.00547
2571.09480,0.00562
2569.03463,0.00576
2566.97446,0.00582
2564.91429,0.00583
2562.85411,0.00578
2560.79394,0.00565
2558.73377,0.00556
2556.67360,0.00546
2554.61342,0.00528
2552.55325,0.00522
2550.49308,0.00528
2548.43291,0.00518
2546.37274,0.00506
2544.31256,0.00505
2542.25239,0.00504
2540.19222,0.00497
2538.13205,0.00487
2536.07188,0.00493
2534.01170,0.00512
2531.95153,0.00502
2529.89136,0.00470
2527.83119,0.00470
2525.77102,0.00506
2523.71084,0.00520
2521.65067,0.00498
2519.59050,0.00479
2517.53033,0.00475
2515.47015,0.00475
2513.40998,0.00480
2511.34981,0.00481
2509.28964,0.00477
2507.22947,0.00476
2505.16929,0.00484
2503.10912,0.00489
2501.04895,0.00478
2498.98878,0.00464
2496.92861,0.00453
2494.86843,0.00446
2492.80826,0.00464
2490.74809,0.00496
2488.68792,0.00506
2486.62775,0.00492
2484.56757,0.00501
2482.50740,0.00552
2480.44723,0.00574
2478.38706,0.00544
2476.32688,0.00520
2474.26671,0.00512
2472.20654,0.00516
2470.14637,0.00523
2468.08620,0.00510
2466.02602,0.00483
2463.96585,0.00468
2461.90568,0.00471
2459.84551,0.00492
2457.78534,0.00506
2455.72516,0.00503
2453.66499,0.00495
2451.60482,0.00485
2449.54465,0.00478
2447.48447,0.00489
2445.42430,0.00509
2443.36413,0.00517
2441.30396,0.00492
2439.24379,0.00439
2437.18361,0.00410
2435.12344,0.00435
2433.06327,0.00478
2431.00310,0.00501
2428.94293,0.00507
2426.88275,0.00498
2424.82258,0.00466
2422.76241,0.00448
2420.70224,0.00477
2418.64207,0.00507
2416.58189,0.00509
2414.52172,0.00509
2412.46155,0.00499
2410.40138,0.00485
2408.34120,0.00488
2406.28103,0.00485
2404.22086,0.00454
2402.16069,0.00421
2400.10052,0.00411
2398.04034,0.00416
2395.98017,0.00437
2393.92000,0.00461
2391.85983,0.00471
2389.79966,0.00461
2387.73948,0.00445
2385.67931,0.00440
2383.61914,0.00447
2381.55897,0.00471
2379.49880,0.00518
2377.43862,0.00543
2375.37845,0.00505
2373.31828,0.00468
2371.25811,0.00491
2369.19793,0.00535
2367.13776,0.00559
2365.07759,0.00577
2363.01742,0.00549
2360.95725,0.00510
2358.89707,0.00453
2356.83690,0.00456
2354.77673,0.00468
2352.71656,0.00507
2350.65639,0.00669
2348.59621,0.00762
2346.53604,0.00590
2344.47587,0.00466
2342.41570,0.00400
2340.35552,0.00411
2338.29535,0.00489
2336.23518,0.00507
2334.17501,0.00452
2332.11484,0.00419
2330.05466,0.00462
2327.99449,0.00509
2325.93432,0.00601
2323.87415,0.00682
2321.81398,0.00700
2319.75380,0.00641
2317.69363,0.00628
2315.63346,0.00635
2313.57329,0.00615
2311.51312,0.00577
2309.45294,0.00539
2307.39277,0.00511
2305.33260,0.00498
2303.27243,0.00511
2301.21225,0.00539
2299.15208,0.00559
2297.09191,0.00545
2295.03174,0.00527
2292.97157,0.00535
2290.91139,0.00530
2288.85122,0.00497
2286.79105,0.00460
2284.73088,0.00432
2282.67071,0.00417
2280.61053,0.00419
2278.55036,0.00436
2276.49019,0.00460
2274.43002,0.00481
2272.36984,0.00502
2270.30967,0.00493
2268.24950,0.00441
2266.18933,0.00429
2264.12916,0.00489
2262.06898,0.00547
2260.00881,0.00544
2257.94864,0.00511
2255.88847,0.00495
2253.82830,0.00477
2251.76812,0.00437
2249.70795,0.00405
2247.64778,0.00424
2245.58761,0.00463
2243.52744,0.00454
2241.46726,0.00451
2239.40709,0.00478
2237.34692,0.00466
2235.28675,0.00469
2233.22657,0.00510
2231.16640,0.00471
2229.10623,0.00369
2227.04606,0.00369
2224.98589,0.00454
2222.92571,0.00502
2220.86554,0.00511
2218.80537,0.00512
2216.74520,0.00517
2214.68503,0.00540
2212.62485,0.00542
2210.56468,0.00488
2208.50451,0.00445
2206.44434,0.00412
2204.38417,0.00342
2202.32399,0.00328
2200.26382,0.00401
2198.20365,0.00454
2196.14348,0.00498
2194.08330,0.00572
2192.02313,0.00593
2189.96296,0.00565
2187.90279,0.00596
2185.84262,0.00632
2183.78244,0.00513
2181.72227,0.00349
2179.66210,0.00320
2177.60193,0.00377
2175.54176,0.00429
2173.48158,0.00440
2171.42141,0.00419
2169.36124,0.00374
2167.30107,0.00319
2165.24089,0.00300
2163.18072,0.00364
2161.12055,0.00360
2159.06038,0.00160
2157.00021,0.00000
2154.94003,0.00068
2152.87986,0.00244
2150.81969,0.00270
2148.75952,0.00174
2146.69935,0.00198
2144.63917,0.00331
2142.57900,0.00429
2140.51883,0.00451
2138.45866,0.00438
2136.39849,0.00448
2134.33831,0.00449
2132.27814,0.00399
2130.21797,0.00374
2128.15780,0.00423
2126.09762,0.00481
2124.03745,0.00457
2121.97728,0.00400
2119.91711,0.00417
2117.85694,0.00470
2115.79676,0.00470
2113.73659,0.00422
2111.67642,0.00395
2109.61625,0.00388
2107.55608,0.00359
2105.49590,0.00353
2103.43573,0.00398
2101.37556,0.00439
2099.31539,0.00417
2097.25521,0.00346
2095.19504,0.00293
2093.13487,0.00310
2091.07470,0.00368
2089.01453,0.00411
2086.95435,0.00445
2084.89418,0.00470
2082.83401,0.00452
2080.77384,0.00411
2078.71367,0.00397
2076.65349,0.00397
2074.59332,0.00376
2072.53315,0.00354
2070.47298,0.00350
2068.41281,0.00360
2066.35263,0.00412
2064.29246,0.00476
2062.23229,0.00439
2060.17212,0.00302
2058.11194,0.00199
2056.05177,0.00223
2053.99160,0.00337
2051.93143,0.00416
2049.87126,0.00399
2047.81108,0.00389
2045.75091,0.00420
2043.69074,0.00381
2041.63057,0.00311
2039.57040,0.00256
2037.51022,0.00187
2035.45005,0.00205
2033.38988,0.00313
2031.32971,0.00330
2029.26954,0.00217
2027.20936,0.00109
2025.14919,0.00085
2023.08902,0.00138
2021.02885,0.00190
2018.96867,0.00148
2016.90850,0.00069
2014.84833,0.00124
2012.78816,0.00286
2010.72799,0.00391
2008.66781,0.00401
2006.60764,0.00358
2004.54747,0.00279
2002.48730,0.00180
2000.42713,0.00126
1998.36695,0.00131
1996.30678,0.00129
1994.24661,0.00143
1992.18644,0.00192
1990.12626,0.00179
1988.06609,0.00135
1986.00592,0.00167
1983.94575,0.00224
1981.88558,0.00209
1979.82540,0.00137
1977.76523,0.00073
1975.70506,0.00041
1973.64489,0.00075
1971.58472,0.00125
1969.52454,0.00104
1967.46437,0.00092
1965.40420,0.00172
1963.34403,0.00253
1961.28386,0.00258
1959.22368,0.00194
1957.16351,0.00090
1955.10334,0.00019
1953.04317,0.00013
1950.98299,0.00043
1948.92282,0.00086
1946.86265,0.00096
1944.80248,0.00052
1942.74231,0.00000
1940.68213,-0.00001
1938.62196,0.00067
1936.56179,0.00171
1934.50162,0.00240
1932.44145,0.00224
1930.38127,0.00187
1928.32110,0.00187
1926.26093,0.00192
1924.20076,0.00184
1922.14059,0.00183
1920.08041,0.00185
1918.02024,0.00180
1915.96007,0.00156
1913.89990,0.00127
1911.83972,0.00135
1909.77955,0.00187
1907.71938,0.00224
1905.65921,0.00216
1903.59904,0.00196
1901.53886,0.00168
1899.47869,0.00114
1897.41852,0.00077
1895.35835,0.00092
1893.29818,0.00127
1891.23800,0.00119
1889.17783,0.00076
1887.11766,0.00066
1885.05749,0.00085
1882.99731,0.00096
1880.93714,0.00110
1878.87697,0.00127
1876.81680,0.00131
1874.75663,0.00124
1872.69645,0.00114
1870.63628,0.00094
1868.57611,0.00076
1866.51594,0.00083
1864.45577,0.00099
1862.39559,0.00112
1860.33542,0.00124
1858.27525,0.00115
1856.21508,0.00081
1854.15491,0.00052
1852.09473,0.00050
1850.03456,0.00064
1847.97439,0.00070
1845.91422,0.00064
1843.85404,0.00067
1841.79387,0.00093
1839.73370,0.00130
1837.67353,0.00154
1835.61336,0.00151
1833.55318,0.00132
1831.49301,0.00112
1829.43284,0.00098
1827.37267,0.00092
1825.31250,0.00100
1823.25232,0.00107
1821.19215,0.00091
1819.13198,0.00070
1817.07181,0.00071
1815.01163,0.00083
1812.95146,0.00088
1810.89129,0.00093
1808.83112,0.00097
1806.77095,0.00097
1804.71077,0.00100
1802.65060,0.00108
1800.59043,0.00114
1798.53026,0.00117
1796.47009,0.00117
1794.40991,0.00109
1792.34974,0.00100
1790.28957,0.00091
1788.22940,0.00077
1786.16923,0.00073
1784.10905,0.00088
1782.04888,0.00101
1779.98871,0.00102
1777.92854,0.00099
1775.86836,0.00090
1773.80819,0.00081
1771.74802,0.00099
1769.68785,0.00137
1767.62768,0.00162
1765.56750,0.00164
1763.50733,0.00168
1761.44716,0.00187
1759.38699,0.00215
1757.32682,0.00256
1755.26664,0.00307
1753.20647,0.00359
1751.14630,0.00401
1749.08613,0.00420
1747.02596,0.00433
1744.96578,0.00456
1742.90561,0.00480
1740.84544,0.00503
1738.78527,0.00524
1736.72509,0.00537
1734.66492,0.00547
1732.60475,0.00560
1730.54458,0.00565
1728.48441,0.00567
1726.42423,0.00571
1724.36406,0.00567
1722.30389,0.00555
1720.24372,0.00530
1718.18355,0.00490
1716.12337,0.00453
1714.06320,0.00427
1712.00303,0.00402
1709.94286,0.00374
1707.88268,0.00346
1705.82251,0.00321
1703.76234,0.00299
1701.70217,0.00291
1699.64200,0.00309
1697.58182,0.00335
1695.52165,0.00353
1693.46148,0.00365
1691.40131,0.00379
1689.34114,0.00400
1687.28096,0.00418
1685.22079,0.00427
1683.16062,0.00447
1681.10045,0.00482
1679.04028,0.00518
1676.98010,0.00556
1674.91993,0.00605
1672.85976,0.00660
1670.79959,0.00711
1668.73941,0.00759
1666.67924,0.00799
1664.61907,0.00840
1662.55890,0.00887
1660.49873,0.00929
1658.43855,0.00960
1656.37838,0.00981
1654.31821,0.01000
1652.25804,0.01040
1650.19787,0.01094
1648.13769,0.01145
1646.07752,0.01180
1644.01735,0.01191
1641.95718,0.01195
1639.89701,0.01205
1637.83683,0.01216
1635.77666,0.01227
1633.71649,0.01241
1631.65632,0.01253
1629.59614,0.01260
1627.53597,0.01262
1625.47580,0.01256
1623.41563,0.01246
1621.35546,0.01252
1619.29528,0.01272
1617.23511,0.01273
1615.17494,0.01248
1613.11477,0.01233
1611.05460,0.01225
1608.99442,0.01202
1606.93425,0.01168
1604.87408,0.01135
1602.81391,0.01097
1600.75373,0.01050
1598.69356,0.00994
1596.63339,0.00935
1594.57322,0.00877
1592.51305,0.00821
1590.45287,0.00764
1588.39270,0.00707
1586.33253,0.00657
1584.27236,0.00612
1582.21219,0.00558
1580.15201,0.00497
1578.09184,0.00450
1576.03167,0.00427
1573.97150,0.00418
1571.91133,0.00402
1569.85115,0.00372
1567.79098,0.00338
1565.73081,0.00301
1563.67064,0.00259
1561.61046,0.00217
1559.55029,0.00192
1557.49012,0.00196
1555.42995,0.00206
1553.36978,0.00214
1551.30960,0.00221
1549.24943,0.00224
1547.18926,0.00219
1545.12909,0.00200
1543.06892,0.00171
1541.00874,0.00145
1538.94857,0.00123
1536.88840,0.00094
1534.82823,0.00070
1532.76805,0.00075
1530.70788,0.00098
1528.64771,0.00112
1526.58754,0.00114
1524.52737,0.00116
1522.46719,0.00117
1520.40702,0.00107
1518.34685,0.00088
1516.28668,0.00081
1514.22651,0.00092
1512.16633,0.00110
1510.10616,0.00118
1508.04599,0.00111
1505.98582,0.00109
1503.92565,0.00117
1501.86547,0.00120
1499.80530,0.00118
1497.74513,0.00117
1495.68496,0.00126
1493.62478,0.00144
1491.56461,0.00155
1489.50444,0.00153
1487.44427,0.00153
1485.38410,0.00164
1483.32392,0.00181
1481.26375,0.00214
1479.20358,0.00257
1477.14341,0.00292
1475.08324,0.00321
1473.02306,0.00351
1470.96289,0.00384
1468.90272,0.00418
1466.84255,0.00453
1464.78238,0.00492
1462.72220,0.00531
1460.66203,0.00569
1458.60186,0.00613
1456.54169,0.00647
1454.48151,0.00653
1452.42134,0.00651
1450.36117,0.00656
1448.30100,0.00670
1446.24083,0.00690
1444.18065,0.00711
1442.12048,0.00732
1440.06031,0.00756
1438.00014,0.00790
1435.93997,0.00832
1433.87979,0.00866
1431.81962,0.00886
1429.75945,0.00903
1427.69928,0.00924
1425.63910,0.00947
1423.57893,0.00975
1421.51876,0.01002
1419.45859,0.01028
1417.39842,0.01053
1415.33824,0.01067
1413.27807,0.01058
1411.21790,0.01036
1409.15773,0.01015
1407.09756,0.00995
1405.03738,0.00970
1402.97721,0.00941
1400.91704,0.00916
1398.85687,0.00903
1396.79670,0.00897
1394.73652,0.00885
1392.67635,0.00870
1390.61618,0.00864
1388.55601,0.00864
1386.49583,0.00866
1384.43566,0.00878
1382.37549,0.00900
1380.31532,0.00919
1378.25515,0.00930
1376.19497,0.00942
1374.13480,0.00960
1372.07463,0.00977
1370.01446,0.00981
1367.95429,0.00981
1365.89411,0.00987
1363.83394,0.00987
1361.77377,0.00963
1359.71360,0.00930
1357.65343,0.00917
1355.59325,0.00919
1353.53308,0.00914
1351.47291,0.00895
1349.41274,0.00873
1347.35256,0.00855
1345.29239,0.00839
1343.23222,0.00825
1341.17205,0.00812
1339.11188,0.00799
1337.05170,0.00794
1334.99153,0.00800
1332.93136,0.00807
1330.87119,0.00803
1328.81102,0.00796
1326.75084,0.00797
1324.69067,0.00807
1322.63050,0.00818
1320.57033,0.00828
1318.51015,0.00839
1316.44998,0.00848
1314.38981,0.00853
1312.32964,0.00854
1310.26947,0.00848
1308.20929,0.00828
1306.14912,0.00807
1304.08895,0.00792
1302.02878,0.00772
1299.96861,0.00752
1297.90843,0.00745
1295.84826,0.00732
1293.78809,0.00706
1291.72792,0.00694
1289.66775,0.00691
1287.60757,0.00676
1285.54740,0.00655
1283.48723,0.00649
1281.42706,0.00654
1279.36688,0.00659
1277.30671,0.00671
1275.24654,0.00691
1273.18637,0.00707
1271.12620,0.00723
1269.06602,0.00748
1267.00585,0.00779
1264.94568,0.00808
1262.88551,0.00845
1260.82534,0.00892
1258.76516,0.00932
1256.70499,0.00960
1254.64482,0.00980
1252.58465,0.00991
1250.52447,0.00995
1248.46430,0.01003
1246.40413,0.01013
1244.34396,0.01010
1242.28379,0.00988
1240.22361,0.00952
1238.16344,0.00926
1236.10327,0.00916
1234.04310,0.00901
1231.98293,0.00868
1229.92275,0.00825
1227.86258,0.00777
1225.80241,0.00730
1223.74224,0.00693
1221.68207,0.00675
1219.62189,0.00665
1217.56172,0.00633
1215.50155,0.00578
1213.44138,0.00523
1211.38120,0.00471
1209.32103,0.00415
1207.26086,0.00357
1205.20069,0.00303
1203.14052,0.00248
1201.08034,0.00194
1199.02017,0.00145
1196.96000,0.00105
1194.89983,0.00062
1192.83966,0.00021
1190.77948,0.00000
1188.71931,-0.00005
1186.65914,-0.00000
1184.59897,0.00007
1182.53880,0.00021
1180.47862,0.00049
1178.41845,0.00088
1176.35828,0.00145
1174.29811,0.00209
1172.23793,0.00271
1170.17776,0.00347
1168.11759,0.00438
1166.05742,0.00519
1163.99725,0.00576
1161.93707,0.00628
1159.87690,0.00687
1157.81673,0.00741
1155.75656,0.00809
1153.69639,0.00889
1151.63621,0.00939
1149.57604,0.00966
1147.51587,0.01004
1145.45570,0.01049
1143.39552,0.01081
1141.33535,0.01092
1139.27518,0.01090
1137.21501,0.01096
1135.15484,0.01125
1133.09466,0.01168
1131.03449,0.01208
1128.97432,0.01252
1126.91415,0.01314
1124.85398,0.01384
1122.79380,0.01442
1120.73363,0.01494
1118.67346,0.01547
1116.61329,0.01602
1114.55312,0.01663
1112.49294,0.01709
1110.43277,0.01736
1108.37260,0.01782
1106.31243,0.01854
1104.25225,0.01921
1102.19208,0.01977
1100.13191,0.02045
1098.07174,0.02140
1096.01157,0.02238
1093.95139,0.02326
1091.89122,0.02414
1089.83105,0.02500
1087.77088,0.02566
1085.71071,0.02617
1083.65053,0.02688
1081.59036,0.02788
1079.53019,0.02874
1077.47002,0.02934
1075.40985,0.02996
1073.34967,0.03052
1071.28950,0.03084
1069.22933,0.03120
1067.16916,0.03167
1065.10898,0.03213
1063.04881,0.03246
1060.98864,0.03262
1058.92847,0.03291
1056.86830,0.03346
1054.80812,0.03399
1052.74795,0.03443
1050.68778,0.03503
1048.62761,0.03570
1046.56744,0.03623
1044.50726,0.03680
1042.44709,0.03735
1040.38692,0.03770
1038.32675,0.03802
1036.26657,0.03832
1034.20640,0.03848
1032.14623,0.03849
1030.08606,0.03852
1028.02589,0.03868
1025.96571,0.03876
1023.90554,0.03867
1021.84537,0.03863
1019.78520,0.03870
1017.72503,0.03881
1015.66485,0.03873
1013.60468,0.03846
1011.54451,0.03822
1009.48434,0.03815
1007.42417,0.03824
1005.36399,0.03822
1003.30382,0.03783
1001.24365,0.03713
999.18348,0.03647
997.12330,0.03600
995.06313,0.03562
993.00296,0.03516
990.94279,0.03455
988.88262,0.03388
986.82244,0.03334
984.76227,0.03298
982.70210,0.03263
980.64193,0.03215
978.58176,0.03176
976.52158,0.03141
974.46141,0.03086
972.40124,0.03019
970.34107,0.02961
968.28089,0.02903
966.22072,0.02852
964.16055,0.02816
962.10038,0.02774
960.04021,0.02719
957.98003,0.02657
955.91986,0.02587
953.85969,0.02517
951.79952,0.02450
949.73935,0.02378
947.67917,0.02292
945.61900,0.02186
943.55883,0.02065
941.49866,0.01943
939.43849,0.01823
937.37831,0.01680
935.31814,0.01507
933.25797,0.01345
931.19780,0.01211
929.13762,0.01101
927.07745,0.01017
925.01728,0.00957
922.95711,0.00912
920.89694,0.00852
918.83676,0.00759
916.77659,0.00668
914.71642,0.00603
912.65625,0.00557
910.59608,0.00533
908.53590,0.00519
906.47573,0.00494
904.41556,0.00483
902.35539,0.00506
900.29522,0.00525
898.23504,0.00532
896.17487,0.00562
894.11470,0.00585
892.05453,0.00575
889.99435,0.00574
887.93418,0.00589
885.87401,0.00575
883.81384,0.00528
881.75367,0.00495
879.69349,0.00472
877.63332,0.00426
875.57315,0.00373
873.51298,0.00336
871.45281,0.00324
869.39263,0.00346
867.33246,0.00379
865.27229,0.00377
863.21212,0.00335
861.15194,0.00293
859.09177,0.00276
857.03160,0.00275
854.97143,0.00275
852.91126,0.00277
850.85108,0.00288
848.79091,0.00289
846.73074,0.00276
844.67057,0.00254
842.61040,0.00224
840.55022,0.00178
838.49005,0.00122
836.42988,0.00096
834.36971,0.00107
832.30954,0.00109
830.24936,0.00071
828.18919,0.00017
826.12902,0.00000
824.06885,0.00017
822.00867,0.00031
819.94850,0.00036
817.88833,0.00040
815.82816,0.00046
813.76799,0.00074
811.70781,0.00122
809.64764,0.00164
807.58747,0.00180
805.52730,0.00175
803.46713,0.00154
801.40695,0.00112
799.34678,0.00073
797.28661,0.00074
795.22644,0.00077
793.16627,0.00038
791.10609,0.00000
789.04592,0.00018
786.98575,0.00066
784.92558,0.00069
782.86540,0.00050
780.80523,0.00079
778.74506,0.00133
776.68489,0.00130
774.62472,0.00083
772.56454,0.00060
770.50437,0.00061
768.44420,0.00061
766.38403,0.00070
764.32386,0.00111
762.26368,0.00140
760.20351,0.00117
758.14334,0.00077
756.08317,0.00051
754.02299,0.00043
751.96282,0.00050
749.90265,0.00043
747.84248,0.00016
745.78231,0.00001
743.72213,0.00020
741.66196,0.00080
739.60179,0.00159
737.54162,0.00177
735.48145,0.00098
733.42127,0.00002
731.36110,-0.00040
729.30093,-0.00066
727.24076,-0.00071
725.18059,-0.00012
723.12041,0.00048
721.06024,0.00073
719.00007,0.00146
716.93990,0.00209
714.87972,0.00203
712.81955,0.00159
710.75938,0.00127
708.69921,0.00132
706.63904,0.00161
704.57886,0.00191
702.51869,0.00208
700.45852,0.00207
698.39835,0.00174
696.33818,0.00131
694.27800,0.00126
692.21783,0.00166
690.15766,0.00192
688.09749,0.00158
686.03731,0.00092
683.97714,0.00068
681.91697,0.00132
679.85680,0.00218
677.79663,0.00226
675.73645,0.00185
673.67628,0.00204
671.61611,0.00279
669.55594,0.00143
667.49577,0.00005
665.43559,0.00307
663.37542,0.00278
661.31525,0.00198
659.25508,0.00159
657.19491,0.00131
655.13473,0.00149
653.07456,0.00177
651.01439,0.00175
648.95422,0.00203
646.89404,0.00276
644.83387,0.00264
642.77370,0.00170
640.71353,0.00111
638.65336,0.00069
636.59318,0.00000
634.53301,-0.00013
632.47284,0.00125
630.41267,0.00251
628.35250,0.00193
626.29232,0.00046
624.23215,0.00061
622.17198,0.00162
620.11181,0.00199
618.05164,0.00152
615.99146,0.00097
613.93129,0.00108
611.87112,0.00126
609.81095,0.00062
607.75077,-0.00034
605.69060,-0.00079
603.63043,-0.00071
601.57026,-0.00023
599.51009,0.00000
