3996.73391,0.00000
3994.67373,0.00116
3992.61356,0.00227
3990.55339,0.00289
3988.49322,0.00288
3986.43305,0.00227
3984.37287,0.00147
3982.31270,0.00125
3980.25253,0.00193
3978.19236,0.00294
3976.13219,0.00344
3974.07201,0.00327
3972.01184,0.00278
3969.95167,0.00230
3967.89150,0.00194
3965.83133,0.00159
3963.77115,0.00117
3961.71098,0.00088
3959.65081,0.00090
3957.59064,0.00102
3955.53046,0.00104
3953.47029,0.00093
3951.41012,0.00086
3949.34995,0.00093
3947.28978,0.00104
3945.22960,0.00112
3943.16943,0.00131
3941.10926,0.00165
3939.04909,0.00190
3936.98892,0.00194
3934.92874,0.00170
3932.86857,0.00123
3930.80840,0.00107
3928.74823,0.00142
3926.68805,0.00174
3924.62788,0.00163
3922.56771,0.00127
3920.50754,0.00099
3918.44737,0.00086
3916.38719,0.00083
3914.32702,0.00092
3912.26685,0.00128
3910.20668,0.00175
3908.14651,0.00208
3906.08633,0.00203
3904.02616,0.00125
3901.96599,0.00035
3899.90582,0.00045
3897.84565,0.00127
3895.78547,0.00179
3893.72530,0.00161
3891.66513,0.00121
3889.60496,0.00127
3887.54478,0.00164
3885.48461,0.00168
3883.42444,0.00150
3881.36427,0.00160
3879.30410,0.00188
3877.24392,0.00209
3875.18375,0.00203
3873.12358,0.00197
3871.06341,0.00207
3869.00324,0.00173
3866.94306,0.00117
3864.88289,0.00110
3862.82272,0.00133
3860.76255,0.00158
3858.70237,0.00183
3856.64220,0.00205
3854.58203,0.00215
3852.52186,0.00190
3850.46169,0.00133
3848.40151,0.00115
3846.34134,0.00182
3844.28117,0.00292
3842.22100,0.00370
3840.16083,0.00364
3838.10065,0.00275
3836.04048,0.00215
3833.98031,0.00255
3831.92014,0.00307
3829.85997,0.00303
3827.79979,0.00277
3825.73962,0.00268
3823.67945,0.00260
3821.61928,0.00232
3819.55910,0.00210
3817.49893,0.00174
3815.43876,0.00097
3813.37859,0.00079
3811.31842,0.00144
3809.25824,0.00223
3807.19807,0.00304
3805.13790,0.00389
3803.07773,0.00408
3801.01756,0.00295
3798.95738,0.00159
3796.89721,0.00122
3794.83704,0.00151
3792.77687,0.00193
3790.71670,0.00235
3788.65652,0.00254
3786.59635,0.00233
3784.53618,0.00212
3782.47601,0.00234
3780.41583,0.00252
3778.35566,0.00205
3776.29549,0.00156
3774.23532,0.00179
3772.17515,0.00205
3770.11497,0.00150
3768.05480,0.00081
3765.99463,0.00097
3763.93446,0.00167
3761.87429,0.00214
3759.81411,0.00211
3757.75394,0.00210
3755.69377,0.00271
3753.63360,0.00341
3751.57342,0.00310
3749.51325,0.00233
3747.45308,0.00262
3745.39291,0.00287
3743.33274,0.00211
3741.27256,0.00143
3739.21239,0.00119
3737.15222,0.00143
3735.09205,0.00218
3733.03188,0.00248
3730.97170,0.00207
3728.91153,0.00174
3726.85136,0.00159
3724.79119,0.00138
3722.73102,0.00117
3720.67084,0.00112
3718.61067,0.00141
3716.55050,0.00176
3714.49033,0.00217
3712.43015,0.00266
3710.36998,0.00253
3708.30981,0.00188
3706.24964,0.00133
3704.18947,0.00123
3702.12929,0.00131
3700.06912,0.00124
3698.00895,0.00101
3695.94878,0.00087
3693.88861,0.00124
3691.82843,0.00184
3689.76826,0.00192
3687.70809,0.00113
3685.64792,0.00029
3683.58775,0.00000
3681.52757,0.00038
3679.46740,0.00121
3677.40723,0.00223
3675.34706,0.00313
3673.28688,0.00386
3671.22671,0.00426
3669.16654,0.00378
3667.10637,0.00311
3665.04620,0.00310
3662.98602,0.00322
3660.92585,0.00293
3658.86568,0.00229
3656.80551,0.00177
3654.74534,0.00215
3652.68516,0.00353
3650.62499,0.00505
3648.56482,0.00556
3646.50465,0.00514
3644.44447,0.00480
3642.38430,0.00454
3640.32413,0.00416
3638.26396,0.00411
3636.20379,0.00469
3634.14361,0.00563
3632.08344,0.00657
3630.02327,0.00701
3627.96310,0.00634
3625.90293,0.00533
3623.84275,0.00489
3621.78258,0.00557
3619.72241,0.00711
3617.66224,0.00800
3615.60207,0.00790
3613.54189,0.00763
3611.48172,0.00774
3609.42155,0.00836
3607.36138,0.00908
3605.30120,0.00919
3603.24103,0.00910
3601.18086,0.00956
3599.12069,0.01002
3597.06052,0.01016
3595.00034,0.01015
3592.94017,0.01008
3590.88000,0.01011
3588.81983,0.01054
3586.75966,0.01086
3584.69948,0.01110
3582.63931,0.01177
3580.57914,0.01246
3578.51897,0.01275
3576.45879,0.01284
3574.39862,0.01279
3572.33845,0.01293
3570.27828,0.01355
3568.21811,0.01446
3566.15793,0.01519
3564.09776,0.01547
3562.03759,0.01542
3559.97742,0.01517
3557.91725,0.01502
3555.85707,0.01548
3553.79690,0.01627
3551.73673,0.01659
3549.67656,0.01667
3547.61639,0.01746
3545.55621,0.01896
3543.49604,0.02021
3541.43587,0.02052
3539.37570,0.02026
3537.31552,0.02000
3535.25535,0.01989
3533.19518,0.02021
3531.13501,0.02127
3529.07484,0.02247
3527.01466,0.02291
3524.95449,0.02274
3522.89432,0.02273
3520.83415,0.02324
3518.77398,0.02402
3516.71380,0.02468
3514.65363,0.02525
3512.59346,0.02605
3510.53329,0.02687
3508.47312,0.02714
3506.41294,0.02709
3504.35277,0.02743
3502.29260,0.02793
3500.23243,0.02816
3498.17225,0.02828
3496.11208,0.02846
3494.05191,0.02899
3491.99174,0.03020
3489.93157,0.03165
3487.87139,0.03243
3485.81122,0.03252
3483.75105,0.03272
3481.69088,0.03318
3479.63071,0.03350
3477.57053,0.03364
3475.51036,0.03353
3473.45019,0.03339
3471.39002,0.03389
3469.32984,0.03482
3467.26967,0.03535
3465.20950,0.03556
3463.14933,0.03601
3461.08916,0.03664
3459.02898,0.03720
3456.96881,0.03790
3454.90864,0.03883
3452.84847,0.03937
3450.78830,0.03940
3448.72812,0.03962
3446.66795,0.04007
3444.60778,0.04023
3442.54761,0.04017
3440.48744,0.04014
3438.42726,0.04070
3436.36709,0.04203
3434.30692,0.04308
3432.24675,0.04312
3430.18657,0.04304
3428.12640,0.04374
3426.06623,0.04454
3424.00606,0.04492
3421.94589,0.04502
3419.88571,0.04487
3417.82554,0.04478
3415.76537,0.04517
3413.70520,0.04575
3411.64503,0.04616
3409.58485,0.04656
3407.52468,0.04708
3405.46451,0.04759
3403.40434,0.04811
3401.34416,0.04868
3399.28399,0.04901
3397.22382,0.04932
3395.16365,0.05008
3393.10348,0.05080
3391.04330,0.05088
3388.98313,0.05066
3386.92296,0.05052
3384.86279,0.05052
3382.80262,0.05069
3380.74244,0.05099
3378.68227,0.05123
3376.62210,0.05134
3374.56193,0.05175
3372.50176,0.05240
3370.44158,0.05271
3368.38141,0.05263
3366.32124,0.05241
3364.26107,0.05238
3362.20089,0.05275
3360.14072,0.05307
3358.08055,0.05308
3356.02038,0.05322
3353.96021,0.05382
3351.90003,0.05448
3349.83986,0.05469
3347.77969,0.05457
3345.71952,0.05447
3343.65935,0.05445
3341.59917,0.05459
3339.53900,0.05518
3337.47883,0.05603
3335.41866,0.05641
3333.35849,0.05594
3331.29831,0.05528
3329.23814,0.05529
3327.17797,0.05546
3325.11780,0.05518
3323.05762,0.05510
3320.99745,0.05549
3318.93728,0.05586
3316.87711,0.05615
3314.81694,0.05621
3312.75676,0.05567
3310.69659,0.05509
3308.63642,0.05527
3306.57625,0.05580
3304.51608,0.05602
3302.45590,0.05608
3300.39573,0.05619
3298.33556,0.05639
3296.27539,0.05648
3294.21521,0.05627
3292.15504,0.05608
3290.09487,0.05599
3288.03470,0.05575
3285.97453,0.05575
3283.91435,0.05618
3281.85418,0.05646
3279.79401,0.05656
3277.73384,0.05696
3275.67367,0.05721
3273.61349,0.05696
3271.55332,0.05681
3269.49315,0.05690
3267.43298,0.05678
3265.37281,0.05642
3263.31263,0.05616
3261.25246,0.05601
3259.19229,0.05593
3257.13212,0.05594
3255.07194,0.05592
3253.01177,0.05599
3250.95160,0.05603
3248.89143,0.05591
3246.83126,0.05576
3244.77108,0.05543
3242.71091,0.05514
3240.65074,0.05517
3238.59057,0.05516
3236.53040,0.05493
3234.47022,0.05466
3232.41005,0.05444
3230.34988,0.05443
3228.28971,0.05451
3226.22954,0.05434
3224.16936,0.05380
3222.10919,0.05311
3220.04902,0.05289
3217.98885,0.05324
3215.92867,0.05318
3213.86850,0.05240
3211.80833,0.05177
3209.74816,0.05181
3207.68799,0.05192
3205.62781,0.05176
3203.56764,0.05198
3201.50747,0.05232
3199.44730,0.05202
3197.38713,0.05140
3195.32695,0.05089
3193.26678,0.05056
3191.20661,0.05025
3189.14644,0.04981
3187.08626,0.04952
3185.02609,0.04954
3182.96592,0.04975
3180.90575,0.05010
3178.84558,0.05020
3176.78540,0.04954
3174.72523,0.04858
3172.66506,0.04794
3170.60489,0.04749
3168.54472,0.04731
3166.48454,0.04756
3164.42437,0.04800
3162.36420,0.04838
3160.30403,0.04800
3158.24386,0.04678
3156.18368,0.04577
3154.12351,0.04541
3152.06334,0.04537
3150.00317,0.04524
3147.94299,0.04500
3145.88282,0.04476
3143.82265,0.04439
3141.76248,0.04405
3139.70231,0.04376
3137.64213,0.04335
3135.58196,0.04294
3133.52179,0.04246
3131.46162,0.04189
3129.40145,0.04169
3127.34127,0.04171
3125.28110,0.04160
3123.22093,0.04140
3121.16076,0.04111
3119.10058,0.04101
3117.04041,0.04119
3114.98024,0.04106
3112.92007,0.04045
3110.85990,0.03979
3108.79972,0.03923
3106.73955,0.03911
3104.67938,0.03942
3102.61921,0.03929
3100.55904,0.03874
3098.49886,0.03833
3096.43869,0.03780
3094.37852,0.03721
3092.31835,0.03688
3090.25818,0.03646
3088.19800,0.03602
3086.13783,0.03591
3084.07766,0.03560
3082.01749,0.03497
3079.95731,0.03460
3077.89714,0.03445
3075.83697,0.03421
3073.77680,0.03385
3071.71663,0.03344
3069.65645,0.03314
3067.59628,0.03320
3065.53611,0.03352
3063.47594,0.03347
3061.41577,0.03277
3059.35559,0.03205
3057.29542,0.03187
3055.23525,0.03189
3053.17508,0.03165
3051.11491,0.03126
3049.05473,0.03078
3046.99456,0.03025
3044.93439,0.02993
3042.87422,0.02978
3040.81404,0.02959
3038.75387,0.02945
3036.69370,0.02948
3034.63353,0.02939
3032.57336,0.02882
3030.51318,0.02824
3028.45301,0.02817
3026.39284,0.02810
3024.33267,0.02780
3022.27250,0.02754
3020.21232,0.02731
3018.15215,0.02725
3016.09198,0.02727
3014.03181,0.02698
3011.97163,0.02654
3009.91146,0.02616
3007.85129,0.02590
3005.79112,0.02586
3003.73095,0.02564
3001.67077,0.02508
2999.61060,0.02464
2997.55043,0.02466
2995.49026,0.02511
2993.43009,0.02564
2991.36991,0.02544
2989.30974,0.02493
2987.24957,0.02512
2985.18940,0.02565
2983.12923,0.02574
2981.06905,0.02555
2979.00888,0.02578
2976.94871,0.02647
2974.88854,0.02732
2972.82836,0.02832
2970.76819,0.02923
2968.70802,0.02991
2966.64785,0.03093
2964.58768,0.03259
2962.52750,0.03438
2960.46733,0.03587
2958.40716,0.03732
2956.34699,0.03900
2954.28682,0.04080
2952.22664,0.04260
2950.16647,0.04459
2948.10630,0.04683
2946.04613,0.04891
2943.98596,0.05071
2941.92578,0.05268
2939.86561,0.05504
2937.80544,0.05774
2935.74527,0.06045
2933.68509,0.06302
2931.62492,0.06562
2929.56475,0.06817
2927.50458,0.07058
2925.44441,0.07233
2923.38423,0.07328
2921.32406,0.07384
2919.26389,0.07384
2917.20372,0.07283
2915.14355,0.07078
2913.08337,0.06845
2911.02320,0.06625
2908.96303,0.06373
2906.90286,0.06087
2904.84268,0.05820
2902.78251,0.05627
2900.72234,0.05506
2898.66217,0.05388
2896.60200,0.05240
2894.54182,0.05091
2892.48165,0.04974
2890.42148,0.04871
2888.36131,0.04759
2886.30114,0.04625
2884.24096,0.04491
2882.18079,0.04421
2880.12062,0.04401
2878.06045,0.04396
2876.00028,0.04426
2873.94010,0.04478
2871.87993,0.04535
2869.81976,0.04592
2867.75959,0.04639
2865.69941,0.04702
2863.63924,0.04809
2861.57907,0.04966
2859.51890,0.05171
2857.45873,0.05378
2855.39855,0.05535
2853.33838,0.05643
2851.27821,0.05698
2849.21804,0.05618
2847.15787,0.05372
2845.09769,0.05055
2843.03752,0.04724
2840.97735,0.04397
2838.91718,0.04128
2836.85700,0.03928
2834.79683,0.03767
2832.73666,0.03642
2830.67649,0.03546
2828.61632,0.03458
2826.55614,0.03380
2824.49597,0.03309
2822.43580,0.03226
2820.37563,0.03127
2818.31546,0.03047
2816.25528,0.03029
2814.19511,0.03035
2812.13494,0.02992
2810.07477,0.02911
2808.01460,0.02838
2805.95442,0.02784
2803.89425,0.02755
2801.83408,0.02752
2799.77391,0.02748
2797.71373,0.02723
2795.65356,0.02692
2793.59339,0.02668
2791.53322,0.02650
2789.47305,0.02637
2787.41287,0.02614
2785.35270,0.02569
2783.29253,0.02534
2781.23236,0.02515
2779.17219,0.02493
2777.11201,0.02492
2775.05184,0.02501
2772.99167,0.02492
2770.93150,0.02476
2768.87133,0.02439
2766.81115,0.02390
2764.75098,0.02365
2762.69081,0.02347
2760.63064,0.02339
2758.57046,0.02365
2756.51029,0.02396
2754.45012,0.02384
2752.38995,0.02344
2750.32978,0.02314
2748.26960,0.02305
2746.20943,0.02301
2744.14926,0.02279
2742.08909,0.02244
2740.02892,0.02237
2737.96874,0.02257
2735.90857,0.02262
2733.84840,0.02252
2731.78823,0.02243
2729.72805,0.02227
2727.66788,0.02220
2725.60771,0.02257
2723.54754,0.02297
2721.48737,0.02285
2719.42719,0.02235
2717.36702,0.02179
2715.30685,0.02155
2713.24668,0.02159
2711.18651,0.02159
2709.12633,0.02148
2707.06616,0.02119
2705.00599,0.02096
2702.94582,0.02095
2700.88565,0.02122
2698.82547,0.02154
2696.76530,0.02162
2694.70513,0.02158
2692.64496,0.02153
2690.58478,0.02135
2688.52461,0.02107
2686.46444,0.02101
2684.40427,0.02130
2682.34410,0.02141
2680.28392,0.02094
2678.22375,0.02038
2676.16358,0.02008
2674.10341,0.02004
2672.04324,0.02017
2669.98306,0.02027
2667.92289,0.02030
2665.86272,0.02018
2663.80255,0.02002
2661.74238,0.02024
2659.68220,0.02063
2657.62203,0.02074
2655.56186,0.02059
2653.50169,0.02039
2651.44151,0.02033
2649.38134,0.02010
2647.32117,0.01947
2645.26100,0.01893
2643.20083,0.01868
2641.14065,0.01864
2639.08048,0.01884
2637.02031,0.01913
2634.96014,0.01924
2632.89997,0.01895
2630.83979,0.01850
2628.77962,0.01821
2626.71945,0.01811
2624.65928,0.01824
2622.59910,0.01845
2620.53893,0.01840
2618.47876,0.01827
2616.41859,0.01827
2614.35842,0.01823
2612.29824,0.01793
2610.23807,0.01723
2608.17790,0.01671
2606.11773,0.01691
2604.05756,0.01724
2601.99738,0.01703
2599.93721,0.01691
2597.87704,0.01721
2595.81687,0.01698
2593.75670,0.01606
2591.69652,0.01552
2589.63635,0.01577
2587.57618,0.01631
2585.51601,0.01682
2583.45583,0.01685
2581.39566,0.01611
2579.33549,0.01529
2577.27532,0.01510
2575.21515,0.01572
2573.15497,0.01622
2571.09480,0.01566
2569.03463,0.01454
2566.97446,0.01402
2564.91429,0.01453
2562.85411,0.01526
2560.79394,0.01530
2558.73377,0.01483
2556.67360,0.01476
2554.61342,0.01527
2552.55325,0.01577
2550.49308,0.01571
2548.43291,0.01501
2546.37274,0.01456
2544.31256,0.01503
2542.25239,0.01546
2540.19222,0.01506
2538.13205,0.01462
2536.07188,0.01471
2534.01170,0.01451
2531.95153,0.01360
2529.89136,0.01314
2527.83119,0.01348
2525.77102,0.01380
2523.71084,0.01410
2521.65067,0.01448
2519.59050,0.01449
2517.53033,0.01424
2515.47015,0.01424
2513.40998,0.01441
2511.34981,0.01429
2509.28964,0.01368
2507.22947,0.01316
2505.16929,0.01337
2503.10912,0.01379
2501.04895,0.01379
2498.98878,0.01347
2496.92861,0.01305
2494.86843,0.01266
2492.80826,0.01251
2490.74809,0.01269
2488.68792,0.01278
2486.62775,0.01289
2484.56757,0.01329
2482.50740,0.01352
2480.44723,0.01317
2478.38706,0.01267
2476.32688,0.01211
2474.26671,0.01105
2472.20654,0.01030
2470.14637,0.01089
2468.08620,0.01204
2466.02602,0.01240
2463.96585,0.01225
2461.90568,0.01247
2459.84551,0.01249
2457.78534,0.01163
2455.72516,0.01094
2453.66499,0.01112
2451.60482,0.01130
2449.54465,0.01115
2447.48447,0.01115
2445.42430,0.01144
2443.36413,0.01176
2441.30396,0.01199
2439.24379,0.01201
2437.18361,0.01151
2435.12344,0.01113
2433.06327,0.01098
2431.00310,0.01064
2428.94293,0.01078
2426.88275,0.01126
2424.82258,0.01135
2422.76241,0.01151
2420.70224,0.01186
2418.64207,0.01145
2416.58189,0.01061
2414.52172,0.01068
2412.46155,0.01141
2410.40138,0.01163
2408.34120,0.01127
2406.28103,0.01110
2404.22086,0.01103
2402.16069,0.01075
2400.10052,0.01085
2398.04034,0.01115
2395.98017,0.01085
2393.92000,0.01014
2391.85983,0.00983
2389.79966,0.00989
2387.73948,0.00987
2385.67931,0.00969
2383.61914,0.00953
2381.55897,0.00936
2379.49880,0.00915
2377.43862,0.00914
2375.37845,0.00990
2373.31828,0.01008
2371.25811,0.00895
2369.19793,0.00826
2367.13776,0.00838
2365.07759,0.00874
2363.01742,0.01051
2360.95725,0.00928
2358.89707,0.00780
2356.83690,0.00640
2354.77673,0.00681
2352.71656,0.00839
2350.65639,0.00576
2348.59621,0.00483
2346.53604,0.01248
2344.47587,0.01342
2342.41570,0.01092
2340.35552,0.00971
2338.29535,0.00830
2336.23518,0.00786
2334.17501,0.00888
2332.11484,0.01039
2330.05466,0.00975
2327.99449,0.00853
2325.93432,0.00739
2323.87415,0.00845
2321.81398,0.00898
2319.75380,0.00921
2317.69363,0.00822
2315.63346,0.00841
2313.57329,0.00936
2311.51312,0.00960
2309.45294,0.00944
2307.39277,0.00927
2305.33260,0.00910
2303.27243,0.00898
2301.21225,0.00924
2299.15208,0.00909
2297.09191,0.00887
2295.03174,0.00901
2292.97157,0.00885
2290.91139,0.00827
2288.85122,0.00790
2286.79105,0.00814
2284.73088,0.00860
2282.67071,0.00870
2280.61053,0.00851
2278.55036,0.00849
2276.49019,0.00862
2274.43002,0.00868
2272.36984,0.00893
2270.30967,0.00928
2268.24950,0.00915
2266.18933,0.00833
2264.12916,0.00755
2262.06898,0.00721
2260.00881,0.00721
2257.94864,0.00775
2255.88847,0.00865
2253.82830,0.00885
2251.76812,0.00841
2249.70795,0.00818
2247.64778,0.00772
2245.58761,0.00629
2243.52744,0.00550
2241.46726,0.00718
2239.40709,0.00922
2237.34692,0.00905
2235.28675,0.00778
2233.22657,0.00730
2231.16640,0.00726
2229.10623,0.00651
2227.04606,0.00534
2224.98589,0.00498
2222.92571,0.00639
2220.86554,0.00824
2218.80537,0.00840
2216.74520,0.00696
2214.68503,0.00549
2212.62485,0.00496
2210.56468,0.00524
2208.50451,0.00582
2206.44434,0.00598
2204.38417,0.00565
2202.32399,0.00563
2200.26382,0.00682
2198.20365,0.00816
2196.14348,0.00796
2194.08330,0.00712
2192.02313,0.00727
2189.96296,0.00730
2187.90279,0.00578
2185.84262,0.00358
2183.78244,0.00170
2181.72227,0.00186
2179.66210,0.00431
2177.60193,0.00566
2175.54176,0.00442
2173.48158,0.00280
2171.42141,0.00199
2169.36124,0.00256
2167.30107,0.00491
2165.24089,0.00702
2163.18072,0.00679
2161.12055,0.00522
2159.06038,0.00434
2157.00021,0.00298
2154.94003,0.00168
2152.87986,0.00165
2150.81969,0.00333
2148.75952,0.00695
2146.69935,0.00792
2144.63917,0.00519
2142.57900,0.00408
2140.51883,0.00513
2138.45866,0.00556
2136.39849,0.00579
2134.33831,0.00621
2132.27814,0.00561
2130.21797,0.00456
2128.15780,0.00443
2126.09762,0.00517
2124.03745,0.00600
2121.97728,0.00662
2119.91711,0.00737
2117.85694,0.00850
2115.79676,0.00933
2113.73659,0.00885
2111.67642,0.00760
2109.61625,0.00723
2107.55608,0.00722
2105.49590,0.00601
2103.43573,0.00517
2101.37556,0.00611
2099.31539,0.00608
2097.25521,0.00444
2095.19504,0.00390
2093.13487,0.00488
2091.07470,0.00598
2089.01453,0.00703
2086.95435,0.00773
2084.89418,0.00767
2082.83401,0.00739
2080.77384,0.00711
2078.71367,0.00608
2076.65349,0.00461
2074.59332,0.00405
2072.53315,0.00463
2070.47298,0.00571
2068.41281,0.00676
2066.35263,0.00744
2064.29246,0.00728
2062.23229,0.00632
2060.17212,0.00599
2058.11194,0.00683
2056.05177,0.00729
2053.99160,0.00736
2051.93143,0.00799
2049.87126,0.00781
2047.81108,0.00612
2045.75091,0.00452
2043.69074,0.00340
2041.63057,0.00238
2039.57040,0.00238
2037.51022,0.00241
2035.45005,0.00188
2033.38988,0.00265
2031.32971,0.00361
2029.26954,0.00227
2027.20936,0.00000
2025.14919,0.00004
2023.08902,0.00278
2021.02885,0.00564
2018.96867,0.00593
2016.90850,0.00368
2014.84833,0.00124
2012.78816,0.00034
2010.72799,0.00203
2008.66781,0.00531
2006.60764,0.00718
2004.54747,0.00703
2002.48730,0.00602
2000.42713,0.00527
1998.36695,0.00515
1996.30678,0.00500
1994.24661,0.00522
1992.18644,0.00574
1990.12626,0.00602
1988.06609,0.00567
1986.00592,0.00454
1983.94575,0.00435
1981.88558,0.00549
1979.82540,0.00660
1977.76523,0.00640
1975.70506,0.00523
1973.64489,0.00438
1971.58472,0.00318
1969.52454,0.00219
1967.46437,0.00255
1965.40420,0.00274
1963.34403,0.00244
1961.28386,0.00258
1959.22368,0.00295
1957.16351,0.00300
1955.10334,0.00203
1953.04317,0.00108
1950.98299,0.00158
1948.92282,0.00250
1946.86265,0.00262
1944.80248,0.00183
1942.74231,0.00142
1940.68213,0.00237
1938.62196,0.00291
1936.56179,0.00273
1934.50162,0.00304
1932.44145,0.00340
1930.38127,0.00346
1928.32110,0.00357
1926.26093,0.00295
1924.20076,0.00117
1922.14059,0.00000
1920.08041,0.00087
1918.02024,0.00275
1915.96007,0.00408
1913.89990,0.00462
1911.83972,0.00480
1909.77955,0.00453
1907.71938,0.00345
1905.65921,0.00224
1903.59904,0.00211
1901.53886,0.00297
1899.47869,0.00395
1897.41852,0.00451
1895.35835,0.00433
1893.29818,0.00366
1891.23800,0.00314
1889.17783,0.00280
1887.11766,0.00233
1885.05749,0.00205
1882.99731,0.00234
1880.93714,0.00274
1878.87697,0.00290
1876.81680,0.00306
1874.75663,0.00299
1872.69645,0.00226
1870.63628,0.00137
1868.57611,0.00125
1866.51594,0.00193
1864.45577,0.00269
1862.39559,0.00310
1860.33542,0.00306
1858.27525,0.00267
1856.21508,0.00250
1854.15491,0.00278
1852.09473,0.00297
1850.03456,0.00289
1847.97439,0.00292
1845.91422,0.00303
1843.85404,0.00280
1841.79387,0.00218
1839.73370,0.00154
1837.67353,0.00115
1835.61336,0.00121
1833.55318,0.00165
1831.49301,0.00190
1829.43284,0.00154
1827.37267,0.00127
1825.31250,0.00142
1823.25232,0.00147
1821.19215,0.00136
1819.13198,0.00134
1817.07181,0.00143
1815.01163,0.00156
1812.95146,0.00158
1810.89129,0.00156
1808.83112,0.00153
1806.77095,0.00112
1804.71077,0.00043
1802.65060,0.00000
1800.59043,0.00020
1798.53026,0.00076
1796.47009,0.00079
1794.40991,0.00028
1792.34974,-0.00000
1790.28957,0.00009
1788.22940,0.00009
1786.16923,-0.00007
1784.10905,-0.00012
1782.04888,0.00000
1779.98871,0.00011
1777.92854,0.00029
1775.86836,0.00060
1773.80819,0.00068
1771.74802,0.00013
1769.68785,-0.00030
1767.62768,0.00023
1765.56750,0.00117
1763.50733,0.00192
1761.44716,0.00250
1759.38699,0.00332
1757.32682,0.00485
1755.26664,0.00679
1753.20647,0.00852
1751.14630,0.01025
1749.08613,0.01222
1747.02596,0.01410
1744.96578,0.01582
1742.90561,0.01724
1740.84544,0.01786
1738.78527,0.01779
1736.72509,0.01781
1734.66492,0.01809
1732.60475,0.01809
1730.54458,0.01773
1728.48441,0.01746
1726.42423,0.01726
1724.36406,0.01700
1722.30389,0.01693
1720.24372,0.01728
1718.18355,0.01788
1716.12337,0.01832
1714.06320,0.01829
1712.00303,0.01810
1709.94286,0.01802
1707.88268,0.01795
1705.82251,0.01782
1703.76234,0.01759
1701.70217,0.01738
1699.64200,0.01757
1697.58182,0.01831
1695.52165,0.01907
1693.46148,0.01955
1691.40131,0.02020
1689.34114,0.02150
1687.28096,0.02346
1685.22079,0.02614
1683.16062,0.02904
1681.10045,0.03103
1679.04028,0.03260
1676.98010,0.03411
1674.91993,0.03508
1672.85976,0.03510
1670.79959,0.03451
1668.73941,0.03401
1666.67924,0.03373
1664.61907,0.03332
1662.55890,0.03260
1660.49873,0.03174
1658.43855,0.03116
1656.37838,0.03111
1654.31821,0.03179
1652.25804,0.03261
1650.19787,0.03245
1648.13769,0.03148
1646.07752,0.03039
1644.01735,0.03001
1641.95718,0.03041
1639.89701,0.03118
1637.83683,0.03220
1635.77666,0.03351
1633.71649,0.03442
1631.65632,0.03463
1629.59614,0.03481
1627.53597,0.03538
1625.47580,0.03620
1623.41563,0.03687
1621.35546,0.03696
1619.29528,0.03655
1617.23511,0.03632
1615.17494,0.03673
1613.11477,0.03765
1611.05460,0.03901
1608.99442,0.04090
1606.93425,0.04272
1604.87408,0.04336
1602.81391,0.04246
1600.75373,0.04066
1598.69356,0.03872
1596.63339,0.03706
1594.57322,0.03577
1592.51305,0.03466
1590.45287,0.03363
1588.39270,0.03282
1586.33253,0.03227
1584.27236,0.03152
1582.21219,0.03040
1580.15201,0.02938
1578.09184,0.02872
1576.03167,0.02790
1573.97150,0.02677
1571.91133,0.02592
1569.85115,0.02524
1567.79098,0.02435
1565.73081,0.02349
1563.67064,0.02276
1561.61046,0.02177
1559.55029,0.02004
1557.49012,0.01840
1555.42995,0.01797
1553.36978,0.01748
1551.30960,0.01619
1549.24943,0.01465
1547.18926,0.01359
1545.12909,0.01304
1543.06892,0.01261
1541.00874,0.01170
1538.94857,0.01007
1536.88840,0.00884
1534.82823,0.00841
1532.76805,0.00830
1530.70788,0.00801
1528.64771,0.00759
1526.58754,0.00749
1524.52737,0.00793
1522.46719,0.00878
1520.40702,0.00998
1518.34685,0.01151
1516.28668,0.01296
1514.22651,0.01341
1512.16633,0.01282
1510.10616,0.01205
1508.04599,0.01114
1505.98582,0.00924
1503.92565,0.00712
1501.86547,0.00572
1499.80530,0.00477
1497.74513,0.00378
1495.68496,0.00284
1493.62478,0.00235
1491.56461,0.00202
1489.50444,0.00133
1487.44427,0.00044
1485.38410,0.00006
1483.32392,0.00033
1481.26375,0.00098
1479.20358,0.00179
1477.14341,0.00283
1475.08324,0.00442
1473.02306,0.00692
1470.96289,0.00980
1468.90272,0.01215
1466.84255,0.01419
1464.78238,0.01622
1462.72220,0.01772
1460.66203,0.01860
1458.60186,0.01966
1456.54169,0.02118
1454.48151,0.02221
1452.42134,0.02274
1450.36117,0.02325
1448.30100,0.02384
1446.24083,0.02455
1444.18065,0.02546
1442.12048,0.02647
1440.06031,0.02742
1438.00014,0.02831
1435.93997,0.02910
1433.87979,0.02957
1431.81962,0.02995
1429.75945,0.03050
1427.69928,0.03102
1425.63910,0.03126
1423.57893,0.03134
1421.51876,0.03154
1419.45859,0.03194
1417.39842,0.03228
1415.33824,0.03213
1413.27807,0.03147
1411.21790,0.03067
1409.15773,0.02994
1407.09756,0.02908
1405.03738,0.02793
1402.97721,0.02676
1400.91704,0.02587
1398.85687,0.02516
1396.79670,0.02449
1394.73652,0.02390
1392.67635,0.02341
1390.61618,0.02304
1388.55601,0.02298
1386.49583,0.02350
1384.43566,0.02431
1382.37549,0.02498
1380.31532,0.02555
1378.25515,0.02615
1376.19497,0.02685
1374.13480,0.02753
1372.07463,0.02801
1370.01446,0.02832
1367.95429,0.02849
1365.89411,0.02838
1363.83394,0.02790
1361.77377,0.02700
1359.71360,0.02590
1357.65343,0.02497
1355.59325,0.02449
1353.53308,0.02455
1351.47291,0.02487
1349.41274,0.02513
1347.35256,0.02524
1345.29239,0.02513
1343.23222,0.02480
1341.17205,0.02442
1339.11188,0.02417
1337.05170,0.02404
1334.99153,0.02404
1332.93136,0.02421
1330.87119,0.02446
1328.81102,0.02452
1326.75084,0.02446
1324.69067,0.02463
1322.63050,0.02501
1320.57033,0.02517
1318.51015,0.02488
1316.44998,0.02436
1314.38981,0.02402
1312.32964,0.02395
1310.26947,0.02377
1308.20929,0.02324
1306.14912,0.02250
1304.08895,0.02177
1302.02878,0.02098
1299.96861,0.02018
1297.90843,0.01972
1295.84826,0.01949
1293.78809,0.01931
1291.72792,0.01945
1289.66775,0.01990
1287.60757,0.02027
1285.54740,0.02053
1283.48723,0.02101
1281.42706,0.02167
1279.36688,0.02202
1277.30671,0.02185
1275.24654,0.02158
1273.18637,0.02162
1271.12620,0.02192
1269.06602,0.02246
1267.00585,0.02357
1264.94568,0.02499
1262.88551,0.02588
1260.82534,0.02623
1258.76516,0.02671
1256.70499,0.02753
1254.64482,0.02840
1252.58465,0.02904
1250.52447,0.02963
1248.46430,0.03034
1246.40413,0.03083
1244.34396,0.03091
1242.28379,0.03095
1240.22361,0.03102
1238.16344,0.03079
1236.10327,0.03020
1234.04310,0.02962
1231.98293,0.02909
1229.92275,0.02845
1227.86258,0.02731
1225.80241,0.02559
1223.74224,0.02386
1221.68207,0.02240
1219.62189,0.02099
1217.56172,0.01943
1215.50155,0.01788
1213.44138,0.01661
1211.38120,0.01545
1209.32103,0.01408
1207.26086,0.01256
1205.20069,0.01114
1203.14052,0.00976
1201.08034,0.00823
1199.02017,0.00646
1196.96000,0.00448
1194.89983,0.00242
1192.83966,0.00082
1190.77948,0.00014
1188.71931,0.00000
1186.65914,-0.00017
1184.59897,-0.00013
1182.53880,0.00012
1180.47862,0.00041
1178.41845,0.00109
1176.35828,0.00254
1174.29811,0.00494
1172.23793,0.00812
1170.17776,0.01129
1168.11759,0.01353
1166.05742,0.01444
1163.99725,0.01482
1161.93707,0.01547
1159.87690,0.01615
1157.81673,0.01675
1155.75656,0.01742
1153.69639,0.01799
1151.63621,0.01862
1149.57604,0.01992
1147.51587,0.02175
1145.45570,0.02332
1143.39552,0.02464
1141.33535,0.02568
1139.27518,0.02639
1137.21501,0.02713
1135.15484,0.02800
1133.09466,0.02887
1131.03449,0.02968
1128.97432,0.03065
1126.91415,0.03185
1124.85398,0.03328
1122.79380,0.03486
1120.73363,0.03634
1118.67346,0.03798
1116.61329,0.03976
1114.55312,0.04124
1112.49294,0.04246
1110.43277,0.04353
1108.37260,0.04448
1106.31243,0.04564
1104.25225,0.04699
1102.19208,0.04828
1100.13191,0.04989
1098.07174,0.05236
1096.01157,0.05541
1093.95139,0.05816
1091.89122,0.06040
1089.83105,0.06256
1087.77088,0.06479
1085.71071,0.06686
1083.65053,0.06871
1081.59036,0.07090
1079.53019,0.07364
1077.47002,0.07633
1075.40985,0.07875
1073.34967,0.08129
1071.28950,0.08389
1069.22933,0.08624
1067.16916,0.08847
1065.10898,0.09024
1063.04881,0.09127
1060.98864,0.09249
1058.92847,0.09431
1056.86830,0.09631
1054.80812,0.09851
1052.74795,0.10089
1050.68778,0.10352
1048.62761,0.10659
1046.56744,0.10974
1044.50726,0.11275
1042.44709,0.11560
1040.38692,0.11813
1038.32675,0.12028
1036.26657,0.12203
1034.20640,0.12342
1032.14623,0.12437
1030.08606,0.12478
1028.02589,0.12471
1025.96571,0.12411
1023.90554,0.12304
1021.84537,0.12200
1019.78520,0.12131
1017.72503,0.12106
1015.66485,0.12154
1013.60468,0.12210
1011.54451,0.12181
1009.48434,0.12144
1007.42417,0.12191
1005.36399,0.12244
1003.30382,0.12188
1001.24365,0.12041
999.18348,0.11882
997.12330,0.11718
995.06313,0.11544
993.00296,0.11366
990.94279,0.11153
988.88262,0.10930
986.82244,0.10766
984.76227,0.10625
982.70210,0.10454
980.64193,0.10259
978.58176,0.10057
976.52158,0.09887
974.46141,0.09718
972.40124,0.09485
970.34107,0.09242
968.28089,0.09049
966.22072,0.08889
964.16055,0.08724
962.10038,0.08501
960.04021,0.08206
957.98003,0.07940
955.91986,0.07790
953.85969,0.07669
951.79952,0.07489
949.73935,0.07303
947.67917,0.07144
945.61900,0.06980
943.55883,0.06756
941.49866,0.06415
939.43849,0.05983
937.37831,0.05564
935.31814,0.05219
933.25797,0.04898
931.19780,0.04531
929.13762,0.04158
927.07745,0.03854
925.01728,0.03597
922.95711,0.03332
920.89694,0.03088
918.83676,0.02912
916.77659,0.02787
914.71642,0.02675
912.65625,0.02533
910.59608,0.02329
908.53590,0.02066
906.47573,0.01846
904.41556,0.01733
902.35539,0.01655
900.29522,0.01608
898.23504,0.01628
896.17487,0.01692
894.11470,0.01781
892.05453,0.01858
889.99435,0.01854
887.93418,0.01735
885.87401,0.01552
883.81384,0.01398
881.75367,0.01291
879.69349,0.01190
877.63332,0.01042
875.57315,0.00867
873.51298,0.00803
871.45281,0.00883
869.39263,0.00966
867.33246,0.00946
865.27229,0.00851
863.21212,0.00739
861.15194,0.00660
859.09177,0.00666
857.03160,0.00747
854.97143,0.00797
852.91126,0.00731
850.85108,0.00624
848.79091,0.00623
846.73074,0.00663
844.67057,0.00626
842.61040,0.00625
840.55022,0.00694
838.49005,0.00721
836.42988,0.00719
834.36971,0.00648
832.30954,0.00502
830.24936,0.00475
828.18919,0.00565
826.12902,0.00590
824.06885,0.00538
822.00867,0.00469
819.94850,0.00406
817.88833,0.00370
815.82816,0.00336
813.76799,0.00289
811.70781,0.00227
809.64764,0.00165
807.58747,0.00164
805.52730,0.00250
803.46713,0.00356
801.40695,0.00376
799.34678,0.00371
797.28661,0.00399
795.22644,0.00345
793.16627,0.00236
791.10609,0.00184
789.04592,0.00091
786.98575,0.00000
784.92558,0.00070
782.86540,0.00204
780.80523,0.00205
778.74506,0.00119
776.68489,0.00074
774.62472,0.00044
772.56454,0.00060
770.50437,0.00105
768.44420,0.00016
766.38403,-0.00058
764.32386,0.00027
762.26368,0.00073
760.20351,0.00010
758.14334,0.00008
756.08317,0.00070
754.02299,0.00060
751.96282,0.00000
749.90265,-0.00021
747.84248,0.00037
745.78231,0.00141
743.72213,0.00212
741.66196,0.00170
739.60179,0.00013
737.54162,-0.00134
735.48145,-0.00210
733.42127,-0.00201
731.36110,-0.00025
729.30093,0.00111
727.24076,0.00039
725.18059,0.00024
723.12041,0.00088
721.06024,0.00248
719.00007,0.00297
716.93990,0.00334
714.87972,0.00413
712.81955,0.00552
710.75938,0.00738
708.69921,0.00858
706.63904,0.00913
704.57886,0.00959
702.51869,0.00978
700.45852,0.00932
698.39835,0.00842
696.33818,0.00788
694.27800,0.00808
692.21783,0.00847
690.15766,0.00838
688.09749,0.00711
686.03731,0.00409
683.97714,0.00086
681.91697,0.00000
679.85680,0.00090
677.79663,0.00202
675.73645,0.00326
673.67628,0.00234
671.61611,-0.00323
669.55594,-0.00079
667.49577,0.00490
665.43559,-0.00655
663.37542,-0.00295
661.31525,0.00239
659.25508,0.00414
657.19491,0.00459
655.13473,0.00541
653.07456,0.00652
651.01439,0.00757
648.95422,0.00735
646.89404,0.00476
644.83387,0.00244
642.77370,0.00102
640.71353,0.00082
638.65336,0.00379
636.59318,0.00905
634.53301,0.01123
632.47284,0.00794
630.41267,0.00271
628.35250,-0.00106
626.29232,-0.00290
624.23215,-0.00293
622.17198,-0.00036
620.11181,0.00599
618.05164,0.01122
615.99146,0.01048
613.93129,0.00674
611.87112,0.00387
609.81095,0.00114
607.75077,-0.00460
605.69060,-0.00976
603.63043,-0.00887
601.57026,-0.00310
599.51009,0.00000
