3996.73391,-0.00019
3994.67373,0.00040
3992.61356,0.00104
3990.55339,0.00141
3988.49322,0.00110
3986.43305,0.00038
3984.37287,-0.00017
3982.31270,-0.00022
3980.25253,0.00028
3978.19236,0.00108
3976.13219,0.00173
3974.07201,0.00192
3972.01184,0.00159
3969.95167,0.00122
3967.89150,0.00111
3965.83133,0.00089
3963.77115,0.00050
3961.71098,0.00035
3959.65081,0.00029
3957.59064,0.00003
3955.53046,0.00000
3953.47029,0.00041
3951.41012,0.00070
3949.34995,0.00051
3947.28978,0.00021
3945.22960,0.00036
3943.16943,0.00088
3941.10926,0.00145
3939.04909,0.00186
3936.98892,0.00178
3934.92874,0.00138
3932.86857,0.00120
3930.80840,0.00124
3928.74823,0.00132
3926.68805,0.00145
3924.62788,0.00133
3922.56771,0.00099
3920.50754,0.00092
3918.44737,0.00099
3916.38719,0.00084
3914.32702,0.00064
3912.26685,0.00085
3910.20668,0.00135
3908.14651,0.00171
3906.08633,0.00168
3904.02616,0.00094
3901.96599,0.00000
3899.90582,0.00006
3897.84565,0.00107
3895.78547,0.00175
3893.72530,0.00155
3891.66513,0.00102
3889.60496,0.00089
3887.54478,0.00120
3885.48461,0.00142
3883.42444,0.00127
3881.36427,0.00110
3879.30410,0.00127
3877.24392,0.00173
3875.18375,0.00202
3873.12358,0.00198
3871.06341,0.00197
3869.00324,0.00180
3866.94306,0.00121
3864.88289,0.00081
3862.82272,0.00116
3860.76255,0.00198
3858.70237,0.00274
3856.64220,0.00332
3854.58203,0.00377
3852.52186,0.00344
3850.46169,0.00229
3848.40151,0.00169
3846.34134,0.00212
3844.28117,0.00306
3842.22100,0.00405
3840.16083,0.00456
3838.10065,0.00384
3836.04048,0.00242
3833.98031,0.00175
3831.92014,0.00199
3829.85997,0.00269
3827.79979,0.00320
3825.73962,0.00288
3823.67945,0.00184
3821.61928,0.00104
3819.55910,0.00139
3817.49893,0.00210
3815.43876,0.00187
3813.37859,0.00122
3811.31842,0.00110
3809.25824,0.00142
3807.19807,0.00173
3805.13790,0.00200
3803.07773,0.00236
3801.01756,0.00223
3798.95738,0.00169
3796.89721,0.00163
3794.83704,0.00193
3792.77687,0.00217
3790.71670,0.00229
3788.65652,0.00218
3786.59635,0.00161
3784.53618,0.00102
3782.47601,0.00102
3780.41583,0.00117
3778.35566,0.00083
3776.29549,0.00052
3774.23532,0.00084
3772.17515,0.00134
3770.11497,0.00121
3768.05480,0.00046
3765.99463,0.00002
3763.93446,0.00020
3761.87429,0.00033
3759.81411,0.00023
3757.75394,0.00047
3755.69377,0.00125
3753.63360,0.00218
3751.57342,0.00275
3749.51325,0.00278
3747.45308,0.00290
3745.39291,0.00293
3743.33274,0.00237
3741.27256,0.00206
3739.21239,0.00233
3737.15222,0.00214
3735.09205,0.00119
3733.03188,0.00070
3730.97170,0.00104
3728.91153,0.00132
3726.85136,0.00106
3724.79119,0.00069
3722.73102,0.00057
3720.67084,0.00061
3718.61067,0.00102
3716.55050,0.00192
3714.49033,0.00260
3712.43015,0.00237
3710.36998,0.00184
3708.30981,0.00185
3706.24964,0.00200
3704.18947,0.00182
3702.12929,0.00123
3700.06912,0.00067
3698.00895,0.00050
3695.94878,0.00065
3693.88861,0.00119
3691.82843,0.00182
3689.76826,0.00159
3687.70809,0.00048
3685.64792,0.00000
3683.58775,0.00068
3681.52757,0.00174
3679.46740,0.00226
3677.40723,0.00217
3675.34706,0.00201
3673.28688,0.00247
3671.22671,0.00338
3669.16654,0.00379
3667.10637,0.00351
3665.04620,0.00320
3662.98602,0.00301
3660.92585,0.00292
3658.86568,0.00296
3656.80551,0.00310
3654.74534,0.00354
3652.68516,0.00437
3650.62499,0.00509
3648.56482,0.00496
3646.50465,0.00449
3644.44447,0.00426
3642.38430,0.00402
3640.32413,0.00389
3638.26396,0.00407
3636.20379,0.00440
3634.14361,0.00484
3632.08344,0.00542
3630.02327,0.00607
3627.96310,0.00643
3625.90293,0.00609
3623.84275,0.00569
3621.78258,0.00593
3619.72241,0.00656
3617.66224,0.00690
3615.60207,0.00725
3613.54189,0.00781
3611.48172,0.00816
3609.42155,0.00836
3607.36138,0.00823
3605.30120,0.00789
3603.24103,0.00829
3601.18086,0.00941
3599.12069,0.01006
3597.06052,0.00973
3595.00034,0.00905
3592.94017,0.00884
3590.88000,0.00935
3588.81983,0.01032
3586.75966,0.01115
3584.69948,0.01154
3582.63931,0.01192
3580.57914,0.01241
3578.51897,0.01293
3576.45879,0.01325
3574.39862,0.01310
3572.33845,0.01290
3570.27828,0.01311
3568.21811,0.01366
3566.15793,0.01418
3564.09776,0.01447
3562.03759,0.01484
3559.97742,0.01539
3557.91725,0.01604
3555.85707,0.01686
3553.79690,0.01752
3551.73673,0.01751
3549.67656,0.01754
3547.61639,0.01845
3545.55621,0.01965
3543.49604,0.02008
3541.43587,0.01992
3539.37570,0.01989
3537.31552,0.02017
3535.25535,0.02074
3533.19518,0.02156
3531.13501,0.02239
3529.07484,0.02303
3527.01466,0.02349
3524.95449,0.02396
3522.89432,0.02474
3520.83415,0.02550
3518.77398,0.02555
3516.71380,0.02519
3514.65363,0.02554
3512.59346,0.02657
3510.53329,0.02727
3508.47312,0.02753
3506.41294,0.02815
3504.35277,0.02904
3502.29260,0.02951
3500.23243,0.02988
3498.17225,0.03053
3496.11208,0.03102
3494.05191,0.03120
3491.99174,0.03148
3489.93157,0.03200
3487.87139,0.03251
3485.81122,0.03307
3483.75105,0.03381
3481.69088,0.03444
3479.63071,0.03473
3477.57053,0.03479
3475.51036,0.03466
3473.45019,0.03449
3471.39002,0.03483
3469.32984,0.03587
3467.26967,0.03704
3465.20950,0.03790
3463.14933,0.03829
3461.08916,0.03839
3459.02898,0.03878
3456.96881,0.03964
3454.90864,0.04057
3452.84847,0.04130
3450.78830,0.04178
3448.72812,0.04211
3446.66795,0.04237
3444.60778,0.04250
3442.54761,0.04256
3440.48744,0.04256
3438.42726,0.04267
3436.36709,0.04326
3434.30692,0.04395
3432.24675,0.04419
3430.18657,0.04466
3428.12640,0.04563
3426.06623,0.04600
3424.00606,0.04578
3421.94589,0.04578
3419.88571,0.04582
3417.82554,0.04581
3415.76537,0.04632
3413.70520,0.04743
3411.64503,0.04853
3409.58485,0.04923
3407.52468,0.04994
3405.46451,0.05073
3403.40434,0.05118
3401.34416,0.05115
3399.28399,0.05083
3397.22382,0.05088
3395.16365,0.05135
3393.10348,0.05160
3391.04330,0.05172
3388.98313,0.05211
3386.92296,0.05228
3384.86279,0.05203
3382.80262,0.05201
3380.74244,0.05254
3378.68227,0.05326
3376.62210,0.05362
3374.56193,0.05369
3372.50176,0.05388
3370.44158,0.05413
3368.38141,0.05423
3366.32124,0.05446
3364.26107,0.05480
3362.20089,0.05506
3360.14072,0.05524
3358.08055,0.05539
3356.02038,0.05568
3353.96021,0.05611
3351.90003,0.05635
3349.83986,0.05640
3347.77969,0.05649
3345.71952,0.05681
3343.65935,0.05721
3341.59917,0.05735
3339.53900,0.05754
3337.47883,0.05795
3335.41866,0.05809
3333.35849,0.05791
3331.29831,0.05792
3329.23814,0.05822
3327.17797,0.05827
3325.11780,0.05798
3323.05762,0.05776
3320.99745,0.05775
3318.93728,0.05791
3316.87711,0.05812
3314.81694,0.05816
3312.75676,0.05798
3310.69659,0.05777
3308.63642,0.05799
3306.57625,0.05854
3304.51608,0.05869
3302.45590,0.05853
3300.39573,0.05852
3298.33556,0.05858
3296.27539,0.05843
3294.21521,0.05822
3292.15504,0.05844
3290.09487,0.05888
3288.03470,0.05893
3285.97453,0.05866
3283.91435,0.05828
3281.85418,0.05798
3279.79401,0.05831
3277.73384,0.05934
3275.67367,0.05997
3273.61349,0.05952
3271.55332,0.05901
3269.49315,0.05909
3267.43298,0.05912
3265.37281,0.05873
3263.31263,0.05850
3261.25246,0.05865
3259.19229,0.05873
3257.13212,0.05863
3255.07194,0.05850
3253.01177,0.05820
3250.95160,0.05753
3248.89143,0.05704
3246.83126,0.05724
3244.77108,0.05752
3242.71091,0.05758
3240.65074,0.05787
3238.59057,0.05784
3236.53040,0.05707
3234.47022,0.05645
3232.41005,0.05647
3230.34988,0.05664
3228.28971,0.05652
3226.22954,0.05602
3224.16936,0.05556
3222.10919,0.05544
3220.04902,0.05535
3217.98885,0.05524
3215.92867,0.05495
3213.86850,0.05428
3211.80833,0.05387
3209.74816,0.05415
3207.68799,0.05448
3205.62781,0.05446
3203.56764,0.05437
3201.50747,0.05434
3199.44730,0.05406
3197.38713,0.05348
3195.32695,0.05290
3193.26678,0.05259
3191.20661,0.05239
3189.14644,0.05169
3187.08626,0.05076
3185.02609,0.05062
3182.96592,0.05113
3180.90575,0.05150
3178.84558,0.05155
3176.78540,0.05118
3174.72523,0.05039
3172.66506,0.04958
3170.60489,0.04903
3168.54472,0.04876
3166.48454,0.04884
3164.42437,0.04884
3162.36420,0.04844
3160.30403,0.04796
3158.24386,0.04732
3156.18368,0.04670
3154.12351,0.04669
3152.06334,0.04685
3150.00317,0.04650
3147.94299,0.04600
3145.88282,0.04558
3143.82265,0.04511
3141.76248,0.04483
3139.70231,0.04468
3137.64213,0.04432
3135.58196,0.04378
3133.52179,0.04327
3131.46162,0.04310
3129.40145,0.04320
3127.34127,0.04294
3125.28110,0.04249
3123.22093,0.04230
3121.16076,0.04197
3119.10058,0.04155
3117.04041,0.04134
3114.98024,0.04088
3112.92007,0.04021
3110.85990,0.03992
3108.79972,0.03978
3106.73955,0.03950
3104.67938,0.03912
3102.61921,0.03856
3100.55904,0.03818
3098.49886,0.03813
3096.43869,0.03792
3094.37852,0.03761
3092.31835,0.03743
3090.25818,0.03712
3088.19800,0.03676
3086.13783,0.03654
3084.07766,0.03624
3082.01749,0.03589
3079.95731,0.03555
3077.89714,0.03505
3075.83697,0.03441
3073.77680,0.03390
3071.71663,0.03346
3069.65645,0.03315
3067.59628,0.03334
3065.53611,0.03383
3063.47594,0.03375
3061.41577,0.03307
3059.35559,0.03269
3057.29542,0.03278
3055.23525,0.03271
3053.17508,0.03223
3051.11491,0.03146
3049.05473,0.03061
3046.99456,0.03001
3044.93439,0.02973
3042.87422,0.02957
3040.81404,0.02928
3038.75387,0.02896
3036.69370,0.02864
3034.63353,0.02846
3032.57336,0.02866
3030.51318,0.02912
3028.45301,0.02933
3026.39284,0.02884
3024.33267,0.02805
3022.27250,0.02752
3020.21232,0.02710
3018.15215,0.02696
3016.09198,0.02713
3014.03181,0.02720
3011.97163,0.02722
3009.91146,0.02717
3007.85129,0.02688
3005.79112,0.02641
3003.73095,0.02589
3001.67077,0.02555
2999.61060,0.02549
2997.55043,0.02530
2995.49026,0.02517
2993.43009,0.02549
2991.36991,0.02551
2989.30974,0.02510
2987.24957,0.02515
2985.18940,0.02556
2983.12923,0.02585
2981.06905,0.02600
2979.00888,0.02639
2976.94871,0.02700
2974.88854,0.02764
2972.82836,0.02859
2970.76819,0.02985
2968.70802,0.03106
2966.64785,0.03228
2964.58768,0.03369
2962.52750,0.03538
2960.46733,0.03726
2958.40716,0.03900
2956.34699,0.04066
2954.28682,0.04263
2952.22664,0.04468
2950.16647,0.04678
2948.10630,0.04915
2946.04613,0.05139
2943.98596,0.05338
2941.92578,0.05567
2939.86561,0.05845
2937.80544,0.06141
2935.74527,0.06420
2933.68509,0.06696
2931.62492,0.06991
2929.56475,0.07259
2927.50458,0.07442
2925.44441,0.07561
2923.38423,0.07659
2921.32406,0.07724
2919.26389,0.07723
2917.20372,0.07614
2915.14355,0.07402
2913.08337,0.07157
2911.02320,0.06918
2908.96303,0.06639
2906.90286,0.06329
2904.84268,0.06072
2902.78251,0.05871
2900.72234,0.05686
2898.66217,0.05526
2896.60200,0.05377
2894.54182,0.05223
2892.48165,0.05103
2890.42148,0.05012
2888.36131,0.04913
2886.30114,0.04826
2884.24096,0.04744
2882.18079,0.04656
2880.12062,0.04594
2878.06045,0.04554
2876.00028,0.04534
2873.94010,0.04562
2871.87993,0.04621
2869.81976,0.04677
2867.75959,0.04743
2865.69941,0.04851
2863.63924,0.05006
2861.57907,0.05190
2859.51890,0.05386
2857.45873,0.05587
2855.39855,0.05773
2853.33838,0.05914
2851.27821,0.05974
2849.21804,0.05886
2847.15787,0.05602
2845.09769,0.05190
2843.03752,0.04783
2840.97735,0.04467
2838.91718,0.04250
2836.85700,0.04073
2834.79683,0.03907
2832.73666,0.03764
2830.67649,0.03630
2828.61632,0.03495
2826.55614,0.03397
2824.49597,0.03351
2822.43580,0.03297
2820.37563,0.03210
2818.31546,0.03127
2816.25528,0.03069
2814.19511,0.03028
2812.13494,0.02987
2810.07477,0.02942
2808.01460,0.02899
2805.95442,0.02858
2803.89425,0.02814
2801.83408,0.02766
2799.77391,0.02720
2797.71373,0.02683
2795.65356,0.02674
2793.59339,0.02689
2791.53322,0.02692
2789.47305,0.02673
2787.41287,0.02641
2785.35270,0.02609
2783.29253,0.02574
2781.23236,0.02523
2779.17219,0.02475
2777.11201,0.02463
2775.05184,0.02469
2772.99167,0.02450
2770.93150,0.02432
2768.87133,0.02423
2766.81115,0.02406
2764.75098,0.02402
2762.69081,0.02400
2760.63064,0.02381
2758.57046,0.02354
2756.51029,0.02333
2754.45012,0.02309
2752.38995,0.02283
2750.32978,0.02281
2748.26960,0.02302
2746.20943,0.02302
2744.14926,0.02273
2742.08909,0.02248
2740.02892,0.02241
2737.96874,0.02238
2735.90857,0.02237
2733.84840,0.02240
2731.78823,0.02234
2729.72805,0.02210
2727.66788,0.02210
2725.60771,0.02258
2723.54754,0.02285
2721.48737,0.02253
2719.42719,0.02210
2717.36702,0.02186
2715.30685,0.02166
2713.24668,0.02140
2711.18651,0.02115
2709.12633,0.02102
2707.06616,0.02113
2705.00599,0.02138
2702.94582,0.02141
2700.88565,0.02143
2698.82547,0.02168
2696.76530,0.02170
2694.70513,0.02149
2692.64496,0.02142
2690.58478,0.02144
2688.52461,0.02132
2686.46444,0.02101
2684.40427,0.02068
2682.34410,0.02041
2680.28392,0.02013
2678.22375,0.01995
2676.16358,0.01985
2674.10341,0.01977
2672.04324,0.01998
2669.98306,0.02027
2667.92289,0.02031
2665.86272,0.02026
2663.80255,0.02014
2661.74238,0.01993
2659.68220,0.01978
2657.62203,0.01982
2655.56186,0.01993
2653.50169,0.02001
2651.44151,0.02011
2649.38134,0.01996
2647.32117,0.01967
2645.26100,0.01958
2643.20083,0.01945
2641.14065,0.01892
2639.08048,0.01844
2637.02031,0.01840
2634.96014,0.01839
2632.89997,0.01821
2630.83979,0.01820
2628.77962,0.01819
2626.71945,0.01794
2624.65928,0.01779
2622.59910,0.01782
2620.53893,0.01767
2618.47876,0.01745
2616.41859,0.01750
2614.35842,0.01760
2612.29824,0.01729
2610.23807,0.01669
2608.17790,0.01625
2606.11773,0.01606
2604.05756,0.01635
2601.99738,0.01703
2599.93721,0.01750
2597.87704,0.01762
2595.81687,0.01731
2593.75670,0.01658
2591.69652,0.01592
2589.63635,0.01573
2587.57618,0.01591
2585.51601,0.01605
2583.45583,0.01603
2581.39566,0.01597
2579.33549,0.01566
2577.27532,0.01518
2575.21515,0.01511
2573.15497,0.01505
2571.09480,0.01424
2569.03463,0.01328
2566.97446,0.01341
2564.91429,0.01455
2562.85411,0.01551
2560.79394,0.01548
2558.73377,0.01486
2556.67360,0.01445
2554.61342,0.01452
2552.55325,0.01497
2550.49308,0.01511
2548.43291,0.01446
2546.37274,0.01402
2544.31256,0.01426
2542.25239,0.01412
2540.19222,0.01354
2538.13205,0.01338
2536.07188,0.01362
2534.01170,0.01362
2531.95153,0.01321
2529.89136,0.01307
2527.83119,0.01319
2525.77102,0.01300
2523.71084,0.01306
2521.65067,0.01356
2519.59050,0.01358
2517.53033,0.01329
2515.47015,0.01332
2513.40998,0.01327
2511.34981,0.01306
2509.28964,0.01298
2507.22947,0.01312
2505.16929,0.01353
2503.10912,0.01361
2501.04895,0.01305
2498.98878,0.01251
2496.92861,0.01239
2494.86843,0.01250
2492.80826,0.01267
2490.74809,0.01268
2488.68792,0.01241
2486.62775,0.01218
2484.56757,0.01208
2482.50740,0.01206
2480.44723,0.01203
2478.38706,0.01193
2476.32688,0.01182
2474.26671,0.01162
2472.20654,0.01191
2470.14637,0.01251
2468.08620,0.01240
2466.02602,0.01195
2463.96585,0.01188
2461.90568,0.01231
2459.84551,0.01278
2457.78534,0.01223
2455.72516,0.01124
2453.66499,0.01115
2451.60482,0.01178
2449.54465,0.01206
2447.48447,0.01147
2445.42430,0.01101
2443.36413,0.01143
2441.30396,0.01197
2439.24379,0.01196
2437.18361,0.01162
2435.12344,0.01128
2433.06327,0.01064
2431.00310,0.00995
2428.94293,0.01004
2426.88275,0.01045
2424.82258,0.01025
2422.76241,0.01000
2420.70224,0.01037
2418.64207,0.01072
2416.58189,0.01045
2414.52172,0.01004
2412.46155,0.01003
2410.40138,0.01016
2408.34120,0.01015
2406.28103,0.01015
2404.22086,0.01007
2402.16069,0.00974
2400.10052,0.00989
2398.04034,0.01048
2395.98017,0.01047
2393.92000,0.00990
2391.85983,0.00967
2389.79966,0.00982
2387.73948,0.00972
2385.67931,0.00927
2383.61914,0.00895
2381.55897,0.00917
2379.49880,0.00961
2377.43862,0.00956
2375.37845,0.00943
2373.31828,0.01048
2371.25811,0.01213
2369.19793,0.01219
2367.13776,0.01100
2365.07759,0.01036
2363.01742,0.00951
2360.95725,0.00841
2358.89707,0.00852
2356.83690,0.00944
2354.77673,0.00949
2352.71656,0.00922
2350.65639,0.01023
2348.59621,0.01191
2346.53604,0.01255
2344.47587,0.01127
2342.41570,0.00938
2340.35552,0.00902
2338.29535,0.00998
2336.23518,0.01076
2334.17501,0.01070
2332.11484,0.01003
2330.05466,0.00922
2327.99449,0.00793
2325.93432,0.00647
2323.87415,0.00654
2321.81398,0.00806
2319.75380,0.00912
2317.69363,0.00918
2315.63346,0.00922
2313.57329,0.00959
2311.51312,0.00967
2309.45294,0.00916
2307.39277,0.00857
2305.33260,0.00830
2303.27243,0.00862
2301.21225,0.00933
2299.15208,0.00945
2297.09191,0.00901
2295.03174,0.00903
2292.97157,0.00944
2290.91139,0.00940
2288.85122,0.00872
2286.79105,0.00807
2284.73088,0.00776
2282.67071,0.00754
2280.61053,0.00726
2278.55036,0.00710
2276.49019,0.00736
2274.43002,0.00790
2272.36984,0.00803
2270.30967,0.00762
2268.24950,0.00746
2266.18933,0.00784
2264.12916,0.00795
2262.06898,0.00719
2260.00881,0.00635
2257.94864,0.00635
2255.88847,0.00703
2253.82830,0.00750
2251.76812,0.00745
2249.70795,0.00740
2247.64778,0.00722
2245.58761,0.00628
2243.52744,0.00568
2241.46726,0.00670
2239.40709,0.00773
2237.34692,0.00743
2235.28675,0.00680
2233.22657,0.00665
2231.16640,0.00695
2229.10623,0.00708
2227.04606,0.00652
2224.98589,0.00625
2222.92571,0.00706
2220.86554,0.00752
2218.80537,0.00650
2216.74520,0.00477
2214.68503,0.00415
2212.62485,0.00481
2210.56468,0.00518
2208.50451,0.00540
2206.44434,0.00601
2204.38417,0.00560
2202.32399,0.00422
2200.26382,0.00423
2198.20365,0.00467
2196.14348,0.00338
2194.08330,0.00230
2192.02313,0.00262
2189.96296,0.00280
2187.90279,0.00377
2185.84262,0.00500
2183.78244,0.00350
2181.72227,0.00095
2179.66210,0.00053
2177.60193,0.00231
2175.54176,0.00395
2173.48158,0.00340
2171.42141,0.00220
2169.36124,0.00296
2167.30107,0.00464
2165.24089,0.00550
2163.18072,0.00641
2161.12055,0.00668
2159.06038,0.00520
2157.00021,0.00367
2154.94003,0.00371
2152.87986,0.00522
2150.81969,0.00735
2148.75952,0.00867
2146.69935,0.00781
2144.63917,0.00595
2142.57900,0.00550
2140.51883,0.00595
2138.45866,0.00525
2136.39849,0.00473
2134.33831,0.00607
2132.27814,0.00692
2130.21797,0.00626
2128.15780,0.00593
2126.09762,0.00614
2124.03745,0.00585
2121.97728,0.00556
2119.91711,0.00643
2117.85694,0.00744
2115.79676,0.00688
2113.73659,0.00557
2111.67642,0.00509
2109.61625,0.00542
2107.55608,0.00585
2105.49590,0.00573
2103.43573,0.00572
2101.37556,0.00653
2099.31539,0.00653
2097.25521,0.00525
2095.19504,0.00443
2093.13487,0.00450
2091.07470,0.00508
2089.01453,0.00675
2086.95435,0.00867
2084.89418,0.00886
2082.83401,0.00749
2080.77384,0.00607
2078.71367,0.00563
2076.65349,0.00572
2074.59332,0.00529
2072.53315,0.00501
2070.47298,0.00572
2068.41281,0.00623
2066.35263,0.00597
2064.29246,0.00569
2062.23229,0.00542
2060.17212,0.00500
2058.11194,0.00466
2056.05177,0.00479
2053.99160,0.00592
2051.93143,0.00726
2049.87126,0.00742
2047.81108,0.00656
2045.75091,0.00556
2043.69074,0.00468
2041.63057,0.00336
2039.57040,0.00227
2037.51022,0.00301
2035.45005,0.00407
2033.38988,0.00318
2031.32971,0.00157
2029.26954,0.00164
2027.20936,0.00343
2025.14919,0.00517
2023.08902,0.00581
2021.02885,0.00549
2018.96867,0.00424
2016.90850,0.00206
2014.84833,0.00005
2012.78816,0.00000
2010.72799,0.00194
2008.66781,0.00440
2006.60764,0.00676
2004.54747,0.00820
2002.48730,0.00805
2000.42713,0.00741
1998.36695,0.00631
1996.30678,0.00453
1994.24661,0.00341
1992.18644,0.00303
1990.12626,0.00337
1988.06609,0.00448
1986.00592,0.00517
1983.94575,0.00549
1981.88558,0.00594
1979.82540,0.00544
1977.76523,0.00383
1975.70506,0.00305
1973.64489,0.00321
1971.58472,0.00244
1969.52454,0.00088
1967.46437,0.00019
1965.40420,0.00109
1963.34403,0.00212
1961.28386,0.00168
1959.22368,0.00156
1957.16351,0.00326
1955.10334,0.00416
1953.04317,0.00295
1950.98299,0.00143
1948.92282,0.00102
1946.86265,0.00179
1944.80248,0.00214
1942.74231,0.00179
1940.68213,0.00220
1938.62196,0.00296
1936.56179,0.00353
1934.50162,0.00382
1932.44145,0.00361
1930.38127,0.00344
1928.32110,0.00319
1926.26093,0.00226
1924.20076,0.00088
1922.14059,0.00000
1920.08041,0.00061
1918.02024,0.00232
1915.96007,0.00315
1913.89990,0.00266
1911.83972,0.00239
1909.77955,0.00277
1907.71938,0.00291
1905.65921,0.00266
1903.59904,0.00298
1901.53886,0.00415
1899.47869,0.00492
1897.41852,0.00432
1895.35835,0.00289
1893.29818,0.00172
1891.23800,0.00140
1889.17783,0.00185
1887.11766,0.00222
1885.05749,0.00185
1882.99731,0.00147
1880.93714,0.00177
1878.87697,0.00224
1876.81680,0.00233
1874.75663,0.00209
1872.69645,0.00151
1870.63628,0.00081
1868.57611,0.00071
1866.51594,0.00151
1864.45577,0.00250
1862.39559,0.00297
1860.33542,0.00284
1858.27525,0.00249
1856.21508,0.00230
1854.15491,0.00244
1852.09473,0.00260
1850.03456,0.00251
1847.97439,0.00228
1845.91422,0.00213
1843.85404,0.00214
1841.79387,0.00199
1839.73370,0.00153
1837.67353,0.00096
1835.61336,0.00069
1833.55318,0.00085
1831.49301,0.00105
1829.43284,0.00099
1827.37267,0.00071
1825.31250,0.00035
1823.25232,0.00026
1821.19215,0.00075
1819.13198,0.00134
1817.07181,0.00157
1815.01163,0.00154
1812.95146,0.00144
1810.89129,0.00133
1808.83112,0.00119
1806.77095,0.00089
1804.71077,0.00050
1802.65060,0.00019
1800.59043,0.00023
1798.53026,0.00058
1796.47009,0.00064
1794.40991,0.00038
1792.34974,0.00025
1790.28957,0.00026
1788.22940,0.00015
1786.16923,-0.00007
1784.10905,-0.00014
1782.04888,0.00000
1779.98871,0.00010
1777.92854,0.00025
1775.86836,0.00029
1773.80819,-0.00003
1771.74802,-0.00050
1769.68785,-0.00040
1767.62768,0.00043
1765.56750,0.00136
1763.50733,0.00208
1761.44716,0.00288
1759.38699,0.00403
1757.32682,0.00570
1755.26664,0.00776
1753.20647,0.00988
1751.14630,0.01211
1749.08613,0.01428
1747.02596,0.01589
1744.96578,0.01717
1742.90561,0.01822
1740.84544,0.01878
1738.78527,0.01889
1736.72509,0.01883
1734.66492,0.01882
1732.60475,0.01879
1730.54458,0.01859
1728.48441,0.01842
1726.42423,0.01838
1724.36406,0.01831
1722.30389,0.01840
1720.24372,0.01893
1718.18355,0.01971
1716.12337,0.01994
1714.06320,0.01945
1712.00303,0.01892
1709.94286,0.01874
1707.88268,0.01882
1705.82251,0.01888
1703.76234,0.01884
1701.70217,0.01884
1699.64200,0.01892
1697.58182,0.01908
1695.52165,0.01951
1693.46148,0.02033
1691.40131,0.02138
1689.34114,0.02273
1687.28096,0.02460
1685.22079,0.02728
1683.16062,0.03012
1681.10045,0.03194
1679.04028,0.03337
1676.98010,0.03509
1674.91993,0.03682
1672.85976,0.03780
1670.79959,0.03792
1668.73941,0.03755
1666.67924,0.03693
1664.61907,0.03614
1662.55890,0.03509
1660.49873,0.03401
1658.43855,0.03323
1656.37838,0.03287
1654.31821,0.03299
1652.25804,0.03332
1650.19787,0.03348
1648.13769,0.03336
1646.07752,0.03295
1644.01735,0.03260
1641.95718,0.03259
1639.89701,0.03303
1637.83683,0.03399
1635.77666,0.03523
1633.71649,0.03592
1631.65632,0.03604
1629.59614,0.03614
1627.53597,0.03644
1625.47580,0.03712
1623.41563,0.03801
1621.35546,0.03844
1619.29528,0.03849
1617.23511,0.03885
1615.17494,0.03961
1613.11477,0.04071
1611.05460,0.04234
1608.99442,0.04427
1606.93425,0.04576
1604.87408,0.04611
1602.81391,0.04517
1600.75373,0.04341
1598.69356,0.04142
1596.63339,0.03958
1594.57322,0.03819
1592.51305,0.03716
1590.45287,0.03612
1588.39270,0.03505
1586.33253,0.03414
1584.27236,0.03320
1582.21219,0.03195
1580.15201,0.03072
1578.09184,0.02999
1576.03167,0.02932
1573.97150,0.02823
1571.91133,0.02704
1569.85115,0.02582
1567.79098,0.02458
1565.73081,0.02357
1563.67064,0.02268
1561.61046,0.02141
1559.55029,0.01949
1557.49012,0.01796
1555.42995,0.01766
1553.36978,0.01731
1551.30960,0.01640
1549.24943,0.01523
1547.18926,0.01428
1545.12909,0.01376
1543.06892,0.01332
1541.00874,0.01231
1538.94857,0.01078
1536.88840,0.00977
1534.82823,0.00925
1532.76805,0.00871
1530.70788,0.00804
1528.64771,0.00762
1526.58754,0.00787
1524.52737,0.00872
1522.46719,0.00969
1520.40702,0.01060
1518.34685,0.01178
1516.28668,0.01330
1514.22651,0.01402
1512.16633,0.01359
1510.10616,0.01292
1508.04599,0.01185
1505.98582,0.00944
1503.92565,0.00723
1501.86547,0.00602
1499.80530,0.00504
1497.74513,0.00377
1495.68496,0.00267
1493.62478,0.00224
1491.56461,0.00207
1489.50444,0.00152
1487.44427,0.00056
1485.38410,0.00000
1483.32392,0.00023
1481.26375,0.00096
1479.20358,0.00179
1477.14341,0.00265
1475.08324,0.00402
1473.02306,0.00664
1470.96289,0.01002
1468.90272,0.01282
1466.84255,0.01501
1464.78238,0.01702
1462.72220,0.01866
1460.66203,0.01991
1458.60186,0.02145
1456.54169,0.02328
1454.48151,0.02419
1452.42134,0.02435
1450.36117,0.02469
1448.30100,0.02552
1446.24083,0.02662
1444.18065,0.02772
1442.12048,0.02881
1440.06031,0.02990
1438.00014,0.03088
1435.93997,0.03161
1433.87979,0.03214
1431.81962,0.03271
1429.75945,0.03307
1427.69928,0.03295
1425.63910,0.03267
1423.57893,0.03280
1421.51876,0.03350
1419.45859,0.03432
1417.39842,0.03452
1415.33824,0.03404
1413.27807,0.03330
1411.21790,0.03251
1409.15773,0.03177
1407.09756,0.03097
1405.03738,0.02984
1402.97721,0.02854
1400.91704,0.02753
1398.85687,0.02682
1396.79670,0.02616
1394.73652,0.02535
1392.67635,0.02453
1390.61618,0.02425
1388.55601,0.02481
1386.49583,0.02582
1384.43566,0.02667
1382.37549,0.02728
1380.31532,0.02781
1378.25515,0.02836
1376.19497,0.02890
1374.13480,0.02925
1372.07463,0.02941
1370.01446,0.02958
1367.95429,0.02959
1365.89411,0.02932
1363.83394,0.02886
1361.77377,0.02821
1359.71360,0.02748
1357.65343,0.02687
1355.59325,0.02651
1353.53308,0.02647
1351.47291,0.02658
1349.41274,0.02663
1347.35256,0.02653
1345.29239,0.02634
1343.23222,0.02616
1341.17205,0.02608
1339.11188,0.02612
1337.05170,0.02619
1334.99153,0.02609
1332.93136,0.02593
1330.87119,0.02597
1328.81102,0.02616
1326.75084,0.02628
1324.69067,0.02653
1322.63050,0.02702
1320.57033,0.02730
1318.51015,0.02712
1316.44998,0.02677
1314.38981,0.02651
1312.32964,0.02631
1310.26947,0.02579
1308.20929,0.02484
1306.14912,0.02384
1304.08895,0.02304
1302.02878,0.02232
1299.96861,0.02175
1297.90843,0.02137
1295.84826,0.02103
1293.78809,0.02074
1291.72792,0.02079
1289.66775,0.02131
1287.60757,0.02203
1285.54740,0.02258
1283.48723,0.02281
1281.42706,0.02275
1279.36688,0.02257
1277.30671,0.02250
1275.24654,0.02269
1273.18637,0.02315
1271.12620,0.02380
1269.06602,0.02461
1267.00585,0.02559
1264.94568,0.02667
1262.88551,0.02772
1260.82534,0.02849
1258.76516,0.02907
1256.70499,0.02992
1254.64482,0.03098
1252.58465,0.03188
1250.52447,0.03244
1248.46430,0.03294
1246.40413,0.03339
1244.34396,0.03351
1242.28379,0.03340
1240.22361,0.03327
1238.16344,0.03296
1236.10327,0.03228
1234.04310,0.03143
1231.98293,0.03064
1229.92275,0.02989
1227.86258,0.02891
1225.80241,0.02749
1223.74224,0.02580
1221.68207,0.02407
1219.62189,0.02240
1217.56172,0.02077
1215.50155,0.01920
1213.44138,0.01788
1211.38120,0.01669
1209.32103,0.01528
1207.26086,0.01359
1205.20069,0.01187
1203.14052,0.01041
1201.08034,0.00902
1199.02017,0.00727
1196.96000,0.00522
1194.89983,0.00321
1192.83966,0.00154
1190.77948,0.00069
1188.71931,0.00058
1186.65914,0.00034
1184.59897,0.00000
1182.53880,0.00011
1180.47862,0.00071
1178.41845,0.00182
1176.35828,0.00371
1174.29811,0.00620
1172.23793,0.00917
1170.17776,0.01240
1168.11759,0.01502
1166.05742,0.01628
1163.99725,0.01663
1161.93707,0.01698
1159.87690,0.01764
1157.81673,0.01855
1155.75656,0.01950
1153.69639,0.02015
1151.63621,0.02067
1149.57604,0.02181
1147.51587,0.02383
1145.45570,0.02582
1143.39552,0.02729
1141.33535,0.02840
1139.27518,0.02918
1137.21501,0.02980
1135.15484,0.03032
1133.09466,0.03096
1131.03449,0.03203
1128.97432,0.03326
1126.91415,0.03444
1124.85398,0.03590
1122.79380,0.03775
1120.73363,0.03960
1118.67346,0.04129
1116.61329,0.04288
1114.55312,0.04425
1112.49294,0.04566
1110.43277,0.04718
1108.37260,0.04850
1106.31243,0.04975
1104.25225,0.05098
1102.19208,0.05226
1100.13191,0.05419
1098.07174,0.05700
1096.01157,0.06000
1093.95139,0.06261
1091.89122,0.06510
1089.83105,0.06753
1087.77088,0.06952
1085.71071,0.07111
1083.65053,0.07308
1081.59036,0.07594
1079.53019,0.07910
1077.47002,0.08179
1075.40985,0.08424
1073.34967,0.08714
1071.28950,0.09024
1069.22933,0.09277
1067.16916,0.09472
1065.10898,0.09626
1063.04881,0.09758
1060.98864,0.09910
1058.92847,0.10086
1056.86830,0.10274
1054.80812,0.10503
1052.74795,0.10760
1050.68778,0.11023
1048.62761,0.11321
1046.56744,0.11665
1044.50726,0.12025
1042.44709,0.12349
1040.38692,0.12615
1038.32675,0.12821
1036.26657,0.12970
1034.20640,0.13058
1032.14623,0.13114
1030.08606,0.13168
1028.02589,0.13169
1025.96571,0.13117
1023.90554,0.13065
1021.84537,0.13005
1019.78520,0.12938
1017.72503,0.12886
1015.66485,0.12865
1013.60468,0.12891
1011.54451,0.12936
1009.48434,0.12976
1007.42417,0.12993
1005.36399,0.12948
1003.30382,0.12862
1001.24365,0.12764
999.18348,0.12631
997.12330,0.12456
995.06313,0.12230
993.00296,0.11989
990.94279,0.11773
988.88262,0.11550
986.82244,0.11333
984.76227,0.11151
982.70210,0.10974
980.64193,0.10784
978.58176,0.10579
976.52158,0.10388
974.46141,0.10234
972.40124,0.10059
970.34107,0.09845
968.28089,0.09638
966.22072,0.09414
964.16055,0.09183
962.10038,0.08987
960.04021,0.08759
957.98003,0.08513
955.91986,0.08374
953.85969,0.08293
951.79952,0.08130
949.73935,0.07892
947.67917,0.07638
945.61900,0.07360
943.55883,0.07062
941.49866,0.06735
939.43849,0.06343
937.37831,0.05955
935.31814,0.05606
933.25797,0.05209
931.19780,0.04772
929.13762,0.04390
927.07745,0.04105
925.01728,0.03849
922.95711,0.03535
920.89694,0.03218
918.83676,0.03005
916.77659,0.02881
914.71642,0.02772
912.65625,0.02641
910.59608,0.02461
908.53590,0.02208
906.47573,0.01935
904.41556,0.01763
902.35539,0.01735
900.29522,0.01783
898.23504,0.01861
896.17487,0.01946
894.11470,0.01983
892.05453,0.01981
889.99435,0.01985
887.93418,0.01955
885.87401,0.01866
883.81384,0.01740
881.75367,0.01566
879.69349,0.01382
877.63332,0.01195
875.57315,0.00970
873.51298,0.00833
871.45281,0.00877
869.39263,0.00983
867.33246,0.01021
865.27229,0.00971
863.21212,0.00890
861.15194,0.00841
859.09177,0.00859
857.03160,0.00889
854.97143,0.00882
852.91126,0.00868
850.85108,0.00816
848.79091,0.00718
846.73074,0.00650
844.67057,0.00635
842.61040,0.00681
840.55022,0.00740
838.49005,0.00730
836.42988,0.00669
834.36971,0.00613
832.30954,0.00575
830.24936,0.00553
828.18919,0.00534
826.12902,0.00522
824.06885,0.00501
822.00867,0.00446
819.94850,0.00394
817.88833,0.00359
815.82816,0.00321
813.76799,0.00270
811.70781,0.00193
809.64764,0.00144
807.58747,0.00207
805.52730,0.00358
803.46713,0.00410
801.40695,0.00293
799.34678,0.00187
797.28661,0.00200
795.22644,0.00222
793.16627,0.00183
791.10609,0.00123
789.04592,0.00044
786.98575,0.00000
784.92558,0.00045
782.86540,0.00125
780.80523,0.00176
778.74506,0.00199
776.68489,0.00189
774.62472,0.00124
772.56454,0.00092
770.50437,0.00106
768.44420,0.00108
766.38403,0.00179
764.32386,0.00254
762.26368,0.00207
760.20351,0.00183
758.14334,0.00248
756.08317,0.00260
754.02299,0.00273
751.96282,0.00386
749.90265,0.00467
747.84248,0.00396
745.78231,0.00273
743.72213,0.00240
741.66196,0.00233
739.60179,0.00151
737.54162,0.00050
735.48145,0.00000
733.42127,0.00019
731.36110,0.00233
729.30093,0.00452
727.24076,0.00488
725.18059,0.00484
723.12041,0.00516
721.06024,0.00558
719.00007,0.00659
716.93990,0.00763
714.87972,0.00724
712.81955,0.00618
710.75938,0.00668
708.69921,0.00870
706.63904,0.01006
704.57886,0.01032
702.51869,0.01096
700.45852,0.01192
698.39835,0.01219
696.33818,0.01153
694.27800,0.01022
692.21783,0.00915
690.15766,0.00824
688.09749,0.00616
686.03731,0.00349
683.97714,0.00228
681.91697,0.00222
679.85680,0.00184
677.79663,0.00163
675.73645,0.00219
673.67628,0.00289
671.61611,0.00239
669.55594,0.00004
667.49577,-0.00077
665.43559,0.00294
663.37542,0.00709
661.31525,0.00694
659.25508,0.00232
657.19491,-0.00084
655.13473,0.00102
653.07456,0.00300
651.01439,0.00145
648.95422,0.00000
646.89404,0.00135
644.83387,0.00411
642.77370,0.00511
640.71353,0.00454
638.65336,0.00437
636.59318,0.00427
634.53301,0.00351
632.47284,0.00275
630.41267,0.00154
628.35250,-0.00144
626.29232,-0.00506
624.23215,-0.00668
622.17198,-0.00518
620.11181,-0.00070
618.05164,0.00137
615.99146,-0.00132
613.93129,-0.00573
611.87112,-0.00695
609.81095,-0.00442
607.75077,-0.00498
605.69060,-0.00999
603.63043,-0.01427
601.57026,-0.01082
599.51009,0.00000
