3996.73391,-0.00010
3994.67373,0.00046
3992.61356,0.00081
3990.55339,0.00065
3988.49322,0.00009
3986.43305,-0.00038
3984.37287,-0.00037
3982.31270,0.00007
3980.25253,0.00067
3978.19236,0.00124
3976.13219,0.00162
3974.07201,0.00163
3972.01184,0.00130
3969.95167,0.00101
3967.89150,0.00095
3965.83133,0.00080
3963.77115,0.00044
3961.71098,0.00013
3959.65081,0.00000
3957.59064,0.00000
3955.53046,0.00021
3953.47029,0.00053
3951.41012,0.00066
3949.34995,0.00062
3947.28978,0.00064
3945.22960,0.00070
3943.16943,0.00067
3941.10926,0.00075
3939.04909,0.00109
3936.98892,0.00136
3934.92874,0.00121
3932.86857,0.00090
3930.80840,0.00096
3928.74823,0.00137
3926.68805,0.00177
3924.62788,0.00187
3922.56771,0.00160
3920.50754,0.00129
3918.44737,0.00111
3916.38719,0.00095
3914.32702,0.00089
3912.26685,0.00119
3910.20668,0.00172
3908.14651,0.00198
3906.08633,0.00164
3904.02616,0.00073
3901.96599,0.00000
3899.90582,0.00018
3897.84565,0.00104
3895.78547,0.00186
3893.72530,0.00228
3891.66513,0.00223
3889.60496,0.00186
3887.54478,0.00138
3885.48461,0.00074
3883.42444,0.00021
3881.36427,0.00025
3879.30410,0.00087
3877.24392,0.00158
3875.18375,0.00187
3873.12358,0.00180
3871.06341,0.00161
3869.00324,0.00121
3866.94306,0.00090
3864.88289,0.00107
3862.82272,0.00146
3860.76255,0.00161
3858.70237,0.00163
3856.64220,0.00176
3854.58203,0.00212
3852.52186,0.00233
3850.46169,0.00180
3848.40151,0.00122
3846.34134,0.00140
3844.28117,0.00213
3842.22100,0.00265
3840.16083,0.00276
3838.10065,0.00241
3836.04048,0.00173
3833.98031,0.00138
3831.92014,0.00158
3829.85997,0.00210
3827.79979,0.00246
3825.73962,0.00217
3823.67945,0.00129
3821.61928,0.00067
3819.55910,0.00109
3817.49893,0.00165
3815.43876,0.00135
3813.37859,0.00096
3811.31842,0.00106
3809.25824,0.00135
3807.19807,0.00160
3805.13790,0.00170
3803.07773,0.00159
3801.01756,0.00138
3798.95738,0.00139
3796.89721,0.00159
3794.83704,0.00172
3792.77687,0.00173
3790.71670,0.00168
3788.65652,0.00147
3786.59635,0.00093
3784.53618,0.00039
3782.47601,0.00057
3780.41583,0.00121
3778.35566,0.00125
3776.29549,0.00086
3774.23532,0.00113
3772.17515,0.00188
3770.11497,0.00181
3768.05480,0.00074
3765.99463,0.00000
3763.93446,0.00014
3761.87429,0.00038
3759.81411,0.00026
3757.75394,0.00030
3755.69377,0.00110
3753.63360,0.00236
3751.57342,0.00291
3749.51325,0.00224
3747.45308,0.00184
3745.39291,0.00198
3743.33274,0.00159
3741.27256,0.00096
3739.21239,0.00080
3737.15222,0.00091
3735.09205,0.00098
3733.03188,0.00098
3730.97170,0.00084
3728.91153,0.00044
3726.85136,0.00003
3724.79119,0.00002
3722.73102,0.00024
3720.67084,0.00016
3718.61067,0.00014
3716.55050,0.00071
3714.49033,0.00146
3712.43015,0.00168
3710.36998,0.00155
3708.30981,0.00157
3706.24964,0.00140
3704.18947,0.00097
3702.12929,0.00052
3700.06912,0.00017
3698.00895,0.00000
3695.94878,0.00018
3693.88861,0.00069
3691.82843,0.00101
3689.76826,0.00070
3687.70809,0.00020
3685.64792,0.00008
3683.58775,0.00029
3681.52757,0.00045
3679.46740,0.00032
3677.40723,0.00004
3675.34706,0.00038
3673.28688,0.00176
3671.22671,0.00288
3669.16654,0.00256
3667.10637,0.00168
3665.04620,0.00147
3662.98602,0.00170
3660.92585,0.00175
3658.86568,0.00137
3656.80551,0.00112
3654.74534,0.00191
3652.68516,0.00342
3650.62499,0.00441
3648.56482,0.00406
3646.50465,0.00344
3644.44447,0.00339
3642.38430,0.00350
3640.32413,0.00348
3638.26396,0.00347
3636.20379,0.00376
3634.14361,0.00430
3632.08344,0.00469
3630.02327,0.00478
3627.96310,0.00475
3625.90293,0.00465
3623.84275,0.00464
3621.78258,0.00495
3619.72241,0.00542
3617.66224,0.00570
3615.60207,0.00615
3613.54189,0.00682
3611.48172,0.00711
3609.42155,0.00716
3607.36138,0.00731
3605.30120,0.00743
3603.24103,0.00784
3601.18086,0.00862
3599.12069,0.00903
3597.06052,0.00886
3595.00034,0.00869
3592.94017,0.00881
3590.88000,0.00922
3588.81983,0.00987
3586.75966,0.01049
3584.69948,0.01078
3582.63931,0.01090
3580.57914,0.01101
3578.51897,0.01150
3576.45879,0.01231
3574.39862,0.01276
3572.33845,0.01294
3570.27828,0.01324
3568.21811,0.01346
3566.15793,0.01353
3564.09776,0.01382
3562.03759,0.01447
3559.97742,0.01515
3557.91725,0.01562
3555.85707,0.01622
3553.79690,0.01700
3551.73673,0.01738
3549.67656,0.01744
3547.61639,0.01788
3545.55621,0.01868
3543.49604,0.01925
3541.43587,0.01954
3539.37570,0.01992
3537.31552,0.02032
3535.25535,0.02058
3533.19518,0.02105
3531.13501,0.02197
3529.07484,0.02285
3527.01466,0.02317
3524.95449,0.02320
3522.89432,0.02350
3520.83415,0.02408
3518.77398,0.02454
3516.71380,0.02482
3514.65363,0.02538
3512.59346,0.02631
3510.53329,0.02719
3508.47312,0.02770
3506.41294,0.02810
3504.35277,0.02855
3502.29260,0.02895
3500.23243,0.02953
3498.17225,0.03025
3496.11208,0.03040
3494.05191,0.03013
3491.99174,0.03045
3489.93157,0.03140
3487.87139,0.03203
3485.81122,0.03223
3483.75105,0.03273
3481.69088,0.03351
3479.63071,0.03412
3477.57053,0.03472
3475.51036,0.03532
3473.45019,0.03556
3471.39002,0.03572
3469.32984,0.03633
3467.26967,0.03701
3465.20950,0.03745
3463.14933,0.03801
3461.08916,0.03855
3459.02898,0.03889
3456.96881,0.03950
3454.90864,0.04040
3452.84847,0.04111
3450.78830,0.04143
3448.72812,0.04164
3446.66795,0.04203
3444.60778,0.04243
3442.54761,0.04260
3440.48744,0.04249
3438.42726,0.04256
3436.36709,0.04343
3434.30692,0.04450
3432.24675,0.04484
3430.18657,0.04500
3428.12640,0.04556
3426.06623,0.04592
3424.00606,0.04584
3421.94589,0.04574
3419.88571,0.04596
3417.82554,0.04651
3415.76537,0.04732
3413.70520,0.04832
3411.64503,0.04921
3409.58485,0.04965
3407.52468,0.04978
3405.46451,0.05003
3403.40434,0.05060
3401.34416,0.05122
3399.28399,0.05142
3397.22382,0.05151
3395.16365,0.05186
3393.10348,0.05222
3391.04330,0.05240
3388.98313,0.05255
3386.92296,0.05262
3384.86279,0.05268
3382.80262,0.05299
3380.74244,0.05341
3378.68227,0.05363
3376.62210,0.05371
3374.56193,0.05396
3372.50176,0.05446
3370.44158,0.05479
3368.38141,0.05475
3366.32124,0.05467
3364.26107,0.05479
3362.20089,0.05512
3360.14072,0.05542
3358.08055,0.05557
3356.02038,0.05586
3353.96021,0.05646
3351.90003,0.05682
3349.83986,0.05682
3347.77969,0.05689
3345.71952,0.05701
3343.65935,0.05708
3341.59917,0.05728
3339.53900,0.05753
3337.47883,0.05780
3335.41866,0.05797
3333.35849,0.05785
3331.29831,0.05773
3329.23814,0.05794
3327.17797,0.05804
3325.11780,0.05767
3323.05762,0.05740
3320.99745,0.05770
3318.93728,0.05823
3316.87711,0.05845
3314.81694,0.05840
3312.75676,0.05826
3310.69659,0.05812
3308.63642,0.05821
3306.57625,0.05840
3304.51608,0.05851
3302.45590,0.05871
3300.39573,0.05891
3298.33556,0.05890
3296.27539,0.05870
3294.21521,0.05854
3292.15504,0.05868
3290.09487,0.05895
3288.03470,0.05914
3285.97453,0.05922
3283.91435,0.05916
3281.85418,0.05910
3279.79401,0.05936
3277.73384,0.05977
3275.67367,0.05976
3273.61349,0.05946
3271.55332,0.05941
3269.49315,0.05948
3267.43298,0.05921
3265.37281,0.05859
3263.31263,0.05811
3261.25246,0.05809
3259.19229,0.05824
3257.13212,0.05837
3255.07194,0.05858
3253.01177,0.05874
3250.95160,0.05839
3248.89143,0.05782
3246.83126,0.05779
3244.77108,0.05783
3242.71091,0.05758
3240.65074,0.05758
3238.59057,0.05765
3236.53040,0.05733
3234.47022,0.05682
3232.41005,0.05654
3230.34988,0.05645
3228.28971,0.05627
3226.22954,0.05602
3224.16936,0.05573
3222.10919,0.05534
3220.04902,0.05513
3217.98885,0.05516
3215.92867,0.05492
3213.86850,0.05432
3211.80833,0.05392
3209.74816,0.05402
3207.68799,0.05424
3205.62781,0.05441
3203.56764,0.05457
3201.50747,0.05444
3199.44730,0.05404
3197.38713,0.05360
3195.32695,0.05311
3193.26678,0.05272
3191.20661,0.05258
3189.14644,0.05226
3187.08626,0.05157
3185.02609,0.05116
3182.96592,0.05140
3180.90575,0.05183
3178.84558,0.05181
3176.78540,0.05131
3174.72523,0.05059
3172.66506,0.04975
3170.60489,0.04897
3168.54472,0.04861
3166.48454,0.04877
3164.42437,0.04905
3162.36420,0.04906
3160.30403,0.04861
3158.24386,0.04780
3156.18368,0.04722
3154.12351,0.04693
3152.06334,0.04653
3150.00317,0.04616
3147.94299,0.04595
3145.88282,0.04564
3143.82265,0.04522
3141.76248,0.04495
3139.70231,0.04477
3137.64213,0.04447
3135.58196,0.04394
3133.52179,0.04325
3131.46162,0.04281
3129.40145,0.04278
3127.34127,0.04253
3125.28110,0.04202
3123.22093,0.04194
3121.16076,0.04206
3119.10058,0.04190
3117.04041,0.04154
3114.98024,0.04106
3112.92007,0.04053
3110.85990,0.04010
3108.79972,0.03971
3106.73955,0.03961
3104.67938,0.03982
3102.61921,0.03958
3100.55904,0.03895
3098.49886,0.03858
3096.43869,0.03823
3094.37852,0.03770
3092.31835,0.03723
3090.25818,0.03675
3088.19800,0.03629
3086.13783,0.03596
3084.07766,0.03560
3082.01749,0.03533
3079.95731,0.03522
3077.89714,0.03492
3075.83697,0.03442
3073.77680,0.03401
3071.71663,0.03357
3069.65645,0.03313
3067.59628,0.03312
3065.53611,0.03341
3063.47594,0.03336
3061.41577,0.03284
3059.35559,0.03222
3057.29542,0.03188
3055.23525,0.03185
3053.17508,0.03170
3051.11491,0.03108
3049.05473,0.03034
3046.99456,0.03000
3044.93439,0.03001
3042.87422,0.02997
3040.81404,0.02972
3038.75387,0.02933
3036.69370,0.02903
3034.63353,0.02891
3032.57336,0.02884
3030.51318,0.02877
3028.45301,0.02868
3026.39284,0.02829
3024.33267,0.02782
3022.27250,0.02744
3020.21232,0.02711
3018.15215,0.02721
3016.09198,0.02751
3014.03181,0.02734
3011.97163,0.02696
3009.91146,0.02679
3007.85129,0.02666
3005.79112,0.02639
3003.73095,0.02603
3001.67077,0.02570
2999.61060,0.02545
2997.55043,0.02523
2995.49026,0.02531
2993.43009,0.02562
2991.36991,0.02547
2989.30974,0.02516
2987.24957,0.02534
2985.18940,0.02572
2983.12923,0.02591
2981.06905,0.02599
2979.00888,0.02634
2976.94871,0.02695
2974.88854,0.02760
2972.82836,0.02855
2970.76819,0.02971
2968.70802,0.03067
2966.64785,0.03169
2964.58768,0.03328
2962.52750,0.03525
2960.46733,0.03710
2958.40716,0.03868
2956.34699,0.04035
2954.28682,0.04250
2952.22664,0.04471
2950.16647,0.04677
2948.10630,0.04902
2946.04613,0.05137
2943.98596,0.05367
2941.92578,0.05615
2939.86561,0.05894
2937.80544,0.06189
2935.74527,0.06480
2933.68509,0.06765
2931.62492,0.07046
2929.56475,0.07303
2927.50458,0.07511
2925.44441,0.07645
2923.38423,0.07722
2921.32406,0.07780
2919.26389,0.07793
2917.20372,0.07698
2915.14355,0.07495
2913.08337,0.07240
2911.02320,0.06962
2908.96303,0.06662
2906.90286,0.06369
2904.84268,0.06119
2902.78251,0.05917
2900.72234,0.05743
2898.66217,0.05585
2896.60200,0.05428
2894.54182,0.05259
2892.48165,0.05120
2890.42148,0.05027
2888.36131,0.04928
2886.30114,0.04821
2884.24096,0.04733
2882.18079,0.04660
2880.12062,0.04605
2878.06045,0.04591
2876.00028,0.04613
2873.94010,0.04635
2871.87993,0.04657
2869.81976,0.04704
2867.75959,0.04773
2865.69941,0.04873
2863.63924,0.05027
2861.57907,0.05225
2859.51890,0.05428
2857.45873,0.05617
2855.39855,0.05798
2853.33838,0.05943
2851.27821,0.05985
2849.21804,0.05855
2847.15787,0.05554
2845.09769,0.05186
2843.03752,0.04833
2840.97735,0.04505
2838.91718,0.04224
2836.85700,0.04009
2834.79683,0.03840
2832.73666,0.03705
2830.67649,0.03595
2828.61632,0.03493
2826.55614,0.03393
2824.49597,0.03316
2822.43580,0.03255
2820.37563,0.03174
2818.31546,0.03096
2816.25528,0.03055
2814.19511,0.03018
2812.13494,0.02954
2810.07477,0.02889
2808.01460,0.02850
2805.95442,0.02834
2803.89425,0.02816
2801.83408,0.02779
2799.77391,0.02725
2797.71373,0.02674
2795.65356,0.02663
2793.59339,0.02682
2791.53322,0.02687
2789.47305,0.02653
2787.41287,0.02593
2785.35270,0.02545
2783.29253,0.02519
2781.23236,0.02494
2779.17219,0.02477
2777.11201,0.02489
2775.05184,0.02500
2772.99167,0.02476
2770.93150,0.02446
2768.87133,0.02424
2766.81115,0.02387
2764.75098,0.02349
2762.69081,0.02333
2760.63064,0.02334
2758.57046,0.02332
2756.51029,0.02316
2754.45012,0.02297
2752.38995,0.02295
2750.32978,0.02302
2748.26960,0.02287
2746.20943,0.02266
2744.14926,0.02257
2742.08909,0.02252
2740.02892,0.02258
2737.96874,0.02261
2735.90857,0.02247
2733.84840,0.02242
2731.78823,0.02244
2729.72805,0.02230
2727.66788,0.02232
2725.60771,0.02259
2723.54754,0.02253
2721.48737,0.02204
2719.42719,0.02157
2717.36702,0.02129
2715.30685,0.02117
2713.24668,0.02118
2711.18651,0.02135
2709.12633,0.02147
2707.06616,0.02126
2705.00599,0.02096
2702.94582,0.02090
2700.88565,0.02110
2698.82547,0.02133
2696.76530,0.02131
2694.70513,0.02121
2692.64496,0.02124
2690.58478,0.02117
2688.52461,0.02096
2686.46444,0.02081
2684.40427,0.02076
2682.34410,0.02064
2680.28392,0.02040
2678.22375,0.02015
2676.16358,0.02004
2674.10341,0.02011
2672.04324,0.02023
2669.98306,0.02032
2667.92289,0.02030
2665.86272,0.02017
2663.80255,0.02002
2661.74238,0.01998
2659.68220,0.02006
2657.62203,0.02007
2655.56186,0.01986
2653.50169,0.01970
2651.44151,0.01981
2649.38134,0.01979
2647.32117,0.01937
2645.26100,0.01898
2643.20083,0.01892
2641.14065,0.01900
2639.08048,0.01901
2637.02031,0.01890
2634.96014,0.01870
2632.89997,0.01835
2630.83979,0.01795
2628.77962,0.01770
2626.71945,0.01758
2624.65928,0.01761
2622.59910,0.01780
2620.53893,0.01764
2618.47876,0.01718
2616.41859,0.01708
2614.35842,0.01729
2612.29824,0.01721
2610.23807,0.01661
2608.17790,0.01598
2606.11773,0.01599
2604.05756,0.01662
2601.99738,0.01717
2599.93721,0.01731
2597.87704,0.01711
2595.81687,0.01652
2593.75670,0.01577
2591.69652,0.01540
2589.63635,0.01541
2587.57618,0.01540
2585.51601,0.01540
2583.45583,0.01555
2581.39566,0.01570
2579.33549,0.01585
2577.27532,0.01584
2575.21515,0.01569
2573.15497,0.01557
2571.09480,0.01497
2569.03463,0.01406
2566.97446,0.01389
2564.91429,0.01460
2562.85411,0.01547
2560.79394,0.01551
2558.73377,0.01465
2556.67360,0.01404
2554.61342,0.01417
2552.55325,0.01449
2550.49308,0.01446
2548.43291,0.01408
2546.37274,0.01379
2544.31256,0.01376
2542.25239,0.01376
2540.19222,0.01373
2538.13205,0.01369
2536.07188,0.01368
2534.01170,0.01364
2531.95153,0.01339
2529.89136,0.01300
2527.83119,0.01262
2525.77102,0.01249
2523.71084,0.01295
2521.65067,0.01344
2519.59050,0.01310
2517.53033,0.01267
2515.47015,0.01299
2513.40998,0.01325
2511.34981,0.01294
2509.28964,0.01274
2507.22947,0.01311
2505.16929,0.01369
2503.10912,0.01364
2501.04895,0.01283
2498.98878,0.01221
2496.92861,0.01227
2494.86843,0.01244
2492.80826,0.01238
2490.74809,0.01204
2488.68792,0.01150
2486.62775,0.01147
2484.56757,0.01183
2482.50740,0.01180
2480.44723,0.01142
2478.38706,0.01123
2476.32688,0.01120
2474.26671,0.01115
2472.20654,0.01134
2470.14637,0.01165
2468.08620,0.01165
2466.02602,0.01157
2463.96585,0.01182
2461.90568,0.01239
2459.84551,0.01258
2457.78534,0.01173
2455.72516,0.01087
2453.66499,0.01102
2451.60482,0.01143
2449.54465,0.01127
2447.48447,0.01068
2445.42430,0.01058
2443.36413,0.01126
2441.30396,0.01201
2439.24379,0.01231
2437.18361,0.01208
2435.12344,0.01158
2433.06327,0.01095
2431.00310,0.01034
2428.94293,0.01025
2426.88275,0.01082
2424.82258,0.01113
2422.76241,0.01082
2420.70224,0.01071
2418.64207,0.01067
2416.58189,0.01017
2414.52172,0.00992
2412.46155,0.01022
2410.40138,0.01044
2408.34120,0.01055
2406.28103,0.01073
2404.22086,0.01062
2402.16069,0.01004
2400.10052,0.00978
2398.04034,0.01008
2395.98017,0.01030
2393.92000,0.01004
2391.85983,0.00974
2389.79966,0.00965
2387.73948,0.00955
2385.67931,0.00939
2383.61914,0.00936
2381.55897,0.00956
2379.49880,0.00979
2377.43862,0.00983
2375.37845,0.00976
2373.31828,0.00995
2371.25811,0.01023
2369.19793,0.00994
2367.13776,0.01008
2365.07759,0.01202
2363.01742,0.01366
2360.95725,0.01230
2358.89707,0.00907
2356.83690,0.00680
2354.77673,0.00660
2352.71656,0.00820
2350.65639,0.01077
2348.59621,0.01305
2346.53604,0.01402
2344.47587,0.01306
2342.41570,0.01150
2340.35552,0.01167
2338.29535,0.01289
2336.23518,0.01325
2334.17501,0.01264
2332.11484,0.01166
2330.05466,0.01068
2327.99449,0.00969
2325.93432,0.00868
2323.87415,0.00831
2321.81398,0.00895
2319.75380,0.00993
2317.69363,0.01028
2315.63346,0.00994
2313.57329,0.00981
2311.51312,0.01016
2309.45294,0.01040
2307.39277,0.01031
2305.33260,0.00992
2303.27243,0.00945
2301.21225,0.00921
2299.15208,0.00917
2297.09191,0.00928
2295.03174,0.00956
2292.97157,0.00955
2290.91139,0.00888
2288.85122,0.00821
2286.79105,0.00807
2284.73088,0.00817
2282.67071,0.00811
2280.61053,0.00776
2278.55036,0.00736
2276.49019,0.00750
2274.43002,0.00817
2272.36984,0.00857
2270.30967,0.00823
2268.24950,0.00774
2266.18933,0.00781
2264.12916,0.00809
2262.06898,0.00778
2260.00881,0.00714
2257.94864,0.00700
2255.88847,0.00735
2253.82830,0.00759
2251.76812,0.00755
2249.70795,0.00750
2247.64778,0.00729
2245.58761,0.00620
2243.52744,0.00557
2241.46726,0.00674
2239.40709,0.00781
2237.34692,0.00746
2235.28675,0.00689
2233.22657,0.00713
2231.16640,0.00798
2229.10623,0.00803
2227.04606,0.00655
2224.98589,0.00491
2222.92571,0.00500
2220.86554,0.00616
2218.80537,0.00631
2216.74520,0.00537
2214.68503,0.00440
2212.62485,0.00341
2210.56468,0.00339
2208.50451,0.00513
2206.44434,0.00636
2204.38417,0.00583
2202.32399,0.00518
2200.26382,0.00570
2198.20365,0.00623
2196.14348,0.00547
2194.08330,0.00434
2192.02313,0.00392
2189.96296,0.00386
2187.90279,0.00417
2185.84262,0.00413
2183.78244,0.00238
2181.72227,0.00047
2179.66210,0.00087
2177.60193,0.00326
2175.54176,0.00501
2173.48158,0.00427
2171.42141,0.00262
2169.36124,0.00314
2167.30107,0.00564
2165.24089,0.00710
2163.18072,0.00695
2161.12055,0.00583
2159.06038,0.00359
2157.00021,0.00215
2154.94003,0.00231
2152.87986,0.00302
2150.81969,0.00429
2148.75952,0.00557
2146.69935,0.00559
2144.63917,0.00455
2142.57900,0.00432
2140.51883,0.00494
2138.45866,0.00490
2136.39849,0.00506
2134.33831,0.00598
2132.27814,0.00632
2130.21797,0.00592
2128.15780,0.00584
2126.09762,0.00631
2124.03745,0.00641
2121.97728,0.00614
2119.91711,0.00659
2117.85694,0.00771
2115.79676,0.00771
2113.73659,0.00611
2111.67642,0.00492
2109.61625,0.00533
2107.55608,0.00596
2105.49590,0.00550
2103.43573,0.00522
2101.37556,0.00609
2099.31539,0.00609
2097.25521,0.00474
2095.19504,0.00404
2093.13487,0.00425
2091.07470,0.00468
2089.01453,0.00608
2086.95435,0.00780
2084.89418,0.00793
2082.83401,0.00690
2080.77384,0.00591
2078.71367,0.00469
2076.65349,0.00332
2074.59332,0.00294
2072.53315,0.00405
2070.47298,0.00552
2068.41281,0.00612
2066.35263,0.00605
2064.29246,0.00537
2062.23229,0.00457
2060.17212,0.00472
2058.11194,0.00500
2056.05177,0.00479
2053.99160,0.00546
2051.93143,0.00678
2049.87126,0.00722
2047.81108,0.00636
2045.75091,0.00490
2043.69074,0.00361
2041.63057,0.00276
2039.57040,0.00269
2037.51022,0.00249
2035.45005,0.00164
2033.38988,0.00182
2031.32971,0.00300
2029.26954,0.00321
2027.20936,0.00268
2025.14919,0.00350
2023.08902,0.00523
2021.02885,0.00562
2018.96867,0.00477
2016.90850,0.00337
2014.84833,0.00123
2012.78816,0.00000
2010.72799,0.00151
2008.66781,0.00443
2006.60764,0.00620
2004.54747,0.00649
2002.48730,0.00619
2000.42713,0.00577
1998.36695,0.00548
1996.30678,0.00506
1994.24661,0.00450
1992.18644,0.00438
1990.12626,0.00503
1988.06609,0.00535
1986.00592,0.00422
1983.94575,0.00329
1981.88558,0.00396
1979.82540,0.00423
1977.76523,0.00297
1975.70506,0.00177
1973.64489,0.00142
1971.58472,0.00156
1969.52454,0.00195
1967.46437,0.00239
1965.40420,0.00236
1963.34403,0.00179
1961.28386,0.00122
1959.22368,0.00155
1957.16351,0.00268
1955.10334,0.00305
1953.04317,0.00272
1950.98299,0.00250
1948.92282,0.00230
1946.86265,0.00226
1944.80248,0.00233
1942.74231,0.00222
1940.68213,0.00216
1938.62196,0.00199
1936.56179,0.00187
1934.50162,0.00205
1932.44145,0.00211
1930.38127,0.00202
1928.32110,0.00195
1926.26093,0.00183
1924.20076,0.00153
1922.14059,0.00146
1920.08041,0.00213
1918.02024,0.00302
1915.96007,0.00331
1913.89990,0.00295
1911.83972,0.00248
1909.77955,0.00234
1907.71938,0.00248
1905.65921,0.00286
1903.59904,0.00355
1901.53886,0.00417
1899.47869,0.00418
1897.41852,0.00355
1895.35835,0.00282
1893.29818,0.00243
1891.23800,0.00233
1889.17783,0.00238
1887.11766,0.00234
1885.05749,0.00204
1882.99731,0.00183
1880.93714,0.00193
1878.87697,0.00216
1876.81680,0.00233
1874.75663,0.00221
1872.69645,0.00170
1870.63628,0.00099
1868.57611,0.00054
1866.51594,0.00071
1864.45577,0.00126
1862.39559,0.00176
1860.33542,0.00191
1858.27525,0.00177
1856.21508,0.00179
1854.15491,0.00218
1852.09473,0.00261
1850.03456,0.00281
1847.97439,0.00271
1845.91422,0.00219
1843.85404,0.00153
1841.79387,0.00142
1839.73370,0.00167
1837.67353,0.00162
1835.61336,0.00127
1833.55318,0.00111
1831.49301,0.00115
1829.43284,0.00085
1827.37267,0.00034
1825.31250,0.00033
1823.25232,0.00083
1821.19215,0.00140
1819.13198,0.00169
1817.07181,0.00172
1815.01163,0.00177
1812.95146,0.00182
1810.89129,0.00172
1808.83112,0.00145
1806.77095,0.00108
1804.71077,0.00079
1802.65060,0.00065
1800.59043,0.00061
1798.53026,0.00068
1796.47009,0.00056
1794.40991,0.00019
1792.34974,-0.00002
1790.28957,0.00013
1788.22940,0.00034
1786.16923,0.00035
1784.10905,0.00018
1782.04888,0.00000
1779.98871,0.00003
1777.92854,0.00056
1775.86836,0.00113
1773.80819,0.00108
1771.74802,0.00046
1769.68785,0.00039
1767.62768,0.00124
1765.56750,0.00208
1763.50733,0.00246
1761.44716,0.00294
1759.38699,0.00404
1757.32682,0.00572
1755.26664,0.00761
1753.20647,0.00944
1751.14630,0.01154
1749.08613,0.01396
1747.02596,0.01599
1744.96578,0.01743
1742.90561,0.01854
1740.84544,0.01926
1738.78527,0.01954
1736.72509,0.01966
1734.66492,0.01965
1732.60475,0.01930
1730.54458,0.01902
1728.48441,0.01917
1726.42423,0.01949
1724.36406,0.01957
1722.30389,0.01951
1720.24372,0.01965
1718.18355,0.01987
1716.12337,0.01983
1714.06320,0.01965
1712.00303,0.01959
1709.94286,0.01960
1707.88268,0.01957
1705.82251,0.01932
1703.76234,0.01881
1701.70217,0.01838
1699.64200,0.01849
1697.58182,0.01921
1695.52165,0.02019
1693.46148,0.02101
1691.40131,0.02169
1689.34114,0.02267
1687.28096,0.02433
1685.22079,0.02706
1683.16062,0.03049
1681.10045,0.03298
1679.04028,0.03474
1676.98010,0.03642
1674.91993,0.03775
1672.85976,0.03822
1670.79959,0.03803
1668.73941,0.03767
1666.67924,0.03716
1664.61907,0.03636
1662.55890,0.03524
1660.49873,0.03412
1658.43855,0.03340
1656.37838,0.03313
1654.31821,0.03320
1652.25804,0.03339
1650.19787,0.03335
1648.13769,0.03310
1646.07752,0.03284
1644.01735,0.03265
1641.95718,0.03260
1639.89701,0.03288
1637.83683,0.03368
1635.77666,0.03498
1633.71649,0.03615
1631.65632,0.03674
1629.59614,0.03709
1627.53597,0.03753
1625.47580,0.03818
1623.41563,0.03885
1621.35546,0.03906
1619.29528,0.03884
1617.23511,0.03881
1615.17494,0.03955
1613.11477,0.04088
1611.05460,0.04252
1608.99442,0.04445
1606.93425,0.04622
1604.87408,0.04688
1602.81391,0.04597
1600.75373,0.04402
1598.69356,0.04192
1596.63339,0.04017
1594.57322,0.03876
1592.51305,0.03748
1590.45287,0.03628
1588.39270,0.03527
1586.33253,0.03444
1584.27236,0.03344
1582.21219,0.03221
1580.15201,0.03115
1578.09184,0.03040
1576.03167,0.02951
1573.97150,0.02837
1571.91133,0.02728
1569.85115,0.02611
1567.79098,0.02489
1565.73081,0.02386
1563.67064,0.02300
1561.61046,0.02205
1559.55029,0.02053
1557.49012,0.01898
1555.42995,0.01831
1553.36978,0.01765
1551.30960,0.01659
1549.24943,0.01535
1547.18926,0.01421
1545.12909,0.01322
1543.06892,0.01238
1541.00874,0.01161
1538.94857,0.01051
1536.88840,0.00949
1534.82823,0.00889
1532.76805,0.00853
1530.70788,0.00814
1528.64771,0.00774
1526.58754,0.00757
1524.52737,0.00775
1522.46719,0.00852
1520.40702,0.01014
1518.34685,0.01213
1516.28668,0.01382
1514.22651,0.01443
1512.16633,0.01380
1510.10616,0.01257
1508.04599,0.01084
1505.98582,0.00849
1503.92565,0.00678
1501.86547,0.00590
1499.80530,0.00505
1497.74513,0.00374
1495.68496,0.00244
1493.62478,0.00183
1491.56461,0.00151
1489.50444,0.00088
1487.44427,0.00018
1485.38410,0.00000
1483.32392,0.00040
1481.26375,0.00111
1479.20358,0.00193
1477.14341,0.00281
1475.08324,0.00413
1473.02306,0.00660
1470.96289,0.00990
1468.90272,0.01279
1466.84255,0.01521
1464.78238,0.01742
1462.72220,0.01898
1460.66203,0.01975
1458.60186,0.02065
1456.54169,0.02238
1454.48151,0.02392
1452.42134,0.02465
1450.36117,0.02514
1448.30100,0.02594
1446.24083,0.02708
1444.18065,0.02831
1442.12048,0.02937
1440.06031,0.03020
1438.00014,0.03095
1435.93997,0.03169
1433.87979,0.03229
1431.81962,0.03279
1429.75945,0.03319
1427.69928,0.03329
1425.63910,0.03316
1423.57893,0.03319
1421.51876,0.03353
1419.45859,0.03405
1417.39842,0.03438
1415.33824,0.03429
1413.27807,0.03383
1411.21790,0.03309
1409.15773,0.03220
1407.09756,0.03122
1405.03738,0.03012
1402.97721,0.02906
1400.91704,0.02818
1398.85687,0.02732
1396.79670,0.02637
1394.73652,0.02547
1392.67635,0.02483
1390.61618,0.02458
1388.55601,0.02483
1386.49583,0.02557
1384.43566,0.02646
1382.37549,0.02730
1380.31532,0.02808
1378.25515,0.02874
1376.19497,0.02927
1374.13480,0.02969
1372.07463,0.02997
1370.01446,0.03012
1367.95429,0.03017
1365.89411,0.03007
1363.83394,0.02965
1361.77377,0.02888
1359.71360,0.02805
1357.65343,0.02743
1355.59325,0.02713
1353.53308,0.02710
1351.47291,0.02712
1349.41274,0.02712
1347.35256,0.02713
1345.29239,0.02697
1343.23222,0.02665
1341.17205,0.02643
1339.11188,0.02642
1337.05170,0.02647
1334.99153,0.02646
1332.93136,0.02642
1330.87119,0.02645
1328.81102,0.02655
1326.75084,0.02668
1324.69067,0.02694
1322.63050,0.02724
1320.57033,0.02728
1318.51015,0.02698
1316.44998,0.02662
1314.38981,0.02631
1312.32964,0.02606
1310.26947,0.02578
1308.20929,0.02519
1306.14912,0.02429
1304.08895,0.02335
1302.02878,0.02247
1299.96861,0.02171
1297.90843,0.02131
1295.84826,0.02122
1293.78809,0.02125
1291.72792,0.02136
1289.66775,0.02161
1287.60757,0.02205
1285.54740,0.02256
1283.48723,0.02294
1281.42706,0.02312
1279.36688,0.02318
1277.30671,0.02323
1275.24654,0.02337
1273.18637,0.02361
1271.12620,0.02403
1269.06602,0.02476
1267.00585,0.02582
1264.94568,0.02702
1262.88551,0.02803
1260.82534,0.02868
1258.76516,0.02925
1256.70499,0.03006
1254.64482,0.03104
1252.58465,0.03196
1250.52447,0.03270
1248.46430,0.03324
1246.40413,0.03351
1244.34396,0.03344
1242.28379,0.03324
1240.22361,0.03307
1238.16344,0.03288
1236.10327,0.03260
1234.04310,0.03208
1231.98293,0.03120
1229.92275,0.03020
1227.86258,0.02916
1225.80241,0.02780
1223.74224,0.02612
1221.68207,0.02441
1219.62189,0.02285
1217.56172,0.02128
1215.50155,0.01959
1213.44138,0.01805
1211.38120,0.01673
1209.32103,0.01532
1207.26086,0.01361
1205.20069,0.01190
1203.14052,0.01045
1201.08034,0.00903
1199.02017,0.00719
1196.96000,0.00492
1194.89983,0.00275
1192.83966,0.00133
1190.77948,0.00071
1188.71931,0.00048
1186.65914,0.00020
1184.59897,0.00000
1182.53880,0.00015
1180.47862,0.00077
1178.41845,0.00179
1176.35828,0.00344
1174.29811,0.00588
1172.23793,0.00888
1170.17776,0.01206
1168.11759,0.01476
1166.05742,0.01621
1163.99725,0.01666
1161.93707,0.01702
1159.87690,0.01769
1157.81673,0.01869
1155.75656,0.01975
1153.69639,0.02064
1151.63621,0.02157
1149.57604,0.02271
1147.51587,0.02409
1145.45570,0.02551
1143.39552,0.02689
1141.33535,0.02810
1139.27518,0.02901
1137.21501,0.02978
1135.15484,0.03046
1133.09466,0.03130
1131.03449,0.03238
1128.97432,0.03355
1126.91415,0.03493
1124.85398,0.03659
1122.79380,0.03832
1120.73363,0.03998
1118.67346,0.04156
1116.61329,0.04315
1114.55312,0.04471
1112.49294,0.04612
1110.43277,0.04745
1108.37260,0.04881
1106.31243,0.05024
1104.25225,0.05172
1102.19208,0.05330
1100.13191,0.05530
1098.07174,0.05789
1096.01157,0.06060
1093.95139,0.06308
1091.89122,0.06546
1089.83105,0.06796
1087.77088,0.07052
1085.71071,0.07254
1083.65053,0.07430
1081.59036,0.07677
1079.53019,0.07967
1077.47002,0.08243
1075.40985,0.08523
1073.34967,0.08821
1071.28950,0.09106
1069.22933,0.09348
1067.16916,0.09557
1065.10898,0.09724
1063.04881,0.09849
1060.98864,0.10003
1058.92847,0.10207
1056.86830,0.10415
1054.80812,0.10644
1052.74795,0.10907
1050.68778,0.11182
1048.62761,0.11475
1046.56744,0.11800
1044.50726,0.12150
1042.44709,0.12473
1040.38692,0.12735
1038.32675,0.12961
1036.26657,0.13145
1034.20640,0.13255
1032.14623,0.13300
1030.08606,0.13312
1028.02589,0.13303
1025.96571,0.13283
1023.90554,0.13254
1021.84537,0.13202
1019.78520,0.13119
1017.72503,0.13045
1015.66485,0.13043
1013.60468,0.13094
1011.54451,0.13104
1009.48434,0.13081
1007.42417,0.13086
1005.36399,0.13091
1003.30382,0.13041
1001.24365,0.12931
999.18348,0.12776
997.12330,0.12592
995.06313,0.12372
993.00296,0.12127
990.94279,0.11905
988.88262,0.11715
986.82244,0.11523
984.76227,0.11329
982.70210,0.11120
980.64193,0.10877
978.58176,0.10654
976.52158,0.10492
974.46141,0.10326
972.40124,0.10103
970.34107,0.09859
968.28089,0.09638
966.22072,0.09448
964.16055,0.09262
962.10038,0.09043
960.04021,0.08807
957.98003,0.08591
955.91986,0.08406
953.85969,0.08246
951.79952,0.08076
949.73935,0.07895
947.67917,0.07705
945.61900,0.07463
943.55883,0.07170
941.49866,0.06835
939.43849,0.06446
937.37831,0.06044
935.31814,0.05649
933.25797,0.05231
931.19780,0.04811
929.13762,0.04443
927.07745,0.04139
925.01728,0.03861
922.95711,0.03566
920.89694,0.03289
918.83676,0.03074
916.77659,0.02895
914.71642,0.02732
912.65625,0.02575
910.59608,0.02397
908.53590,0.02190
906.47573,0.01970
904.41556,0.01806
902.35539,0.01759
900.29522,0.01778
898.23504,0.01790
896.17487,0.01814
894.11470,0.01873
892.05453,0.01924
889.99435,0.01924
887.93418,0.01858
885.87401,0.01753
883.81384,0.01638
881.75367,0.01508
879.69349,0.01366
877.63332,0.01208
875.57315,0.01034
873.51298,0.00928
871.45281,0.00931
869.39263,0.00976
867.33246,0.00982
865.27229,0.00905
863.21212,0.00766
861.15194,0.00647
859.09177,0.00638
857.03160,0.00718
854.97143,0.00776
852.91126,0.00778
850.85108,0.00753
848.79091,0.00720
846.73074,0.00688
844.67057,0.00633
842.61040,0.00608
840.55022,0.00646
838.49005,0.00654
836.42988,0.00626
834.36971,0.00579
832.30954,0.00526
830.24936,0.00511
828.18919,0.00503
826.12902,0.00458
824.06885,0.00387
822.00867,0.00348
819.94850,0.00357
817.88833,0.00335
815.82816,0.00240
813.76799,0.00119
811.70781,0.00035
809.64764,0.00009
807.58747,0.00059
805.52730,0.00201
803.46713,0.00322
801.40695,0.00298
799.34678,0.00200
797.28661,0.00131
795.22644,0.00084
793.16627,0.00050
791.10609,0.00033
789.04592,0.00000
786.98575,-0.00027
784.92558,-0.00013
782.86540,-0.00021
780.80523,-0.00052
778.74506,-0.00047
776.68489,-0.00001
774.62472,0.00065
772.56454,0.00106
770.50437,0.00078
768.44420,0.00003
766.38403,-0.00045
764.32386,-0.00058
762.26368,-0.00093
760.20351,-0.00077
758.14334,0.00062
756.08317,0.00172
754.02299,0.00168
751.96282,0.00169
749.90265,0.00191
747.84248,0.00154
745.78231,0.00062
743.72213,0.00000
741.66196,-0.00027
739.60179,-0.00016
737.54162,-0.00038
735.48145,-0.00120
733.42127,-0.00137
731.36110,0.00023
729.30093,0.00160
727.24076,0.00109
725.18059,0.00047
723.12041,0.00059
721.06024,0.00103
719.00007,0.00205
716.93990,0.00341
714.87972,0.00411
712.81955,0.00408
710.75938,0.00435
708.69921,0.00533
706.63904,0.00636
704.57886,0.00764
702.51869,0.00949
700.45852,0.01050
698.39835,0.01000
696.33818,0.00918
694.27800,0.00855
692.21783,0.00813
690.15766,0.00763
688.09749,0.00615
686.03731,0.00361
683.97714,0.00163
681.91697,0.00157
679.85680,0.00209
677.79663,0.00189
675.73645,0.00192
673.67628,0.00220
671.61611,0.00118
669.55594,-0.00068
667.49577,-0.00054
665.43559,0.00141
663.37542,0.00279
661.31525,0.00353
659.25508,0.00407
657.19491,0.00404
655.13473,0.00366
653.07456,0.00291
651.01439,0.00143
648.95422,0.00000
646.89404,-0.00056
644.83387,0.00009
642.77370,0.00212
640.71353,0.00552
638.65336,0.00833
636.59318,0.00792
634.53301,0.00494
632.47284,0.00251
630.41267,0.00158
628.35250,0.00140
626.29232,0.00138
624.23215,-0.00047
622.17198,-0.00243
620.11181,0.00037
618.05164,0.00576
615.99146,0.00770
613.93129,0.00561
611.87112,0.00330
609.81095,0.00188
607.75077,0.00098
605.69060,0.00046
603.63043,-0.00211
601.57026,-0.00385
599.51009,0.00000
