3996.73391,0.00084
3994.67373,0.00084
3992.61356,0.00104
3990.55339,0.00112
3988.49322,0.00075
3986.43305,0.00024
3984.37287,0.00000
3982.31270,0.00021
3980.25253,0.00082
3978.19236,0.00141
3976.13219,0.00172
3974.07201,0.00171
3972.01184,0.00135
3969.95167,0.00094
3967.89150,0.00081
3965.83133,0.00069
3963.77115,0.00039
3961.71098,0.00024
3959.65081,0.00026
3957.59064,0.00034
3955.53046,0.00064
3953.47029,0.00095
3951.41012,0.00085
3949.34995,0.00056
3947.28978,0.00055
3945.22960,0.00084
3943.16943,0.00111
3941.10926,0.00131
3939.04909,0.00165
3936.98892,0.00199
3934.92874,0.00191
3932.86857,0.00136
3930.80840,0.00087
3928.74823,0.00095
3926.68805,0.00130
3924.62788,0.00123
3922.56771,0.00079
3920.50754,0.00060
3918.44737,0.00070
3916.38719,0.00067
3914.32702,0.00047
3912.26685,0.00051
3910.20668,0.00085
3908.14651,0.00119
3906.08633,0.00119
3904.02616,0.00066
3901.96599,0.00000
3899.90582,0.00003
3897.84565,0.00074
3895.78547,0.00131
3893.72530,0.00129
3891.66513,0.00089
3889.60496,0.00055
3887.54478,0.00043
3885.48461,0.00040
3883.42444,0.00040
3881.36427,0.00055
3879.30410,0.00101
3877.24392,0.00154
3875.18375,0.00162
3873.12358,0.00131
3871.06341,0.00104
3869.00324,0.00083
3866.94306,0.00075
3864.88289,0.00100
3862.82272,0.00141
3860.76255,0.00166
3858.70237,0.00179
3856.64220,0.00197
3854.58203,0.00230
3852.52186,0.00247
3850.46169,0.00197
3848.40151,0.00141
3846.34134,0.00144
3844.28117,0.00182
3842.22100,0.00207
3840.16083,0.00221
3838.10065,0.00231
3836.04048,0.00216
3833.98031,0.00188
3831.92014,0.00177
3829.85997,0.00200
3827.79979,0.00232
3825.73962,0.00222
3823.67945,0.00159
3821.61928,0.00085
3819.55910,0.00084
3817.49893,0.00138
3815.43876,0.00136
3813.37859,0.00088
3811.31842,0.00064
3809.25824,0.00080
3807.19807,0.00121
3805.13790,0.00158
3803.07773,0.00179
3801.01756,0.00183
3798.95738,0.00167
3796.89721,0.00148
3794.83704,0.00131
3792.77687,0.00120
3790.71670,0.00122
3788.65652,0.00128
3786.59635,0.00112
3784.53618,0.00080
3782.47601,0.00080
3780.41583,0.00106
3778.35566,0.00092
3776.29549,0.00046
3774.23532,0.00037
3772.17515,0.00057
3770.11497,0.00048
3768.05480,0.00011
3765.99463,0.00000
3763.93446,0.00022
3761.87429,0.00037
3759.81411,0.00029
3757.75394,0.00026
3755.69377,0.00068
3753.63360,0.00157
3751.57342,0.00213
3749.51325,0.00173
3747.45308,0.00147
3745.39291,0.00180
3743.33274,0.00180
3741.27256,0.00153
3739.21239,0.00177
3737.15222,0.00224
3735.09205,0.00197
3733.03188,0.00110
3730.97170,0.00062
3728.91153,0.00041
3726.85136,0.00019
3724.79119,0.00029
3722.73102,0.00052
3720.67084,0.00049
3718.61067,0.00068
3716.55050,0.00138
3714.49033,0.00185
3712.43015,0.00150
3710.36998,0.00098
3708.30981,0.00092
3706.24964,0.00084
3704.18947,0.00046
3702.12929,0.00008
3700.06912,0.00000
3698.00895,0.00008
3695.94878,0.00025
3693.88861,0.00062
3691.82843,0.00086
3689.76826,0.00054
3687.70809,0.00008
3685.64792,0.00000
3683.58775,0.00015
3681.52757,0.00024
3679.46740,0.00028
3677.40723,0.00027
3675.34706,0.00032
3673.28688,0.00085
3671.22671,0.00168
3669.16654,0.00199
3667.10637,0.00187
3665.04620,0.00196
3662.98602,0.00216
3660.92585,0.00213
3658.86568,0.00163
3656.80551,0.00101
3654.74534,0.00133
3652.68516,0.00255
3650.62499,0.00345
3648.56482,0.00326
3646.50465,0.00277
3644.44447,0.00271
3642.38430,0.00282
3640.32413,0.00298
3638.26396,0.00329
3636.20379,0.00384
3634.14361,0.00445
3632.08344,0.00477
3630.02327,0.00468
3627.96310,0.00443
3625.90293,0.00428
3623.84275,0.00427
3621.78258,0.00449
3619.72241,0.00486
3617.66224,0.00517
3615.60207,0.00571
3613.54189,0.00645
3611.48172,0.00696
3609.42155,0.00743
3607.36138,0.00780
3605.30120,0.00783
3603.24103,0.00800
3601.18086,0.00841
3599.12069,0.00866
3597.06052,0.00865
3595.00034,0.00850
3592.94017,0.00855
3590.88000,0.00898
3588.81983,0.00957
3586.75966,0.01010
3584.69948,0.01054
3582.63931,0.01101
3580.57914,0.01127
3578.51897,0.01147
3576.45879,0.01195
3574.39862,0.01233
3572.33845,0.01247
3570.27828,0.01277
3568.21811,0.01327
3566.15793,0.01383
3564.09776,0.01441
3562.03759,0.01497
3559.97742,0.01540
3557.91725,0.01564
3555.85707,0.01595
3553.79690,0.01644
3551.73673,0.01678
3549.67656,0.01703
3547.61639,0.01773
3545.55621,0.01878
3543.49604,0.01950
3541.43587,0.01971
3539.37570,0.01976
3537.31552,0.01987
3535.25535,0.02024
3533.19518,0.02101
3531.13501,0.02190
3529.07484,0.02246
3527.01466,0.02270
3524.95449,0.02299
3522.89432,0.02338
3520.83415,0.02377
3518.77398,0.02416
3516.71380,0.02456
3514.65363,0.02508
3512.59346,0.02582
3510.53329,0.02671
3508.47312,0.02740
3506.41294,0.02780
3504.35277,0.02813
3502.29260,0.02849
3500.23243,0.02900
3498.17225,0.02948
3496.11208,0.02950
3494.05191,0.02940
3491.99174,0.02999
3489.93157,0.03107
3487.87139,0.03170
3485.81122,0.03189
3483.75105,0.03256
3481.69088,0.03362
3479.63071,0.03422
3477.57053,0.03439
3475.51036,0.03438
3473.45019,0.03441
3471.39002,0.03513
3469.32984,0.03640
3467.26967,0.03736
3465.20950,0.03794
3463.14933,0.03837
3461.08916,0.03862
3459.02898,0.03880
3456.96881,0.03932
3454.90864,0.04020
3452.84847,0.04085
3450.78830,0.04113
3448.72812,0.04146
3446.66795,0.04194
3444.60778,0.04233
3442.54761,0.04240
3440.48744,0.04202
3438.42726,0.04183
3436.36709,0.04265
3434.30692,0.04376
3432.24675,0.04411
3430.18657,0.04451
3428.12640,0.04547
3426.06623,0.04604
3424.00606,0.04616
3421.94589,0.04631
3419.88571,0.04651
3417.82554,0.04696
3415.76537,0.04770
3413.70520,0.04853
3411.64503,0.04921
3409.58485,0.04956
3407.52468,0.04967
3405.46451,0.04983
3403.40434,0.05006
3401.34416,0.05038
3399.28399,0.05070
3397.22382,0.05108
3395.16365,0.05144
3393.10348,0.05149
3391.04330,0.05152
3388.98313,0.05183
3386.92296,0.05202
3384.86279,0.05206
3382.80262,0.05243
3380.74244,0.05296
3378.68227,0.05320
3376.62210,0.05339
3374.56193,0.05382
3372.50176,0.05436
3370.44158,0.05478
3368.38141,0.05496
3366.32124,0.05494
3364.26107,0.05499
3362.20089,0.05523
3360.14072,0.05534
3358.08055,0.05516
3356.02038,0.05515
3353.96021,0.05564
3351.90003,0.05612
3349.83986,0.05629
3347.77969,0.05646
3345.71952,0.05668
3343.65935,0.05676
3341.59917,0.05683
3339.53900,0.05727
3337.47883,0.05799
3335.41866,0.05836
3333.35849,0.05808
3331.29831,0.05782
3329.23814,0.05804
3327.17797,0.05813
3325.11780,0.05782
3323.05762,0.05762
3320.99745,0.05768
3318.93728,0.05784
3316.87711,0.05790
3314.81694,0.05785
3312.75676,0.05768
3310.69659,0.05742
3308.63642,0.05737
3306.57625,0.05766
3304.51608,0.05803
3302.45590,0.05830
3300.39573,0.05842
3298.33556,0.05831
3296.27539,0.05805
3294.21521,0.05808
3292.15504,0.05845
3290.09487,0.05869
3288.03470,0.05870
3285.97453,0.05873
3283.91435,0.05882
3281.85418,0.05871
3279.79401,0.05857
3277.73384,0.05880
3275.67367,0.05903
3273.61349,0.05897
3271.55332,0.05902
3269.49315,0.05918
3267.43298,0.05902
3265.37281,0.05856
3263.31263,0.05815
3261.25246,0.05805
3259.19229,0.05801
3257.13212,0.05781
3255.07194,0.05774
3253.01177,0.05800
3250.95160,0.05791
3248.89143,0.05731
3246.83126,0.05704
3244.77108,0.05709
3242.71091,0.05707
3240.65074,0.05717
3238.59057,0.05710
3236.53040,0.05660
3234.47022,0.05619
3232.41005,0.05623
3230.34988,0.05650
3228.28971,0.05654
3226.22954,0.05616
3224.16936,0.05569
3222.10919,0.05536
3220.04902,0.05515
3217.98885,0.05510
3215.92867,0.05487
3213.86850,0.05410
3211.80833,0.05357
3209.74816,0.05380
3207.68799,0.05401
3205.62781,0.05384
3203.56764,0.05376
3201.50747,0.05374
3199.44730,0.05342
3197.38713,0.05292
3195.32695,0.05243
3193.26678,0.05194
3191.20661,0.05157
3189.14644,0.05123
3187.08626,0.05091
3185.02609,0.05096
3182.96592,0.05128
3180.90575,0.05134
3178.84558,0.05102
3176.78540,0.05064
3174.72523,0.05030
3172.66506,0.04968
3170.60489,0.04895
3168.54472,0.04879
3166.48454,0.04910
3164.42437,0.04906
3162.36420,0.04857
3160.30403,0.04794
3158.24386,0.04720
3156.18368,0.04668
3154.12351,0.04646
3152.06334,0.04616
3150.00317,0.04588
3147.94299,0.04574
3145.88282,0.04531
3143.82265,0.04467
3141.76248,0.04425
3139.70231,0.04406
3137.64213,0.04395
3135.58196,0.04378
3133.52179,0.04331
3131.46162,0.04284
3129.40145,0.04265
3127.34127,0.04226
3125.28110,0.04168
3123.22093,0.04139
3121.16076,0.04142
3119.10058,0.04158
3117.04041,0.04156
3114.98024,0.04102
3112.92007,0.04023
3110.85990,0.03965
3108.79972,0.03927
3106.73955,0.03917
3104.67938,0.03925
3102.61921,0.03901
3100.55904,0.03859
3098.49886,0.03838
3096.43869,0.03803
3094.37852,0.03746
3092.31835,0.03701
3090.25818,0.03656
3088.19800,0.03598
3086.13783,0.03564
3084.07766,0.03557
3082.01749,0.03545
3079.95731,0.03523
3077.89714,0.03480
3075.83697,0.03415
3073.77680,0.03365
3071.71663,0.03338
3069.65645,0.03313
3067.59628,0.03302
3065.53611,0.03307
3063.47594,0.03290
3061.41577,0.03243
3059.35559,0.03197
3057.29542,0.03167
3055.23525,0.03153
3053.17508,0.03142
3051.11491,0.03106
3049.05473,0.03036
3046.99456,0.02978
3044.93439,0.02968
3042.87422,0.02981
3040.81404,0.02973
3038.75387,0.02925
3036.69370,0.02862
3034.63353,0.02825
3032.57336,0.02825
3030.51318,0.02840
3028.45301,0.02840
3026.39284,0.02795
3024.33267,0.02739
3022.27250,0.02717
3020.21232,0.02706
3018.15215,0.02712
3016.09198,0.02729
3014.03181,0.02700
3011.97163,0.02645
3009.91146,0.02626
3007.85129,0.02620
3005.79112,0.02586
3003.73095,0.02542
3001.67077,0.02520
2999.61060,0.02513
2997.55043,0.02499
2995.49026,0.02506
2993.43009,0.02539
2991.36991,0.02530
2989.30974,0.02488
2987.24957,0.02489
2985.18940,0.02531
2983.12923,0.02573
2981.06905,0.02597
2979.00888,0.02627
2976.94871,0.02676
2974.88854,0.02728
2972.82836,0.02806
2970.76819,0.02914
2968.70802,0.03013
2966.64785,0.03131
2964.58768,0.03305
2962.52750,0.03503
2960.46733,0.03690
2958.40716,0.03862
2956.34699,0.04033
2954.28682,0.04238
2952.22664,0.04458
2950.16647,0.04664
2948.10630,0.04890
2946.04613,0.05129
2943.98596,0.05343
2941.92578,0.05561
2939.86561,0.05819
2937.80544,0.06115
2935.74527,0.06417
2933.68509,0.06702
2931.62492,0.06985
2929.56475,0.07256
2927.50458,0.07460
2925.44441,0.07595
2923.38423,0.07690
2921.32406,0.07743
2919.26389,0.07746
2917.20372,0.07654
2915.14355,0.07443
2913.08337,0.07176
2911.02320,0.06901
2908.96303,0.06608
2906.90286,0.06319
2904.84268,0.06076
2902.78251,0.05879
2900.72234,0.05701
2898.66217,0.05543
2896.60200,0.05392
2894.54182,0.05227
2892.48165,0.05085
2890.42148,0.04989
2888.36131,0.04897
2886.30114,0.04791
2884.24096,0.04689
2882.18079,0.04593
2880.12062,0.04524
2878.06045,0.04512
2876.00028,0.04555
2873.94010,0.04603
2871.87993,0.04640
2869.81976,0.04704
2867.75959,0.04785
2865.69941,0.04863
2863.63924,0.04985
2861.57907,0.05167
2859.51890,0.05361
2857.45873,0.05552
2855.39855,0.05747
2853.33838,0.05899
2851.27821,0.05946
2849.21804,0.05838
2847.15787,0.05549
2845.09769,0.05161
2843.03752,0.04794
2840.97735,0.04479
2838.91718,0.04206
2836.85700,0.03980
2834.79683,0.03800
2832.73666,0.03656
2830.67649,0.03542
2828.61632,0.03446
2826.55614,0.03363
2824.49597,0.03297
2822.43580,0.03226
2820.37563,0.03131
2818.31546,0.03047
2816.25528,0.03002
2814.19511,0.02983
2812.13494,0.02948
2810.07477,0.02883
2808.01460,0.02818
2805.95442,0.02790
2803.89425,0.02783
2801.83408,0.02751
2799.77391,0.02693
2797.71373,0.02636
2795.65356,0.02612
2793.59339,0.02619
2791.53322,0.02621
2789.47305,0.02605
2787.41287,0.02577
2785.35270,0.02541
2783.29253,0.02506
2781.23236,0.02463
2779.17219,0.02424
2777.11201,0.02417
2775.05184,0.02420
2772.99167,0.02404
2770.93150,0.02389
2768.87133,0.02382
2766.81115,0.02360
2764.75098,0.02325
2762.69081,0.02298
2760.63064,0.02301
2758.57046,0.02316
2756.51029,0.02298
2754.45012,0.02257
2752.38995,0.02249
2750.32978,0.02271
2748.26960,0.02277
2746.20943,0.02253
2744.14926,0.02224
2742.08909,0.02214
2740.02892,0.02220
2737.96874,0.02217
2735.90857,0.02206
2733.84840,0.02203
2731.78823,0.02200
2729.72805,0.02192
2727.66788,0.02205
2725.60771,0.02238
2723.54754,0.02244
2721.48737,0.02210
2719.42719,0.02169
2717.36702,0.02132
2715.30685,0.02113
2713.24668,0.02118
2711.18651,0.02128
2709.12633,0.02135
2707.06616,0.02129
2705.00599,0.02110
2702.94582,0.02098
2700.88565,0.02102
2698.82547,0.02114
2696.76530,0.02115
2694.70513,0.02110
2692.64496,0.02113
2690.58478,0.02104
2688.52461,0.02080
2686.46444,0.02063
2684.40427,0.02058
2682.34410,0.02046
2680.28392,0.02033
2678.22375,0.02027
2676.16358,0.02020
2674.10341,0.02016
2672.04324,0.02021
2669.98306,0.02028
2667.92289,0.02022
2665.86272,0.01999
2663.80255,0.01970
2661.74238,0.01955
2659.68220,0.01965
2657.62203,0.01975
2655.56186,0.01962
2653.50169,0.01951
2651.44151,0.01962
2649.38134,0.01960
2647.32117,0.01918
2645.26100,0.01869
2643.20083,0.01841
2641.14065,0.01833
2639.08048,0.01835
2637.02031,0.01844
2634.96014,0.01843
2632.89997,0.01812
2630.83979,0.01777
2628.77962,0.01764
2626.71945,0.01758
2624.65928,0.01750
2622.59910,0.01758
2620.53893,0.01761
2618.47876,0.01736
2616.41859,0.01721
2614.35842,0.01732
2612.29824,0.01712
2610.23807,0.01632
2608.17790,0.01570
2606.11773,0.01589
2604.05756,0.01646
2601.99738,0.01671
2599.93721,0.01657
2597.87704,0.01637
2595.81687,0.01601
2593.75670,0.01532
2591.69652,0.01488
2589.63635,0.01497
2587.57618,0.01503
2585.51601,0.01500
2583.45583,0.01514
2581.39566,0.01544
2579.33549,0.01554
2577.27532,0.01505
2575.21515,0.01463
2573.15497,0.01468
2571.09480,0.01445
2569.03463,0.01399
2566.97446,0.01403
2564.91429,0.01463
2562.85411,0.01531
2560.79394,0.01528
2558.73377,0.01449
2556.67360,0.01393
2554.61342,0.01412
2552.55325,0.01469
2550.49308,0.01468
2548.43291,0.01374
2546.37274,0.01288
2544.31256,0.01305
2542.25239,0.01360
2540.19222,0.01377
2538.13205,0.01369
2536.07188,0.01366
2534.01170,0.01356
2531.95153,0.01319
2529.89136,0.01287
2527.83119,0.01261
2525.77102,0.01237
2523.71084,0.01267
2521.65067,0.01311
2519.59050,0.01269
2517.53033,0.01211
2515.47015,0.01256
2513.40998,0.01332
2511.34981,0.01333
2509.28964,0.01280
2507.22947,0.01267
2505.16929,0.01332
2503.10912,0.01374
2501.04895,0.01314
2498.98878,0.01246
2496.92861,0.01255
2494.86843,0.01260
2492.80826,0.01221
2490.74809,0.01188
2488.68792,0.01172
2486.62775,0.01175
2484.56757,0.01187
2482.50740,0.01179
2480.44723,0.01153
2478.38706,0.01124
2476.32688,0.01105
2474.26671,0.01083
2472.20654,0.01089
2470.14637,0.01132
2468.08620,0.01162
2466.02602,0.01174
2463.96585,0.01186
2461.90568,0.01225
2459.84551,0.01246
2457.78534,0.01165
2455.72516,0.01080
2453.66499,0.01089
2451.60482,0.01116
2449.54465,0.01104
2447.48447,0.01073
2445.42430,0.01073
2443.36413,0.01110
2441.30396,0.01150
2439.24379,0.01153
2437.18361,0.01115
2435.12344,0.01082
2433.06327,0.01029
2431.00310,0.00949
2428.94293,0.00946
2426.88275,0.01016
2424.82258,0.01049
2422.76241,0.01036
2420.70224,0.01036
2418.64207,0.01026
2416.58189,0.00976
2414.52172,0.00958
2412.46155,0.00991
2410.40138,0.01006
2408.34120,0.00992
2406.28103,0.01010
2404.22086,0.01020
2402.16069,0.00974
2400.10052,0.00959
2398.04034,0.00980
2395.98017,0.00984
2393.92000,0.00964
2391.85983,0.00961
2389.79966,0.00976
2387.73948,0.00985
2385.67931,0.00970
2383.61914,0.00942
2381.55897,0.00925
2379.49880,0.00911
2377.43862,0.00879
2375.37845,0.00864
2373.31828,0.00927
2371.25811,0.00980
2369.19793,0.00914
2367.13776,0.00904
2365.07759,0.01066
2363.01742,0.01170
2360.95725,0.01132
2358.89707,0.00939
2356.83690,0.00744
2354.77673,0.00635
2352.71656,0.00664
2350.65639,0.00926
2348.59621,0.01161
2346.53604,0.01102
2344.47587,0.01001
2342.41570,0.00902
2340.35552,0.00900
2338.29535,0.00993
2336.23518,0.01027
2334.17501,0.01025
2332.11484,0.01007
2330.05466,0.00955
2327.99449,0.00852
2325.93432,0.00775
2323.87415,0.00760
2321.81398,0.00816
2319.75380,0.00883
2317.69363,0.00941
2315.63346,0.00921
2313.57329,0.00871
2311.51312,0.00856
2309.45294,0.00864
2307.39277,0.00881
2305.33260,0.00903
2303.27243,0.00916
2301.21225,0.00922
2299.15208,0.00915
2297.09191,0.00872
2295.03174,0.00833
2292.97157,0.00827
2290.91139,0.00806
2288.85122,0.00760
2286.79105,0.00752
2284.73088,0.00791
2282.67071,0.00819
2280.61053,0.00795
2278.55036,0.00745
2276.49019,0.00721
2274.43002,0.00738
2272.36984,0.00746
2270.30967,0.00722
2268.24950,0.00705
2266.18933,0.00718
2264.12916,0.00746
2262.06898,0.00750
2260.00881,0.00716
2257.94864,0.00681
2255.88847,0.00691
2253.82830,0.00743
2251.76812,0.00787
2249.70795,0.00783
2247.64778,0.00725
2245.58761,0.00601
2243.52744,0.00511
2241.46726,0.00594
2239.40709,0.00682
2237.34692,0.00633
2235.28675,0.00592
2233.22657,0.00665
2231.16640,0.00801
2229.10623,0.00857
2227.04606,0.00742
2224.98589,0.00585
2222.92571,0.00558
2220.86554,0.00587
2218.80537,0.00547
2216.74520,0.00499
2214.68503,0.00475
2212.62485,0.00409
2210.56468,0.00437
2208.50451,0.00631
2206.44434,0.00772
2204.38417,0.00739
2202.32399,0.00604
2200.26382,0.00566
2198.20365,0.00623
2196.14348,0.00556
2194.08330,0.00429
2192.02313,0.00376
2189.96296,0.00325
2187.90279,0.00296
2185.84262,0.00310
2183.78244,0.00277
2181.72227,0.00258
2179.66210,0.00318
2177.60193,0.00407
2175.54176,0.00400
2173.48158,0.00258
2171.42141,0.00198
2169.36124,0.00331
2167.30107,0.00474
2165.24089,0.00520
2163.18072,0.00505
2161.12055,0.00362
2159.06038,0.00106
2157.00021,0.00000
2154.94003,0.00113
2152.87986,0.00259
2150.81969,0.00409
2148.75952,0.00578
2146.69935,0.00590
2144.63917,0.00450
2142.57900,0.00452
2140.51883,0.00581
2138.45866,0.00575
2136.39849,0.00547
2134.33831,0.00649
2132.27814,0.00734
2130.21797,0.00719
2128.15780,0.00661
2126.09762,0.00601
2124.03745,0.00538
2121.97728,0.00514
2119.91711,0.00573
2117.85694,0.00679
2115.79676,0.00720
2113.73659,0.00633
2111.67642,0.00522
2109.61625,0.00498
2107.55608,0.00513
2105.49590,0.00499
2103.43573,0.00504
2101.37556,0.00555
2099.31539,0.00535
2097.25521,0.00466
2095.19504,0.00477
2093.13487,0.00495
2091.07470,0.00477
2089.01453,0.00559
2086.95435,0.00697
2084.89418,0.00731
2082.83401,0.00678
2080.77384,0.00606
2078.71367,0.00537
2076.65349,0.00481
2074.59332,0.00462
2072.53315,0.00495
2070.47298,0.00509
2068.41281,0.00452
2066.35263,0.00399
2064.29246,0.00400
2062.23229,0.00456
2060.17212,0.00535
2058.11194,0.00502
2056.05177,0.00378
2053.99160,0.00400
2051.93143,0.00558
2049.87126,0.00638
2047.81108,0.00589
2045.75091,0.00503
2043.69074,0.00401
2041.63057,0.00304
2039.57040,0.00265
2037.51022,0.00218
2035.45005,0.00140
2033.38988,0.00138
2031.32971,0.00225
2029.26954,0.00218
2027.20936,0.00114
2025.14919,0.00131
2023.08902,0.00343
2021.02885,0.00622
2018.96867,0.00703
2016.90850,0.00477
2014.84833,0.00215
2012.78816,0.00169
2010.72799,0.00276
2008.66781,0.00418
2006.60764,0.00528
2004.54747,0.00481
2002.48730,0.00319
2000.42713,0.00276
1998.36695,0.00361
1996.30678,0.00403
1994.24661,0.00374
1992.18644,0.00334
1990.12626,0.00390
1988.06609,0.00453
1986.00592,0.00357
1983.94575,0.00302
1981.88558,0.00419
1979.82540,0.00459
1977.76523,0.00309
1975.70506,0.00146
1973.64489,0.00084
1971.58472,0.00075
1969.52454,0.00072
1967.46437,0.00070
1965.40420,0.00071
1963.34403,0.00081
1961.28386,0.00121
1959.22368,0.00209
1957.16351,0.00282
1955.10334,0.00262
1953.04317,0.00214
1950.98299,0.00183
1948.92282,0.00144
1946.86265,0.00170
1944.80248,0.00264
1942.74231,0.00284
1940.68213,0.00208
1938.62196,0.00095
1936.56179,0.00009
1934.50162,0.00000
1932.44145,0.00017
1930.38127,0.00054
1928.32110,0.00112
1926.26093,0.00144
1924.20076,0.00148
1922.14059,0.00167
1920.08041,0.00229
1918.02024,0.00278
1915.96007,0.00243
1913.89990,0.00174
1911.83972,0.00167
1909.77955,0.00215
1907.71938,0.00246
1905.65921,0.00273
1903.59904,0.00334
1901.53886,0.00395
1899.47869,0.00412
1897.41852,0.00367
1895.35835,0.00275
1893.29818,0.00201
1891.23800,0.00188
1889.17783,0.00226
1887.11766,0.00251
1885.05749,0.00230
1882.99731,0.00206
1880.93714,0.00195
1878.87697,0.00184
1876.81680,0.00182
1874.75663,0.00172
1872.69645,0.00131
1870.63628,0.00092
1868.57611,0.00109
1866.51594,0.00165
1864.45577,0.00199
1862.39559,0.00199
1860.33542,0.00194
1858.27525,0.00199
1856.21508,0.00220
1854.15491,0.00247
1852.09473,0.00252
1850.03456,0.00236
1847.97439,0.00218
1845.91422,0.00186
1843.85404,0.00137
1841.79387,0.00104
1839.73370,0.00097
1837.67353,0.00094
1835.61336,0.00089
1833.55318,0.00098
1831.49301,0.00106
1829.43284,0.00088
1827.37267,0.00059
1825.31250,0.00049
1823.25232,0.00068
1821.19215,0.00109
1819.13198,0.00142
1817.07181,0.00150
1815.01163,0.00154
1812.95146,0.00164
1810.89129,0.00172
1808.83112,0.00163
1806.77095,0.00130
1804.71077,0.00080
1802.65060,0.00037
1800.59043,0.00035
1798.53026,0.00063
1796.47009,0.00075
1794.40991,0.00055
1792.34974,0.00027
1790.28957,0.00015
1788.22940,0.00021
1786.16923,0.00026
1784.10905,0.00016
1782.04888,0.00000
1779.98871,0.00010
1777.92854,0.00067
1775.86836,0.00120
1773.80819,0.00121
1771.74802,0.00072
1769.68785,0.00055
1767.62768,0.00120
1765.56750,0.00202
1763.50733,0.00255
1761.44716,0.00314
1759.38699,0.00417
1757.32682,0.00571
1755.26664,0.00757
1753.20647,0.00940
1751.14630,0.01145
1749.08613,0.01388
1747.02596,0.01602
1744.96578,0.01756
1742.90561,0.01869
1740.84544,0.01942
1738.78527,0.01969
1736.72509,0.01966
1734.66492,0.01958
1732.60475,0.01938
1730.54458,0.01897
1728.48441,0.01868
1726.42423,0.01863
1724.36406,0.01869
1722.30389,0.01883
1720.24372,0.01909
1718.18355,0.01931
1716.12337,0.01921
1714.06320,0.01904
1712.00303,0.01913
1709.94286,0.01939
1707.88268,0.01959
1705.82251,0.01948
1703.76234,0.01900
1701.70217,0.01843
1699.64200,0.01819
1697.58182,0.01873
1695.52165,0.01978
1693.46148,0.02072
1691.40131,0.02162
1689.34114,0.02296
1687.28096,0.02480
1685.22079,0.02733
1683.16062,0.03046
1681.10045,0.03280
1679.04028,0.03435
1676.98010,0.03573
1674.91993,0.03698
1672.85976,0.03768
1670.79959,0.03785
1668.73941,0.03778
1666.67924,0.03737
1664.61907,0.03652
1662.55890,0.03540
1660.49873,0.03430
1658.43855,0.03340
1656.37838,0.03277
1654.31821,0.03270
1652.25804,0.03321
1650.19787,0.03337
1648.13769,0.03284
1646.07752,0.03223
1644.01735,0.03214
1641.95718,0.03246
1639.89701,0.03294
1637.83683,0.03365
1635.77666,0.03480
1633.71649,0.03594
1631.65632,0.03655
1629.59614,0.03682
1627.53597,0.03704
1625.47580,0.03754
1623.41563,0.03831
1621.35546,0.03884
1619.29528,0.03899
1617.23511,0.03929
1615.17494,0.04004
1613.11477,0.04113
1611.05460,0.04257
1608.99442,0.04434
1606.93425,0.04596
1604.87408,0.04662
1602.81391,0.04582
1600.75373,0.04391
1598.69356,0.04178
1596.63339,0.04004
1594.57322,0.03872
1592.51305,0.03757
1590.45287,0.03649
1588.39270,0.03551
1586.33253,0.03459
1584.27236,0.03352
1582.21219,0.03220
1580.15201,0.03107
1578.09184,0.03034
1576.03167,0.02952
1573.97150,0.02844
1571.91133,0.02737
1569.85115,0.02618
1567.79098,0.02492
1565.73081,0.02385
1563.67064,0.02291
1561.61046,0.02183
1559.55029,0.02015
1557.49012,0.01849
1555.42995,0.01785
1553.36978,0.01728
1551.30960,0.01623
1549.24943,0.01507
1547.18926,0.01416
1545.12909,0.01337
1543.06892,0.01252
1541.00874,0.01154
1538.94857,0.01035
1536.88840,0.00942
1534.82823,0.00890
1532.76805,0.00852
1530.70788,0.00801
1528.64771,0.00746
1526.58754,0.00723
1524.52737,0.00762
1522.46719,0.00865
1520.40702,0.01019
1518.34685,0.01183
1516.28668,0.01325
1514.22651,0.01380
1512.16633,0.01332
1510.10616,0.01245
1508.04599,0.01115
1505.98582,0.00893
1503.92565,0.00697
1501.86547,0.00573
1499.80530,0.00462
1497.74513,0.00344
1495.68496,0.00260
1493.62478,0.00228
1491.56461,0.00194
1489.50444,0.00116
1487.44427,0.00028
1485.38410,0.00000
1483.32392,0.00033
1481.26375,0.00099
1479.20358,0.00183
1477.14341,0.00289
1475.08324,0.00447
1473.02306,0.00706
1470.96289,0.01029
1468.90272,0.01315
1466.84255,0.01557
1464.78238,0.01767
1462.72220,0.01910
1460.66203,0.01991
1458.60186,0.02091
1456.54169,0.02257
1454.48151,0.02396
1452.42134,0.02463
1450.36117,0.02510
1448.30100,0.02589
1446.24083,0.02702
1444.18065,0.02823
1442.12048,0.02929
1440.06031,0.03014
1438.00014,0.03091
1435.93997,0.03167
1433.87979,0.03224
1431.81962,0.03264
1429.75945,0.03286
1427.69928,0.03286
1425.63910,0.03275
1423.57893,0.03278
1421.51876,0.03312
1419.45859,0.03371
1417.39842,0.03415
1415.33824,0.03404
1413.27807,0.03355
1411.21790,0.03291
1409.15773,0.03213
1407.09756,0.03110
1405.03738,0.02987
1402.97721,0.02876
1400.91704,0.02788
1398.85687,0.02699
1396.79670,0.02601
1394.73652,0.02511
1392.67635,0.02440
1390.61618,0.02404
1388.55601,0.02431
1386.49583,0.02524
1384.43566,0.02634
1382.37549,0.02728
1380.31532,0.02811
1378.25515,0.02873
1376.19497,0.02907
1374.13480,0.02933
1372.07463,0.02965
1370.01446,0.02991
1367.95429,0.03007
1365.89411,0.03001
1363.83394,0.02946
1361.77377,0.02854
1359.71360,0.02769
1357.65343,0.02706
1355.59325,0.02671
1353.53308,0.02674
1351.47291,0.02690
1349.41274,0.02693
1347.35256,0.02683
1345.29239,0.02667
1343.23222,0.02644
1341.17205,0.02617
1339.11188,0.02596
1337.05170,0.02589
1334.99153,0.02600
1332.93136,0.02625
1330.87119,0.02652
1328.81102,0.02668
1326.75084,0.02677
1324.69067,0.02695
1322.63050,0.02715
1320.57033,0.02708
1318.51015,0.02675
1316.44998,0.02641
1314.38981,0.02614
1312.32964,0.02594
1310.26947,0.02558
1308.20929,0.02484
1306.14912,0.02401
1304.08895,0.02332
1302.02878,0.02258
1299.96861,0.02181
1297.90843,0.02126
1295.84826,0.02097
1293.78809,0.02093
1291.72792,0.02110
1289.66775,0.02139
1287.60757,0.02180
1285.54740,0.02227
1283.48723,0.02264
1281.42706,0.02289
1279.36688,0.02307
1277.30671,0.02319
1275.24654,0.02332
1273.18637,0.02359
1271.12620,0.02407
1269.06602,0.02466
1267.00585,0.02544
1264.94568,0.02654
1262.88551,0.02763
1260.82534,0.02844
1258.76516,0.02915
1256.70499,0.03011
1254.64482,0.03119
1252.58465,0.03199
1250.52447,0.03249
1248.46430,0.03304
1246.40413,0.03351
1244.34396,0.03361
1242.28379,0.03356
1240.22361,0.03349
1238.16344,0.03315
1236.10327,0.03254
1234.04310,0.03187
1231.98293,0.03117
1229.92275,0.03029
1227.86258,0.02912
1225.80241,0.02766
1223.74224,0.02595
1221.68207,0.02412
1219.62189,0.02255
1217.56172,0.02107
1215.50155,0.01930
1213.44138,0.01759
1211.38120,0.01632
1209.32103,0.01511
1207.26086,0.01345
1205.20069,0.01171
1203.14052,0.01038
1201.08034,0.00905
1199.02017,0.00718
1196.96000,0.00499
1194.89983,0.00304
1192.83966,0.00165
1190.77948,0.00075
1188.71931,0.00024
1186.65914,0.00000
1184.59897,-0.00018
1182.53880,-0.00011
1180.47862,0.00043
1178.41845,0.00151
1176.35828,0.00309
1174.29811,0.00538
1172.23793,0.00846
1170.17776,0.01187
1168.11759,0.01464
1166.05742,0.01594
1163.99725,0.01630
1161.93707,0.01672
1159.87690,0.01742
1157.81673,0.01827
1155.75656,0.01924
1153.69639,0.02019
1151.63621,0.02104
1149.57604,0.02220
1147.51587,0.02389
1145.45570,0.02545
1143.39552,0.02652
1141.33535,0.02754
1139.27518,0.02853
1137.21501,0.02925
1135.15484,0.02984
1133.09466,0.03070
1131.03449,0.03175
1128.97432,0.03282
1126.91415,0.03419
1124.85398,0.03594
1122.79380,0.03780
1120.73363,0.03951
1118.67346,0.04100
1116.61329,0.04256
1114.55312,0.04422
1112.49294,0.04574
1110.43277,0.04701
1108.37260,0.04812
1106.31243,0.04938
1104.25225,0.05086
1102.19208,0.05261
1100.13191,0.05487
1098.07174,0.05764
1096.01157,0.06041
1093.95139,0.06298
1091.89122,0.06535
1089.83105,0.06748
1087.77088,0.06955
1085.71071,0.07154
1083.65053,0.07355
1081.59036,0.07604
1079.53019,0.07900
1077.47002,0.08193
1075.40985,0.08483
1073.34967,0.08782
1071.28950,0.09058
1069.22933,0.09299
1067.16916,0.09513
1065.10898,0.09670
1063.04881,0.09770
1060.98864,0.09899
1058.92847,0.10097
1056.86830,0.10321
1054.80812,0.10542
1052.74795,0.10755
1050.68778,0.11011
1048.62761,0.11354
1046.56744,0.11729
1044.50726,0.12060
1042.44709,0.12345
1040.38692,0.12613
1038.32675,0.12863
1036.26657,0.13063
1034.20640,0.13194
1032.14623,0.13263
1030.08606,0.13281
1028.02589,0.13273
1025.96571,0.13253
1023.90554,0.13193
1021.84537,0.13101
1019.78520,0.13026
1017.72503,0.12962
1015.66485,0.12940
1013.60468,0.12989
1011.54451,0.13020
1009.48434,0.12991
1007.42417,0.12958
1005.36399,0.12937
1003.30382,0.12896
1001.24365,0.12807
999.18348,0.12662
997.12330,0.12480
995.06313,0.12263
993.00296,0.12021
990.94279,0.11801
988.88262,0.11617
986.82244,0.11442
984.76227,0.11260
982.70210,0.11057
980.64193,0.10819
978.58176,0.10587
976.52158,0.10415
974.46141,0.10266
972.40124,0.10062
970.34107,0.09808
968.28089,0.09562
966.22072,0.09347
964.16055,0.09155
962.10038,0.08953
960.04021,0.08703
957.98003,0.08441
955.91986,0.08240
953.85969,0.08104
951.79952,0.07975
949.73935,0.07810
947.67917,0.07614
945.61900,0.07399
943.55883,0.07133
941.49866,0.06787
939.43849,0.06381
937.37831,0.05951
935.31814,0.05526
933.25797,0.05094
931.19780,0.04659
929.13762,0.04289
927.07745,0.04018
925.01728,0.03783
922.95711,0.03504
920.89694,0.03210
918.83676,0.02981
916.77659,0.02818
914.71642,0.02691
912.65625,0.02570
910.59608,0.02375
908.53590,0.02092
906.47573,0.01845
904.41556,0.01730
902.35539,0.01718
900.29522,0.01740
898.23504,0.01739
896.17487,0.01732
894.11470,0.01775
892.05453,0.01841
889.99435,0.01839
887.93418,0.01747
885.87401,0.01642
883.81384,0.01537
881.75367,0.01382
879.69349,0.01210
877.63332,0.01062
875.57315,0.00935
873.51298,0.00872
871.45281,0.00877
869.39263,0.00882
867.33246,0.00862
865.27229,0.00834
863.21212,0.00766
861.15194,0.00666
859.09177,0.00637
857.03160,0.00690
854.97143,0.00718
852.91126,0.00661
850.85108,0.00572
848.79091,0.00554
846.73074,0.00576
844.67057,0.00541
842.61040,0.00506
840.55022,0.00532
838.49005,0.00578
836.42988,0.00606
834.36971,0.00575
832.30954,0.00494
830.24936,0.00436
828.18919,0.00395
826.12902,0.00340
824.06885,0.00276
822.00867,0.00222
819.94850,0.00201
817.88833,0.00208
815.82816,0.00223
813.76799,0.00200
811.70781,0.00113
809.64764,0.00033
807.58747,0.00051
805.52730,0.00172
803.46713,0.00262
801.40695,0.00191
799.34678,0.00052
797.28661,0.00000
795.22644,-0.00003
793.16627,-0.00002
791.10609,0.00002
789.04592,-0.00042
786.98575,-0.00122
784.92558,-0.00142
782.86540,-0.00099
780.80523,-0.00065
778.74506,-0.00046
776.68489,-0.00031
774.62472,-0.00015
772.56454,0.00028
770.50437,0.00006
768.44420,-0.00124
766.38403,-0.00173
764.32386,-0.00110
762.26368,-0.00102
760.20351,-0.00111
758.14334,0.00019
756.08317,0.00186
754.02299,0.00228
751.96282,0.00184
749.90265,0.00161
747.84248,0.00172
745.78231,0.00112
743.72213,0.00000
741.66196,-0.00033
739.60179,-0.00024
737.54162,-0.00058
735.48145,-0.00082
733.42127,-0.00091
731.36110,-0.00031
729.30093,0.00052
727.24076,0.00062
725.18059,0.00077
723.12041,0.00094
721.06024,0.00088
719.00007,0.00214
716.93990,0.00419
714.87972,0.00518
712.81955,0.00531
710.75938,0.00591
708.69921,0.00696
706.63904,0.00783
704.57886,0.00921
702.51869,0.01145
700.45852,0.01306
698.39835,0.01336
696.33818,0.01285
694.27800,0.01135
692.21783,0.00946
690.15766,0.00874
688.09749,0.00851
686.03731,0.00687
683.97714,0.00504
681.91697,0.00515
679.85680,0.00586
677.79663,0.00563
675.73645,0.00556
673.67628,0.00648
671.61611,0.00651
669.55594,0.00251
667.49577,0.00000
665.43559,0.00477
663.37542,0.00716
661.31525,0.00711
659.25508,0.00619
657.19491,0.00672
655.13473,0.00844
653.07456,0.00784
651.01439,0.00478
648.95422,0.00209
646.89404,0.00149
644.83387,0.00258
642.77370,0.00441
640.71353,0.00701
638.65336,0.01044
636.59318,0.01256
634.53301,0.01133
632.47284,0.00758
630.41267,0.00331
628.35250,0.00021
626.29232,-0.00073
624.23215,-0.00126
622.17198,-0.00162
620.11181,0.00189
618.05164,0.00789
615.99146,0.00867
613.93129,0.00407
611.87112,0.00313
609.81095,0.00396
607.75077,-0.00216
605.69060,-0.00888
603.63043,-0.00748
601.57026,-0.00199
599.51009,0.00000
