3996.73391,0.00105
3994.67373,0.00141
3992.61356,0.00163
3990.55339,0.00155
3988.49322,0.00116
3986.43305,0.00053
3984.37287,-0.00002
3982.31270,0.00000
3980.25253,0.00065
3978.19236,0.00149
3976.13219,0.00200
3974.07201,0.00196
3972.01184,0.00144
3969.95167,0.00101
3967.89150,0.00108
3965.83133,0.00116
3963.77115,0.00085
3961.71098,0.00056
3959.65081,0.00062
3957.59064,0.00078
3955.53046,0.00080
3953.47029,0.00070
3951.41012,0.00051
3949.34995,0.00036
3947.28978,0.00043
3945.22960,0.00060
3943.16943,0.00072
3941.10926,0.00100
3939.04909,0.00145
3936.98892,0.00157
3934.92874,0.00119
3932.86857,0.00084
3930.80840,0.00094
3928.74823,0.00131
3926.68805,0.00161
3924.62788,0.00158
3922.56771,0.00131
3920.50754,0.00122
3918.44737,0.00132
3916.38719,0.00121
3914.32702,0.00084
3912.26685,0.00080
3910.20668,0.00130
3908.14651,0.00176
3906.08633,0.00158
3904.02616,0.00091
3901.96599,0.00042
3899.90582,0.00051
3897.84565,0.00103
3895.78547,0.00157
3893.72530,0.00190
3891.66513,0.00201
3889.60496,0.00194
3887.54478,0.00166
3885.48461,0.00103
3883.42444,0.00039
3881.36427,0.00041
3879.30410,0.00116
3877.24392,0.00189
3875.18375,0.00196
3873.12358,0.00157
3871.06341,0.00123
3869.00324,0.00092
3866.94306,0.00078
3864.88289,0.00101
3862.82272,0.00135
3860.76255,0.00161
3858.70237,0.00182
3856.64220,0.00203
3854.58203,0.00250
3852.52186,0.00293
3850.46169,0.00246
3848.40151,0.00185
3846.34134,0.00190
3844.28117,0.00229
3842.22100,0.00241
3840.16083,0.00248
3838.10065,0.00266
3836.04048,0.00267
3833.98031,0.00249
3831.92014,0.00233
3829.85997,0.00243
3827.79979,0.00258
3825.73962,0.00238
3823.67945,0.00176
3821.61928,0.00120
3819.55910,0.00157
3817.49893,0.00243
3815.43876,0.00254
3813.37859,0.00212
3811.31842,0.00182
3809.25824,0.00158
3807.19807,0.00140
3805.13790,0.00141
3803.07773,0.00153
3801.01756,0.00152
3798.95738,0.00150
3796.89721,0.00173
3794.83704,0.00209
3792.77687,0.00237
3790.71670,0.00254
3788.65652,0.00244
3786.59635,0.00197
3784.53618,0.00159
3782.47601,0.00168
3780.41583,0.00174
3778.35566,0.00120
3776.29549,0.00073
3774.23532,0.00112
3772.17515,0.00172
3770.11497,0.00151
3768.05480,0.00079
3765.99463,0.00056
3763.93446,0.00078
3761.87429,0.00089
3759.81411,0.00086
3757.75394,0.00101
3755.69377,0.00147
3753.63360,0.00216
3751.57342,0.00265
3749.51325,0.00280
3747.45308,0.00284
3745.39291,0.00239
3743.33274,0.00155
3741.27256,0.00138
3739.21239,0.00185
3737.15222,0.00222
3735.09205,0.00228
3733.03188,0.00232
3730.97170,0.00238
3728.91153,0.00205
3726.85136,0.00111
3724.79119,0.00017
3722.73102,0.00000
3720.67084,0.00057
3718.61067,0.00152
3716.55050,0.00249
3714.49033,0.00280
3712.43015,0.00210
3710.36998,0.00136
3708.30981,0.00140
3706.24964,0.00147
3704.18947,0.00121
3702.12929,0.00097
3700.06912,0.00106
3698.00895,0.00145
3695.94878,0.00195
3693.88861,0.00215
3691.82843,0.00172
3689.76826,0.00113
3687.70809,0.00117
3685.64792,0.00145
3683.58775,0.00164
3681.52757,0.00172
3679.46740,0.00143
3677.40723,0.00100
3675.34706,0.00133
3673.28688,0.00284
3671.22671,0.00413
3669.16654,0.00382
3667.10637,0.00287
3665.04620,0.00262
3662.98602,0.00280
3660.92585,0.00278
3658.86568,0.00242
3656.80551,0.00225
3654.74534,0.00291
3652.68516,0.00406
3650.62499,0.00480
3648.56482,0.00458
3646.50465,0.00411
3644.44447,0.00398
3642.38430,0.00392
3640.32413,0.00369
3638.26396,0.00346
3636.20379,0.00370
3634.14361,0.00443
3632.08344,0.00505
3630.02327,0.00544
3627.96310,0.00575
3625.90293,0.00572
3623.84275,0.00547
3621.78258,0.00558
3619.72241,0.00615
3617.66224,0.00658
3615.60207,0.00680
3613.54189,0.00717
3611.48172,0.00765
3609.42155,0.00808
3607.36138,0.00818
3605.30120,0.00808
3603.24103,0.00858
3601.18086,0.00944
3599.12069,0.00960
3597.06052,0.00917
3595.00034,0.00894
3592.94017,0.00922
3590.88000,0.00989
3588.81983,0.01065
3586.75966,0.01106
3584.69948,0.01126
3582.63931,0.01155
3580.57914,0.01185
3578.51897,0.01237
3576.45879,0.01311
3574.39862,0.01347
3572.33845,0.01359
3570.27828,0.01391
3568.21811,0.01419
3566.15793,0.01433
3564.09776,0.01480
3562.03759,0.01561
3559.97742,0.01619
3557.91725,0.01636
3555.85707,0.01678
3553.79690,0.01755
3551.73673,0.01803
3549.67656,0.01826
3547.61639,0.01877
3545.55621,0.01931
3543.49604,0.01950
3541.43587,0.01974
3539.37570,0.02035
3537.31552,0.02092
3535.25535,0.02119
3533.19518,0.02154
3531.13501,0.02218
3529.07484,0.02273
3527.01466,0.02283
3524.95449,0.02290
3522.89432,0.02350
3520.83415,0.02446
3518.77398,0.02522
3516.71380,0.02570
3514.65363,0.02626
3512.59346,0.02709
3510.53329,0.02785
3508.47312,0.02812
3506.41294,0.02810
3504.35277,0.02824
3502.29260,0.02890
3500.23243,0.03001
3498.17225,0.03087
3496.11208,0.03099
3494.05191,0.03089
3491.99174,0.03131
3489.93157,0.03227
3487.87139,0.03312
3485.81122,0.03335
3483.75105,0.03349
3481.69088,0.03407
3479.63071,0.03482
3477.57053,0.03547
3475.51036,0.03593
3473.45019,0.03608
3471.39002,0.03640
3469.32984,0.03730
3467.26967,0.03827
3465.20950,0.03875
3463.14933,0.03885
3461.08916,0.03883
3459.02898,0.03909
3456.96881,0.04006
3454.90864,0.04126
3452.84847,0.04187
3450.78830,0.04205
3448.72812,0.04221
3446.66795,0.04218
3444.60778,0.04213
3442.54761,0.04233
3440.48744,0.04260
3438.42726,0.04310
3436.36709,0.04408
3434.30692,0.04477
3432.24675,0.04477
3430.18657,0.04497
3428.12640,0.04571
3426.06623,0.04634
3424.00606,0.04654
3421.94589,0.04644
3419.88571,0.04657
3417.82554,0.04732
3415.76537,0.04813
3413.70520,0.04880
3411.64503,0.04953
3409.58485,0.04993
3407.52468,0.05012
3405.46451,0.05045
3403.40434,0.05063
3401.34416,0.05069
3399.28399,0.05096
3397.22382,0.05164
3395.16365,0.05242
3393.10348,0.05270
3391.04330,0.05253
3388.98313,0.05259
3386.92296,0.05297
3384.86279,0.05324
3382.80262,0.05346
3380.74244,0.05377
3378.68227,0.05389
3376.62210,0.05391
3374.56193,0.05439
3372.50176,0.05512
3370.44158,0.05543
3368.38141,0.05535
3366.32124,0.05530
3364.26107,0.05555
3362.20089,0.05617
3360.14072,0.05679
3358.08055,0.05684
3356.02038,0.05653
3353.96021,0.05667
3351.90003,0.05720
3349.83986,0.05746
3347.77969,0.05751
3345.71952,0.05746
3343.65935,0.05723
3341.59917,0.05704
3339.53900,0.05714
3337.47883,0.05770
3335.41866,0.05829
3333.35849,0.05835
3331.29831,0.05833
3329.23814,0.05875
3327.17797,0.05895
3325.11780,0.05857
3323.05762,0.05831
3320.99745,0.05844
3318.93728,0.05867
3316.87711,0.05900
3314.81694,0.05930
3312.75676,0.05910
3310.69659,0.05857
3308.63642,0.05841
3306.57625,0.05859
3304.51608,0.05868
3302.45590,0.05880
3300.39573,0.05889
3298.33556,0.05864
3296.27539,0.05830
3294.21521,0.05836
3292.15504,0.05881
3290.09487,0.05923
3288.03470,0.05934
3285.97453,0.05924
3283.91435,0.05937
3281.85418,0.05972
3279.79401,0.05993
3277.73384,0.06015
3275.67367,0.06036
3273.61349,0.05999
3271.55332,0.05940
3269.49315,0.05923
3267.43298,0.05915
3265.37281,0.05866
3263.31263,0.05817
3261.25246,0.05822
3259.19229,0.05842
3257.13212,0.05837
3255.07194,0.05842
3253.01177,0.05869
3250.95160,0.05855
3248.89143,0.05815
3246.83126,0.05818
3244.77108,0.05818
3242.71091,0.05790
3240.65074,0.05777
3238.59057,0.05761
3236.53040,0.05723
3234.47022,0.05689
3232.41005,0.05667
3230.34988,0.05643
3228.28971,0.05620
3226.22954,0.05601
3224.16936,0.05566
3222.10919,0.05520
3220.04902,0.05499
3217.98885,0.05517
3215.92867,0.05531
3213.86850,0.05487
3211.80833,0.05423
3209.74816,0.05407
3207.68799,0.05405
3205.62781,0.05409
3203.56764,0.05446
3201.50747,0.05452
3199.44730,0.05400
3197.38713,0.05342
3195.32695,0.05302
3193.26678,0.05264
3191.20661,0.05231
3189.14644,0.05212
3187.08626,0.05185
3185.02609,0.05154
3182.96592,0.05154
3180.90575,0.05178
3178.84558,0.05178
3176.78540,0.05148
3174.72523,0.05103
3172.66506,0.05033
3170.60489,0.04947
3168.54472,0.04898
3166.48454,0.04920
3164.42437,0.04949
3162.36420,0.04926
3160.30403,0.04853
3158.24386,0.04766
3156.18368,0.04724
3154.12351,0.04721
3152.06334,0.04699
3150.00317,0.04659
3147.94299,0.04617
3145.88282,0.04567
3143.82265,0.04522
3141.76248,0.04501
3139.70231,0.04489
3137.64213,0.04452
3135.58196,0.04396
3133.52179,0.04349
3131.46162,0.04336
3129.40145,0.04345
3127.34127,0.04319
3125.28110,0.04262
3123.22093,0.04223
3121.16076,0.04184
3119.10058,0.04158
3117.04041,0.04173
3114.98024,0.04169
3112.92007,0.04117
3110.85990,0.04067
3108.79972,0.04028
3106.73955,0.04002
3104.67938,0.04004
3102.61921,0.03995
3100.55904,0.03947
3098.49886,0.03883
3096.43869,0.03822
3094.37852,0.03788
3092.31835,0.03773
3090.25818,0.03730
3088.19800,0.03687
3086.13783,0.03670
3084.07766,0.03643
3082.01749,0.03604
3079.95731,0.03575
3077.89714,0.03534
3075.83697,0.03479
3073.77680,0.03427
3071.71663,0.03378
3069.65645,0.03357
3067.59628,0.03386
3065.53611,0.03407
3063.47594,0.03365
3061.41577,0.03300
3059.35559,0.03255
3057.29542,0.03234
3055.23525,0.03235
3053.17508,0.03228
3051.11491,0.03173
3049.05473,0.03087
3046.99456,0.03021
3044.93439,0.02997
3042.87422,0.02999
3040.81404,0.02990
3038.75387,0.02956
3036.69370,0.02908
3034.63353,0.02873
3032.57336,0.02872
3030.51318,0.02890
3028.45301,0.02903
3026.39284,0.02880
3024.33267,0.02839
3022.27250,0.02819
3020.21232,0.02802
3018.15215,0.02793
3016.09198,0.02785
3014.03181,0.02748
3011.97163,0.02718
3009.91146,0.02718
3007.85129,0.02703
3005.79112,0.02650
3003.73095,0.02594
3001.67077,0.02566
2999.61060,0.02554
2997.55043,0.02539
2995.49026,0.02561
2993.43009,0.02606
2991.36991,0.02587
2989.30974,0.02538
2987.24957,0.02549
2985.18940,0.02594
2983.12923,0.02627
2981.06905,0.02645
2979.00888,0.02675
2976.94871,0.02734
2974.88854,0.02806
2972.82836,0.02898
2970.76819,0.03006
2968.70802,0.03083
2966.64785,0.03169
2964.58768,0.03325
2962.52750,0.03517
2960.46733,0.03705
2958.40716,0.03884
2956.34699,0.04075
2954.28682,0.04286
2952.22664,0.04483
2950.16647,0.04676
2948.10630,0.04897
2946.04613,0.05121
2943.98596,0.05336
2941.92578,0.05583
2939.86561,0.05872
2937.80544,0.06170
2935.74527,0.06443
2933.68509,0.06689
2931.62492,0.06954
2929.56475,0.07228
2927.50458,0.07450
2925.44441,0.07603
2923.38423,0.07707
2921.32406,0.07784
2919.26389,0.07814
2917.20372,0.07735
2915.14355,0.07515
2913.08337,0.07216
2911.02320,0.06921
2908.96303,0.06634
2906.90286,0.06356
2904.84268,0.06127
2902.78251,0.05944
2900.72234,0.05760
2898.66217,0.05584
2896.60200,0.05439
2894.54182,0.05292
2892.48165,0.05143
2890.42148,0.05016
2888.36131,0.04895
2886.30114,0.04796
2884.24096,0.04726
2882.18079,0.04664
2880.12062,0.04606
2878.06045,0.04568
2876.00028,0.04575
2873.94010,0.04601
2871.87993,0.04628
2869.81976,0.04678
2867.75959,0.04744
2865.69941,0.04830
2863.63924,0.04970
2861.57907,0.05170
2859.51890,0.05384
2857.45873,0.05568
2855.39855,0.05734
2853.33838,0.05889
2851.27821,0.05970
2849.21804,0.05870
2847.15787,0.05569
2845.09769,0.05183
2843.03752,0.04827
2840.97735,0.04507
2838.91718,0.04217
2836.85700,0.03985
2834.79683,0.03823
2832.73666,0.03708
2830.67649,0.03598
2828.61632,0.03474
2826.55614,0.03374
2824.49597,0.03332
2822.43580,0.03287
2820.37563,0.03191
2818.31546,0.03098
2816.25528,0.03045
2814.19511,0.03004
2812.13494,0.02953
2810.07477,0.02910
2808.01460,0.02892
2805.95442,0.02873
2803.89425,0.02818
2801.83408,0.02752
2799.77391,0.02728
2797.71373,0.02718
2795.65356,0.02692
2793.59339,0.02680
2791.53322,0.02684
2789.47305,0.02673
2787.41287,0.02627
2785.35270,0.02569
2783.29253,0.02529
2781.23236,0.02503
2779.17219,0.02486
2777.11201,0.02484
2775.05184,0.02481
2772.99167,0.02460
2770.93150,0.02431
2768.87133,0.02398
2766.81115,0.02369
2764.75098,0.02354
2762.69081,0.02348
2760.63064,0.02342
2758.57046,0.02336
2756.51029,0.02333
2754.45012,0.02319
2752.38995,0.02298
2750.32978,0.02284
2748.26960,0.02273
2746.20943,0.02268
2744.14926,0.02272
2742.08909,0.02273
2740.02892,0.02267
2737.96874,0.02261
2735.90857,0.02258
2733.84840,0.02261
2731.78823,0.02255
2729.72805,0.02226
2727.66788,0.02204
2725.60771,0.02226
2723.54754,0.02247
2721.48737,0.02229
2719.42719,0.02189
2717.36702,0.02153
2715.30685,0.02147
2713.24668,0.02157
2711.18651,0.02155
2709.12633,0.02157
2707.06616,0.02158
2705.00599,0.02136
2702.94582,0.02109
2700.88565,0.02112
2698.82547,0.02130
2696.76530,0.02131
2694.70513,0.02120
2692.64496,0.02100
2690.58478,0.02078
2688.52461,0.02080
2686.46444,0.02093
2684.40427,0.02103
2682.34410,0.02098
2680.28392,0.02061
2678.22375,0.02015
2676.16358,0.02001
2674.10341,0.02015
2672.04324,0.02035
2669.98306,0.02037
2667.92289,0.02019
2665.86272,0.01998
2663.80255,0.01984
2661.74238,0.01989
2659.68220,0.02018
2657.62203,0.02036
2655.56186,0.02019
2653.50169,0.01990
2651.44151,0.01971
2649.38134,0.01944
2647.32117,0.01904
2645.26100,0.01887
2643.20083,0.01894
2641.14065,0.01891
2639.08048,0.01870
2637.02031,0.01846
2634.96014,0.01834
2632.89997,0.01815
2630.83979,0.01786
2628.77962,0.01773
2626.71945,0.01776
2624.65928,0.01787
2622.59910,0.01803
2620.53893,0.01792
2618.47876,0.01754
2616.41859,0.01737
2614.35842,0.01749
2612.29824,0.01735
2610.23807,0.01668
2608.17790,0.01624
2606.11773,0.01643
2604.05756,0.01671
2601.99738,0.01675
2599.93721,0.01664
2597.87704,0.01656
2595.81687,0.01639
2593.75670,0.01588
2591.69652,0.01535
2589.63635,0.01520
2587.57618,0.01515
2585.51601,0.01516
2583.45583,0.01543
2581.39566,0.01566
2579.33549,0.01542
2577.27532,0.01498
2575.21515,0.01527
2573.15497,0.01575
2571.09480,0.01524
2569.03463,0.01440
2566.97446,0.01426
2564.91429,0.01480
2562.85411,0.01543
2560.79394,0.01545
2558.73377,0.01479
2556.67360,0.01434
2554.61342,0.01452
2552.55325,0.01478
2550.49308,0.01463
2548.43291,0.01421
2546.37274,0.01387
2544.31256,0.01372
2542.25239,0.01356
2540.19222,0.01344
2538.13205,0.01367
2536.07188,0.01398
2534.01170,0.01384
2531.95153,0.01330
2529.89136,0.01294
2527.83119,0.01287
2525.77102,0.01269
2523.71084,0.01262
2521.65067,0.01276
2519.59050,0.01266
2517.53033,0.01247
2515.47015,0.01250
2513.40998,0.01270
2511.34981,0.01295
2509.28964,0.01297
2507.22947,0.01303
2505.16929,0.01362
2503.10912,0.01376
2501.04895,0.01287
2498.98878,0.01226
2496.92861,0.01249
2494.86843,0.01264
2492.80826,0.01262
2490.74809,0.01255
2488.68792,0.01228
2486.62775,0.01223
2484.56757,0.01231
2482.50740,0.01212
2480.44723,0.01174
2478.38706,0.01140
2476.32688,0.01094
2474.26671,0.01043
2472.20654,0.01071
2470.14637,0.01147
2468.08620,0.01190
2466.02602,0.01226
2463.96585,0.01257
2461.90568,0.01274
2459.84551,0.01276
2457.78534,0.01218
2455.72516,0.01146
2453.66499,0.01132
2451.60482,0.01132
2449.54465,0.01096
2447.48447,0.01041
2445.42430,0.01041
2443.36413,0.01095
2441.30396,0.01142
2439.24379,0.01161
2437.18361,0.01160
2435.12344,0.01147
2433.06327,0.01078
2431.00310,0.00980
2428.94293,0.00950
2426.88275,0.00966
2424.82258,0.00977
2422.76241,0.01008
2420.70224,0.01060
2418.64207,0.01061
2416.58189,0.01024
2414.52172,0.01032
2412.46155,0.01070
2410.40138,0.01067
2408.34120,0.01026
2406.28103,0.01014
2404.22086,0.01016
2402.16069,0.00984
2400.10052,0.00974
2398.04034,0.00992
2395.98017,0.00990
2393.92000,0.00963
2391.85983,0.00944
2389.79966,0.00938
2387.73948,0.00934
2385.67931,0.00922
2383.61914,0.00901
2381.55897,0.00885
2379.49880,0.00865
2377.43862,0.00824
2375.37845,0.00805
2373.31828,0.00853
2371.25811,0.00886
2369.19793,0.00798
2367.13776,0.00755
2365.07759,0.00930
2363.01742,0.01073
2360.95725,0.00968
2358.89707,0.00784
2356.83690,0.00732
2354.77673,0.00756
2352.71656,0.00800
2350.65639,0.00935
2348.59621,0.01092
2346.53604,0.01138
2344.47587,0.00988
2342.41570,0.00741
2340.35552,0.00692
2338.29535,0.00869
2336.23518,0.01013
2334.17501,0.01048
2332.11484,0.01026
2330.05466,0.00943
2327.99449,0.00818
2325.93432,0.00715
2323.87415,0.00683
2321.81398,0.00720
2319.75380,0.00802
2317.69363,0.00882
2315.63346,0.00909
2313.57329,0.00931
2311.51312,0.00991
2309.45294,0.01022
2307.39277,0.00983
2305.33260,0.00914
2303.27243,0.00872
2301.21225,0.00883
2299.15208,0.00909
2297.09191,0.00914
2295.03174,0.00921
2292.97157,0.00916
2290.91139,0.00862
2288.85122,0.00797
2286.79105,0.00781
2284.73088,0.00802
2282.67071,0.00808
2280.61053,0.00784
2278.55036,0.00762
2276.49019,0.00774
2274.43002,0.00808
2272.36984,0.00816
2270.30967,0.00784
2268.24950,0.00743
2266.18933,0.00723
2264.12916,0.00739
2262.06898,0.00755
2260.00881,0.00731
2257.94864,0.00685
2255.88847,0.00665
2253.82830,0.00698
2251.76812,0.00767
2249.70795,0.00831
2247.64778,0.00838
2245.58761,0.00705
2243.52744,0.00551
2241.46726,0.00608
2239.40709,0.00728
2237.34692,0.00750
2235.28675,0.00749
2233.22657,0.00773
2231.16640,0.00840
2229.10623,0.00857
2227.04606,0.00729
2224.98589,0.00594
2222.92571,0.00552
2220.86554,0.00542
2218.80537,0.00534
2216.74520,0.00491
2214.68503,0.00437
2212.62485,0.00427
2210.56468,0.00466
2208.50451,0.00540
2206.44434,0.00594
2204.38417,0.00587
2202.32399,0.00472
2200.26382,0.00336
2198.20365,0.00325
2196.14348,0.00368
2194.08330,0.00423
2192.02313,0.00489
2189.96296,0.00456
2187.90279,0.00429
2185.84262,0.00511
2183.78244,0.00542
2181.72227,0.00509
2179.66210,0.00492
2177.60193,0.00486
2175.54176,0.00414
2173.48158,0.00270
2171.42141,0.00221
2169.36124,0.00330
2167.30107,0.00439
2165.24089,0.00444
2163.18072,0.00397
2161.12055,0.00295
2159.06038,0.00108
2157.00021,0.00000
2154.94003,0.00196
2152.87986,0.00485
2150.81969,0.00577
2148.75952,0.00590
2146.69935,0.00511
2144.63917,0.00287
2142.57900,0.00208
2140.51883,0.00295
2138.45866,0.00289
2136.39849,0.00297
2134.33831,0.00456
2132.27814,0.00585
2130.21797,0.00587
2128.15780,0.00554
2126.09762,0.00573
2124.03745,0.00608
2121.97728,0.00585
2119.91711,0.00592
2117.85694,0.00693
2115.79676,0.00719
2113.73659,0.00599
2111.67642,0.00498
2109.61625,0.00515
2107.55608,0.00553
2105.49590,0.00523
2103.43573,0.00516
2101.37556,0.00599
2099.31539,0.00623
2097.25521,0.00505
2095.19504,0.00377
2093.13487,0.00351
2091.07470,0.00396
2089.01453,0.00498
2086.95435,0.00628
2084.89418,0.00704
2082.83401,0.00686
2080.77384,0.00589
2078.71367,0.00470
2076.65349,0.00349
2074.59332,0.00283
2072.53315,0.00394
2070.47298,0.00555
2068.41281,0.00583
2066.35263,0.00575
2064.29246,0.00551
2062.23229,0.00459
2060.17212,0.00446
2058.11194,0.00470
2056.05177,0.00414
2053.99160,0.00468
2051.93143,0.00618
2049.87126,0.00602
2047.81108,0.00445
2045.75091,0.00313
2043.69074,0.00223
2041.63057,0.00169
2039.57040,0.00213
2037.51022,0.00299
2035.45005,0.00328
2033.38988,0.00376
2031.32971,0.00478
2029.26954,0.00492
2027.20936,0.00348
2025.14919,0.00202
2023.08902,0.00199
2021.02885,0.00292
2018.96867,0.00324
2016.90850,0.00204
2014.84833,0.00072
2012.78816,0.00086
2010.72799,0.00242
2008.66781,0.00431
2006.60764,0.00543
2004.54747,0.00562
2002.48730,0.00510
2000.42713,0.00411
1998.36695,0.00333
1996.30678,0.00357
1994.24661,0.00440
1992.18644,0.00468
1990.12626,0.00469
1988.06609,0.00507
1986.00592,0.00492
1983.94575,0.00401
1981.88558,0.00352
1979.82540,0.00347
1977.76523,0.00250
1975.70506,0.00112
1973.64489,0.00086
1971.58472,0.00120
1969.52454,0.00098
1967.46437,0.00080
1965.40420,0.00145
1963.34403,0.00225
1961.28386,0.00263
1959.22368,0.00308
1957.16351,0.00375
1955.10334,0.00378
1953.04317,0.00302
1950.98299,0.00191
1948.92282,0.00119
1946.86265,0.00187
1944.80248,0.00284
1942.74231,0.00273
1940.68213,0.00214
1938.62196,0.00128
1936.56179,0.00065
1934.50162,0.00098
1932.44145,0.00155
1930.38127,0.00180
1928.32110,0.00192
1926.26093,0.00188
1924.20076,0.00164
1922.14059,0.00152
1920.08041,0.00190
1918.02024,0.00259
1915.96007,0.00293
1913.89990,0.00276
1911.83972,0.00243
1909.77955,0.00205
1907.71938,0.00172
1905.65921,0.00194
1903.59904,0.00289
1901.53886,0.00398
1899.47869,0.00430
1897.41852,0.00340
1895.35835,0.00201
1893.29818,0.00086
1891.23800,0.00016
1889.17783,0.00037
1887.11766,0.00097
1885.05749,0.00097
1882.99731,0.00099
1880.93714,0.00168
1878.87697,0.00242
1876.81680,0.00254
1874.75663,0.00205
1872.69645,0.00133
1870.63628,0.00077
1868.57611,0.00074
1866.51594,0.00130
1864.45577,0.00203
1862.39559,0.00248
1860.33542,0.00248
1858.27525,0.00218
1856.21508,0.00198
1854.15491,0.00219
1852.09473,0.00248
1850.03456,0.00243
1847.97439,0.00206
1845.91422,0.00159
1843.85404,0.00120
1841.79387,0.00118
1839.73370,0.00132
1837.67353,0.00108
1835.61336,0.00057
1833.55318,0.00041
1831.49301,0.00069
1829.43284,0.00096
1827.37267,0.00104
1825.31250,0.00109
1823.25232,0.00115
1821.19215,0.00127
1819.13198,0.00139
1817.07181,0.00138
1815.01163,0.00137
1812.95146,0.00147
1810.89129,0.00162
1808.83112,0.00165
1806.77095,0.00134
1804.71077,0.00075
1802.65060,0.00022
1800.59043,0.00011
1798.53026,0.00042
1796.47009,0.00060
1794.40991,0.00046
1792.34974,0.00038
1790.28957,0.00062
1788.22940,0.00092
1786.16923,0.00090
1784.10905,0.00053
1782.04888,0.00008
1779.98871,0.00000
1777.92854,0.00034
1775.86836,0.00068
1773.80819,0.00056
1771.74802,0.00024
1769.68785,0.00060
1767.62768,0.00164
1765.56750,0.00244
1763.50733,0.00280
1761.44716,0.00340
1759.38699,0.00453
1757.32682,0.00611
1755.26664,0.00798
1753.20647,0.00991
1751.14630,0.01193
1749.08613,0.01396
1747.02596,0.01572
1744.96578,0.01722
1742.90561,0.01853
1740.84544,0.01941
1738.78527,0.01979
1736.72509,0.01991
1734.66492,0.01976
1732.60475,0.01932
1730.54458,0.01901
1728.48441,0.01907
1726.42423,0.01922
1724.36406,0.01912
1722.30389,0.01902
1720.24372,0.01924
1718.18355,0.01951
1716.12337,0.01952
1714.06320,0.01952
1712.00303,0.01959
1709.94286,0.01967
1707.88268,0.01967
1705.82251,0.01939
1703.76234,0.01898
1701.70217,0.01870
1699.64200,0.01871
1697.58182,0.01932
1695.52165,0.02034
1693.46148,0.02128
1691.40131,0.02219
1689.34114,0.02337
1687.28096,0.02495
1685.22079,0.02739
1683.16062,0.03046
1681.10045,0.03272
1679.04028,0.03439
1676.98010,0.03605
1674.91993,0.03749
1672.85976,0.03827
1670.79959,0.03846
1668.73941,0.03831
1666.67924,0.03771
1664.61907,0.03669
1662.55890,0.03540
1660.49873,0.03407
1658.43855,0.03299
1656.37838,0.03243
1654.31821,0.03272
1652.25804,0.03367
1650.19787,0.03395
1648.13769,0.03327
1646.07752,0.03246
1644.01735,0.03229
1641.95718,0.03260
1639.89701,0.03294
1637.83683,0.03345
1635.77666,0.03460
1633.71649,0.03589
1631.65632,0.03655
1629.59614,0.03686
1627.53597,0.03729
1625.47580,0.03793
1623.41563,0.03853
1621.35546,0.03875
1619.29528,0.03871
1617.23511,0.03888
1615.17494,0.03962
1613.11477,0.04078
1611.05460,0.04230
1608.99442,0.04421
1606.93425,0.04595
1604.87408,0.04665
1602.81391,0.04590
1600.75373,0.04407
1598.69356,0.04201
1596.63339,0.04030
1594.57322,0.03889
1592.51305,0.03753
1590.45287,0.03628
1588.39270,0.03533
1586.33253,0.03456
1584.27236,0.03362
1582.21219,0.03240
1580.15201,0.03122
1578.09184,0.03032
1576.03167,0.02945
1573.97150,0.02839
1571.91133,0.02729
1569.85115,0.02615
1567.79098,0.02505
1565.73081,0.02408
1563.67064,0.02309
1561.61046,0.02185
1559.55029,0.02011
1557.49012,0.01861
1555.42995,0.01802
1553.36978,0.01737
1551.30960,0.01638
1549.24943,0.01533
1547.18926,0.01442
1545.12909,0.01353
1543.06892,0.01265
1541.00874,0.01184
1538.94857,0.01082
1536.88840,0.00994
1534.82823,0.00947
1532.76805,0.00909
1530.70788,0.00849
1528.64771,0.00798
1526.58754,0.00790
1524.52737,0.00810
1522.46719,0.00851
1520.40702,0.00970
1518.34685,0.01160
1516.28668,0.01341
1514.22651,0.01419
1512.16633,0.01380
1510.10616,0.01287
1508.04599,0.01137
1505.98582,0.00898
1503.92565,0.00697
1501.86547,0.00580
1499.80530,0.00494
1497.74513,0.00390
1495.68496,0.00284
1493.62478,0.00226
1491.56461,0.00191
1489.50444,0.00125
1487.44427,0.00043
1485.38410,0.00016
1483.32392,0.00059
1481.26375,0.00133
1479.20358,0.00204
1477.14341,0.00283
1475.08324,0.00439
1473.02306,0.00730
1470.96289,0.01065
1468.90272,0.01327
1466.84255,0.01552
1464.78238,0.01770
1462.72220,0.01933
1460.66203,0.02027
1458.60186,0.02108
1456.54169,0.02230
1454.48151,0.02363
1452.42134,0.02446
1450.36117,0.02501
1448.30100,0.02580
1446.24083,0.02700
1444.18065,0.02832
1442.12048,0.02943
1440.06031,0.03023
1438.00014,0.03092
1435.93997,0.03165
1433.87979,0.03217
1431.81962,0.03241
1429.75945,0.03264
1427.69928,0.03288
1425.63910,0.03294
1423.57893,0.03293
1421.51876,0.03310
1419.45859,0.03354
1417.39842,0.03399
1415.33824,0.03399
1413.27807,0.03347
1411.21790,0.03275
1409.15773,0.03205
1407.09756,0.03121
1405.03738,0.03009
1402.97721,0.02897
1400.91704,0.02804
1398.85687,0.02715
1396.79670,0.02620
1394.73652,0.02530
1392.67635,0.02464
1390.61618,0.02437
1388.55601,0.02467
1386.49583,0.02552
1384.43566,0.02653
1382.37549,0.02742
1380.31532,0.02822
1378.25515,0.02894
1376.19497,0.02955
1374.13480,0.03001
1372.07463,0.03023
1370.01446,0.03026
1367.95429,0.03017
1365.89411,0.02996
1363.83394,0.02949
1361.77377,0.02870
1359.71360,0.02791
1357.65343,0.02720
1355.59325,0.02664
1353.53308,0.02645
1351.47291,0.02658
1349.41274,0.02676
1347.35256,0.02688
1345.29239,0.02683
1343.23222,0.02660
1341.17205,0.02626
1339.11188,0.02600
1337.05170,0.02601
1334.99153,0.02621
1332.93136,0.02648
1330.87119,0.02669
1328.81102,0.02669
1326.75084,0.02655
1324.69067,0.02664
1322.63050,0.02688
1320.57033,0.02692
1318.51015,0.02672
1316.44998,0.02646
1314.38981,0.02611
1312.32964,0.02577
1310.26947,0.02556
1308.20929,0.02526
1306.14912,0.02467
1304.08895,0.02386
1302.02878,0.02289
1299.96861,0.02192
1297.90843,0.02124
1295.84826,0.02092
1293.78809,0.02089
1291.72792,0.02103
1289.66775,0.02134
1287.60757,0.02192
1285.54740,0.02249
1283.48723,0.02278
1281.42706,0.02283
1279.36688,0.02282
1277.30671,0.02295
1275.24654,0.02319
1273.18637,0.02344
1271.12620,0.02380
1269.06602,0.02450
1267.00585,0.02559
1264.94568,0.02688
1262.88551,0.02804
1260.82534,0.02885
1258.76516,0.02944
1256.70499,0.03018
1254.64482,0.03102
1252.58465,0.03166
1250.52447,0.03208
1248.46430,0.03255
1246.40413,0.03316
1244.34396,0.03359
1242.28379,0.03360
1240.22361,0.03332
1238.16344,0.03294
1236.10327,0.03251
1234.04310,0.03194
1231.98293,0.03121
1229.92275,0.03030
1227.86258,0.02909
1225.80241,0.02755
1223.74224,0.02594
1221.68207,0.02427
1219.62189,0.02252
1217.56172,0.02079
1215.50155,0.01918
1213.44138,0.01776
1211.38120,0.01647
1209.32103,0.01502
1207.26086,0.01334
1205.20069,0.01176
1203.14052,0.01036
1201.08034,0.00894
1199.02017,0.00729
1196.96000,0.00526
1194.89983,0.00321
1192.83966,0.00170
1190.77948,0.00088
1188.71931,0.00052
1186.65914,0.00019
1184.59897,0.00000
1182.53880,0.00028
1180.47862,0.00104
1178.41845,0.00201
1176.35828,0.00349
1174.29811,0.00588
1172.23793,0.00903
1170.17776,0.01243
1168.11759,0.01503
1166.05742,0.01612
1163.99725,0.01652
1161.93707,0.01714
1159.87690,0.01794
1157.81673,0.01890
1155.75656,0.01983
1153.69639,0.02064
1151.63621,0.02159
1149.57604,0.02280
1147.51587,0.02430
1145.45570,0.02590
1143.39552,0.02735
1141.33535,0.02846
1139.27518,0.02926
1137.21501,0.03000
1135.15484,0.03060
1133.09466,0.03131
1131.03449,0.03234
1128.97432,0.03344
1126.91415,0.03469
1124.85398,0.03631
1122.79380,0.03815
1120.73363,0.03989
1118.67346,0.04147
1116.61329,0.04320
1114.55312,0.04502
1112.49294,0.04639
1110.43277,0.04753
1108.37260,0.04885
1106.31243,0.05013
1104.25225,0.05136
1102.19208,0.05295
1100.13191,0.05509
1098.07174,0.05763
1096.01157,0.06024
1093.95139,0.06273
1091.89122,0.06504
1089.83105,0.06739
1087.77088,0.06979
1085.71071,0.07182
1083.65053,0.07374
1081.59036,0.07622
1079.53019,0.07915
1077.47002,0.08185
1075.40985,0.08456
1073.34967,0.08774
1071.28950,0.09064
1069.22933,0.09274
1067.16916,0.09457
1065.10898,0.09630
1063.04881,0.09781
1060.98864,0.09957
1058.92847,0.10171
1056.86830,0.10378
1054.80812,0.10580
1052.74795,0.10793
1050.68778,0.11047
1048.62761,0.11362
1046.56744,0.11710
1044.50726,0.12062
1042.44709,0.12375
1040.38692,0.12622
1038.32675,0.12824
1036.26657,0.12993
1034.20640,0.13116
1032.14623,0.13177
1030.08606,0.13188
1028.02589,0.13197
1025.96571,0.13214
1023.90554,0.13193
1021.84537,0.13111
1019.78520,0.12994
1017.72503,0.12911
1015.66485,0.12929
1013.60468,0.12990
1011.54451,0.12995
1009.48434,0.12984
1007.42417,0.12992
1005.36399,0.12953
1003.30382,0.12877
1001.24365,0.12795
999.18348,0.12655
997.12330,0.12455
995.06313,0.12260
993.00296,0.12083
990.94279,0.11882
988.88262,0.11646
986.82244,0.11420
984.76227,0.11217
982.70210,0.10986
980.64193,0.10760
978.58176,0.10603
976.52158,0.10458
974.46141,0.10262
972.40124,0.10046
970.34107,0.09834
968.28089,0.09625
966.22072,0.09425
964.16055,0.09224
962.10038,0.09014
960.04021,0.08779
957.98003,0.08527
955.91986,0.08338
953.85969,0.08216
951.79952,0.08061
949.73935,0.07834
947.67917,0.07576
945.61900,0.07336
943.55883,0.07108
941.49866,0.06825
939.43849,0.06445
937.37831,0.06022
935.31814,0.05612
933.25797,0.05193
931.19780,0.04752
929.13762,0.04352
927.07745,0.04083
925.01728,0.03890
922.95711,0.03634
920.89694,0.03341
918.83676,0.03086
916.77659,0.02883
914.71642,0.02714
912.65625,0.02540
910.59608,0.02355
908.53590,0.02155
906.47573,0.01967
904.41556,0.01869
902.35539,0.01852
900.29522,0.01869
898.23504,0.01906
896.17487,0.01947
894.11470,0.01962
892.05453,0.01943
889.99435,0.01910
887.93418,0.01858
885.87401,0.01777
883.81384,0.01661
881.75367,0.01490
879.69349,0.01303
877.63332,0.01136
875.57315,0.00982
873.51298,0.00879
871.45281,0.00884
869.39263,0.00973
867.33246,0.01029
865.27229,0.00953
863.21212,0.00815
861.15194,0.00718
859.09177,0.00687
857.03160,0.00703
854.97143,0.00716
852.91126,0.00698
850.85108,0.00650
848.79091,0.00627
846.73074,0.00659
844.67057,0.00674
842.61040,0.00670
840.55022,0.00686
838.49005,0.00692
836.42988,0.00668
834.36971,0.00601
832.30954,0.00549
830.24936,0.00572
828.18919,0.00573
826.12902,0.00527
824.06885,0.00444
822.00867,0.00355
819.94850,0.00351
817.88833,0.00389
815.82816,0.00360
813.76799,0.00252
811.70781,0.00169
809.64764,0.00144
807.58747,0.00167
805.52730,0.00263
803.46713,0.00312
801.40695,0.00239
799.34678,0.00184
797.28661,0.00223
795.22644,0.00258
793.16627,0.00230
791.10609,0.00193
789.04592,0.00145
786.98575,0.00077
784.92558,0.00034
782.86540,0.00000
780.80523,0.00001
778.74506,0.00096
776.68489,0.00179
774.62472,0.00168
772.56454,0.00137
770.50437,0.00131
768.44420,0.00113
766.38403,0.00102
764.32386,0.00060
762.26368,-0.00104
760.20351,-0.00267
758.14334,-0.00194
756.08317,0.00024
754.02299,0.00113
751.96282,0.00113
749.90265,0.00152
747.84248,0.00111
745.78231,0.00000
743.72213,-0.00046
741.66196,-0.00057
739.60179,-0.00119
737.54162,-0.00183
735.48145,-0.00210
733.42127,-0.00152
731.36110,0.00026
729.30093,0.00132
727.24076,0.00065
725.18059,0.00051
723.12041,0.00108
721.06024,0.00115
719.00007,0.00120
716.93990,0.00193
714.87972,0.00286
712.81955,0.00370
710.75938,0.00485
708.69921,0.00610
706.63904,0.00688
704.57886,0.00779
702.51869,0.00950
700.45852,0.01103
698.39835,0.01166
696.33818,0.01119
694.27800,0.00942
692.21783,0.00761
690.15766,0.00647
688.09749,0.00500
686.03731,0.00316
683.97714,0.00227
681.91697,0.00257
679.85680,0.00240
677.79663,0.00125
675.73645,0.00053
673.67628,0.00084
671.61611,0.00075
669.55594,-0.00083
667.49577,-0.00106
665.43559,0.00188
663.37542,0.00464
661.31525,0.00520
659.25508,0.00444
657.19491,0.00387
655.13473,0.00373
653.07456,0.00304
651.01439,0.00139
648.95422,0.00000
646.89404,0.00026
644.83387,0.00215
642.77370,0.00389
640.71353,0.00510
638.65336,0.00676
636.59318,0.00757
634.53301,0.00580
632.47284,0.00325
630.41267,0.00291
628.35250,0.00477
626.29232,0.00633
624.23215,0.00617
622.17198,0.00589
620.11181,0.00668
618.05164,0.00832
615.99146,0.00968
613.93129,0.00915
611.87112,0.00678
609.81095,0.00264
607.75077,-0.00317
605.69060,-0.00726
603.63043,-0.00666
601.57026,-0.00291
599.51009,0.00000
