3996.73391,0.00006
3994.67373,0.00007
3992.61356,0.00016
3990.55339,0.00016
3988.49322,0.00005
3986.43305,0.00006
3984.37287,0.00020
3982.31270,0.00019
3980.25253,0.00006
3978.19236,0.00008
3976.13219,0.00027
3974.07201,0.00037
3972.01184,0.00032
3969.95167,0.00036
3967.89150,0.00041
3965.83133,0.00028
3963.77115,0.00009
3961.71098,0.00001
3959.65081,-0.00000
3957.59064,0.00012
3955.53046,0.00036
3953.47029,0.00051
3951.41012,0.00038
3949.34995,0.00010
3947.28978,0.00000
3945.22960,0.00007
3943.16943,0.00009
3941.10926,0.00008
3939.04909,0.00008
3936.98892,0.00012
3934.92874,0.00024
3932.86857,0.00049
3930.80840,0.00071
3928.74823,0.00071
3926.68805,0.00055
3924.62788,0.00047
3922.56771,0.00053
3920.50754,0.00058
3918.44737,0.00056
3916.38719,0.00063
3914.32702,0.00067
3912.26685,0.00052
3910.20668,0.00034
3908.14651,0.00032
3906.08633,0.00038
3904.02616,0.00042
3901.96599,0.00048
3899.90582,0.00066
3897.84565,0.00076
3895.78547,0.00057
3893.72530,0.00031
3891.66513,0.00031
3889.60496,0.00047
3887.54478,0.00050
3885.48461,0.00050
3883.42444,0.00057
3881.36427,0.00063
3879.30410,0.00056
3877.24392,0.00041
3875.18375,0.00036
3873.12358,0.00036
3871.06341,0.00034
3869.00324,0.00034
3866.94306,0.00023
3864.88289,0.00017
3862.82272,0.00031
3860.76255,0.00038
3858.70237,0.00021
3856.64220,0.00014
3854.58203,0.00055
3852.52186,0.00104
3850.46169,0.00099
3848.40151,0.00073
3846.34134,0.00057
3844.28117,0.00046
3842.22100,0.00044
3840.16083,0.00049
3838.10065,0.00054
3836.04048,0.00046
3833.98031,0.00025
3831.92014,0.00007
3829.85997,0.00000
3827.79979,0.00005
3825.73962,0.00015
3823.67945,0.00021
3821.61928,0.00044
3819.55910,0.00073
3817.49893,0.00073
3815.43876,0.00072
3813.37859,0.00085
3811.31842,0.00084
3809.25824,0.00070
3807.19807,0.00058
3805.13790,0.00051
3803.07773,0.00057
3801.01756,0.00077
3798.95738,0.00085
3796.89721,0.00078
3794.83704,0.00078
3792.77687,0.00089
3790.71670,0.00093
3788.65652,0.00085
3786.59635,0.00073
3784.53618,0.00061
3782.47601,0.00047
3780.41583,0.00047
3778.35566,0.00065
3776.29549,0.00072
3774.23532,0.00067
3772.17515,0.00071
3770.11497,0.00083
3768.05480,0.00081
3765.99463,0.00063
3763.93446,0.00049
3761.87429,0.00047
3759.81411,0.00054
3757.75394,0.00072
3755.69377,0.00080
3753.63360,0.00072
3751.57342,0.00080
3749.51325,0.00089
3747.45308,0.00054
3745.39291,0.00003
3743.33274,0.00001
3741.27256,0.00038
3739.21239,0.00077
3737.15222,0.00098
3735.09205,0.00072
3733.03188,0.00025
3730.97170,0.00025
3728.91153,0.00064
3726.85136,0.00101
3724.79119,0.00108
3722.73102,0.00089
3720.67084,0.00068
3718.61067,0.00052
3716.55050,0.00036
3714.49033,0.00011
3712.43015,0.00000
3710.36998,0.00036
3708.30981,0.00075
3706.24964,0.00078
3704.18947,0.00060
3702.12929,0.00049
3700.06912,0.00049
3698.00895,0.00054
3695.94878,0.00058
3693.88861,0.00050
3691.82843,0.00044
3689.76826,0.00062
3687.70809,0.00081
3685.64792,0.00070
3683.58775,0.00044
3681.52757,0.00020
3679.46740,0.00013
3677.40723,0.00029
3675.34706,0.00060
3673.28688,0.00080
3671.22671,0.00092
3669.16654,0.00126
3667.10637,0.00148
3665.04620,0.00130
3662.98602,0.00108
3660.92585,0.00107
3658.86568,0.00112
3656.80551,0.00119
3654.74534,0.00123
3652.68516,0.00106
3650.62499,0.00086
3648.56482,0.00101
3646.50465,0.00134
3644.44447,0.00145
3642.38430,0.00137
3640.32413,0.00126
3638.26396,0.00125
3636.20379,0.00134
3634.14361,0.00139
3632.08344,0.00140
3630.02327,0.00149
3627.96310,0.00170
3625.90293,0.00188
3623.84275,0.00191
3621.78258,0.00180
3619.72241,0.00174
3617.66224,0.00194
3615.60207,0.00207
3613.54189,0.00198
3611.48172,0.00189
3609.42155,0.00201
3607.36138,0.00234
3605.30120,0.00260
3603.24103,0.00261
3601.18086,0.00250
3599.12069,0.00247
3597.06052,0.00247
3595.00034,0.00252
3592.94017,0.00277
3590.88000,0.00309
3588.81983,0.00320
3586.75966,0.00314
3584.69948,0.00323
3582.63931,0.00349
3580.57914,0.00366
3578.51897,0.00363
3576.45879,0.00347
3574.39862,0.00332
3572.33845,0.00354
3570.27828,0.00424
3568.21811,0.00488
3566.15793,0.00493
3564.09776,0.00459
3562.03759,0.00433
3559.97742,0.00431
3557.91725,0.00442
3555.85707,0.00437
3553.79690,0.00421
3551.73673,0.00419
3549.67656,0.00421
3547.61639,0.00423
3545.55621,0.00444
3543.49604,0.00475
3541.43587,0.00491
3539.37570,0.00497
3537.31552,0.00502
3535.25535,0.00516
3533.19518,0.00537
3531.13501,0.00547
3529.07484,0.00536
3527.01466,0.00521
3524.95449,0.00526
3522.89432,0.00540
3520.83415,0.00543
3518.77398,0.00537
3516.71380,0.00535
3514.65363,0.00545
3512.59346,0.00572
3510.53329,0.00606
3508.47312,0.00630
3506.41294,0.00640
3504.35277,0.00644
3502.29260,0.00640
3500.23243,0.00630
3498.17225,0.00633
3496.11208,0.00652
3494.05191,0.00667
3491.99174,0.00665
3489.93157,0.00662
3487.87139,0.00675
3485.81122,0.00696
3483.75105,0.00705
3481.69088,0.00699
3479.63071,0.00684
3477.57053,0.00678
3475.51036,0.00683
3473.45019,0.00696
3471.39002,0.00720
3469.32984,0.00745
3467.26967,0.00759
3465.20950,0.00760
3463.14933,0.00763
3461.08916,0.00770
3459.02898,0.00776
3456.96881,0.00782
3454.90864,0.00784
3452.84847,0.00785
3450.78830,0.00803
3448.72812,0.00825
3446.66795,0.00829
3444.60778,0.00816
3442.54761,0.00807
3440.48744,0.00810
3438.42726,0.00815
3436.36709,0.00819
3434.30692,0.00823
3432.24675,0.00824
3430.18657,0.00830
3428.12640,0.00842
3426.06623,0.00850
3424.00606,0.00852
3421.94589,0.00848
3419.88571,0.00857
3417.82554,0.00886
3415.76537,0.00912
3413.70520,0.00917
3411.64503,0.00906
3409.58485,0.00895
3407.52468,0.00897
3405.46451,0.00910
3403.40434,0.00917
3401.34416,0.00908
3399.28399,0.00886
3397.22382,0.00885
3395.16365,0.00906
3393.10348,0.00937
3391.04330,0.00946
3388.98313,0.00919
3386.92296,0.00887
3384.86279,0.00885
3382.80262,0.00909
3380.74244,0.00935
3378.68227,0.00946
3376.62210,0.00936
3374.56193,0.00927
3372.50176,0.00937
3370.44158,0.00955
3368.38141,0.00957
3366.32124,0.00946
3364.26107,0.00947
3362.20089,0.00959
3360.14072,0.00960
3358.08055,0.00948
3356.02038,0.00939
3353.96021,0.00944
3351.90003,0.00964
3349.83986,0.00983
3347.77969,0.00996
3345.71952,0.01001
3343.65935,0.01006
3341.59917,0.01020
3339.53900,0.01021
3337.47883,0.01006
3335.41866,0.01003
3333.35849,0.01011
3331.29831,0.01016
3329.23814,0.01013
3327.17797,0.00997
3325.11780,0.00972
3323.05762,0.00961
3320.99745,0.00963
3318.93728,0.00955
3316.87711,0.00946
3314.81694,0.00956
3312.75676,0.00977
3310.69659,0.01005
3308.63642,0.01032
3306.57625,0.01033
3304.51608,0.01016
3302.45590,0.01000
3300.39573,0.00993
3298.33556,0.00996
3296.27539,0.01000
3294.21521,0.00997
3292.15504,0.00995
3290.09487,0.00996
3288.03470,0.01008
3285.97453,0.01025
3283.91435,0.01024
3281.85418,0.01001
3279.79401,0.00971
3277.73384,0.00956
3275.67367,0.00966
3273.61349,0.00981
3271.55332,0.00985
3269.49315,0.00993
3267.43298,0.01005
3265.37281,0.01012
3263.31263,0.01011
3261.25246,0.00995
3259.19229,0.00968
3257.13212,0.00948
3255.07194,0.00941
3253.01177,0.00936
3250.95160,0.00930
3248.89143,0.00936
3246.83126,0.00955
3244.77108,0.00968
3242.71091,0.00971
3240.65074,0.00975
3238.59057,0.00975
3236.53040,0.00965
3234.47022,0.00952
3232.41005,0.00943
3230.34988,0.00943
3228.28971,0.00950
3226.22954,0.00950
3224.16936,0.00937
3222.10919,0.00918
3220.04902,0.00903
3217.98885,0.00902
3215.92867,0.00916
3213.86850,0.00930
3211.80833,0.00930
3209.74816,0.00916
3207.68799,0.00907
3205.62781,0.00913
3203.56764,0.00914
3201.50747,0.00897
3199.44730,0.00877
3197.38713,0.00874
3195.32695,0.00891
3193.26678,0.00895
3191.20661,0.00872
3189.14644,0.00850
3187.08626,0.00845
3185.02609,0.00848
3182.96592,0.00834
3180.90575,0.00804
3178.84558,0.00786
3176.78540,0.00793
3174.72523,0.00808
3172.66506,0.00805
3170.60489,0.00790
3168.54472,0.00777
3166.48454,0.00766
3164.42437,0.00768
3162.36420,0.00781
3160.30403,0.00782
3158.24386,0.00765
3156.18368,0.00755
3154.12351,0.00758
3152.06334,0.00747
3150.00317,0.00729
3147.94299,0.00723
3145.88282,0.00713
3143.82265,0.00687
3141.76248,0.00670
3139.70231,0.00678
3137.64213,0.00702
3135.58196,0.00712
3133.52179,0.00693
3131.46162,0.00652
3129.40145,0.00612
3127.34127,0.00594
3125.28110,0.00609
3123.22093,0.00631
3121.16076,0.00633
3119.10058,0.00627
3117.04041,0.00634
3114.98024,0.00648
3112.92007,0.00648
3110.85990,0.00639
3108.79972,0.00625
3106.73955,0.00601
3104.67938,0.00579
3102.61921,0.00571
3100.55904,0.00570
3098.49886,0.00564
3096.43869,0.00554
3094.37852,0.00541
3092.31835,0.00532
3090.25818,0.00532
3088.19800,0.00535
3086.13783,0.00535
3084.07766,0.00526
3082.01749,0.00513
3079.95731,0.00501
3077.89714,0.00487
3075.83697,0.00481
3073.77680,0.00478
3071.71663,0.00474
3069.65645,0.00483
3067.59628,0.00492
3065.53611,0.00481
3063.47594,0.00462
3061.41577,0.00447
3059.35559,0.00439
3057.29542,0.00443
3055.23525,0.00453
3053.17508,0.00459
3051.11491,0.00453
3049.05473,0.00437
3046.99456,0.00420
3044.93439,0.00407
3042.87422,0.00407
3040.81404,0.00422
3038.75387,0.00426
3036.69370,0.00408
3034.63353,0.00392
3032.57336,0.00396
3030.51318,0.00408
3028.45301,0.00406
3026.39284,0.00393
3024.33267,0.00383
3022.27250,0.00379
3020.21232,0.00382
3018.15215,0.00392
3016.09198,0.00398
3014.03181,0.00399
3011.97163,0.00398
3009.91146,0.00395
3007.85129,0.00393
3005.79112,0.00386
3003.73095,0.00369
3001.67077,0.00359
2999.61060,0.00359
2997.55043,0.00352
2995.49026,0.00344
2993.43009,0.00348
2991.36991,0.00359
2989.30974,0.00367
2987.24957,0.00365
2985.18940,0.00360
2983.12923,0.00366
2981.06905,0.00374
2979.00888,0.00377
2976.94871,0.00378
2974.88854,0.00374
2972.82836,0.00369
2970.76819,0.00371
2968.70802,0.00373
2966.64785,0.00372
2964.58768,0.00374
2962.52750,0.00392
2960.46733,0.00415
2958.40716,0.00432
2956.34699,0.00452
2954.28682,0.00471
2952.22664,0.00474
2950.16647,0.00467
2948.10630,0.00468
2946.04613,0.00479
2943.98596,0.00499
2941.92578,0.00520
2939.86561,0.00527
2937.80544,0.00522
2935.74527,0.00516
2933.68509,0.00519
2931.62492,0.00535
2929.56475,0.00551
2927.50458,0.00554
2925.44441,0.00544
2923.38423,0.00527
2921.32406,0.00512
2919.26389,0.00507
2917.20372,0.00506
2915.14355,0.00498
2913.08337,0.00496
2911.02320,0.00501
2908.96303,0.00492
2906.90286,0.00479
2904.84268,0.00471
2902.78251,0.00455
2900.72234,0.00437
2898.66217,0.00437
2896.60200,0.00448
2894.54182,0.00443
2892.48165,0.00419
2890.42148,0.00411
2888.36131,0.00432
2886.30114,0.00447
2884.24096,0.00438
2882.18079,0.00436
2880.12062,0.00444
2878.06045,0.00439
2876.00028,0.00435
2873.94010,0.00437
2871.87993,0.00437
2869.81976,0.00433
2867.75959,0.00421
2865.69941,0.00404
2863.63924,0.00394
2861.57907,0.00403
2859.51890,0.00413
2857.45873,0.00403
2855.39855,0.00377
2853.33838,0.00357
2851.27821,0.00354
2849.21804,0.00359
2847.15787,0.00362
2845.09769,0.00355
2843.03752,0.00345
2840.97735,0.00341
2838.91718,0.00342
2836.85700,0.00342
2834.79683,0.00344
2832.73666,0.00345
2830.67649,0.00335
2828.61632,0.00324
2826.55614,0.00311
2824.49597,0.00298
2822.43580,0.00295
2820.37563,0.00286
2818.31546,0.00268
2816.25528,0.00266
2814.19511,0.00281
2812.13494,0.00294
2810.07477,0.00300
2808.01460,0.00294
2805.95442,0.00286
2803.89425,0.00280
2801.83408,0.00271
2799.77391,0.00270
2797.71373,0.00283
2795.65356,0.00290
2793.59339,0.00291
2791.53322,0.00286
2789.47305,0.00279
2787.41287,0.00278
2785.35270,0.00276
2783.29253,0.00265
2781.23236,0.00250
2779.17219,0.00240
2777.11201,0.00250
2775.05184,0.00260
2772.99167,0.00254
2770.93150,0.00240
2768.87133,0.00231
2766.81115,0.00238
2764.75098,0.00256
2762.69081,0.00269
2760.63064,0.00273
2758.57046,0.00269
2756.51029,0.00263
2754.45012,0.00258
2752.38995,0.00257
2750.32978,0.00262
2748.26960,0.00266
2746.20943,0.00256
2744.14926,0.00249
2742.08909,0.00256
2740.02892,0.00266
2737.96874,0.00267
2735.90857,0.00257
2733.84840,0.00244
2731.78823,0.00234
2729.72805,0.00232
2727.66788,0.00240
2725.60771,0.00251
2723.54754,0.00256
2721.48737,0.00246
2719.42719,0.00224
2717.36702,0.00218
2715.30685,0.00221
2713.24668,0.00222
2711.18651,0.00228
2709.12633,0.00239
2707.06616,0.00239
2705.00599,0.00229
2702.94582,0.00223
2700.88565,0.00215
2698.82547,0.00203
2696.76530,0.00201
2694.70513,0.00212
2692.64496,0.00220
2690.58478,0.00217
2688.52461,0.00217
2686.46444,0.00234
2684.40427,0.00245
2682.34410,0.00232
2680.28392,0.00208
2678.22375,0.00201
2676.16358,0.00211
2674.10341,0.00216
2672.04324,0.00210
2669.98306,0.00211
2667.92289,0.00217
2665.86272,0.00219
2663.80255,0.00223
2661.74238,0.00223
2659.68220,0.00227
2657.62203,0.00235
2655.56186,0.00225
2653.50169,0.00213
2651.44151,0.00213
2649.38134,0.00207
2647.32117,0.00202
2645.26100,0.00211
2643.20083,0.00216
2641.14065,0.00207
2639.08048,0.00201
2637.02031,0.00204
2634.96014,0.00205
2632.89997,0.00204
2630.83979,0.00208
2628.77962,0.00220
2626.71945,0.00222
2624.65928,0.00206
2622.59910,0.00193
2620.53893,0.00204
2618.47876,0.00222
2616.41859,0.00228
2614.35842,0.00216
2612.29824,0.00196
2610.23807,0.00187
2608.17790,0.00174
2606.11773,0.00153
2604.05756,0.00149
2601.99738,0.00174
2599.93721,0.00199
2597.87704,0.00199
2595.81687,0.00185
2593.75670,0.00177
2591.69652,0.00174
2589.63635,0.00171
2587.57618,0.00167
2585.51601,0.00162
2583.45583,0.00162
2581.39566,0.00170
2579.33549,0.00171
2577.27532,0.00153
2575.21515,0.00136
2573.15497,0.00146
2571.09480,0.00174
2569.03463,0.00178
2566.97446,0.00151
2564.91429,0.00138
2562.85411,0.00154
2560.79394,0.00168
2558.73377,0.00164
2556.67360,0.00157
2554.61342,0.00148
2552.55325,0.00141
2550.49308,0.00146
2548.43291,0.00148
2546.37274,0.00147
2544.31256,0.00155
2542.25239,0.00168
2540.19222,0.00174
2538.13205,0.00164
2536.07188,0.00142
2534.01170,0.00120
2531.95153,0.00116
2529.89136,0.00126
2527.83119,0.00138
2525.77102,0.00143
2523.71084,0.00133
2521.65067,0.00137
2519.59050,0.00167
2517.53033,0.00190
2515.47015,0.00195
2513.40998,0.00177
2511.34981,0.00134
2509.28964,0.00102
2507.22947,0.00092
2505.16929,0.00112
2503.10912,0.00170
2501.04895,0.00219
2498.98878,0.00224
2496.92861,0.00202
2494.86843,0.00176
2492.80826,0.00155
2490.74809,0.00153
2488.68792,0.00163
2486.62775,0.00159
2484.56757,0.00141
2482.50740,0.00124
2480.44723,0.00123
2478.38706,0.00141
2476.32688,0.00171
2474.26671,0.00188
2472.20654,0.00168
2470.14637,0.00141
2468.08620,0.00150
2466.02602,0.00173
2463.96585,0.00181
2461.90568,0.00180
2459.84551,0.00166
2457.78534,0.00139
2455.72516,0.00129
2453.66499,0.00149
2451.60482,0.00168
2449.54465,0.00169
2447.48447,0.00158
2445.42430,0.00128
2443.36413,0.00105
2441.30396,0.00111
2439.24379,0.00128
2437.18361,0.00155
2435.12344,0.00173
2433.06327,0.00152
2431.00310,0.00117
2428.94293,0.00114
2426.88275,0.00124
2424.82258,0.00124
2422.76241,0.00131
2420.70224,0.00122
2418.64207,0.00096
2416.58189,0.00085
2414.52172,0.00085
2412.46155,0.00081
2410.40138,0.00081
2408.34120,0.00105
2406.28103,0.00139
2404.22086,0.00141
2402.16069,0.00116
2400.10052,0.00101
2398.04034,0.00089
2395.98017,0.00090
2393.92000,0.00092
2391.85983,0.00082
2389.79966,0.00079
2387.73948,0.00104
2385.67931,0.00136
2383.61914,0.00154
2381.55897,0.00161
2379.49880,0.00153
2377.43862,0.00130
2375.37845,0.00091
2373.31828,0.00072
2371.25811,0.00106
2369.19793,0.00183
2367.13776,0.00251
2365.07759,0.00259
2363.01742,0.00203
2360.95725,0.00204
2358.89707,0.00197
2356.83690,0.00173
2354.77673,0.00130
2352.71656,0.00121
2350.65639,0.00217
2348.59621,0.00267
2346.53604,0.00119
2344.47587,0.00078
2342.41570,0.00133
2340.35552,0.00176
2338.29535,0.00194
2336.23518,0.00192
2334.17501,0.00173
2332.11484,0.00156
2330.05466,0.00169
2327.99449,0.00195
2325.93432,0.00255
2323.87415,0.00252
2321.81398,0.00201
2319.75380,0.00142
2317.69363,0.00151
2315.63346,0.00163
2313.57329,0.00152
2311.51312,0.00135
2309.45294,0.00130
2307.39277,0.00147
2305.33260,0.00169
2303.27243,0.00184
2301.21225,0.00187
2299.15208,0.00185
2297.09191,0.00172
2295.03174,0.00160
2292.97157,0.00171
2290.91139,0.00193
2288.85122,0.00196
2286.79105,0.00182
2284.73088,0.00173
2282.67071,0.00175
2280.61053,0.00175
2278.55036,0.00161
2276.49019,0.00152
2274.43002,0.00174
2272.36984,0.00194
2270.30967,0.00173
2268.24950,0.00142
2266.18933,0.00134
2264.12916,0.00127
2262.06898,0.00107
2260.00881,0.00105
2257.94864,0.00137
2255.88847,0.00166
2253.82830,0.00164
2251.76812,0.00148
2249.70795,0.00151
2247.64778,0.00172
2245.58761,0.00172
2243.52744,0.00187
2241.46726,0.00228
2239.40709,0.00222
2237.34692,0.00155
2235.28675,0.00092
2233.22657,0.00090
2231.16640,0.00106
2229.10623,0.00083
2227.04606,0.00063
2224.98589,0.00081
2222.92571,0.00135
2220.86554,0.00189
2218.80537,0.00187
2216.74520,0.00162
2214.68503,0.00191
2212.62485,0.00210
2210.56468,0.00157
2208.50451,0.00115
2206.44434,0.00099
2204.38417,0.00068
2202.32399,0.00036
2200.26382,0.00038
2198.20365,0.00079
2196.14348,0.00098
2194.08330,0.00082
2192.02313,0.00128
2189.96296,0.00236
2187.90279,0.00244
2185.84262,0.00119
2183.78244,0.00006
2181.72227,0.00000
2179.66210,0.00062
2177.60193,0.00128
2175.54176,0.00190
2173.48158,0.00212
2171.42141,0.00203
2169.36124,0.00226
2167.30107,0.00205
2165.24089,0.00099
2163.18072,0.00050
2161.12055,0.00122
2159.06038,0.00152
2157.00021,0.00080
2154.94003,0.00017
2152.87986,0.00011
2150.81969,0.00066
2148.75952,0.00119
2146.69935,0.00128
2144.63917,0.00110
2142.57900,0.00062
2140.51883,0.00014
2138.45866,0.00008
2136.39849,0.00048
2134.33831,0.00100
2132.27814,0.00143
2130.21797,0.00181
2128.15780,0.00176
2126.09762,0.00128
2124.03745,0.00111
2121.97728,0.00108
2119.91711,0.00096
2117.85694,0.00128
2115.79676,0.00177
2113.73659,0.00158
2111.67642,0.00097
2109.61625,0.00090
2107.55608,0.00141
2105.49590,0.00184
2103.43573,0.00189
2101.37556,0.00160
2099.31539,0.00135
2097.25521,0.00140
2095.19504,0.00157
2093.13487,0.00174
2091.07470,0.00186
2089.01453,0.00173
2086.95435,0.00145
2084.89418,0.00128
2082.83401,0.00149
2080.77384,0.00194
2078.71367,0.00207
2076.65349,0.00183
2074.59332,0.00187
2072.53315,0.00219
2070.47298,0.00217
2068.41281,0.00181
2066.35263,0.00138
2064.29246,0.00088
2062.23229,0.00076
2060.17212,0.00142
2058.11194,0.00190
2056.05177,0.00147
2053.99160,0.00086
2051.93143,0.00094
2049.87126,0.00145
2047.81108,0.00189
2045.75091,0.00216
2043.69074,0.00207
2041.63057,0.00187
2039.57040,0.00190
2037.51022,0.00229
2035.45005,0.00286
2033.38988,0.00270
2031.32971,0.00188
2029.26954,0.00146
2027.20936,0.00129
2025.14919,0.00070
2023.08902,0.00010
2021.02885,0.00000
2018.96867,0.00037
2016.90850,0.00093
2014.84833,0.00143
2012.78816,0.00180
2010.72799,0.00231
2008.66781,0.00279
2006.60764,0.00253
2004.54747,0.00170
2002.48730,0.00089
2000.42713,0.00050
1998.36695,0.00062
1996.30678,0.00101
1994.24661,0.00131
1992.18644,0.00113
1990.12626,0.00080
1988.06609,0.00125
1986.00592,0.00196
1983.94575,0.00211
1981.88558,0.00231
1979.82540,0.00250
1977.76523,0.00216
1975.70506,0.00182
1973.64489,0.00178
1971.58472,0.00157
1969.52454,0.00095
1967.46437,0.00029
1965.40420,0.00020
1963.34403,0.00045
1961.28386,0.00053
1959.22368,0.00060
1957.16351,0.00064
1955.10334,0.00057
1953.04317,0.00068
1950.98299,0.00079
1948.92282,0.00061
1946.86265,0.00055
1944.80248,0.00076
1942.74231,0.00080
1940.68213,0.00069
1938.62196,0.00070
1936.56179,0.00102
1934.50162,0.00152
1932.44145,0.00164
1930.38127,0.00109
1928.32110,0.00031
1926.26093,0.00002
1924.20076,0.00057
1922.14059,0.00133
1920.08041,0.00148
1918.02024,0.00118
1915.96007,0.00096
1913.89990,0.00089
1911.83972,0.00081
1909.77955,0.00068
1907.71938,0.00068
1905.65921,0.00078
1903.59904,0.00077
1901.53886,0.00053
1899.47869,0.00023
1897.41852,0.00029
1895.35835,0.00076
1893.29818,0.00105
1891.23800,0.00073
1889.17783,0.00028
1887.11766,0.00020
1885.05749,0.00029
1882.99731,0.00034
1880.93714,0.00052
1878.87697,0.00088
1876.81680,0.00123
1874.75663,0.00132
1872.69645,0.00109
1870.63628,0.00082
1868.57611,0.00072
1866.51594,0.00067
1864.45577,0.00053
1862.39559,0.00048
1860.33542,0.00059
1858.27525,0.00070
1856.21508,0.00071
1854.15491,0.00070
1852.09473,0.00070
1850.03456,0.00056
1847.97439,0.00026
1845.91422,0.00014
1843.85404,0.00046
1841.79387,0.00084
1839.73370,0.00086
1837.67353,0.00062
1835.61336,0.00045
1833.55318,0.00045
1831.49301,0.00058
1829.43284,0.00069
1827.37267,0.00065
1825.31250,0.00056
1823.25232,0.00051
1821.19215,0.00042
1819.13198,0.00023
1817.07181,0.00007
1815.01163,0.00009
1812.95146,0.00028
1810.89129,0.00052
1808.83112,0.00063
1806.77095,0.00054
1804.71077,0.00039
1802.65060,0.00029
1800.59043,0.00029
1798.53026,0.00046
1796.47009,0.00067
1794.40991,0.00075
1792.34974,0.00070
1790.28957,0.00054
1788.22940,0.00038
1786.16923,0.00036
1784.10905,0.00050
1782.04888,0.00063
1779.98871,0.00068
1777.92854,0.00056
1775.86836,0.00034
1773.80819,0.00013
1771.74802,0.00000
1769.68785,-0.00001
1767.62768,0.00018
1765.56750,0.00046
1763.50733,0.00067
1761.44716,0.00076
1759.38699,0.00085
1757.32682,0.00098
1755.26664,0.00111
1753.20647,0.00128
1751.14630,0.00156
1749.08613,0.00183
1747.02596,0.00192
1744.96578,0.00199
1742.90561,0.00208
1740.84544,0.00205
1738.78527,0.00194
1736.72509,0.00196
1734.66492,0.00218
1732.60475,0.00247
1730.54458,0.00256
1728.48441,0.00251
1726.42423,0.00247
1724.36406,0.00246
1722.30389,0.00238
1720.24372,0.00224
1718.18355,0.00212
1716.12337,0.00201
1714.06320,0.00192
1712.00303,0.00185
1709.94286,0.00172
1707.88268,0.00149
1705.82251,0.00124
1703.76234,0.00118
1701.70217,0.00135
1699.64200,0.00148
1697.58182,0.00145
1695.52165,0.00141
1693.46148,0.00142
1691.40131,0.00139
1689.34114,0.00128
1687.28096,0.00128
1685.22079,0.00159
1683.16062,0.00204
1681.10045,0.00225
1679.04028,0.00223
1676.98010,0.00221
1674.91993,0.00240
1672.85976,0.00279
1670.79959,0.00315
1668.73941,0.00327
1666.67924,0.00325
1664.61907,0.00331
1662.55890,0.00344
1660.49873,0.00355
1658.43855,0.00368
1656.37838,0.00403
1654.31821,0.00452
1652.25804,0.00473
1650.19787,0.00463
1648.13769,0.00457
1646.07752,0.00464
1644.01735,0.00470
1641.95718,0.00472
1639.89701,0.00477
1637.83683,0.00484
1635.77666,0.00487
1633.71649,0.00497
1631.65632,0.00518
1629.59614,0.00535
1627.53597,0.00543
1625.47580,0.00543
1623.41563,0.00538
1621.35546,0.00531
1619.29528,0.00529
1617.23511,0.00530
1615.17494,0.00518
1613.11477,0.00496
1611.05460,0.00483
1608.99442,0.00477
1606.93425,0.00471
1604.87408,0.00467
1602.81391,0.00456
1600.75373,0.00435
1598.69356,0.00411
1596.63339,0.00388
1594.57322,0.00361
1592.51305,0.00335
1590.45287,0.00322
1588.39270,0.00316
1586.33253,0.00302
1584.27236,0.00277
1582.21219,0.00250
1580.15201,0.00230
1578.09184,0.00211
1576.03167,0.00188
1573.97150,0.00163
1571.91133,0.00141
1569.85115,0.00127
1567.79098,0.00115
1565.73081,0.00097
1563.67064,0.00074
1561.61046,0.00061
1559.55029,0.00072
1557.49012,0.00089
1555.42995,0.00081
1553.36978,0.00061
1551.30960,0.00052
1549.24943,0.00054
1547.18926,0.00060
1545.12909,0.00065
1543.06892,0.00071
1541.00874,0.00081
1538.94857,0.00075
1536.88840,0.00050
1534.82823,0.00035
1532.76805,0.00027
1530.70788,0.00016
1528.64771,0.00014
1526.58754,0.00017
1524.52737,0.00022
1522.46719,0.00035
1520.40702,0.00044
1518.34685,0.00038
1516.28668,0.00029
1514.22651,0.00016
1512.16633,0.00000
1510.10616,-0.00001
1508.04599,0.00025
1505.98582,0.00051
1503.92565,0.00047
1501.86547,0.00030
1499.80530,0.00022
1497.74513,0.00025
1495.68496,0.00036
1493.62478,0.00046
1491.56461,0.00056
1489.50444,0.00067
1487.44427,0.00071
1485.38410,0.00072
1483.32392,0.00078
1481.26375,0.00093
1479.20358,0.00105
1477.14341,0.00121
1475.08324,0.00151
1473.02306,0.00182
1470.96289,0.00193
1468.90272,0.00195
1466.84255,0.00202
1464.78238,0.00209
1462.72220,0.00217
1460.66203,0.00242
1458.60186,0.00280
1456.54169,0.00292
1454.48151,0.00273
1452.42134,0.00261
1450.36117,0.00273
1448.30100,0.00297
1446.24083,0.00316
1444.18065,0.00328
1442.12048,0.00336
1440.06031,0.00345
1438.00014,0.00353
1435.93997,0.00355
1433.87979,0.00356
1431.81962,0.00366
1429.75945,0.00383
1427.69928,0.00401
1425.63910,0.00422
1423.57893,0.00438
1421.51876,0.00447
1419.45859,0.00457
1417.39842,0.00469
1415.33824,0.00473
1413.27807,0.00472
1411.21790,0.00462
1409.15773,0.00445
1407.09756,0.00436
1405.03738,0.00438
1402.97721,0.00438
1400.91704,0.00441
1398.85687,0.00448
1396.79670,0.00446
1394.73652,0.00421
1392.67635,0.00391
1390.61618,0.00377
1388.55601,0.00380
1386.49583,0.00389
1384.43566,0.00396
1382.37549,0.00406
1380.31532,0.00421
1378.25515,0.00444
1376.19497,0.00469
1374.13480,0.00480
1372.07463,0.00468
1370.01446,0.00455
1367.95429,0.00456
1365.89411,0.00464
1363.83394,0.00464
1361.77377,0.00447
1359.71360,0.00426
1357.65343,0.00418
1355.59325,0.00419
1353.53308,0.00418
1351.47291,0.00409
1349.41274,0.00393
1347.35256,0.00376
1345.29239,0.00369
1343.23222,0.00369
1341.17205,0.00376
1339.11188,0.00387
1337.05170,0.00391
1334.99153,0.00382
1332.93136,0.00369
1330.87119,0.00365
1328.81102,0.00374
1326.75084,0.00388
1324.69067,0.00393
1322.63050,0.00390
1320.57033,0.00391
1318.51015,0.00393
1316.44998,0.00392
1314.38981,0.00393
1312.32964,0.00391
1310.26947,0.00379
1308.20929,0.00367
1306.14912,0.00362
1304.08895,0.00362
1302.02878,0.00360
1299.96861,0.00351
1297.90843,0.00336
1295.84826,0.00327
1293.78809,0.00328
1291.72792,0.00322
1289.66775,0.00315
1287.60757,0.00318
1285.54740,0.00324
1283.48723,0.00322
1281.42706,0.00324
1279.36688,0.00337
1277.30671,0.00341
1275.24654,0.00328
1273.18637,0.00320
1271.12620,0.00325
1269.06602,0.00336
1267.00585,0.00352
1264.94568,0.00376
1262.88551,0.00399
1260.82534,0.00411
1258.76516,0.00420
1256.70499,0.00443
1254.64482,0.00475
1252.58465,0.00494
1250.52447,0.00491
1248.46430,0.00484
1246.40413,0.00483
1244.34396,0.00481
1242.28379,0.00474
1240.22361,0.00468
1238.16344,0.00458
1236.10327,0.00438
1234.04310,0.00420
1231.98293,0.00409
1229.92275,0.00393
1227.86258,0.00371
1225.80241,0.00354
1223.74224,0.00341
1221.68207,0.00325
1219.62189,0.00305
1217.56172,0.00286
1215.50155,0.00274
1213.44138,0.00262
1211.38120,0.00240
1209.32103,0.00214
1207.26086,0.00187
1205.20069,0.00161
1203.14052,0.00135
1201.08034,0.00110
1199.02017,0.00088
1196.96000,0.00064
1194.89983,0.00036
1192.83966,0.00010
1190.77948,0.00000
1188.71931,-0.00002
1186.65914,-0.00009
1184.59897,-0.00007
1182.53880,0.00012
1180.47862,0.00035
1178.41845,0.00057
1176.35828,0.00084
1174.29811,0.00122
1172.23793,0.00158
1170.17776,0.00188
1168.11759,0.00226
1166.05742,0.00260
1163.99725,0.00283
1161.93707,0.00311
1159.87690,0.00351
1157.81673,0.00400
1155.75656,0.00450
1153.69639,0.00482
1151.63621,0.00492
1149.57604,0.00501
1147.51587,0.00525
1145.45570,0.00553
1143.39552,0.00579
1141.33535,0.00600
1139.27518,0.00612
1137.21501,0.00622
1135.15484,0.00640
1133.09466,0.00665
1131.03449,0.00690
1128.97432,0.00710
1126.91415,0.00729
1124.85398,0.00756
1122.79380,0.00794
1120.73363,0.00830
1118.67346,0.00857
1116.61329,0.00892
1114.55312,0.00932
1112.49294,0.00961
1110.43277,0.00983
1108.37260,0.00998
1106.31243,0.01016
1104.25225,0.01055
1102.19208,0.01105
1100.13191,0.01158
1098.07174,0.01217
1096.01157,0.01264
1093.95139,0.01303
1091.89122,0.01346
1089.83105,0.01388
1087.77088,0.01423
1085.71071,0.01455
1083.65053,0.01496
1081.59036,0.01553
1079.53019,0.01612
1077.47002,0.01657
1075.40985,0.01694
1073.34967,0.01733
1071.28950,0.01769
1069.22933,0.01801
1067.16916,0.01827
1065.10898,0.01838
1063.04881,0.01842
1060.98864,0.01855
1058.92847,0.01872
1056.86830,0.01885
1054.80812,0.01911
1052.74795,0.01948
1050.68778,0.01976
1048.62761,0.01996
1046.56744,0.02017
1044.50726,0.02039
1042.44709,0.02077
1040.38692,0.02125
1038.32675,0.02158
1036.26657,0.02171
1034.20640,0.02165
1032.14623,0.02147
1030.08606,0.02142
1028.02589,0.02146
1025.96571,0.02140
1023.90554,0.02145
1021.84537,0.02169
1019.78520,0.02178
1017.72503,0.02171
1015.66485,0.02169
1013.60468,0.02167
1011.54451,0.02157
1009.48434,0.02140
1007.42417,0.02116
1005.36399,0.02095
1003.30382,0.02079
1001.24365,0.02049
999.18348,0.02010
997.12330,0.01991
995.06313,0.01975
993.00296,0.01943
990.94279,0.01913
988.88262,0.01892
986.82244,0.01874
984.76227,0.01850
982.70210,0.01811
980.64193,0.01768
978.58176,0.01740
976.52158,0.01724
974.46141,0.01707
972.40124,0.01687
970.34107,0.01665
968.28089,0.01636
966.22072,0.01594
964.16055,0.01547
962.10038,0.01515
960.04021,0.01499
957.98003,0.01483
955.91986,0.01463
953.85969,0.01438
951.79952,0.01404
949.73935,0.01372
947.67917,0.01336
945.61900,0.01279
943.55883,0.01211
941.49866,0.01148
939.43849,0.01078
937.37831,0.01000
935.31814,0.00918
933.25797,0.00832
931.19780,0.00742
929.13762,0.00666
927.07745,0.00606
925.01728,0.00544
922.95711,0.00492
920.89694,0.00462
918.83676,0.00431
916.77659,0.00387
914.71642,0.00343
912.65625,0.00314
910.59608,0.00294
908.53590,0.00260
906.47573,0.00224
904.41556,0.00222
902.35539,0.00245
900.29522,0.00269
898.23504,0.00294
896.17487,0.00317
894.11470,0.00324
892.05453,0.00303
889.99435,0.00263
887.93418,0.00232
885.87401,0.00219
883.81384,0.00212
881.75367,0.00195
879.69349,0.00179
877.63332,0.00169
875.57315,0.00160
873.51298,0.00159
871.45281,0.00162
869.39263,0.00160
867.33246,0.00152
865.27229,0.00140
863.21212,0.00137
861.15194,0.00142
859.09177,0.00131
857.03160,0.00113
854.97143,0.00110
852.91126,0.00119
850.85108,0.00131
848.79091,0.00122
846.73074,0.00079
844.67057,0.00050
842.61040,0.00074
840.55022,0.00105
838.49005,0.00088
836.42988,0.00042
834.36971,0.00011
832.30954,0.00000
830.24936,-0.00005
828.18919,0.00012
826.12902,0.00052
824.06885,0.00079
822.00867,0.00080
819.94850,0.00073
817.88833,0.00075
815.82816,0.00094
813.76799,0.00116
811.70781,0.00119
809.64764,0.00106
807.58747,0.00099
805.52730,0.00101
803.46713,0.00109
801.40695,0.00110
799.34678,0.00107
797.28661,0.00100
795.22644,0.00077
793.16627,0.00051
791.10609,0.00033
789.04592,0.00028
786.98575,0.00038
784.92558,0.00055
782.86540,0.00056
780.80523,0.00030
778.74506,0.00026
776.68489,0.00064
774.62472,0.00095
772.56454,0.00088
770.50437,0.00082
768.44420,0.00106
766.38403,0.00111
764.32386,0.00074
762.26368,0.00046
760.20351,0.00061
758.14334,0.00100
756.08317,0.00136
754.02299,0.00141
751.96282,0.00100
749.90265,0.00037
747.84248,0.00000
745.78231,0.00016
743.72213,0.00060
741.66196,0.00090
739.60179,0.00085
737.54162,0.00083
735.48145,0.00108
733.42127,0.00111
731.36110,0.00075
729.30093,0.00027
727.24076,-0.00007
725.18059,0.00000
723.12041,0.00045
721.06024,0.00073
719.00007,0.00117
716.93990,0.00139
714.87972,0.00139
712.81955,0.00154
710.75938,0.00178
708.69921,0.00185
706.63904,0.00184
704.57886,0.00208
702.51869,0.00246
700.45852,0.00266
698.39835,0.00251
696.33818,0.00218
694.27800,0.00188
692.21783,0.00166
690.15766,0.00144
688.09749,0.00123
686.03731,0.00108
683.97714,0.00091
681.91697,0.00079
679.85680,0.00089
677.79663,0.00125
675.73645,0.00174
673.67628,0.00227
671.61611,0.00276
669.55594,0.00172
667.49577,0.00040
665.43559,0.00316
663.37542,0.00287
661.31525,0.00246
659.25508,0.00306
657.19491,0.00375
655.13473,0.00379
653.07456,0.00335
651.01439,0.00283
648.95422,0.00251
646.89404,0.00297
644.83387,0.00388
642.77370,0.00447
640.71353,0.00431
638.65336,0.00374
636.59318,0.00353
634.53301,0.00384
632.47284,0.00390
630.41267,0.00297
628.35250,0.00133
626.29232,0.00000
624.23215,0.00008
622.17198,0.00227
620.11181,0.00417
618.05164,0.00364
615.99146,0.00287
613.93129,0.00370
611.87112,0.00399
609.81095,0.00308
607.75077,0.00236
605.69060,0.00234
603.63043,0.00185
601.57026,0.00042
599.51009,0.00000
