3996.73391,0.00012
3994.67373,0.00027
3992.61356,0.00041
3990.55339,0.00049
3988.49322,0.00043
3986.43305,0.00022
3984.37287,-0.00002
3982.31270,-0.00013
3980.25253,-0.00007
3978.19236,0.00013
3976.13219,0.00031
3974.07201,0.00036
3972.01184,0.00034
3969.95167,0.00040
3967.89150,0.00054
3965.83133,0.00065
3963.77115,0.00066
3961.71098,0.00058
3959.65081,0.00043
3957.59064,0.00025
3955.53046,0.00008
3953.47029,0.00000
3951.41012,0.00005
3949.34995,0.00019
3947.28978,0.00037
3945.22960,0.00053
3943.16943,0.00060
3941.10926,0.00055
3939.04909,0.00047
3936.98892,0.00046
3934.92874,0.00052
3932.86857,0.00051
3930.80840,0.00038
3928.74823,0.00022
3926.68805,0.00012
3924.62788,0.00008
3922.56771,0.00009
3920.50754,0.00016
3918.44737,0.00026
3916.38719,0.00035
3914.32702,0.00038
3912.26685,0.00035
3910.20668,0.00029
3908.14651,0.00022
3906.08633,0.00016
3904.02616,0.00007
3901.96599,0.00000
3899.90582,0.00006
3897.84565,0.00027
3895.78547,0.00048
3893.72530,0.00057
3891.66513,0.00055
3889.60496,0.00055
3887.54478,0.00063
3885.48461,0.00071
3883.42444,0.00075
3881.36427,0.00073
3879.30410,0.00062
3877.24392,0.00036
3875.18375,0.00007
3873.12358,-0.00005
3871.06341,0.00011
3869.00324,0.00048
3866.94306,0.00085
3864.88289,0.00105
3862.82272,0.00101
3860.76255,0.00080
3858.70237,0.00053
3856.64220,0.00024
3854.58203,0.00000
3852.52186,0.00000
3850.46169,0.00029
3848.40151,0.00072
3846.34134,0.00110
3844.28117,0.00139
3842.22100,0.00161
3840.16083,0.00172
3838.10065,0.00169
3836.04048,0.00144
3833.98031,0.00102
3831.92014,0.00063
3829.85997,0.00046
3827.79979,0.00057
3825.73962,0.00079
3823.67945,0.00092
3821.61928,0.00090
3819.55910,0.00083
3817.49893,0.00077
3815.43876,0.00071
3813.37859,0.00067
3811.31842,0.00072
3809.25824,0.00093
3807.19807,0.00126
3805.13790,0.00150
3803.07773,0.00150
3801.01756,0.00134
3798.95738,0.00121
3796.89721,0.00123
3794.83704,0.00137
3792.77687,0.00154
3790.71670,0.00165
3788.65652,0.00166
3786.59635,0.00157
3784.53618,0.00138
3782.47601,0.00114
3780.41583,0.00091
3778.35566,0.00078
3776.29549,0.00080
3774.23532,0.00088
3772.17515,0.00094
3770.11497,0.00091
3768.05480,0.00080
3765.99463,0.00072
3763.93446,0.00084
3761.87429,0.00115
3759.81411,0.00149
3757.75394,0.00166
3755.69377,0.00161
3753.63360,0.00142
3751.57342,0.00118
3749.51325,0.00097
3747.45308,0.00082
3745.39291,0.00076
3743.33274,0.00077
3741.27256,0.00086
3739.21239,0.00102
3737.15222,0.00114
3735.09205,0.00114
3733.03188,0.00105
3730.97170,0.00093
3728.91153,0.00081
3726.85136,0.00073
3724.79119,0.00068
3722.73102,0.00067
3720.67084,0.00075
3718.61067,0.00092
3716.55050,0.00108
3714.49033,0.00121
3712.43015,0.00138
3710.36998,0.00161
3708.30981,0.00174
3706.24964,0.00165
3704.18947,0.00144
3702.12929,0.00130
3700.06912,0.00127
3698.00895,0.00126
3695.94878,0.00124
3693.88861,0.00132
3691.82843,0.00151
3689.76826,0.00161
3687.70809,0.00142
3685.64792,0.00101
3683.58775,0.00068
3681.52757,0.00066
3679.46740,0.00094
3677.40723,0.00132
3675.34706,0.00162
3673.28688,0.00183
3671.22671,0.00200
3669.16654,0.00211
3667.10637,0.00215
3665.04620,0.00212
3662.98602,0.00202
3660.92585,0.00181
3658.86568,0.00153
3656.80551,0.00126
3654.74534,0.00106
3652.68516,0.00093
3650.62499,0.00095
3648.56482,0.00123
3646.50465,0.00170
3644.44447,0.00217
3642.38430,0.00250
3640.32413,0.00272
3638.26396,0.00286
3636.20379,0.00298
3634.14361,0.00309
3632.08344,0.00316
3630.02327,0.00312
3627.96310,0.00302
3625.90293,0.00297
3623.84275,0.00306
3621.78258,0.00331
3619.72241,0.00359
3617.66224,0.00373
3615.60207,0.00374
3613.54189,0.00379
3611.48172,0.00396
3609.42155,0.00419
3607.36138,0.00448
3605.30120,0.00481
3603.24103,0.00510
3601.18086,0.00529
3599.12069,0.00536
3597.06052,0.00536
3595.00034,0.00538
3592.94017,0.00553
3590.88000,0.00583
3588.81983,0.00618
3586.75966,0.00653
3584.69948,0.00692
3582.63931,0.00731
3580.57914,0.00760
3578.51897,0.00778
3576.45879,0.00791
3574.39862,0.00798
3572.33845,0.00795
3570.27828,0.00787
3568.21811,0.00777
3566.15793,0.00774
3564.09776,0.00789
3562.03759,0.00822
3559.97742,0.00870
3557.91725,0.00917
3555.85707,0.00944
3553.79690,0.00940
3551.73673,0.00913
3549.67656,0.00889
3547.61639,0.00889
3545.55621,0.00912
3543.49604,0.00941
3541.43587,0.00962
3539.37570,0.00975
3537.31552,0.00986
3535.25535,0.01004
3533.19518,0.01027
3531.13501,0.01051
3529.07484,0.01075
3527.01466,0.01098
3524.95449,0.01120
3522.89432,0.01138
3520.83415,0.01148
3518.77398,0.01153
3516.71380,0.01159
3514.65363,0.01174
3512.59346,0.01198
3510.53329,0.01225
3508.47312,0.01253
3506.41294,0.01280
3504.35277,0.01305
3502.29260,0.01327
3500.23243,0.01341
3498.17225,0.01348
3496.11208,0.01357
3494.05191,0.01371
3491.99174,0.01389
3489.93157,0.01411
3487.87139,0.01437
3485.81122,0.01456
3483.75105,0.01462
3481.69088,0.01458
3479.63071,0.01457
3477.57053,0.01467
3475.51036,0.01484
3473.45019,0.01498
3471.39002,0.01508
3469.32984,0.01521
3467.26967,0.01547
3465.20950,0.01577
3463.14933,0.01601
3461.08916,0.01618
3459.02898,0.01634
3456.96881,0.01649
3454.90864,0.01655
3452.84847,0.01656
3450.78830,0.01663
3448.72812,0.01683
3446.66795,0.01717
3444.60778,0.01754
3442.54761,0.01780
3440.48744,0.01790
3438.42726,0.01785
3436.36709,0.01775
3434.30692,0.01772
3432.24675,0.01781
3430.18657,0.01797
3428.12640,0.01812
3426.06623,0.01819
3424.00606,0.01817
3421.94589,0.01814
3419.88571,0.01823
3417.82554,0.01850
3415.76537,0.01883
3413.70520,0.01912
3411.64503,0.01931
3409.58485,0.01947
3407.52468,0.01961
3405.46451,0.01972
3403.40434,0.01981
3401.34416,0.01989
3399.28399,0.01994
3397.22382,0.01987
3395.16365,0.01975
3393.10348,0.01977
3391.04330,0.02003
3388.98313,0.02041
3386.92296,0.02074
3384.86279,0.02092
3382.80262,0.02096
3380.74244,0.02095
3378.68227,0.02090
3376.62210,0.02085
3374.56193,0.02083
3372.50176,0.02089
3370.44158,0.02096
3368.38141,0.02100
3366.32124,0.02103
3364.26107,0.02110
3362.20089,0.02119
3360.14072,0.02127
3358.08055,0.02138
3356.02038,0.02151
3353.96021,0.02165
3351.90003,0.02175
3349.83986,0.02182
3347.77969,0.02187
3345.71952,0.02190
3343.65935,0.02191
3341.59917,0.02194
3339.53900,0.02198
3337.47883,0.02195
3335.41866,0.02181
3333.35849,0.02164
3331.29831,0.02160
3329.23814,0.02173
3327.17797,0.02200
3325.11780,0.02234
3323.05762,0.02267
3320.99745,0.02292
3318.93728,0.02305
3316.87711,0.02303
3314.81694,0.02287
3312.75676,0.02265
3310.69659,0.02251
3308.63642,0.02247
3306.57625,0.02248
3304.51608,0.02252
3302.45590,0.02261
3300.39573,0.02274
3298.33556,0.02288
3296.27539,0.02298
3294.21521,0.02298
3292.15504,0.02292
3290.09487,0.02286
3288.03470,0.02282
3285.97453,0.02280
3283.91435,0.02275
3281.85418,0.02267
3279.79401,0.02256
3277.73384,0.02249
3275.67367,0.02250
3273.61349,0.02259
3271.55332,0.02271
3269.49315,0.02283
3267.43298,0.02291
3265.37281,0.02292
3263.31263,0.02287
3261.25246,0.02281
3259.19229,0.02279
3257.13212,0.02277
3255.07194,0.02270
3253.01177,0.02256
3250.95160,0.02239
3248.89143,0.02221
3246.83126,0.02206
3244.77108,0.02195
3242.71091,0.02192
3240.65074,0.02199
3238.59057,0.02210
3236.53040,0.02217
3234.47022,0.02215
3232.41005,0.02204
3230.34988,0.02190
3228.28971,0.02178
3226.22954,0.02175
3224.16936,0.02175
3222.10919,0.02169
3220.04902,0.02155
3217.98885,0.02136
3215.92867,0.02122
3213.86850,0.02115
3211.80833,0.02112
3209.74816,0.02103
3207.68799,0.02086
3205.62781,0.02067
3203.56764,0.02053
3201.50747,0.02049
3199.44730,0.02051
3197.38713,0.02050
3195.32695,0.02042
3193.26678,0.02024
3191.20661,0.02001
3189.14644,0.01978
3187.08626,0.01963
3185.02609,0.01956
3182.96592,0.01948
3180.90575,0.01934
3178.84558,0.01911
3176.78540,0.01888
3174.72523,0.01869
3172.66506,0.01852
3170.60489,0.01834
3168.54472,0.01813
3166.48454,0.01790
3164.42437,0.01768
3162.36420,0.01748
3160.30403,0.01727
3158.24386,0.01706
3156.18368,0.01691
3154.12351,0.01689
3152.06334,0.01694
3150.00317,0.01698
3147.94299,0.01695
3145.88282,0.01680
3143.82265,0.01654
3141.76248,0.01624
3139.70231,0.01598
3137.64213,0.01579
3135.58196,0.01566
3133.52179,0.01560
3131.46162,0.01552
3129.40145,0.01537
3127.34127,0.01516
3125.28110,0.01496
3123.22093,0.01481
3121.16076,0.01469
3119.10058,0.01459
3117.04041,0.01450
3114.98024,0.01443
3112.92007,0.01435
3110.85990,0.01421
3108.79972,0.01402
3106.73955,0.01383
3104.67938,0.01370
3102.61921,0.01361
3100.55904,0.01351
3098.49886,0.01336
3096.43869,0.01316
3094.37852,0.01291
3092.31835,0.01267
3090.25818,0.01250
3088.19800,0.01241
3086.13783,0.01237
3084.07766,0.01236
3082.01749,0.01229
3079.95731,0.01216
3077.89714,0.01196
3075.83697,0.01173
3073.77680,0.01150
3071.71663,0.01129
3069.65645,0.01111
3067.59628,0.01096
3065.53611,0.01085
3063.47594,0.01076
3061.41577,0.01061
3059.35559,0.01037
3057.29542,0.01012
3055.23525,0.00992
3053.17508,0.00975
3051.11491,0.00959
3049.05473,0.00946
3046.99456,0.00940
3044.93439,0.00939
3042.87422,0.00935
3040.81404,0.00925
3038.75387,0.00911
3036.69370,0.00893
3034.63353,0.00877
3032.57336,0.00868
3030.51318,0.00861
3028.45301,0.00854
3026.39284,0.00847
3024.33267,0.00843
3022.27250,0.00838
3020.21232,0.00827
3018.15215,0.00812
3016.09198,0.00798
3014.03181,0.00790
3011.97163,0.00791
3009.91146,0.00797
3007.85129,0.00804
3005.79112,0.00806
3003.73095,0.00801
3001.67077,0.00795
2999.61060,0.00797
2997.55043,0.00805
2995.49026,0.00804
2993.43009,0.00795
2991.36991,0.00786
2989.30974,0.00787
2987.24957,0.00804
2985.18940,0.00830
2983.12923,0.00846
2981.06905,0.00854
2979.00888,0.00869
2976.94871,0.00882
2974.88854,0.00883
2972.82836,0.00879
2970.76819,0.00875
2968.70802,0.00877
2966.64785,0.00889
2964.58768,0.00910
2962.52750,0.00934
2960.46733,0.00962
2958.40716,0.00994
2956.34699,0.01021
2954.28682,0.01039
2952.22664,0.01056
2950.16647,0.01082
2948.10630,0.01107
2946.04613,0.01120
2943.98596,0.01130
2941.92578,0.01136
2939.86561,0.01135
2937.80544,0.01133
2935.74527,0.01139
2933.68509,0.01147
2931.62492,0.01154
2929.56475,0.01159
2927.50458,0.01156
2925.44441,0.01143
2923.38423,0.01124
2921.32406,0.01111
2919.26389,0.01106
2917.20372,0.01100
2915.14355,0.01082
2913.08337,0.01055
2911.02320,0.01034
2908.96303,0.01032
2906.90286,0.01039
2904.84268,0.01036
2902.78251,0.01018
2900.72234,0.01001
2898.66217,0.01005
2896.60200,0.01024
2894.54182,0.01040
2892.48165,0.01048
2890.42148,0.01048
2888.36131,0.01030
2886.30114,0.01000
2884.24096,0.00984
2882.18079,0.00990
2880.12062,0.00994
2878.06045,0.00972
2876.00028,0.00933
2873.94010,0.00910
2871.87993,0.00913
2869.81976,0.00916
2867.75959,0.00904
2865.69941,0.00881
2863.63924,0.00858
2861.57907,0.00843
2859.51890,0.00841
2857.45873,0.00844
2855.39855,0.00838
2853.33838,0.00815
2851.27821,0.00779
2849.21804,0.00748
2847.15787,0.00740
2845.09769,0.00750
2843.03752,0.00763
2840.97735,0.00764
2838.91718,0.00751
2836.85700,0.00725
2834.79683,0.00694
2832.73666,0.00670
2830.67649,0.00664
2828.61632,0.00676
2826.55614,0.00694
2824.49597,0.00704
2822.43580,0.00704
2820.37563,0.00704
2818.31546,0.00697
2816.25528,0.00677
2814.19511,0.00662
2812.13494,0.00670
2810.07477,0.00687
2808.01460,0.00685
2805.95442,0.00662
2803.89425,0.00643
2801.83408,0.00637
2799.77391,0.00639
2797.71373,0.00640
2795.65356,0.00635
2793.59339,0.00627
2791.53322,0.00616
2789.47305,0.00607
2787.41287,0.00604
2785.35270,0.00601
2783.29253,0.00596
2781.23236,0.00595
2779.17219,0.00597
2777.11201,0.00597
2775.05184,0.00591
2772.99167,0.00585
2770.93150,0.00586
2768.87133,0.00593
2766.81115,0.00600
2764.75098,0.00606
2762.69081,0.00611
2760.63064,0.00613
2758.57046,0.00600
2756.51029,0.00572
2754.45012,0.00553
2752.38995,0.00561
2750.32978,0.00585
2748.26960,0.00600
2746.20943,0.00592
2744.14926,0.00572
2742.08909,0.00557
2740.02892,0.00552
2737.96874,0.00547
2735.90857,0.00537
2733.84840,0.00532
2731.78823,0.00540
2729.72805,0.00555
2727.66788,0.00565
2725.60771,0.00563
2723.54754,0.00552
2721.48737,0.00544
2719.42719,0.00544
2717.36702,0.00543
2715.30685,0.00534
2713.24668,0.00522
2711.18651,0.00514
2709.12633,0.00510
2707.06616,0.00508
2705.00599,0.00510
2702.94582,0.00522
2700.88565,0.00543
2698.82547,0.00549
2696.76530,0.00528
2694.70513,0.00500
2692.64496,0.00485
2690.58478,0.00480
2688.52461,0.00479
2686.46444,0.00481
2684.40427,0.00500
2682.34410,0.00529
2680.28392,0.00545
2678.22375,0.00529
2676.16358,0.00501
2674.10341,0.00487
2672.04324,0.00486
2669.98306,0.00483
2667.92289,0.00478
2665.86272,0.00477
2663.80255,0.00478
2661.74238,0.00483
2659.68220,0.00495
2657.62203,0.00512
2655.56186,0.00519
2653.50169,0.00507
2651.44151,0.00490
2649.38134,0.00485
2647.32117,0.00482
2645.26100,0.00470
2643.20083,0.00455
2641.14065,0.00453
2639.08048,0.00462
2637.02031,0.00466
2634.96014,0.00455
2632.89997,0.00442
2630.83979,0.00433
2628.77962,0.00428
2626.71945,0.00427
2624.65928,0.00423
2622.59910,0.00421
2620.53893,0.00427
2618.47876,0.00430
2616.41859,0.00418
2614.35842,0.00406
2612.29824,0.00407
2610.23807,0.00411
2608.17790,0.00399
2606.11773,0.00388
2604.05756,0.00388
2601.99738,0.00387
2599.93721,0.00377
2597.87704,0.00370
2595.81687,0.00374
2593.75670,0.00377
2591.69652,0.00373
2589.63635,0.00375
2587.57618,0.00385
2585.51601,0.00393
2583.45583,0.00397
2581.39566,0.00396
2579.33549,0.00387
2577.27532,0.00373
2575.21515,0.00361
2573.15497,0.00350
2571.09480,0.00341
2569.03463,0.00344
2566.97446,0.00351
2564.91429,0.00335
2562.85411,0.00300
2560.79394,0.00285
2558.73377,0.00305
2556.67360,0.00330
2554.61342,0.00347
2552.55325,0.00364
2550.49308,0.00361
2548.43291,0.00332
2546.37274,0.00308
2544.31256,0.00319
2542.25239,0.00354
2540.19222,0.00384
2538.13205,0.00390
2536.07188,0.00371
2534.01170,0.00345
2531.95153,0.00350
2529.89136,0.00388
2527.83119,0.00417
2525.77102,0.00413
2523.71084,0.00391
2521.65067,0.00366
2519.59050,0.00334
2517.53033,0.00307
2515.47015,0.00308
2513.40998,0.00341
2511.34981,0.00372
2509.28964,0.00360
2507.22947,0.00318
2505.16929,0.00287
2503.10912,0.00285
2501.04895,0.00307
2498.98878,0.00329
2496.92861,0.00328
2494.86843,0.00315
2492.80826,0.00311
2490.74809,0.00319
2488.68792,0.00326
2486.62775,0.00322
2484.56757,0.00303
2482.50740,0.00271
2480.44723,0.00244
2478.38706,0.00241
2476.32688,0.00263
2474.26671,0.00288
2472.20654,0.00297
2470.14637,0.00293
2468.08620,0.00293
2466.02602,0.00297
2463.96585,0.00301
2461.90568,0.00301
2459.84551,0.00297
2457.78534,0.00305
2455.72516,0.00335
2453.66499,0.00367
2451.60482,0.00379
2449.54465,0.00364
2447.48447,0.00340
2445.42430,0.00323
2443.36413,0.00316
2441.30396,0.00317
2439.24379,0.00322
2437.18361,0.00324
2435.12344,0.00317
2433.06327,0.00294
2431.00310,0.00266
2428.94293,0.00262
2426.88275,0.00280
2424.82258,0.00287
2422.76241,0.00284
2420.70224,0.00288
2418.64207,0.00295
2416.58189,0.00290
2414.52172,0.00275
2412.46155,0.00260
2410.40138,0.00250
2408.34120,0.00252
2406.28103,0.00268
2404.22086,0.00282
2402.16069,0.00284
2400.10052,0.00291
2398.04034,0.00305
2395.98017,0.00315
2393.92000,0.00313
2391.85983,0.00304
2389.79966,0.00296
2387.73948,0.00299
2385.67931,0.00311
2383.61914,0.00319
2381.55897,0.00316
2379.49880,0.00303
2377.43862,0.00286
2375.37845,0.00271
2373.31828,0.00261
2371.25811,0.00255
2369.19793,0.00259
2367.13776,0.00280
2365.07759,0.00313
2363.01742,0.00350
2360.95725,0.00370
2358.89707,0.00356
2356.83690,0.00332
2354.77673,0.00343
2352.71656,0.00370
2350.65639,0.00366
2348.59621,0.00328
2346.53604,0.00284
2344.47587,0.00251
2342.41570,0.00219
2340.35552,0.00196
2338.29535,0.00218
2336.23518,0.00284
2334.17501,0.00333
2332.11484,0.00320
2330.05466,0.00271
2327.99449,0.00247
2325.93432,0.00275
2323.87415,0.00329
2321.81398,0.00372
2319.75380,0.00388
2317.69363,0.00386
2315.63346,0.00381
2313.57329,0.00376
2311.51312,0.00372
2309.45294,0.00369
2307.39277,0.00368
2305.33260,0.00362
2303.27243,0.00350
2301.21225,0.00329
2299.15208,0.00307
2297.09191,0.00299
2295.03174,0.00314
2292.97157,0.00348
2290.91139,0.00382
2288.85122,0.00394
2286.79105,0.00379
2284.73088,0.00347
2282.67071,0.00321
2280.61053,0.00312
2278.55036,0.00309
2276.49019,0.00302
2274.43002,0.00295
2272.36984,0.00299
2270.30967,0.00308
2268.24950,0.00304
2266.18933,0.00281
2264.12916,0.00252
2262.06898,0.00231
2260.00881,0.00228
2257.94864,0.00247
2255.88847,0.00278
2253.82830,0.00303
2251.76812,0.00310
2249.70795,0.00301
2247.64778,0.00295
2245.58761,0.00310
2243.52744,0.00319
2241.46726,0.00291
2239.40709,0.00239
2237.34692,0.00222
2235.28675,0.00306
2233.22657,0.00437
2231.16640,0.00478
2229.10623,0.00412
2227.04606,0.00340
2224.98589,0.00302
2222.92571,0.00268
2220.86554,0.00235
2218.80537,0.00219
2216.74520,0.00211
2214.68503,0.00217
2212.62485,0.00262
2210.56468,0.00315
2208.50451,0.00278
2206.44434,0.00126
2204.38417,0.00000
2202.32399,0.00042
2200.26382,0.00204
2198.20365,0.00338
2196.14348,0.00377
2194.08330,0.00326
2192.02313,0.00224
2189.96296,0.00159
2187.90279,0.00168
2185.84262,0.00210
2183.78244,0.00268
2181.72227,0.00337
2179.66210,0.00351
2177.60193,0.00265
2175.54176,0.00145
2173.48158,0.00087
2171.42141,0.00079
2169.36124,0.00083
2167.30107,0.00137
2165.24089,0.00236
2163.18072,0.00262
2161.12055,0.00146
2159.06038,0.00011
2157.00021,0.00015
2154.94003,0.00126
2152.87986,0.00197
2150.81969,0.00211
2148.75952,0.00239
2146.69935,0.00263
2144.63917,0.00233
2142.57900,0.00174
2140.51883,0.00154
2138.45866,0.00195
2136.39849,0.00242
2134.33831,0.00250
2132.27814,0.00242
2130.21797,0.00252
2128.15780,0.00270
2126.09762,0.00281
2124.03745,0.00261
2121.97728,0.00205
2119.91711,0.00179
2117.85694,0.00215
2115.79676,0.00254
2113.73659,0.00251
2111.67642,0.00225
2109.61625,0.00202
2107.55608,0.00206
2105.49590,0.00249
2103.43573,0.00300
2101.37556,0.00322
2099.31539,0.00320
2097.25521,0.00311
2095.19504,0.00298
2093.13487,0.00283
2091.07470,0.00276
2089.01453,0.00282
2086.95435,0.00296
2084.89418,0.00315
2082.83401,0.00336
2080.77384,0.00346
2078.71367,0.00322
2076.65349,0.00270
2074.59332,0.00221
2072.53315,0.00199
2070.47298,0.00204
2068.41281,0.00225
2066.35263,0.00253
2064.29246,0.00288
2062.23229,0.00325
2060.17212,0.00354
2058.11194,0.00359
2056.05177,0.00331
2053.99160,0.00282
2051.93143,0.00239
2049.87126,0.00220
2047.81108,0.00233
2045.75091,0.00272
2043.69074,0.00303
2041.63057,0.00298
2039.57040,0.00262
2037.51022,0.00218
2035.45005,0.00184
2033.38988,0.00163
2031.32971,0.00148
2029.26954,0.00131
2027.20936,0.00118
2025.14919,0.00127
2023.08902,0.00164
2021.02885,0.00204
2018.96867,0.00222
2016.90850,0.00216
2014.84833,0.00193
2012.78816,0.00159
2010.72799,0.00124
2008.66781,0.00102
2006.60764,0.00094
2004.54747,0.00087
2002.48730,0.00075
2000.42713,0.00069
1998.36695,0.00083
1996.30678,0.00113
1994.24661,0.00146
1992.18644,0.00171
1990.12626,0.00191
1988.06609,0.00215
1986.00592,0.00251
1983.94575,0.00287
1981.88558,0.00296
1979.82540,0.00256
1977.76523,0.00165
1975.70506,0.00063
1973.64489,0.00000
1971.58472,0.00011
1969.52454,0.00093
1967.46437,0.00186
1965.40420,0.00215
1963.34403,0.00165
1961.28386,0.00080
1959.22368,0.00019
1957.16351,0.00008
1955.10334,0.00030
1953.04317,0.00059
1950.98299,0.00085
1948.92282,0.00095
1946.86265,0.00082
1944.80248,0.00064
1942.74231,0.00072
1940.68213,0.00113
1938.62196,0.00159
1936.56179,0.00172
1934.50162,0.00141
1932.44145,0.00093
1930.38127,0.00058
1928.32110,0.00044
1926.26093,0.00047
1924.20076,0.00057
1922.14059,0.00074
1920.08041,0.00099
1918.02024,0.00130
1915.96007,0.00151
1913.89990,0.00145
1911.83972,0.00111
1909.77955,0.00065
1907.71938,0.00026
1905.65921,0.00013
1903.59904,0.00031
1901.53886,0.00063
1899.47869,0.00087
1897.41852,0.00095
1895.35835,0.00089
1893.29818,0.00079
1891.23800,0.00078
1889.17783,0.00092
1887.11766,0.00112
1885.05749,0.00128
1882.99731,0.00137
1880.93714,0.00138
1878.87697,0.00133
1876.81680,0.00125
1874.75663,0.00111
1872.69645,0.00090
1870.63628,0.00069
1868.57611,0.00055
1866.51594,0.00053
1864.45577,0.00060
1862.39559,0.00071
1860.33542,0.00081
1858.27525,0.00085
1856.21508,0.00075
1854.15491,0.00050
1852.09473,0.00020
1850.03456,0.00000
1847.97439,-0.00002
1845.91422,0.00013
1843.85404,0.00034
1841.79387,0.00057
1839.73370,0.00076
1837.67353,0.00087
1835.61336,0.00093
1833.55318,0.00094
1831.49301,0.00094
1829.43284,0.00090
1827.37267,0.00077
1825.31250,0.00057
1823.25232,0.00038
1821.19215,0.00027
1819.13198,0.00022
1817.07181,0.00020
1815.01163,0.00020
1812.95146,0.00022
1810.89129,0.00030
1808.83112,0.00045
1806.77095,0.00065
1804.71077,0.00081
1802.65060,0.00086
1800.59043,0.00079
1798.53026,0.00066
1796.47009,0.00053
1794.40991,0.00039
1792.34974,0.00025
1790.28957,0.00019
1788.22940,0.00028
1786.16923,0.00049
1784.10905,0.00070
1782.04888,0.00081
1779.98871,0.00081
1777.92854,0.00070
1775.86836,0.00057
1773.80819,0.00051
1771.74802,0.00060
1769.68785,0.00079
1767.62768,0.00098
1765.56750,0.00115
1763.50733,0.00130
1761.44716,0.00143
1759.38699,0.00153
1757.32682,0.00173
1755.26664,0.00210
1753.20647,0.00262
1751.14630,0.00315
1749.08613,0.00361
1747.02596,0.00398
1744.96578,0.00432
1742.90561,0.00460
1740.84544,0.00479
1738.78527,0.00484
1736.72509,0.00480
1734.66492,0.00475
1732.60475,0.00479
1730.54458,0.00493
1728.48441,0.00507
1726.42423,0.00515
1724.36406,0.00514
1722.30389,0.00502
1720.24372,0.00481
1718.18355,0.00453
1716.12337,0.00421
1714.06320,0.00391
1712.00303,0.00366
1709.94286,0.00343
1707.88268,0.00319
1705.82251,0.00293
1703.76234,0.00267
1701.70217,0.00244
1699.64200,0.00231
1697.58182,0.00226
1695.52165,0.00229
1693.46148,0.00241
1691.40131,0.00262
1689.34114,0.00291
1687.28096,0.00324
1685.22079,0.00355
1683.16062,0.00381
1681.10045,0.00398
1679.04028,0.00408
1676.98010,0.00422
1674.91993,0.00451
1672.85976,0.00496
1670.79959,0.00548
1668.73941,0.00601
1666.67924,0.00652
1664.61907,0.00699
1662.55890,0.00741
1660.49873,0.00776
1658.43855,0.00803
1656.37838,0.00827
1654.31821,0.00853
1652.25804,0.00884
1650.19787,0.00916
1648.13769,0.00952
1646.07752,0.00992
1644.01735,0.01023
1641.95718,0.01039
1639.89701,0.01050
1637.83683,0.01066
1635.77666,0.01090
1633.71649,0.01114
1631.65632,0.01127
1629.59614,0.01133
1627.53597,0.01140
1625.47580,0.01151
1623.41563,0.01160
1621.35546,0.01161
1619.29528,0.01154
1617.23511,0.01144
1615.17494,0.01136
1613.11477,0.01127
1611.05460,0.01115
1608.99442,0.01099
1606.93425,0.01074
1604.87408,0.01038
1602.81391,0.00990
1600.75373,0.00937
1598.69356,0.00884
1596.63339,0.00831
1594.57322,0.00773
1592.51305,0.00709
1590.45287,0.00643
1588.39270,0.00583
1586.33253,0.00531
1584.27236,0.00482
1582.21219,0.00431
1580.15201,0.00377
1578.09184,0.00323
1576.03167,0.00279
1573.97150,0.00250
1571.91133,0.00234
1569.85115,0.00224
1567.79098,0.00217
1565.73081,0.00209
1563.67064,0.00196
1561.61046,0.00182
1559.55029,0.00165
1557.49012,0.00147
1555.42995,0.00126
1553.36978,0.00105
1551.30960,0.00092
1549.24943,0.00094
1547.18926,0.00107
1545.12909,0.00123
1543.06892,0.00133
1541.00874,0.00126
1538.94857,0.00104
1536.88840,0.00076
1534.82823,0.00055
1532.76805,0.00047
1530.70788,0.00047
1528.64771,0.00042
1526.58754,0.00031
1524.52737,0.00020
1522.46719,0.00016
1520.40702,0.00018
1518.34685,0.00022
1516.28668,0.00026
1514.22651,0.00024
1512.16633,0.00013
1510.10616,0.00000
1508.04599,-0.00000
1505.98582,0.00021
1503.92565,0.00049
1501.86547,0.00068
1499.80530,0.00078
1497.74513,0.00087
1495.68496,0.00096
1493.62478,0.00101
1491.56461,0.00100
1489.50444,0.00101
1487.44427,0.00108
1485.38410,0.00119
1483.32392,0.00135
1481.26375,0.00155
1479.20358,0.00182
1477.14341,0.00213
1475.08324,0.00251
1473.02306,0.00294
1470.96289,0.00339
1468.90272,0.00380
1466.84255,0.00412
1464.78238,0.00440
1462.72220,0.00467
1460.66203,0.00493
1458.60186,0.00517
1456.54169,0.00536
1454.48151,0.00554
1452.42134,0.00572
1450.36117,0.00595
1448.30100,0.00620
1446.24083,0.00644
1444.18065,0.00664
1442.12048,0.00683
1440.06031,0.00702
1438.00014,0.00724
1435.93997,0.00749
1433.87979,0.00772
1431.81962,0.00793
1429.75945,0.00816
1427.69928,0.00838
1425.63910,0.00856
1423.57893,0.00870
1421.51876,0.00887
1419.45859,0.00907
1417.39842,0.00928
1415.33824,0.00949
1413.27807,0.00965
1411.21790,0.00972
1409.15773,0.00969
1407.09756,0.00955
1405.03738,0.00935
1402.97721,0.00909
1400.91704,0.00878
1398.85687,0.00845
1396.79670,0.00820
1394.73652,0.00807
1392.67635,0.00800
1390.61618,0.00794
1388.55601,0.00794
1386.49583,0.00804
1384.43566,0.00825
1382.37549,0.00849
1380.31532,0.00872
1378.25515,0.00891
1376.19497,0.00908
1374.13480,0.00925
1372.07463,0.00938
1370.01446,0.00941
1367.95429,0.00933
1365.89411,0.00915
1363.83394,0.00893
1361.77377,0.00875
1359.71360,0.00865
1357.65343,0.00861
1355.59325,0.00858
1353.53308,0.00850
1351.47291,0.00832
1349.41274,0.00808
1347.35256,0.00782
1345.29239,0.00761
1343.23222,0.00749
1341.17205,0.00747
1339.11188,0.00751
1337.05170,0.00758
1334.99153,0.00764
1332.93136,0.00769
1330.87119,0.00775
1328.81102,0.00779
1326.75084,0.00778
1324.69067,0.00770
1322.63050,0.00757
1320.57033,0.00744
1318.51015,0.00737
1316.44998,0.00737
1314.38981,0.00739
1312.32964,0.00738
1310.26947,0.00732
1308.20929,0.00723
1306.14912,0.00716
1304.08895,0.00711
1302.02878,0.00707
1299.96861,0.00700
1297.90843,0.00688
1295.84826,0.00673
1293.78809,0.00659
1291.72792,0.00646
1289.66775,0.00633
1287.60757,0.00621
1285.54740,0.00608
1283.48723,0.00598
1281.42706,0.00595
1279.36688,0.00602
1277.30671,0.00617
1275.24654,0.00633
1273.18637,0.00649
1271.12620,0.00670
1269.06602,0.00701
1267.00585,0.00738
1264.94568,0.00776
1262.88551,0.00811
1260.82534,0.00845
1258.76516,0.00880
1256.70499,0.00916
1254.64482,0.00947
1252.58465,0.00962
1250.52447,0.00961
1248.46430,0.00950
1246.40413,0.00936
1244.34396,0.00923
1242.28379,0.00911
1240.22361,0.00899
1238.16344,0.00886
1236.10327,0.00872
1234.04310,0.00853
1231.98293,0.00825
1229.92275,0.00788
1227.86258,0.00750
1225.80241,0.00716
1223.74224,0.00686
1221.68207,0.00656
1219.62189,0.00624
1217.56172,0.00590
1215.50155,0.00556
1213.44138,0.00517
1211.38120,0.00472
1209.32103,0.00420
1207.26086,0.00362
1205.20069,0.00302
1203.14052,0.00243
1201.08034,0.00189
1199.02017,0.00137
1196.96000,0.00088
1194.89983,0.00043
1192.83966,0.00012
1190.77948,0.00000
1188.71931,-0.00003
1186.65914,-0.00008
1184.59897,-0.00019
1182.53880,-0.00020
1180.47862,0.00009
1178.41845,0.00061
1176.35828,0.00123
1174.29811,0.00192
1172.23793,0.00272
1170.17776,0.00351
1168.11759,0.00415
1166.05742,0.00469
1163.99725,0.00527
1161.93707,0.00597
1159.87690,0.00670
1157.81673,0.00730
1155.75656,0.00776
1153.69639,0.00824
1151.63621,0.00878
1149.57604,0.00924
1147.51587,0.00955
1145.45570,0.00975
1143.39552,0.00990
1141.33535,0.01005
1139.27518,0.01026
1137.21501,0.01049
1135.15484,0.01068
1133.09466,0.01093
1131.03449,0.01137
1128.97432,0.01191
1126.91415,0.01243
1124.85398,0.01297
1122.79380,0.01358
1120.73363,0.01418
1118.67346,0.01469
1116.61329,0.01509
1114.55312,0.01543
1112.49294,0.01571
1110.43277,0.01598
1108.37260,0.01644
1106.31243,0.01716
1104.25225,0.01794
1102.19208,0.01858
1100.13191,0.01913
1098.07174,0.01984
1096.01157,0.02087
1093.95139,0.02195
1091.89122,0.02280
1089.83105,0.02348
1087.77088,0.02416
1085.71071,0.02483
1083.65053,0.02546
1081.59036,0.02606
1079.53019,0.02664
1077.47002,0.02721
1075.40985,0.02787
1073.34967,0.02863
1071.28950,0.02933
1069.22933,0.02982
1067.16916,0.03014
1065.10898,0.03042
1063.04881,0.03070
1060.98864,0.03100
1058.92847,0.03133
1056.86830,0.03169
1054.80812,0.03211
1052.74795,0.03257
1050.68778,0.03301
1048.62761,0.03340
1046.56744,0.03385
1044.50726,0.03450
1042.44709,0.03534
1040.38692,0.03606
1038.32675,0.03636
1036.26657,0.03643
1034.20640,0.03673
1032.14623,0.03724
1030.08606,0.03750
1028.02589,0.03739
1025.96571,0.03718
1023.90554,0.03713
1021.84537,0.03729
1019.78520,0.03747
1017.72503,0.03749
1015.66485,0.03744
1013.60468,0.03741
1011.54451,0.03741
1009.48434,0.03742
1007.42417,0.03738
1005.36399,0.03720
1003.30382,0.03687
1001.24365,0.03650
999.18348,0.03617
997.12330,0.03584
995.06313,0.03542
993.00296,0.03491
990.94279,0.03439
988.88262,0.03392
986.82244,0.03345
984.76227,0.03294
982.70210,0.03252
980.64193,0.03229
978.58176,0.03217
976.52158,0.03209
974.46141,0.03189
972.40124,0.03152
970.34107,0.03107
968.28089,0.03048
966.22072,0.02975
964.16055,0.02906
962.10038,0.02858
960.04021,0.02826
957.98003,0.02793
955.91986,0.02751
953.85969,0.02706
951.79952,0.02665
949.73935,0.02629
947.67917,0.02583
945.61900,0.02506
943.55883,0.02398
941.49866,0.02266
939.43849,0.02110
937.37831,0.01941
935.31814,0.01777
933.25797,0.01616
931.19780,0.01457
929.13762,0.01313
927.07745,0.01203
925.01728,0.01119
922.95711,0.01034
920.89694,0.00954
918.83676,0.00901
916.77659,0.00863
914.71642,0.00811
912.65625,0.00737
910.59608,0.00674
908.53590,0.00639
906.47573,0.00615
904.41556,0.00603
902.35539,0.00625
900.29522,0.00665
898.23504,0.00684
896.17487,0.00671
894.11470,0.00643
892.05453,0.00609
889.99435,0.00572
887.93418,0.00541
885.87401,0.00515
883.81384,0.00486
881.75367,0.00454
879.69349,0.00431
877.63332,0.00423
875.57315,0.00401
873.51298,0.00349
871.45281,0.00307
869.39263,0.00296
867.33246,0.00286
865.27229,0.00270
863.21212,0.00265
861.15194,0.00257
859.09177,0.00230
857.03160,0.00206
854.97143,0.00205
852.91126,0.00221
850.85108,0.00222
848.79091,0.00184
846.73074,0.00132
844.67057,0.00100
842.61040,0.00085
840.55022,0.00067
838.49005,0.00039
836.42988,0.00009
834.36971,0.00000
832.30954,0.00020
830.24936,0.00058
828.18919,0.00108
826.12902,0.00149
824.06885,0.00155
822.00867,0.00124
819.94850,0.00083
817.88833,0.00055
815.82816,0.00049
813.76799,0.00055
811.70781,0.00071
809.64764,0.00118
807.58747,0.00189
805.52730,0.00234
803.46713,0.00232
801.40695,0.00216
799.34678,0.00192
797.28661,0.00140
795.22644,0.00069
793.16627,0.00025
791.10609,0.00014
789.04592,0.00027
786.98575,0.00059
784.92558,0.00092
782.86540,0.00105
780.80523,0.00093
778.74506,0.00076
776.68489,0.00079
774.62472,0.00096
772.56454,0.00103
770.50437,0.00112
768.44420,0.00141
766.38403,0.00169
764.32386,0.00167
762.26368,0.00140
760.20351,0.00108
758.14334,0.00093
756.08317,0.00113
754.02299,0.00164
751.96282,0.00207
749.90265,0.00208
747.84248,0.00174
745.78231,0.00124
743.72213,0.00068
741.66196,0.00021
739.60179,0.00000
737.54162,0.00003
735.48145,0.00034
733.42127,0.00058
731.36110,0.00040
729.30093,0.00000
727.24076,-0.00015
725.18059,0.00012
723.12041,0.00054
721.06024,0.00084
719.00007,0.00098
716.93990,0.00110
714.87972,0.00133
712.81955,0.00169
710.75938,0.00207
708.69921,0.00238
706.63904,0.00257
704.57886,0.00261
702.51869,0.00256
700.45852,0.00253
698.39835,0.00250
696.33818,0.00237
694.27800,0.00213
692.21783,0.00192
690.15766,0.00185
688.09749,0.00188
686.03731,0.00193
683.97714,0.00191
681.91697,0.00180
679.85680,0.00165
677.79663,0.00157
675.73645,0.00154
673.67628,0.00141
671.61611,0.00115
669.55594,0.00093
667.49577,0.00104
665.43559,0.00164
663.37542,0.00246
661.31525,0.00303
659.25508,0.00310
657.19491,0.00279
655.13473,0.00234
653.07456,0.00179
651.01439,0.00112
648.95422,0.00045
646.89404,0.00000
644.83387,-0.00012
642.77370,0.00040
640.71353,0.00121
638.65336,0.00184
636.59318,0.00207
634.53301,0.00197
632.47284,0.00172
630.41267,0.00139
628.35250,0.00118
626.29232,0.00138
624.23215,0.00183
622.17198,0.00184
620.11181,0.00098
618.05164,-0.00065
615.99146,-0.00219
613.93129,-0.00318
611.87112,-0.00376
609.81095,-0.00364
607.75077,-0.00276
605.69060,-0.00155
603.63043,-0.00048
601.57026,0.00003
599.51009,0.00000
