3996.73391,0.00028
3994.67373,0.00044
3992.61356,0.00055
3990.55339,0.00059
3988.49322,0.00049
3986.43305,0.00027
3984.37287,0.00005
3982.31270,0.00000
3980.25253,0.00016
3978.19236,0.00047
3976.13219,0.00075
3974.07201,0.00084
3972.01184,0.00075
3969.95167,0.00060
3967.89150,0.00051
3965.83133,0.00056
3963.77115,0.00072
3961.71098,0.00090
3959.65081,0.00098
3957.59064,0.00092
3955.53046,0.00079
3953.47029,0.00068
3951.41012,0.00063
3949.34995,0.00070
3947.28978,0.00085
3945.22960,0.00100
3943.16943,0.00104
3941.10926,0.00090
3939.04909,0.00067
3936.98892,0.00049
3934.92874,0.00047
3932.86857,0.00057
3930.80840,0.00069
3928.74823,0.00077
3926.68805,0.00081
3924.62788,0.00081
3922.56771,0.00077
3920.50754,0.00072
3918.44737,0.00071
3916.38719,0.00072
3914.32702,0.00067
3912.26685,0.00056
3910.20668,0.00050
3908.14651,0.00051
3906.08633,0.00057
3904.02616,0.00061
3901.96599,0.00064
3899.90582,0.00071
3897.84565,0.00082
3895.78547,0.00096
3893.72530,0.00112
3891.66513,0.00127
3889.60496,0.00134
3887.54478,0.00132
3885.48461,0.00119
3883.42444,0.00098
3881.36427,0.00074
3879.30410,0.00051
3877.24392,0.00035
3875.18375,0.00036
3873.12358,0.00060
3871.06341,0.00091
3869.00324,0.00112
3866.94306,0.00118
3864.88289,0.00120
3862.82272,0.00124
3860.76255,0.00121
3858.70237,0.00109
3856.64220,0.00096
3854.58203,0.00093
3852.52186,0.00099
3850.46169,0.00099
3848.40151,0.00089
3846.34134,0.00077
3844.28117,0.00074
3842.22100,0.00080
3840.16083,0.00097
3838.10065,0.00122
3836.04048,0.00142
3833.98031,0.00141
3831.92014,0.00127
3829.85997,0.00112
3827.79979,0.00103
3825.73962,0.00103
3823.67945,0.00114
3821.61928,0.00138
3819.55910,0.00163
3817.49893,0.00172
3815.43876,0.00152
3813.37859,0.00110
3811.31842,0.00072
3809.25824,0.00064
3807.19807,0.00088
3805.13790,0.00121
3803.07773,0.00141
3801.01756,0.00140
3798.95738,0.00124
3796.89721,0.00106
3794.83704,0.00092
3792.77687,0.00083
3790.71670,0.00078
3788.65652,0.00079
3786.59635,0.00085
3784.53618,0.00092
3782.47601,0.00091
3780.41583,0.00080
3778.35566,0.00066
3776.29549,0.00065
3774.23532,0.00080
3772.17515,0.00107
3770.11497,0.00123
3768.05480,0.00111
3765.99463,0.00077
3763.93446,0.00051
3761.87429,0.00050
3759.81411,0.00074
3757.75394,0.00109
3755.69377,0.00148
3753.63360,0.00196
3751.57342,0.00250
3749.51325,0.00289
3747.45308,0.00293
3745.39291,0.00260
3743.33274,0.00206
3741.27256,0.00155
3739.21239,0.00127
3737.15222,0.00124
3735.09205,0.00133
3733.03188,0.00141
3730.97170,0.00144
3728.91153,0.00143
3726.85136,0.00143
3724.79119,0.00144
3722.73102,0.00141
3720.67084,0.00136
3718.61067,0.00133
3716.55050,0.00141
3714.49033,0.00170
3712.43015,0.00218
3710.36998,0.00260
3708.30981,0.00266
3706.24964,0.00235
3704.18947,0.00191
3702.12929,0.00157
3700.06912,0.00131
3698.00895,0.00106
3695.94878,0.00082
3693.88861,0.00072
3691.82843,0.00080
3689.76826,0.00097
3687.70809,0.00110
3685.64792,0.00115
3683.58775,0.00119
3681.52757,0.00127
3679.46740,0.00141
3677.40723,0.00169
3675.34706,0.00208
3673.28688,0.00244
3671.22671,0.00263
3669.16654,0.00261
3667.10637,0.00240
3665.04620,0.00211
3662.98602,0.00185
3660.92585,0.00166
3658.86568,0.00156
3656.80551,0.00162
3654.74534,0.00189
3652.68516,0.00236
3650.62499,0.00293
3648.56482,0.00337
3646.50465,0.00354
3644.44447,0.00355
3642.38430,0.00350
3640.32413,0.00348
3638.26396,0.00352
3636.20379,0.00366
3634.14361,0.00391
3632.08344,0.00421
3630.02327,0.00443
3627.96310,0.00445
3625.90293,0.00425
3623.84275,0.00403
3621.78258,0.00393
3619.72241,0.00398
3617.66224,0.00415
3615.60207,0.00442
3613.54189,0.00477
3611.48172,0.00511
3609.42155,0.00539
3607.36138,0.00563
3605.30120,0.00586
3603.24103,0.00600
3601.18086,0.00600
3599.12069,0.00589
3597.06052,0.00581
3595.00034,0.00592
3592.94017,0.00622
3590.88000,0.00665
3588.81983,0.00707
3586.75966,0.00740
3584.69948,0.00765
3582.63931,0.00792
3580.57914,0.00823
3578.51897,0.00858
3576.45879,0.00894
3574.39862,0.00917
3572.33845,0.00922
3570.27828,0.00915
3568.21811,0.00912
3566.15793,0.00919
3564.09776,0.00938
3562.03759,0.00962
3559.97742,0.00992
3557.91725,0.01028
3555.85707,0.01066
3553.79690,0.01089
3551.73673,0.01092
3549.67656,0.01081
3547.61639,0.01072
3545.55621,0.01074
3543.49604,0.01091
3541.43587,0.01120
3539.37570,0.01151
3537.31552,0.01172
3535.25535,0.01184
3533.19518,0.01201
3531.13501,0.01226
3529.07484,0.01257
3527.01466,0.01289
3524.95449,0.01323
3522.89432,0.01359
3520.83415,0.01395
3518.77398,0.01425
3516.71380,0.01442
3514.65363,0.01445
3512.59346,0.01446
3510.53329,0.01459
3508.47312,0.01490
3506.41294,0.01530
3504.35277,0.01570
3502.29260,0.01597
3500.23243,0.01607
3498.17225,0.01608
3496.11208,0.01613
3494.05191,0.01629
3491.99174,0.01653
3489.93157,0.01681
3487.87139,0.01712
3485.81122,0.01741
3483.75105,0.01757
3481.69088,0.01758
3479.63071,0.01753
3477.57053,0.01758
3475.51036,0.01775
3473.45019,0.01799
3471.39002,0.01822
3469.32984,0.01838
3467.26967,0.01849
3465.20950,0.01860
3463.14933,0.01876
3461.08916,0.01900
3459.02898,0.01927
3456.96881,0.01952
3454.90864,0.01967
3452.84847,0.01979
3450.78830,0.01997
3448.72812,0.02023
3446.66795,0.02053
3444.60778,0.02080
3442.54761,0.02102
3440.48744,0.02117
3438.42726,0.02125
3436.36709,0.02124
3434.30692,0.02117
3432.24675,0.02107
3430.18657,0.02101
3428.12640,0.02104
3426.06623,0.02113
3424.00606,0.02125
3421.94589,0.02140
3419.88571,0.02161
3417.82554,0.02189
3415.76537,0.02219
3413.70520,0.02243
3411.64503,0.02256
3409.58485,0.02263
3407.52468,0.02267
3405.46451,0.02274
3403.40434,0.02291
3401.34416,0.02314
3399.28399,0.02335
3397.22382,0.02344
3395.16365,0.02344
3393.10348,0.02346
3391.04330,0.02358
3388.98313,0.02377
3386.92296,0.02395
3384.86279,0.02404
3382.80262,0.02406
3380.74244,0.02406
3378.68227,0.02411
3376.62210,0.02420
3374.56193,0.02435
3372.50176,0.02451
3370.44158,0.02462
3368.38141,0.02464
3366.32124,0.02460
3364.26107,0.02460
3362.20089,0.02466
3360.14072,0.02473
3358.08055,0.02477
3356.02038,0.02477
3353.96021,0.02478
3351.90003,0.02482
3349.83986,0.02491
3347.77969,0.02506
3345.71952,0.02524
3343.65935,0.02540
3341.59917,0.02549
3339.53900,0.02554
3337.47883,0.02555
3335.41866,0.02551
3333.35849,0.02548
3331.29831,0.02549
3329.23814,0.02557
3327.17797,0.02574
3325.11780,0.02600
3323.05762,0.02623
3320.99745,0.02641
3318.93728,0.02652
3316.87711,0.02655
3314.81694,0.02650
3312.75676,0.02643
3310.69659,0.02639
3308.63642,0.02635
3306.57625,0.02624
3304.51608,0.02611
3302.45590,0.02610
3300.39573,0.02624
3298.33556,0.02643
3296.27539,0.02655
3294.21521,0.02658
3292.15504,0.02660
3290.09487,0.02669
3288.03470,0.02684
3285.97453,0.02696
3283.91435,0.02700
3281.85418,0.02692
3279.79401,0.02678
3277.73384,0.02662
3275.67367,0.02647
3273.61349,0.02634
3271.55332,0.02621
3269.49315,0.02613
3267.43298,0.02611
3265.37281,0.02615
3263.31263,0.02622
3261.25246,0.02628
3259.19229,0.02633
3257.13212,0.02633
3255.07194,0.02624
3253.01177,0.02608
3250.95160,0.02593
3248.89143,0.02587
3246.83126,0.02585
3244.77108,0.02576
3242.71091,0.02565
3240.65074,0.02563
3238.59057,0.02572
3236.53040,0.02582
3234.47022,0.02579
3232.41005,0.02565
3230.34988,0.02547
3228.28971,0.02527
3226.22954,0.02508
3224.16936,0.02493
3222.10919,0.02480
3220.04902,0.02467
3217.98885,0.02451
3215.92867,0.02437
3213.86850,0.02427
3211.80833,0.02418
3209.74816,0.02401
3207.68799,0.02374
3205.62781,0.02345
3203.56764,0.02324
3201.50747,0.02318
3199.44730,0.02323
3197.38713,0.02326
3195.32695,0.02317
3193.26678,0.02299
3191.20661,0.02280
3189.14644,0.02266
3187.08626,0.02255
3185.02609,0.02244
3182.96592,0.02226
3180.90575,0.02201
3178.84558,0.02172
3176.78540,0.02148
3174.72523,0.02133
3172.66506,0.02127
3170.60489,0.02126
3168.54472,0.02122
3166.48454,0.02105
3164.42437,0.02070
3162.36420,0.02026
3160.30403,0.01986
3158.24386,0.01958
3156.18368,0.01943
3154.12351,0.01933
3152.06334,0.01921
3150.00317,0.01908
3147.94299,0.01895
3145.88282,0.01881
3143.82265,0.01862
3141.76248,0.01836
3139.70231,0.01813
3137.64213,0.01799
3135.58196,0.01794
3133.52179,0.01791
3131.46162,0.01783
3129.40145,0.01768
3127.34127,0.01747
3125.28110,0.01722
3123.22093,0.01694
3121.16076,0.01668
3119.10058,0.01649
3117.04041,0.01636
3114.98024,0.01623
3112.92007,0.01607
3110.85990,0.01585
3108.79972,0.01562
3106.73955,0.01541
3104.67938,0.01527
3102.61921,0.01523
3100.55904,0.01520
3098.49886,0.01508
3096.43869,0.01484
3094.37852,0.01453
3092.31835,0.01425
3090.25818,0.01410
3088.19800,0.01405
3086.13783,0.01403
3084.07766,0.01399
3082.01749,0.01386
3079.95731,0.01364
3077.89714,0.01339
3075.83697,0.01317
3073.77680,0.01297
3071.71663,0.01274
3069.65645,0.01248
3067.59628,0.01226
3065.53611,0.01213
3063.47594,0.01205
3061.41577,0.01193
3059.35559,0.01176
3057.29542,0.01161
3055.23525,0.01150
3053.17508,0.01139
3051.11491,0.01125
3049.05473,0.01108
3046.99456,0.01092
3044.93439,0.01076
3042.87422,0.01060
3040.81404,0.01046
3038.75387,0.01036
3036.69370,0.01025
3034.63353,0.01010
3032.57336,0.00995
3030.51318,0.00982
3028.45301,0.00971
3026.39284,0.00964
3024.33267,0.00962
3022.27250,0.00961
3020.21232,0.00952
3018.15215,0.00931
3016.09198,0.00907
3014.03181,0.00891
3011.97163,0.00890
3009.91146,0.00898
3007.85129,0.00905
3005.79112,0.00901
3003.73095,0.00884
3001.67077,0.00860
2999.61060,0.00843
2997.55043,0.00844
2995.49026,0.00861
2993.43009,0.00882
2991.36991,0.00895
2989.30974,0.00894
2987.24957,0.00893
2985.18940,0.00911
2983.12923,0.00935
2981.06905,0.00944
2979.00888,0.00938
2976.94871,0.00934
2974.88854,0.00942
2972.82836,0.00962
2970.76819,0.00982
2968.70802,0.00994
2966.64785,0.01010
2964.58768,0.01037
2962.52750,0.01065
2960.46733,0.01080
2958.40716,0.01087
2956.34699,0.01099
2954.28682,0.01125
2952.22664,0.01159
2950.16647,0.01186
2948.10630,0.01208
2946.04613,0.01232
2943.98596,0.01256
2941.92578,0.01270
2939.86561,0.01273
2937.80544,0.01277
2935.74527,0.01287
2933.68509,0.01297
2931.62492,0.01304
2929.56475,0.01307
2927.50458,0.01301
2925.44441,0.01284
2923.38423,0.01258
2921.32406,0.01235
2919.26389,0.01224
2917.20372,0.01227
2915.14355,0.01229
2913.08337,0.01216
2911.02320,0.01191
2908.96303,0.01171
2906.90286,0.01164
2904.84268,0.01158
2902.78251,0.01141
2900.72234,0.01127
2898.66217,0.01131
2896.60200,0.01137
2894.54182,0.01137
2892.48165,0.01136
2890.42148,0.01140
2888.36131,0.01135
2886.30114,0.01119
2884.24096,0.01106
2882.18079,0.01101
2880.12062,0.01091
2878.06045,0.01076
2876.00028,0.01059
2873.94010,0.01045
2871.87993,0.01034
2869.81976,0.01024
2867.75959,0.01009
2865.69941,0.00979
2863.63924,0.00945
2861.57907,0.00927
2859.51890,0.00926
2857.45873,0.00923
2855.39855,0.00912
2853.33838,0.00901
2851.27821,0.00893
2849.21804,0.00880
2847.15787,0.00867
2845.09769,0.00858
2843.03752,0.00854
2840.97735,0.00848
2838.91718,0.00837
2836.85700,0.00819
2834.79683,0.00794
2832.73666,0.00773
2830.67649,0.00766
2828.61632,0.00774
2826.55614,0.00786
2824.49597,0.00790
2822.43580,0.00781
2820.37563,0.00768
2818.31546,0.00759
2816.25528,0.00753
2814.19511,0.00753
2812.13494,0.00753
2810.07477,0.00742
2808.01460,0.00719
2805.95442,0.00701
2803.89425,0.00705
2801.83408,0.00716
2799.77391,0.00711
2797.71373,0.00693
2795.65356,0.00676
2793.59339,0.00673
2791.53322,0.00683
2789.47305,0.00692
2787.41287,0.00687
2785.35270,0.00672
2783.29253,0.00662
2781.23236,0.00664
2779.17219,0.00669
2777.11201,0.00673
2775.05184,0.00669
2772.99167,0.00659
2770.93150,0.00656
2768.87133,0.00660
2766.81115,0.00665
2764.75098,0.00668
2762.69081,0.00667
2760.63064,0.00662
2758.57046,0.00648
2756.51029,0.00623
2754.45012,0.00601
2752.38995,0.00597
2750.32978,0.00607
2748.26960,0.00625
2746.20943,0.00643
2744.14926,0.00648
2742.08909,0.00634
2740.02892,0.00610
2737.96874,0.00580
2735.90857,0.00557
2733.84840,0.00561
2731.78823,0.00590
2729.72805,0.00621
2727.66788,0.00639
2725.60771,0.00640
2723.54754,0.00625
2721.48737,0.00605
2719.42719,0.00593
2717.36702,0.00590
2715.30685,0.00581
2713.24668,0.00567
2711.18651,0.00556
2709.12633,0.00551
2707.06616,0.00553
2705.00599,0.00555
2702.94582,0.00560
2700.88565,0.00569
2698.82547,0.00574
2696.76530,0.00564
2694.70513,0.00544
2692.64496,0.00526
2690.58478,0.00522
2688.52461,0.00530
2686.46444,0.00541
2684.40427,0.00552
2682.34410,0.00562
2680.28392,0.00568
2678.22375,0.00562
2676.16358,0.00553
2674.10341,0.00549
2672.04324,0.00550
2669.98306,0.00546
2667.92289,0.00538
2665.86272,0.00534
2663.80255,0.00537
2661.74238,0.00538
2659.68220,0.00536
2657.62203,0.00533
2655.56186,0.00521
2653.50169,0.00501
2651.44151,0.00485
2649.38134,0.00477
2647.32117,0.00476
2645.26100,0.00480
2643.20083,0.00486
2641.14065,0.00495
2639.08048,0.00508
2637.02031,0.00523
2634.96014,0.00530
2632.89997,0.00523
2630.83979,0.00508
2628.77962,0.00495
2626.71945,0.00481
2624.65928,0.00460
2622.59910,0.00443
2620.53893,0.00439
2618.47876,0.00438
2616.41859,0.00434
2614.35842,0.00426
2612.29824,0.00417
2610.23807,0.00415
2608.17790,0.00423
2606.11773,0.00436
2604.05756,0.00440
2601.99738,0.00425
2599.93721,0.00401
2597.87704,0.00388
2595.81687,0.00384
2593.75670,0.00382
2591.69652,0.00382
2589.63635,0.00389
2587.57618,0.00395
2585.51601,0.00389
2583.45583,0.00373
2581.39566,0.00362
2579.33549,0.00364
2577.27532,0.00373
2575.21515,0.00375
2573.15497,0.00359
2571.09480,0.00331
2569.03463,0.00312
2566.97446,0.00312
2564.91429,0.00315
2562.85411,0.00314
2560.79394,0.00329
2558.73377,0.00364
2556.67360,0.00391
2554.61342,0.00397
2552.55325,0.00395
2550.49308,0.00393
2548.43291,0.00386
2546.37274,0.00372
2544.31256,0.00358
2542.25239,0.00347
2540.19222,0.00343
2538.13205,0.00346
2536.07188,0.00350
2534.01170,0.00351
2531.95153,0.00356
2529.89136,0.00372
2527.83119,0.00393
2525.77102,0.00399
2523.71084,0.00394
2521.65067,0.00396
2519.59050,0.00404
2517.53033,0.00413
2515.47015,0.00418
2513.40998,0.00410
2511.34981,0.00373
2509.28964,0.00304
2507.22947,0.00246
2505.16929,0.00235
2503.10912,0.00265
2501.04895,0.00312
2498.98878,0.00340
2496.92861,0.00326
2494.86843,0.00294
2492.80826,0.00278
2490.74809,0.00284
2488.68792,0.00297
2486.62775,0.00306
2484.56757,0.00311
2482.50740,0.00307
2480.44723,0.00297
2478.38706,0.00295
2476.32688,0.00308
2474.26671,0.00324
2472.20654,0.00333
2470.14637,0.00339
2468.08620,0.00337
2466.02602,0.00312
2463.96585,0.00287
2461.90568,0.00288
2459.84551,0.00297
2457.78534,0.00296
2455.72516,0.00300
2453.66499,0.00315
2451.60482,0.00330
2449.54465,0.00343
2447.48447,0.00352
2445.42430,0.00341
2443.36413,0.00314
2441.30396,0.00294
2439.24379,0.00285
2437.18361,0.00285
2435.12344,0.00301
2433.06327,0.00321
2431.00310,0.00325
2428.94293,0.00323
2426.88275,0.00318
2424.82258,0.00305
2422.76241,0.00296
2420.70224,0.00303
2418.64207,0.00311
2416.58189,0.00300
2414.52172,0.00271
2412.46155,0.00241
2410.40138,0.00225
2408.34120,0.00228
2406.28103,0.00245
2404.22086,0.00262
2402.16069,0.00270
2400.10052,0.00272
2398.04034,0.00271
2395.98017,0.00268
2393.92000,0.00270
2391.85983,0.00279
2389.79966,0.00293
2387.73948,0.00302
2385.67931,0.00297
2383.61914,0.00276
2381.55897,0.00242
2379.49880,0.00206
2377.43862,0.00178
2375.37845,0.00169
2373.31828,0.00182
2371.25811,0.00214
2369.19793,0.00260
2367.13776,0.00323
2365.07759,0.00398
2363.01742,0.00472
2360.95725,0.00516
2358.89707,0.00498
2356.83690,0.00423
2354.77673,0.00345
2352.71656,0.00300
2350.65639,0.00281
2348.59621,0.00272
2346.53604,0.00265
2344.47587,0.00253
2342.41570,0.00226
2340.35552,0.00184
2338.29535,0.00140
2336.23518,0.00105
2334.17501,0.00080
2332.11484,0.00087
2330.05466,0.00144
2327.99449,0.00229
2325.93432,0.00294
2323.87415,0.00317
2321.81398,0.00320
2319.75380,0.00331
2317.69363,0.00348
2315.63346,0.00349
2313.57329,0.00327
2311.51312,0.00292
2309.45294,0.00269
2307.39277,0.00275
2305.33260,0.00304
2303.27243,0.00336
2301.21225,0.00349
2299.15208,0.00335
2297.09191,0.00306
2295.03174,0.00282
2292.97157,0.00281
2290.91139,0.00297
2288.85122,0.00314
2286.79105,0.00324
2284.73088,0.00327
2282.67071,0.00330
2280.61053,0.00343
2278.55036,0.00365
2276.49019,0.00380
2274.43002,0.00380
2272.36984,0.00371
2270.30967,0.00359
2268.24950,0.00339
2266.18933,0.00309
2264.12916,0.00282
2262.06898,0.00272
2260.00881,0.00279
2257.94864,0.00294
2255.88847,0.00307
2253.82830,0.00315
2251.76812,0.00319
2249.70795,0.00311
2247.64778,0.00274
2245.58761,0.00212
2243.52744,0.00163
2241.46726,0.00148
2239.40709,0.00164
2237.34692,0.00203
2235.28675,0.00256
2233.22657,0.00302
2231.16640,0.00301
2229.10623,0.00260
2227.04606,0.00227
2224.98589,0.00219
2222.92571,0.00215
2220.86554,0.00213
2218.80537,0.00214
2216.74520,0.00230
2214.68503,0.00281
2212.62485,0.00356
2210.56468,0.00394
2208.50451,0.00350
2206.44434,0.00248
2204.38417,0.00156
2202.32399,0.00118
2200.26382,0.00119
2198.20365,0.00128
2196.14348,0.00170
2194.08330,0.00260
2192.02313,0.00334
2189.96296,0.00339
2187.90279,0.00307
2185.84262,0.00294
2183.78244,0.00336
2181.72227,0.00416
2179.66210,0.00456
2177.60193,0.00415
2175.54176,0.00347
2173.48158,0.00322
2171.42141,0.00316
2169.36124,0.00261
2167.30107,0.00175
2165.24089,0.00147
2163.18072,0.00166
2161.12055,0.00168
2159.06038,0.00197
2157.00021,0.00269
2154.94003,0.00275
2152.87986,0.00174
2150.81969,0.00055
2148.75952,0.00003
2146.69935,0.00024
2144.63917,0.00052
2142.57900,0.00074
2140.51883,0.00144
2138.45866,0.00235
2136.39849,0.00264
2134.33831,0.00217
2132.27814,0.00160
2130.21797,0.00157
2128.15780,0.00197
2126.09762,0.00240
2124.03745,0.00262
2121.97728,0.00259
2119.91711,0.00261
2117.85694,0.00284
2115.79676,0.00295
2113.73659,0.00277
2111.67642,0.00259
2109.61625,0.00261
2107.55608,0.00273
2105.49590,0.00286
2103.43573,0.00315
2101.37556,0.00337
2099.31539,0.00316
2097.25521,0.00279
2095.19504,0.00260
2093.13487,0.00261
2091.07470,0.00275
2089.01453,0.00298
2086.95435,0.00320
2084.89418,0.00331
2082.83401,0.00324
2080.77384,0.00298
2078.71367,0.00263
2076.65349,0.00240
2074.59332,0.00243
2072.53315,0.00270
2070.47298,0.00305
2068.41281,0.00330
2066.35263,0.00339
2064.29246,0.00338
2062.23229,0.00337
2060.17212,0.00344
2058.11194,0.00364
2056.05177,0.00387
2053.99160,0.00391
2051.93143,0.00367
2049.87126,0.00327
2047.81108,0.00295
2045.75091,0.00283
2043.69074,0.00281
2041.63057,0.00271
2039.57040,0.00245
2037.51022,0.00206
2035.45005,0.00168
2033.38988,0.00132
2031.32971,0.00089
2029.26954,0.00045
2027.20936,0.00023
2025.14919,0.00042
2023.08902,0.00096
2021.02885,0.00148
2018.96867,0.00161
2016.90850,0.00140
2014.84833,0.00119
2012.78816,0.00125
2010.72799,0.00159
2008.66781,0.00206
2006.60764,0.00238
2004.54747,0.00239
2002.48730,0.00221
2000.42713,0.00209
1998.36695,0.00209
1996.30678,0.00207
1994.24661,0.00195
1992.18644,0.00186
1990.12626,0.00205
1988.06609,0.00267
1986.00592,0.00358
1983.94575,0.00445
1981.88558,0.00487
1979.82540,0.00467
1977.76523,0.00398
1975.70506,0.00315
1973.64489,0.00239
1971.58472,0.00185
1969.52454,0.00169
1967.46437,0.00185
1965.40420,0.00193
1963.34403,0.00157
1961.28386,0.00084
1959.22368,0.00021
1957.16351,0.00000
1955.10334,0.00012
1953.04317,0.00039
1950.98299,0.00073
1948.92282,0.00101
1946.86265,0.00110
1944.80248,0.00111
1942.74231,0.00122
1940.68213,0.00152
1938.62196,0.00190
1936.56179,0.00213
1934.50162,0.00204
1932.44145,0.00176
1930.38127,0.00140
1928.32110,0.00106
1926.26093,0.00090
1924.20076,0.00109
1922.14059,0.00154
1920.08041,0.00205
1918.02024,0.00241
1915.96007,0.00248
1913.89990,0.00220
1911.83972,0.00165
1909.77955,0.00103
1907.71938,0.00055
1905.65921,0.00039
1903.59904,0.00050
1901.53886,0.00069
1899.47869,0.00084
1897.41852,0.00095
1895.35835,0.00109
1893.29818,0.00123
1891.23800,0.00130
1889.17783,0.00131
1887.11766,0.00132
1885.05749,0.00138
1882.99731,0.00146
1880.93714,0.00153
1878.87697,0.00162
1876.81680,0.00181
1874.75663,0.00206
1872.69645,0.00222
1870.63628,0.00223
1868.57611,0.00211
1866.51594,0.00193
1864.45577,0.00179
1862.39559,0.00174
1860.33542,0.00175
1858.27525,0.00170
1856.21508,0.00148
1854.15491,0.00109
1852.09473,0.00065
1850.03456,0.00037
1847.97439,0.00038
1845.91422,0.00068
1843.85404,0.00108
1841.79387,0.00136
1839.73370,0.00146
1837.67353,0.00142
1835.61336,0.00130
1833.55318,0.00116
1831.49301,0.00104
1829.43284,0.00093
1827.37267,0.00082
1825.31250,0.00073
1823.25232,0.00071
1821.19215,0.00072
1819.13198,0.00072
1817.07181,0.00079
1815.01163,0.00097
1812.95146,0.00120
1810.89129,0.00141
1808.83112,0.00152
1806.77095,0.00153
1804.71077,0.00150
1802.65060,0.00147
1800.59043,0.00146
1798.53026,0.00143
1796.47009,0.00140
1794.40991,0.00139
1792.34974,0.00133
1790.28957,0.00117
1788.22940,0.00103
1786.16923,0.00100
1784.10905,0.00111
1782.04888,0.00127
1779.98871,0.00141
1777.92854,0.00149
1775.86836,0.00157
1773.80819,0.00168
1771.74802,0.00175
1769.68785,0.00171
1767.62768,0.00165
1765.56750,0.00170
1763.50733,0.00188
1761.44716,0.00209
1759.38699,0.00221
1757.32682,0.00231
1755.26664,0.00254
1753.20647,0.00296
1751.14630,0.00349
1749.08613,0.00398
1747.02596,0.00437
1744.96578,0.00468
1742.90561,0.00492
1740.84544,0.00511
1738.78527,0.00527
1736.72509,0.00542
1734.66492,0.00556
1732.60475,0.00564
1730.54458,0.00558
1728.48441,0.00544
1726.42423,0.00531
1724.36406,0.00522
1722.30389,0.00517
1720.24372,0.00508
1718.18355,0.00488
1716.12337,0.00454
1714.06320,0.00416
1712.00303,0.00384
1709.94286,0.00365
1707.88268,0.00355
1705.82251,0.00347
1703.76234,0.00332
1701.70217,0.00314
1699.64200,0.00298
1697.58182,0.00289
1695.52165,0.00288
1693.46148,0.00295
1691.40131,0.00311
1689.34114,0.00337
1687.28096,0.00372
1685.22079,0.00410
1683.16062,0.00439
1681.10045,0.00450
1679.04028,0.00450
1676.98010,0.00462
1674.91993,0.00497
1672.85976,0.00549
1670.79959,0.00601
1668.73941,0.00641
1666.67924,0.00669
1664.61907,0.00696
1662.55890,0.00725
1660.49873,0.00759
1658.43855,0.00799
1656.37838,0.00845
1654.31821,0.00894
1652.25804,0.00936
1650.19787,0.00966
1648.13769,0.00990
1646.07752,0.01008
1644.01735,0.01017
1641.95718,0.01022
1639.89701,0.01031
1637.83683,0.01046
1635.77666,0.01061
1633.71649,0.01071
1631.65632,0.01073
1629.59614,0.01073
1627.53597,0.01078
1625.47580,0.01091
1623.41563,0.01107
1621.35546,0.01123
1619.29528,0.01134
1617.23511,0.01138
1615.17494,0.01129
1613.11477,0.01114
1611.05460,0.01095
1608.99442,0.01072
1606.93425,0.01038
1604.87408,0.00991
1602.81391,0.00933
1600.75373,0.00870
1598.69356,0.00807
1596.63339,0.00747
1594.57322,0.00689
1592.51305,0.00634
1590.45287,0.00578
1588.39270,0.00522
1586.33253,0.00470
1584.27236,0.00422
1582.21219,0.00379
1580.15201,0.00341
1578.09184,0.00310
1576.03167,0.00287
1573.97150,0.00269
1571.91133,0.00258
1569.85115,0.00252
1567.79098,0.00243
1565.73081,0.00226
1563.67064,0.00207
1561.61046,0.00195
1559.55029,0.00192
1557.49012,0.00187
1555.42995,0.00169
1553.36978,0.00145
1551.30960,0.00128
1549.24943,0.00126
1547.18926,0.00140
1545.12909,0.00163
1543.06892,0.00179
1541.00874,0.00174
1538.94857,0.00149
1536.88840,0.00118
1534.82823,0.00096
1532.76805,0.00085
1530.70788,0.00081
1528.64771,0.00085
1526.58754,0.00098
1524.52737,0.00114
1522.46719,0.00123
1520.40702,0.00120
1518.34685,0.00110
1516.28668,0.00100
1514.22651,0.00091
1512.16633,0.00086
1510.10616,0.00086
1508.04599,0.00092
1505.98582,0.00095
1503.92565,0.00086
1501.86547,0.00073
1499.80530,0.00066
1497.74513,0.00070
1495.68496,0.00075
1493.62478,0.00078
1491.56461,0.00085
1489.50444,0.00096
1487.44427,0.00106
1485.38410,0.00113
1483.32392,0.00123
1481.26375,0.00142
1479.20358,0.00174
1477.14341,0.00214
1475.08324,0.00256
1473.02306,0.00293
1470.96289,0.00323
1468.90272,0.00348
1466.84255,0.00375
1464.78238,0.00403
1462.72220,0.00435
1460.66203,0.00471
1458.60186,0.00505
1456.54169,0.00526
1454.48151,0.00531
1452.42134,0.00531
1450.36117,0.00534
1448.30100,0.00545
1446.24083,0.00562
1444.18065,0.00583
1442.12048,0.00610
1440.06031,0.00641
1438.00014,0.00676
1435.93997,0.00708
1433.87979,0.00733
1431.81962,0.00751
1429.75945,0.00764
1427.69928,0.00775
1425.63910,0.00789
1423.57893,0.00808
1421.51876,0.00832
1419.45859,0.00854
1417.39842,0.00867
1415.33824,0.00871
1413.27807,0.00872
1411.21790,0.00872
1409.15773,0.00869
1407.09756,0.00861
1405.03738,0.00847
1402.97721,0.00826
1400.91704,0.00805
1398.85687,0.00787
1396.79670,0.00776
1394.73652,0.00764
1392.67635,0.00749
1390.61618,0.00736
1388.55601,0.00734
1386.49583,0.00745
1384.43566,0.00766
1382.37549,0.00790
1380.31532,0.00809
1378.25515,0.00823
1376.19497,0.00836
1374.13480,0.00849
1372.07463,0.00860
1370.01446,0.00862
1367.95429,0.00854
1365.89411,0.00842
1363.83394,0.00829
1361.77377,0.00815
1359.71360,0.00795
1357.65343,0.00775
1355.59325,0.00759
1353.53308,0.00748
1351.47291,0.00738
1349.41274,0.00726
1347.35256,0.00712
1345.29239,0.00700
1343.23222,0.00697
1341.17205,0.00699
1339.11188,0.00699
1337.05170,0.00692
1334.99153,0.00684
1332.93136,0.00681
1330.87119,0.00682
1328.81102,0.00685
1326.75084,0.00685
1324.69067,0.00681
1322.63050,0.00674
1320.57033,0.00667
1318.51015,0.00667
1316.44998,0.00674
1314.38981,0.00683
1312.32964,0.00691
1310.26947,0.00693
1308.20929,0.00688
1306.14912,0.00677
1304.08895,0.00666
1302.02878,0.00654
1299.96861,0.00643
1297.90843,0.00630
1295.84826,0.00615
1293.78809,0.00600
1291.72792,0.00586
1289.66775,0.00574
1287.60757,0.00565
1285.54740,0.00558
1283.48723,0.00554
1281.42706,0.00550
1279.36688,0.00549
1277.30671,0.00551
1275.24654,0.00558
1273.18637,0.00573
1271.12620,0.00600
1269.06602,0.00634
1267.00585,0.00673
1264.94568,0.00708
1262.88551,0.00737
1260.82534,0.00759
1258.76516,0.00778
1256.70499,0.00798
1254.64482,0.00820
1252.58465,0.00841
1250.52447,0.00858
1248.46430,0.00869
1246.40413,0.00873
1244.34396,0.00867
1242.28379,0.00853
1240.22361,0.00830
1238.16344,0.00799
1236.10327,0.00765
1234.04310,0.00735
1231.98293,0.00709
1229.92275,0.00687
1227.86258,0.00665
1225.80241,0.00640
1223.74224,0.00611
1221.68207,0.00579
1219.62189,0.00546
1217.56172,0.00511
1215.50155,0.00477
1213.44138,0.00444
1211.38120,0.00412
1209.32103,0.00373
1207.26086,0.00322
1205.20069,0.00262
1203.14052,0.00200
1201.08034,0.00140
1199.02017,0.00087
1196.96000,0.00044
1194.89983,0.00017
1192.83966,0.00003
1190.77948,0.00000
1188.71931,-0.00000
1186.65914,0.00000
1184.59897,-0.00001
1182.53880,0.00003
1180.47862,0.00026
1178.41845,0.00069
1176.35828,0.00122
1174.29811,0.00182
1172.23793,0.00250
1170.17776,0.00316
1168.11759,0.00373
1166.05742,0.00417
1163.99725,0.00456
1161.93707,0.00504
1159.87690,0.00568
1157.81673,0.00635
1155.75656,0.00696
1153.69639,0.00749
1151.63621,0.00787
1149.57604,0.00812
1147.51587,0.00845
1145.45570,0.00891
1143.39552,0.00924
1141.33535,0.00926
1139.27518,0.00914
1137.21501,0.00914
1135.15484,0.00936
1133.09466,0.00979
1131.03449,0.01033
1128.97432,0.01085
1126.91415,0.01127
1124.85398,0.01170
1122.79380,0.01219
1120.73363,0.01269
1118.67346,0.01314
1116.61329,0.01355
1114.55312,0.01399
1112.49294,0.01451
1110.43277,0.01500
1108.37260,0.01544
1106.31243,0.01596
1104.25225,0.01658
1102.19208,0.01716
1100.13191,0.01768
1098.07174,0.01831
1096.01157,0.01916
1093.95139,0.02009
1091.89122,0.02091
1089.83105,0.02160
1087.77088,0.02225
1085.71071,0.02286
1083.65053,0.02343
1081.59036,0.02401
1079.53019,0.02455
1077.47002,0.02507
1075.40985,0.02570
1073.34967,0.02650
1071.28950,0.02726
1069.22933,0.02769
1067.16916,0.02783
1065.10898,0.02792
1063.04881,0.02809
1060.98864,0.02834
1058.92847,0.02860
1056.86830,0.02896
1054.80812,0.02946
1052.74795,0.02996
1050.68778,0.03036
1048.62761,0.03073
1046.56744,0.03109
1044.50726,0.03150
1042.44709,0.03204
1040.38692,0.03253
1038.32675,0.03281
1036.26657,0.03300
1034.20640,0.03322
1032.14623,0.03343
1030.08606,0.03356
1028.02589,0.03358
1025.96571,0.03355
1023.90554,0.03362
1021.84537,0.03378
1019.78520,0.03382
1017.72503,0.03368
1015.66485,0.03346
1013.60468,0.03332
1011.54451,0.03326
1009.48434,0.03317
1007.42417,0.03301
1005.36399,0.03280
1003.30382,0.03254
1001.24365,0.03216
999.18348,0.03175
997.12330,0.03140
995.06313,0.03112
993.00296,0.03086
990.94279,0.03048
988.88262,0.02998
986.82244,0.02952
984.76227,0.02901
982.70210,0.02840
980.64193,0.02787
978.58176,0.02762
976.52158,0.02761
974.46141,0.02761
972.40124,0.02747
970.34107,0.02715
968.28089,0.02659
966.22072,0.02589
964.16055,0.02521
962.10038,0.02461
960.04021,0.02421
957.98003,0.02400
955.91986,0.02367
953.85969,0.02305
951.79952,0.02241
949.73935,0.02199
947.67917,0.02157
945.61900,0.02088
943.55883,0.01999
941.49866,0.01893
939.43849,0.01761
937.37831,0.01616
935.31814,0.01481
933.25797,0.01359
931.19780,0.01239
929.13762,0.01117
927.07745,0.01010
925.01728,0.00928
922.95711,0.00858
920.89694,0.00794
918.83676,0.00746
916.77659,0.00703
914.71642,0.00654
912.65625,0.00612
910.59608,0.00594
908.53590,0.00585
906.47573,0.00559
904.41556,0.00526
902.35539,0.00509
900.29522,0.00506
898.23504,0.00506
896.17487,0.00524
894.11470,0.00550
892.05453,0.00550
889.99435,0.00529
887.93418,0.00510
885.87401,0.00492
883.81384,0.00453
881.75367,0.00395
879.69349,0.00352
877.63332,0.00347
875.57315,0.00353
873.51298,0.00334
871.45281,0.00296
869.39263,0.00259
867.33246,0.00227
865.27229,0.00209
863.21212,0.00199
861.15194,0.00178
859.09177,0.00165
857.03160,0.00181
854.97143,0.00202
852.91126,0.00197
850.85108,0.00169
848.79091,0.00142
846.73074,0.00132
844.67057,0.00132
842.61040,0.00108
840.55022,0.00056
838.49005,0.00016
836.42988,0.00006
834.36971,0.00027
832.30954,0.00060
830.24936,0.00073
828.18919,0.00079
826.12902,0.00097
824.06885,0.00110
822.00867,0.00111
819.94850,0.00103
817.88833,0.00085
815.82816,0.00083
813.76799,0.00110
811.70781,0.00124
809.64764,0.00117
807.58747,0.00131
805.52730,0.00171
803.46713,0.00199
801.40695,0.00196
799.34678,0.00175
797.28661,0.00139
795.22644,0.00083
793.16627,0.00029
791.10609,0.00000
789.04592,-0.00002
786.98575,0.00018
784.92558,0.00036
782.86540,0.00032
780.80523,0.00006
778.74506,-0.00001
776.68489,0.00041
774.62472,0.00103
772.56454,0.00136
770.50437,0.00135
768.44420,0.00138
766.38403,0.00148
764.32386,0.00126
762.26368,0.00072
760.20351,0.00025
758.14334,0.00007
756.08317,0.00031
754.02299,0.00102
751.96282,0.00177
749.90265,0.00195
747.84248,0.00148
745.78231,0.00083
743.72213,0.00057
741.66196,0.00062
739.60179,0.00038
737.54162,0.00000
735.48145,0.00017
733.42127,0.00070
731.36110,0.00065
729.30093,-0.00003
727.24076,-0.00054
725.18059,-0.00036
723.12041,0.00023
721.06024,0.00090
719.00007,0.00153
716.93990,0.00209
714.87972,0.00248
712.81955,0.00261
710.75938,0.00246
708.69921,0.00226
706.63904,0.00223
704.57886,0.00242
702.51869,0.00275
700.45852,0.00311
698.39835,0.00336
696.33818,0.00342
694.27800,0.00335
692.21783,0.00325
690.15766,0.00322
688.09749,0.00332
686.03731,0.00354
683.97714,0.00376
681.91697,0.00378
679.85680,0.00351
677.79663,0.00306
675.73645,0.00250
673.67628,0.00187
671.61611,0.00118
669.55594,0.00047
667.49577,0.00000
665.43559,0.00001
663.37542,0.00055
661.31525,0.00119
659.25508,0.00169
657.19491,0.00212
655.13473,0.00250
653.07456,0.00261
651.01439,0.00234
648.95422,0.00191
646.89404,0.00163
644.83387,0.00161
642.77370,0.00171
640.71353,0.00164
638.65336,0.00140
636.59318,0.00123
634.53301,0.00125
632.47284,0.00131
630.41267,0.00112
628.35250,0.00063
626.29232,0.00026
624.23215,0.00067
622.17198,0.00164
620.11181,0.00229
618.05164,0.00209
615.99146,0.00168
613.93129,0.00160
611.87112,0.00113
609.81095,-0.00008
607.75077,-0.00094
605.69060,-0.00043
603.63043,0.00067
601.57026,0.00085
599.51009,0.00000
