3996.73391	0.00045
3994.67373	0.00059
3992.61356	0.00067
3990.55339	0.00065
3988.49322	0.00050
3986.43305	0.00027
3984.37287	0.00006
3982.31270	0.00000
3980.25253	0.00009
3978.19236	0.00026
3976.13219	0.00041
3974.07201	0.00051
3972.01184	0.00054
3969.95167	0.00051
3967.89150	0.00045
3965.83133	0.00041
3963.77115	0.00042
3961.71098	0.00050
3959.65081	0.00059
3957.59064	0.00067
3955.53046	0.00070
3953.47029	0.00069
3951.41012	0.00069
3949.34995	0.00075
3947.28978	0.00083
3945.22960	0.00084
3943.16943	0.00081
3941.10926	0.00080
3939.04909	0.00080
3936.98892	0.00081
3934.92874	0.00081
3932.86857	0.00080
3930.80840	0.00077
3928.74823	0.00070
3926.68805	0.00062
3924.62788	0.00057
3922.56771	0.00057
3920.50754	0.00060
3918.44737	0.00066
3916.38719	0.00070
3914.32702	0.00067
3912.26685	0.00062
3910.20668	0.00061
3908.14651	0.00062
3906.08633	0.00058
3904.02616	0.00052
3901.96599	0.00045
3899.90582	0.00045
3897.84565	0.00055
3895.78547	0.00071
3893.72530	0.00080
3891.66513	0.00080
3889.60496	0.00077
3887.54478	0.00077
3885.48461	0.00082
3883.42444	0.00085
3881.36427	0.00079
3879.30410	0.00069
3877.24392	0.00058
3875.18375	0.00048
3873.12358	0.00043
3871.06341	0.00039
3869.00324	0.00038
3866.94306	0.00046
3864.88289	0.00063
3862.82272	0.00084
3860.76255	0.00098
3858.70237	0.00097
3856.64220	0.00088
3854.58203	0.00082
3852.52186	0.00083
3850.46169	0.00085
3848.40151	0.00081
3846.34134	0.00073
3844.28117	0.00067
3842.22100	0.00064
3840.16083	0.00060
3838.10065	0.00058
3836.04048	0.00062
3833.98031	0.00069
3831.92014	0.00077
3829.85997	0.00084
3827.79979	0.00088
3825.73962	0.00089
3823.67945	0.00083
3821.61928	0.00072
3819.55910	0.00061
3817.49893	0.00053
3815.43876	0.00054
3813.37859	0.00065
3811.31842	0.00075
3809.25824	0.00078
3807.19807	0.00078
3805.13790	0.00083
3803.07773	0.00092
3801.01756	0.00106
3798.95738	0.00117
3796.89721	0.00116
3794.83704	0.00106
3792.77687	0.00092
3790.71670	0.00081
3788.65652	0.00078
3786.59635	0.00081
3784.53618	0.00082
3782.47601	0.00079
3780.41583	0.00073
3778.35566	0.00068
3776.29549	0.00064
3774.23532	0.00061
3772.17515	0.00059
3770.11497	0.00057
3768.05480	0.00054
3765.99463	0.00055
3763.93446	0.00064
3761.87429	0.00075
3759.81411	0.00076
3757.75394	0.00069
3755.69377	0.00066
3753.63360	0.00080
3751.57342	0.00114
3749.51325	0.00153
3747.45308	0.00174
3745.39291	0.00176
3743.33274	0.00170
3741.27256	0.00159
3739.21239	0.00146
3737.15222	0.00136
3735.09205	0.00130
3733.03188	0.00121
3730.97170	0.00105
3728.91153	0.00086
3726.85136	0.00069
3724.79119	0.00061
3722.73102	0.00062
3720.67084	0.00067
3718.61067	0.00071
3716.55050	0.00073
3714.49033	0.00071
3712.43015	0.00066
3710.36998	0.00063
3708.30981	0.00060
3706.24964	0.00053
3704.18947	0.00050
3702.12929	0.00058
3700.06912	0.00074
3698.00895	0.00080
3695.94878	0.00072
3693.88861	0.00058
3691.82843	0.00053
3689.76826	0.00067
3687.70809	0.00095
3685.64792	0.00116
3683.58775	0.00111
3681.52757	0.00083
3679.46740	0.00049
3677.40723	0.00031
3675.34706	0.00034
3673.28688	0.00048
3671.22671	0.00062
3669.16654	0.00084
3667.10637	0.00108
3665.04620	0.00119
3662.98602	0.00118
3660.92585	0.00117
3658.86568	0.00123
3656.80551	0.00139
3654.74534	0.00159
3652.68516	0.00177
3650.62499	0.00185
3648.56482	0.00182
3646.50465	0.00172
3644.44447	0.00163
3642.38430	0.00162
3640.32413	0.00171
3638.26396	0.00188
3636.20379	0.00208
3634.14361	0.00232
3632.08344	0.00259
3630.02327	0.00278
3627.96310	0.00286
3625.90293	0.00290
3623.84275	0.00293
3621.78258	0.00292
3619.72241	0.00294
3617.66224	0.00301
3615.60207	0.00313
3613.54189	0.00323
3611.48172	0.00325
3609.42155	0.00325
3607.36138	0.00333
3605.30120	0.00352
3603.24103	0.00377
3601.18086	0.00402
3599.12069	0.00428
3597.06052	0.00457
3595.00034	0.00491
3592.94017	0.00520
3590.88000	0.00536
3588.81983	0.00539
3586.75966	0.00540
3584.69948	0.00548
3582.63931	0.00569
3580.57914	0.00602
3578.51897	0.00637
3576.45879	0.00662
3574.39862	0.00673
3572.33845	0.00677
3570.27828	0.00684
3568.21811	0.00704
3566.15793	0.00739
3564.09776	0.00778
3562.03759	0.00816
3559.97742	0.00854
3557.91725	0.00891
3555.85707	0.00921
3553.79690	0.00945
3551.73673	0.00965
3549.67656	0.00988
3547.61639	0.01015
3545.55621	0.01042
3543.49604	0.01071
3541.43587	0.01101
3539.37570	0.01132
3537.31552	0.01164
3535.25535	0.01195
3533.19518	0.01221
3531.13501	0.01240
3529.07484	0.01260
3527.01466	0.01285
3524.95449	0.01315
3522.89432	0.01346
3520.83415	0.01376
3518.77398	0.01405
3516.71380	0.01431
3514.65363	0.01453
3512.59346	0.01474
3510.53329	0.01498
3508.47312	0.01524
3506.41294	0.01549
3504.35277	0.01571
3502.29260	0.01593
3500.23243	0.01615
3498.17225	0.01642
3496.11208	0.01680
3494.05191	0.01728
3491.99174	0.01776
3489.93157	0.01814
3487.87139	0.01837
3485.81122	0.01850
3483.75105	0.01864
3481.69088	0.01887
3479.63071	0.01918
3477.57053	0.01947
3475.51036	0.01972
3473.45019	0.02001
3471.39002	0.02042
3469.32984	0.02089
3467.26967	0.02130
3465.20950	0.02157
3463.14933	0.02172
3461.08916	0.02186
3459.02898	0.02204
3456.96881	0.02224
3454.90864	0.02242
3452.84847	0.02260
3450.78830	0.02282
3448.72812	0.02309
3446.66795	0.02342
3444.60778	0.02382
3442.54761	0.02424
3440.48744	0.02462
3438.42726	0.02488
3436.36709	0.02504
3434.30692	0.02513
3432.24675	0.02526
3430.18657	0.02549
3428.12640	0.02578
3426.06623	0.02609
3424.00606	0.02638
3421.94589	0.02666
3419.88571	0.02695
3417.82554	0.02727
3415.76537	0.02759
3413.70520	0.02785
3411.64503	0.02800
3409.58485	0.02807
3407.52468	0.02816
3405.46451	0.02831
3403.40434	0.02847
3401.34416	0.02860
3399.28399	0.02875
3397.22382	0.02897
3395.16365	0.02926
3393.10348	0.02952
3391.04330	0.02973
3388.98313	0.02994
3386.92296	0.03012
3384.86279	0.03025
3382.80262	0.03032
3380.74244	0.03041
3378.68227	0.03058
3376.62210	0.03081
3374.56193	0.03105
3372.50176	0.03126
3370.44158	0.03142
3368.38141	0.03155
3366.32124	0.03169
3364.26107	0.03182
3362.20089	0.03191
3360.14072	0.03193
3358.08055	0.03192
3356.02038	0.03196
3353.96021	0.03208
3351.90003	0.03223
3349.83986	0.03235
3347.77969	0.03240
3345.71952	0.03242
3343.65935	0.03242
3341.59917	0.03245
3339.53900	0.03254
3337.47883	0.03264
3335.41866	0.03272
3333.35849	0.03276
3331.29831	0.03283
3329.23814	0.03293
3327.17797	0.03305
3325.11780	0.03315
3323.05762	0.03319
3320.99745	0.03317
3318.93728	0.03315
3316.87711	0.03316
3314.81694	0.03322
3312.75676	0.03330
3310.69659	0.03335
3308.63642	0.03336
3306.57625	0.03335
3304.51608	0.03338
3302.45590	0.03346
3300.39573	0.03354
3298.33556	0.03359
3296.27539	0.03359
3294.21521	0.03356
3292.15504	0.03350
3290.09487	0.03340
3288.03470	0.03331
3285.97453	0.03322
3283.91435	0.03315
3281.85418	0.03311
3279.79401	0.03312
3277.73384	0.03317
3275.67367	0.03325
3273.61349	0.03336
3271.55332	0.03345
3269.49315	0.03348
3267.43298	0.03347
3265.37281	0.03342
3263.31263	0.03333
3261.25246	0.03324
3259.19229	0.03320
3257.13212	0.03320
3255.07194	0.03319
3253.01177	0.03312
3250.95160	0.03297
3248.89143	0.03276
3246.83126	0.03259
3244.77108	0.03252
3242.71091	0.03250
3240.65074	0.03247
3238.59057	0.03245
3236.53040	0.03244
3234.47022	0.03242
3232.41005	0.03235
3230.34988	0.03219
3228.28971	0.03201
3226.22954	0.03184
3224.16936	0.03169
3222.10919	0.03156
3220.04902	0.03147
3217.98885	0.03144
3215.92867	0.03145
3213.86850	0.03145
3211.80833	0.03137
3209.74816	0.03123
3207.68799	0.03106
3205.62781	0.03085
3203.56764	0.03064
3201.50747	0.03048
3199.44730	0.03041
3197.38713	0.03040
3195.32695	0.03037
3193.26678	0.03028
3191.20661	0.03010
3189.14644	0.02984
3187.08626	0.02951
3185.02609	0.02919
3182.96592	0.02897
3180.90575	0.02888
3178.84558	0.02886
3176.78540	0.02881
3174.72523	0.02867
3172.66506	0.02847
3170.60489	0.02822
3168.54472	0.02795
3166.48454	0.02768
3164.42437	0.02749
3162.36420	0.02737
3160.30403	0.02730
3158.24386	0.02725
3156.18368	0.02716
3154.12351	0.02701
3152.06334	0.02684
3150.00317	0.02668
3147.94299	0.02652
3145.88282	0.02634
3143.82265	0.02612
3141.76248	0.02586
3139.70231	0.02556
3137.64213	0.02526
3135.58196	0.02498
3133.52179	0.02480
3131.46162	0.02473
3129.40145	0.02470
3127.34127	0.02464
3125.28110	0.02453
3123.22093	0.02437
3121.16076	0.02419
3119.10058	0.02397
3117.04041	0.02369
3114.98024	0.02339
3112.92007	0.02314
3110.85990	0.02293
3108.79972	0.02278
3106.73955	0.02266
3104.67938	0.02252
3102.61921	0.02236
3100.55904	0.02217
3098.49886	0.02196
3096.43869	0.02175
3094.37852	0.02154
3092.31835	0.02134
3090.25818	0.02117
3088.19800	0.02103
3086.13783	0.02092
3084.07766	0.02082
3082.01749	0.02071
3079.95731	0.02060
3077.89714	0.02047
3075.83697	0.02034
3073.77680	0.02016
3071.71663	0.01993
3069.65645	0.01966
3067.59628	0.01940
3065.53611	0.01919
3063.47594	0.01905
3061.41577	0.01898
3059.35559	0.01892
3057.29542	0.01883
3055.23525	0.01869
3053.17508	0.01850
3051.11491	0.01829
3049.05473	0.01809
3046.99456	0.01793
3044.93439	0.01778
3042.87422	0.01764
3040.81404	0.01751
3038.75387	0.01741
3036.69370	0.01732
3034.63353	0.01721
3032.57336	0.01703
3030.51318	0.01680
3028.45301	0.01658
3026.39284	0.01643
3024.33267	0.01636
3022.27250	0.01635
3020.21232	0.01636
3018.15215	0.01640
3016.09198	0.01645
3014.03181	0.01645
3011.97163	0.01635
3009.91146	0.01617
3007.85129	0.01596
3005.79112	0.01578
3003.73095	0.01562
3001.67077	0.01549
2999.61060	0.01541
2997.55043	0.01543
2995.49026	0.01545
2993.43009	0.01539
2991.36991	0.01532
2989.30974	0.01529
2987.24957	0.01529
2985.18940	0.01530
2983.12923	0.01537
2981.06905	0.01556
2979.00888	0.01594
2976.94871	0.01643
2974.88854	0.01691
2972.82836	0.01733
2970.76819	0.01778
2968.70802	0.01839
2966.64785	0.01919
2964.58768	0.02012
2962.52750	0.02114
2960.46733	0.02220
2958.40716	0.02326
2956.34699	0.02432
2954.28682	0.02536
2952.22664	0.02636
2950.16647	0.02737
2948.10630	0.02848
2946.04613	0.02986
2943.98596	0.03145
2941.92578	0.03303
2939.86561	0.03453
2937.80544	0.03610
2935.74527	0.03782
2933.68509	0.03956
2931.62492	0.04112
2929.56475	0.04250
2927.50458	0.04371
2925.44441	0.04474
2923.38423	0.04562
2921.32406	0.04632
2919.26389	0.04660
2917.20372	0.04623
2915.14355	0.04514
2913.08337	0.04352
2911.02320	0.04169
2908.96303	0.03995
2906.90286	0.03841
2904.84268	0.03704
2902.78251	0.03584
2900.72234	0.03476
2898.66217	0.03374
2896.60200	0.03277
2894.54182	0.03192
2892.48165	0.03118
2890.42148	0.03046
2888.36131	0.02976
2886.30114	0.02910
2884.24096	0.02851
2882.18079	0.02811
2880.12062	0.02789
2878.06045	0.02779
2876.00028	0.02772
2873.94010	0.02773
2871.87993	0.02791
2869.81976	0.02820
2867.75959	0.02855
2865.69941	0.02906
2863.63924	0.02989
2861.57907	0.03105
2859.51890	0.03234
2857.45873	0.03353
2855.39855	0.03465
2853.33838	0.03574
2851.27821	0.03645
2849.21804	0.03613
2847.15787	0.03447
2845.09769	0.03201
2843.03752	0.02954
2840.97735	0.02748
2838.91718	0.02583
2836.85700	0.02449
2834.79683	0.02339
2832.73666	0.02250
2830.67649	0.02179
2828.61632	0.02122
2826.55614	0.02078
2824.49597	0.02039
2822.43580	0.01998
2820.37563	0.01958
2818.31546	0.01927
2816.25528	0.01896
2814.19511	0.01862
2812.13494	0.01834
2810.07477	0.01817
2808.01460	0.01802
2805.95442	0.01780
2803.89425	0.01751
2801.83408	0.01724
2799.77391	0.01703
2797.71373	0.01683
2795.65356	0.01661
2793.59339	0.01640
2791.53322	0.01625
2789.47305	0.01617
2787.41287	0.01610
2785.35270	0.01599
2783.29253	0.01579
2781.23236	0.01557
2779.17219	0.01545
2777.11201	0.01544
2775.05184	0.01546
2772.99167	0.01538
2770.93150	0.01514
2768.87133	0.01486
2766.81115	0.01476
2764.75098	0.01483
2762.69081	0.01488
2760.63064	0.01482
2758.57046	0.01472
2756.51029	0.01469
2754.45012	0.01468
2752.38995	0.01459
2750.32978	0.01448
2748.26960	0.01447
2746.20943	0.01452
2744.14926	0.01457
2742.08909	0.01457
2740.02892	0.01453
2737.96874	0.01445
2735.90857	0.01437
2733.84840	0.01431
2731.78823	0.01426
2729.72805	0.01421
2727.66788	0.01418
2725.60771	0.01415
2723.54754	0.01407
2721.48737	0.01392
2719.42719	0.01376
2717.36702	0.01368
2715.30685	0.01371
2713.24668	0.01380
2711.18651	0.01388
2709.12633	0.01390
2707.06616	0.01388
2705.00599	0.01380
2702.94582	0.01372
2700.88565	0.01370
2698.82547	0.01374
2696.76530	0.01374
2694.70513	0.01366
2692.64496	0.01354
2690.58478	0.01345
2688.52461	0.01335
2686.46444	0.01329
2684.40427	0.01329
2682.34410	0.01334
2680.28392	0.01335
2678.22375	0.01330
2676.16358	0.01323
2674.10341	0.01315
2672.04324	0.01306
2669.98306	0.01299
2667.92289	0.01301
2665.86272	0.01311
2663.80255	0.01319
2661.74238	0.01317
2659.68220	0.01305
2657.62203	0.01292
2655.56186	0.01286
2653.50169	0.01283
2651.44151	0.01278
2649.38134	0.01268
2647.32117	0.01258
2645.26100	0.01255
2643.20083	0.01246
2641.14065	0.01226
2639.08048	0.01205
2637.02031	0.01201
2634.96014	0.01209
2632.89997	0.01219
2630.83979	0.01227
2628.77962	0.01232
2626.71945	0.01226
2624.65928	0.01208
2622.59910	0.01183
2620.53893	0.01158
2618.47876	0.01142
2616.41859	0.01130
2614.35842	0.01118
2612.29824	0.01107
2610.23807	0.01100
2608.17790	0.01106
2606.11773	0.01119
2604.05756	0.01121
2601.99738	0.01105
2599.93721	0.01089
2597.87704	0.01082
2595.81687	0.01079
2593.75670	0.01075
2591.69652	0.01069
2589.63635	0.01059
2587.57618	0.01052
2585.51601	0.01051
2583.45583	0.01049
2581.39566	0.01049
2579.33549	0.01054
2577.27532	0.01059
2575.21515	0.01054
2573.15497	0.01034
2571.09480	0.01010
2569.03463	0.00993
2566.97446	0.00983
2564.91429	0.00984
2562.85411	0.00992
2560.79394	0.00997
2558.73377	0.00994
2556.67360	0.00987
2554.61342	0.00978
2552.55325	0.00961
2550.49308	0.00943
2548.43291	0.00941
2546.37274	0.00961
2544.31256	0.00975
2542.25239	0.00958
2540.19222	0.00930
2538.13205	0.00924
2536.07188	0.00936
2534.01170	0.00944
2531.95153	0.00942
2529.89136	0.00928
2527.83119	0.00908
2525.77102	0.00900
2523.71084	0.00911
2521.65067	0.00927
2519.59050	0.00930
2517.53033	0.00922
2515.47015	0.00908
2513.40998	0.00894
2511.34981	0.00879
2509.28964	0.00862
2507.22947	0.00849
2505.16929	0.00848
2503.10912	0.00863
2501.04895	0.00882
2498.98878	0.00892
2496.92861	0.00888
2494.86843	0.00868
2492.80826	0.00841
2490.74809	0.00826
2488.68792	0.00835
2486.62775	0.00855
2484.56757	0.00872
2482.50740	0.00877
2480.44723	0.00871
2478.38706	0.00856
2476.32688	0.00838
2474.26671	0.00825
2472.20654	0.00820
2470.14637	0.00818
2468.08620	0.00817
2466.02602	0.00809
2463.96585	0.00799
2461.90568	0.00795
2459.84551	0.00801
2457.78534	0.00813
2455.72516	0.00816
2453.66499	0.00806
2451.60482	0.00794
2449.54465	0.00794
2447.48447	0.00799
2445.42430	0.00797
2443.36413	0.00792
2441.30396	0.00794
2439.24379	0.00800
2437.18361	0.00805
2435.12344	0.00806
2433.06327	0.00791
2431.00310	0.00759
2428.94293	0.00737
2426.88275	0.00741
2424.82258	0.00745
2422.76241	0.00727
2420.70224	0.00706
2418.64207	0.00708
2416.58189	0.00723
2414.52172	0.00731
2412.46155	0.00726
2410.40138	0.00722
2408.34120	0.00729
2406.28103	0.00741
2404.22086	0.00741
2402.16069	0.00727
2400.10052	0.00717
2398.04034	0.00722
2395.98017	0.00735
2393.92000	0.00747
2391.85983	0.00754
2389.79966	0.00757
2387.73948	0.00756
2385.67931	0.00749
2383.61914	0.00739
2381.55897	0.00733
2379.49880	0.00734
2377.43862	0.00735
2375.37845	0.00726
2373.31828	0.00707
2371.25811	0.00691
2369.19793	0.00690
2367.13776	0.00711
2365.07759	0.00757
2363.01742	0.00816
2360.95725	0.00857
2358.89707	0.00847
2356.83690	0.00804
2354.77673	0.00779
2352.71656	0.00792
2350.65639	0.00824
2348.59621	0.00830
2346.53604	0.00791
2344.47587	0.00732
2342.41570	0.00682
2340.35552	0.00659
2338.29535	0.00661
2336.23518	0.00683
2334.17501	0.00722
2332.11484	0.00773
2330.05466	0.00824
2327.99449	0.00862
2325.93432	0.00875
2323.87415	0.00862
2321.81398	0.00840
2319.75380	0.00825
2317.69363	0.00816
2315.63346	0.00803
2313.57329	0.00785
2311.51312	0.00765
2309.45294	0.00746
2307.39277	0.00731
2305.33260	0.00725
2303.27243	0.00728
2301.21225	0.00741
2299.15208	0.00762
2297.09191	0.00780
2295.03174	0.00793
2292.97157	0.00800
2290.91139	0.00797
2288.85122	0.00778
2286.79105	0.00743
2284.73088	0.00706
2282.67071	0.00683
2280.61053	0.00680
2278.55036	0.00688
2276.49019	0.00692
2274.43002	0.00682
2272.36984	0.00663
2270.30967	0.00654
2268.24950	0.00661
2266.18933	0.00670
2264.12916	0.00661
2262.06898	0.00630
2260.00881	0.00587
2257.94864	0.00554
2255.88847	0.00546
2253.82830	0.00558
2251.76812	0.00580
2249.70795	0.00598
2247.64778	0.00602
2245.58761	0.00594
2243.52744	0.00577
2241.46726	0.00560
2239.40709	0.00545
2237.34692	0.00538
2235.28675	0.00544
2233.22657	0.00545
2231.16640	0.00508
2229.10623	0.00459
2227.04606	0.00447
2224.98589	0.00463
2222.92571	0.00486
2220.86554	0.00528
2218.80537	0.00582
2216.74520	0.00613
2214.68503	0.00594
2212.62485	0.00539
2210.56468	0.00481
2208.50451	0.00451
2206.44434	0.00474
2204.38417	0.00531
2202.32399	0.00558
2200.26382	0.00550
2198.20365	0.00547
2196.14348	0.00552
2194.08330	0.00548
2192.02313	0.00536
2189.96296	0.00536
2187.90279	0.00555
2185.84262	0.00566
2183.78244	0.00546
2181.72227	0.00499
2179.66210	0.00451
2177.60193	0.00434
2175.54176	0.00450
2173.48158	0.00487
2171.42141	0.00543
2169.36124	0.00601
2167.30107	0.00614
2165.24089	0.00566
2163.18072	0.00465
2161.12055	0.00328
2159.06038	0.00235
2157.00021	0.00250
2154.94003	0.00323
2152.87986	0.00385
2150.81969	0.00423
2148.75952	0.00437
2146.69935	0.00428
2144.63917	0.00397
2142.57900	0.00358
2140.51883	0.00348
2138.45866	0.00380
2136.39849	0.00421
2134.33831	0.00435
2132.27814	0.00418
2130.21797	0.00399
2128.15780	0.00409
2126.09762	0.00449
2124.03745	0.00490
2121.97728	0.00520
2119.91711	0.00541
2117.85694	0.00550
2115.79676	0.00553
2113.73659	0.00563
2111.67642	0.00570
2109.61625	0.00562
2107.55608	0.00565
2105.49590	0.00585
2103.43573	0.00585
2101.37556	0.00551
2099.31539	0.00519
2097.25521	0.00508
2095.19504	0.00517
2093.13487	0.00530
2091.07470	0.00531
2089.01453	0.00517
2086.95435	0.00503
2084.89418	0.00505
2082.83401	0.00522
2080.77384	0.00529
2078.71367	0.00517
2076.65349	0.00499
2074.59332	0.00497
2072.53315	0.00508
2070.47298	0.00514
2068.41281	0.00503
2066.35263	0.00482
2064.29246	0.00466
2062.23229	0.00457
2060.17212	0.00452
2058.11194	0.00447
2056.05177	0.00445
2053.99160	0.00441
2051.93143	0.00422
2049.87126	0.00387
2047.81108	0.00349
2045.75091	0.00325
2043.69074	0.00320
2041.63057	0.00329
2039.57040	0.00337
2037.51022	0.00338
2035.45005	0.00340
2033.38988	0.00350
2031.32971	0.00363
2029.26954	0.00375
2027.20936	0.00396
2025.14919	0.00423
2023.08902	0.00433
2021.02885	0.00410
2018.96867	0.00362
2016.90850	0.00303
2014.84833	0.00246
2012.78816	0.00207
2010.72799	0.00200
2008.66781	0.00224
2006.60764	0.00264
2004.54747	0.00301
2002.48730	0.00317
2000.42713	0.00306
1998.36695	0.00276
1996.30678	0.00251
1994.24661	0.00240
1992.18644	0.00235
1990.12626	0.00229
1988.06609	0.00232
1986.00592	0.00254
1983.94575	0.00285
1981.88558	0.00301
1979.82540	0.00286
1977.76523	0.00250
1975.70506	0.00218
1973.64489	0.00208
1971.58472	0.00223
1969.52454	0.00251
1967.46437	0.00279
1965.40420	0.00287
1963.34403	0.00271
1961.28386	0.00248
1959.22368	0.00238
1957.16351	0.00247
1955.10334	0.00268
1953.04317	0.00298
1950.98299	0.00335
1948.92282	0.00370
1946.86265	0.00388
1944.80248	0.00378
1942.74231	0.00341
1940.68213	0.00292
1938.62196	0.00253
1936.56179	0.00235
1934.50162	0.00232
1932.44145	0.00232
1930.38127	0.00235
1928.32110	0.00246
1926.26093	0.00261
1924.20076	0.00274
1922.14059	0.00280
1920.08041	0.00286
1918.02024	0.00302
1915.96007	0.00325
1913.89990	0.00347
1911.83972	0.00361
1909.77955	0.00369
1907.71938	0.00369
1905.65921	0.00358
1903.59904	0.00338
1901.53886	0.00317
1899.47869	0.00302
1897.41852	0.00302
1895.35835	0.00317
1893.29818	0.00337
1891.23800	0.00347
1889.17783	0.00341
1887.11766	0.00331
1885.05749	0.00324
1882.99731	0.00322
1880.93714	0.00320
1878.87697	0.00318
1876.81680	0.00319
1874.75663	0.00320
1872.69645	0.00317
1870.63628	0.00313
1868.57611	0.00311
1866.51594	0.00310
1864.45577	0.00311
1862.39559	0.00316
1860.33542	0.00321
1858.27525	0.00322
1856.21508	0.00321
1854.15491	0.00319
1852.09473	0.00318
1850.03456	0.00317
1847.97439	0.00317
1845.91422	0.00315
1843.85404	0.00310
1841.79387	0.00303
1839.73370	0.00294
1837.67353	0.00282
1835.61336	0.00270
1833.55318	0.00262
1831.49301	0.00265
1829.43284	0.00280
1827.37267	0.00296
1825.31250	0.00300
1823.25232	0.00290
1821.19215	0.00268
1819.13198	0.00244
1817.07181	0.00228
1815.01163	0.00225
1812.95146	0.00232
1810.89129	0.00246
1808.83112	0.00260
1806.77095	0.00271
1804.71077	0.00276
1802.65060	0.00277
1800.59043	0.00276
1798.53026	0.00271
1796.47009	0.00265
1794.40991	0.00259
1792.34974	0.00254
1790.28957	0.00250
1788.22940	0.00243
1786.16923	0.00234
1784.10905	0.00226
1782.04888	0.00223
1779.98871	0.00218
1777.92854	0.00215
1775.86836	0.00214
1773.80819	0.00222
1771.74802	0.00241
1769.68785	0.00269
1767.62768	0.00300
1765.56750	0.00331
1763.50733	0.00368
1761.44716	0.00421
1759.38699	0.00495
1757.32682	0.00589
1755.26664	0.00696
1753.20647	0.00806
1751.14630	0.00918
1749.08613	0.01032
1747.02596	0.01143
1744.96578	0.01237
1742.90561	0.01309
1740.84544	0.01354
1738.78527	0.01377
1736.72509	0.01381
1734.66492	0.01373
1732.60475	0.01365
1730.54458	0.01359
1728.48441	0.01354
1726.42423	0.01349
1724.36406	0.01346
1722.30389	0.01348
1720.24372	0.01354
1718.18355	0.01363
1716.12337	0.01375
1714.06320	0.01390
1712.00303	0.01400
1709.94286	0.01399
1707.88268	0.01388
1705.82251	0.01372
1703.76234	0.01358
1701.70217	0.01348
1699.64200	0.01348
1697.58182	0.01367
1695.52165	0.01408
1693.46148	0.01466
1691.40131	0.01531
1689.34114	0.01601
1687.28096	0.01684
1685.22079	0.01793
1683.16062	0.01931
1681.10045	0.02079
1679.04028	0.02211
1676.98010	0.02319
1674.91993	0.02400
1672.85976	0.02450
1670.79959	0.02464
1668.73941	0.02446
1666.67924	0.02409
1664.61907	0.02361
1662.55890	0.02309
1660.49873	0.02260
1658.43855	0.02215
1656.37838	0.02173
1654.31821	0.02135
1652.25804	0.02114
1650.19787	0.02112
1648.13769	0.02119
1646.07752	0.02130
1644.01735	0.02147
1641.95718	0.02173
1639.89701	0.02205
1637.83683	0.02242
1635.77666	0.02287
1633.71649	0.02342
1631.65632	0.02397
1629.59614	0.02442
1627.53597	0.02472
1625.47580	0.02491
1623.41563	0.02504
1621.35546	0.02522
1619.29528	0.02543
1617.23511	0.02568
1615.17494	0.02605
1613.11477	0.02665
1611.05460	0.02748
1608.99442	0.02840
1606.93425	0.02916
1604.87408	0.02950
1602.81391	0.02926
1600.75373	0.02848
1598.69356	0.02740
1596.63339	0.02625
1594.57322	0.02522
1592.51305	0.02437
1590.45287	0.02368
1588.39270	0.02308
1586.33253	0.02247
1584.27236	0.02186
1582.21219	0.02127
1580.15201	0.02071
1578.09184	0.02017
1576.03167	0.01965
1573.97150	0.01920
1571.91133	0.01877
1569.85115	0.01828
1567.79098	0.01773
1565.73081	0.01714
1563.67064	0.01647
1561.61046	0.01572
1559.55029	0.01489
1557.49012	0.01417
1555.42995	0.01362
1553.36978	0.01316
1551.30960	0.01268
1549.24943	0.01214
1547.18926	0.01155
1545.12909	0.01090
1543.06892	0.01023
1541.00874	0.00960
1538.94857	0.00915
1536.88840	0.00889
1534.82823	0.00867
1532.76805	0.00841
1530.70788	0.00815
1528.64771	0.00794
1526.58754	0.00787
1524.52737	0.00808
1522.46719	0.00863
1520.40702	0.00950
1518.34685	0.01049
1516.28668	0.01130
1514.22651	0.01170
1512.16633	0.01155
1510.10616	0.01086
1508.04599	0.00975
1505.98582	0.00849
1503.92565	0.00737
1501.86547	0.00646
1499.80530	0.00570
1497.74513	0.00504
1495.68496	0.00450
1493.62478	0.00404
1491.56461	0.00360
1489.50444	0.00321
1487.44427	0.00296
1485.38410	0.00289
1483.32392	0.00301
1481.26375	0.00330
1479.20358	0.00379
1477.14341	0.00451
1475.08324	0.00552
1473.02306	0.00685
1470.96289	0.00842
1468.90272	0.01002
1466.84255	0.01148
1464.78238	0.01272
1462.72220	0.01372
1460.66203	0.01449
1458.60186	0.01513
1456.54169	0.01577
1454.48151	0.01642
1452.42134	0.01702
1450.36117	0.01757
1448.30100	0.01810
1446.24083	0.01866
1444.18065	0.01927
1442.12048	0.01990
1440.06031	0.02046
1438.00014	0.02089
1435.93997	0.02123
1433.87979	0.02151
1431.81962	0.02173
1429.75945	0.02185
1427.69928	0.02192
1425.63910	0.02196
1423.57893	0.02202
1421.51876	0.02210
1419.45859	0.02215
1417.39842	0.02216
1415.33824	0.02207
1413.27807	0.02187
1411.21790	0.02155
1409.15773	0.02111
1407.09756	0.02057
1405.03738	0.01996
1402.97721	0.01935
1400.91704	0.01879
1398.85687	0.01828
1396.79670	0.01781
1394.73652	0.01741
1392.67635	0.01715
1390.61618	0.01706
1388.55601	0.01716
1386.49583	0.01745
1384.43566	0.01788
1382.37549	0.01841
1380.31532	0.01896
1378.25515	0.01947
1376.19497	0.01990
1374.13480	0.02021
1372.07463	0.02040
1370.01446	0.02046
1367.95429	0.02036
1365.89411	0.02013
1363.83394	0.01981
1361.77377	0.01946
1359.71360	0.01913
1357.65343	0.01882
1355.59325	0.01856
1353.53308	0.01837
1351.47291	0.01826
1349.41274	0.01825
1347.35256	0.01829
1345.29239	0.01835
1343.23222	0.01837
1341.17205	0.01832
1339.11188	0.01823
1337.05170	0.01814
1334.99153	0.01809
1332.93136	0.01812
1330.87119	0.01821
1328.81102	0.01833
1326.75084	0.01846
1324.69067	0.01855
1322.63050	0.01860
1320.57033	0.01858
1318.51015	0.01849
1316.44998	0.01837
1314.38981	0.01822
1312.32964	0.01800
1310.26947	0.01771
1308.20929	0.01732
1306.14912	0.01684
1304.08895	0.01631
1302.02878	0.01580
1299.96861	0.01538
1297.90843	0.01510
1295.84826	0.01499
1293.78809	0.01504
1291.72792	0.01522
1289.66775	0.01545
1287.60757	0.01567
1285.54740	0.01583
1283.48723	0.01595
1281.42706	0.01604
1279.36688	0.01612
1277.30671	0.01621
1275.24654	0.01633
1273.18637	0.01653
1271.12620	0.01684
1269.06602	0.01724
1267.00585	0.01771
1264.94568	0.01824
1262.88551	0.01879
1260.82534	0.01933
1258.76516	0.01984
1256.70499	0.02030
1254.64482	0.02070
1252.58465	0.02106
1250.52447	0.02138
1248.46430	0.02167
1246.40413	0.02192
1244.34396	0.02208
1242.28379	0.02213
1240.22361	0.02208
1238.16344	0.02194
1236.10327	0.02172
1234.04310	0.02137
1231.98293	0.02089
1229.92275	0.02029
1227.86258	0.01959
1225.80241	0.01881
1223.74224	0.01796
1221.68207	0.01706
1219.62189	0.01615
1217.56172	0.01524
1215.50155	0.01434
1213.44138	0.01345
1211.38120	0.01260
1209.32103	0.01178
1207.26086	0.01096
1205.20069	0.01008
1203.14052	0.00910
1201.08034	0.00803
1199.02017	0.00694
1196.96000	0.00592
1194.89983	0.00504
1192.83966	0.00431
1190.77948	0.00372
1188.71931	0.00327
1186.65914	0.00297
1184.59897	0.00284
1182.53880	0.00284
1180.47862	0.00310
1178.41845	0.00372
1176.35828	0.00477
1174.29811	0.00621
1172.23793	0.00790
1170.17776	0.00959
1168.11759	0.01094
1166.05742	0.01174
1163.99725	0.01217
1161.93707	0.01251
1159.87690	0.01290
1157.81673	0.01333
1155.75656	0.01380
1153.69639	0.01433
1151.63621	0.01493
1149.57604	0.01562
1147.51587	0.01637
1145.45570	0.01714
1143.39552	0.01784
1141.33535	0.01839
1139.27518	0.01884
1137.21501	0.01928
1135.15484	0.01981
1133.09466	0.02044
1131.03449	0.02116
1128.97432	0.02190
1126.91415	0.02260
1124.85398	0.02331
1122.79380	0.02413
1120.73363	0.02511
1118.67346	0.02612
1116.61329	0.02705
1114.55312	0.02793
1112.49294	0.02880
1110.43277	0.02966
1108.37260	0.03050
1106.31243	0.03132
1104.25225	0.03215
1102.19208	0.03309
1100.13191	0.03421
1098.07174	0.03546
1096.01157	0.03683
1093.95139	0.03827
1091.89122	0.03971
1089.83105	0.04106
1087.77088	0.04228
1085.71071	0.04345
1083.65053	0.04474
1081.59036	0.04620
1079.53019	0.04781
1077.47002	0.04946
1075.40985	0.05104
1073.34967	0.05249
1071.28950	0.05380
1069.22933	0.05502
1067.16916	0.05612
1065.10898	0.05711
1063.04881	0.05801
1060.98864	0.05888
1058.92847	0.05985
1056.86830	0.06101
1054.80812	0.06231
1052.74795	0.06368
1050.68778	0.06513
1048.62761	0.06670
1046.56744	0.06838
1044.50726	0.07004
1042.44709	0.07159
1040.38692	0.07297
1038.32675	0.07417
1036.26657	0.07518
1034.20640	0.07590
1032.14623	0.07628
1030.08606	0.07641
1028.02589	0.07638
1025.96571	0.07616
1023.90554	0.07578
1021.84537	0.07540
1019.78520	0.07511
1017.72503	0.07494
1015.66485	0.07490
1013.60468	0.07501
1011.54451	0.07519
1009.48434	0.07529
1007.42417	0.07523
1005.36399	0.07497
1003.30382	0.07453
1001.24365	0.07394
999.18348	0.07320
997.12330	0.07232
995.06313	0.07133
993.00296	0.07022
990.94279	0.06902
988.88262	0.06789
986.82244	0.06686
984.76227	0.06586
982.70210	0.06483
980.64193	0.06381
978.58176	0.06281
976.52158	0.06176
974.46141	0.06053
972.40124	0.05920
970.34107	0.05790
968.28089	0.05669
966.22072	0.05548
964.16055	0.05427
962.10038	0.05320
960.04021	0.05220
957.98003	0.05112
955.91986	0.04994
953.85969	0.04880
951.79952	0.04775
949.73935	0.04675
947.67917	0.04568
945.61900	0.04442
943.55883	0.04297
941.49866	0.04138
939.43849	0.03958
937.37831	0.03747
935.31814	0.03512
933.25797	0.03272
931.19780	0.03050
929.13762	0.02861
927.07745	0.02701
925.01728	0.02548
922.95711	0.02397
920.89694	0.02259
918.83676	0.02143
916.77659	0.02043
914.71642	0.01937
912.65625	0.01814
910.59608	0.01688
908.53590	0.01581
906.47573	0.01503
904.41556	0.01450
902.35539	0.01413
900.29522	0.01391
898.23504	0.01394
896.17487	0.01422
894.11470	0.01458
892.05453	0.01482
889.99435	0.01478
887.93418	0.01443
885.87401	0.01380
883.81384	0.01298
881.75367	0.01212
879.69349	0.01126
877.63332	0.01043
875.57315	0.00970
873.51298	0.00910
871.45281	0.00863
869.39263	0.00831
867.33246	0.00809
865.27229	0.00793
863.21212	0.00786
861.15194	0.00786
859.09177	0.00780
857.03160	0.00758
854.97143	0.00730
852.91126	0.00721
850.85108	0.00740
848.79091	0.00768
846.73074	0.00774
844.67057	0.00759
842.61040	0.00743
840.55022	0.00726
838.49005	0.00704
836.42988	0.00689
834.36971	0.00683
832.30954	0.00660
830.24936	0.00614
828.18919	0.00565
826.12902	0.00525
824.06885	0.00499
822.00867	0.00497
819.94850	0.00506
817.88833	0.00497
815.82816	0.00471
813.76799	0.00456
811.70781	0.00460
809.64764	0.00468
807.58747	0.00473
805.52730	0.00473
803.46713	0.00471
801.40695	0.00454
799.34678	0.00410
797.28661	0.00356
795.22644	0.00324
793.16627	0.00309
791.10609	0.00302
789.04592	0.00306
786.98575	0.00317
784.92558	0.00328
782.86540	0.00344
780.80523	0.00366
778.74506	0.00386
776.68489	0.00387
774.62472	0.00366
772.56454	0.00344
770.50437	0.00333
768.44420	0.00327
766.38403	0.00323
764.32386	0.00321
762.26368	0.00320
760.20351	0.00320
758.14334	0.00331
756.08317	0.00354
754.02299	0.00370
751.96282	0.00375
749.90265	0.00372
747.84248	0.00353
745.78231	0.00329
743.72213	0.00290
741.66196	0.00264
739.60179	0.00249
737.54162	0.00251
735.48145	0.00259
733.42127	0.00266
731.36110	0.00274
729.30093	0.00285
727.24076	0.00302
725.18059	0.00323
723.12041	0.00338
721.06024	0.00346
719.00007	0.00352
716.93990	0.00359
714.87972	0.00369
712.81955	0.00383
710.75938	0.00400
708.69921	0.00423
706.63904	0.00457
704.57886	0.00504
702.51869	0.00558
700.45852	0.00602
698.39835	0.00624
696.33818	0.00626
694.27800	0.00619
692.21783	0.00609
690.15766	0.00590
688.09749	0.00548
686.03731	0.00478
683.97714	0.00399
681.91697	0.00337
679.85680	0.00304
677.79663	0.00296
675.73645	0.00298
673.67628	0.00297
671.61611	0.00289
669.55594	0.00282
667.49577	0.00300
665.43559	0.00345
663.37542	0.00389
661.31525	0.00410
659.25508	0.00400
657.19491	0.00367
655.13473	0.00327
653.07456	0.00303
651.01439	0.00307
648.95422	0.00339
646.89404	0.00370
644.83387	0.00399
642.77370	0.00412
640.71353	0.00414
638.65336	0.00409
636.59318	0.00396
634.53301	0.00368
632.47284	0.00327
630.41267	0.00282
628.35250	0.00241
626.29232	0.00209
624.23215	0.00179
622.17198	0.00149
620.11181	0.00161
618.05164	0.00220
615.99146	0.00262
613.93129	0.00249
611.87112	0.00172
609.81095	0.00068
607.75077	0.00026
605.69060	0.00000
603.63043	0.00011
601.57026	0.00018
599.51009	0.00000
