3996.73391	0.00024
3994.67373	0.00035
3992.61356	0.00040
3990.55339	0.00038
3988.49322	0.00032
3986.43305	0.00024
3984.37287	0.00014
3982.31270	0.00004
3980.25253	0.00000
3978.19236	0.00003
3976.13219	0.00016
3974.07201	0.00037
3972.01184	0.00061
3969.95167	0.00075
3967.89150	0.00077
3965.83133	0.00070
3963.77115	0.00062
3961.71098	0.00058
3959.65081	0.00055
3957.59064	0.00050
3955.53046	0.00040
3953.47029	0.00030
3951.41012	0.00028
3949.34995	0.00038
3947.28978	0.00048
3945.22960	0.00048
3943.16943	0.00039
3941.10926	0.00030
3939.04909	0.00024
3936.98892	0.00022
3934.92874	0.00022
3932.86857	0.00028
3930.80840	0.00038
3928.74823	0.00045
3926.68805	0.00047
3924.62788	0.00045
3922.56771	0.00037
3920.50754	0.00025
3918.44737	0.00016
3916.38719	0.00013
3914.32702	0.00017
3912.26685	0.00025
3910.20668	0.00030
3908.14651	0.00030
3906.08633	0.00030
3904.02616	0.00037
3901.96599	0.00048
3899.90582	0.00057
3897.84565	0.00062
3895.78547	0.00065
3893.72530	0.00064
3891.66513	0.00057
3889.60496	0.00050
3887.54478	0.00049
3885.48461	0.00055
3883.42444	0.00065
3881.36427	0.00071
3879.30410	0.00068
3877.24392	0.00053
3875.18375	0.00034
3873.12358	0.00019
3871.06341	0.00011
3869.00324	0.00009
3866.94306	0.00017
3864.88289	0.00034
3862.82272	0.00054
3860.76255	0.00070
3858.70237	0.00081
3856.64220	0.00092
3854.58203	0.00100
3852.52186	0.00100
3850.46169	0.00091
3848.40151	0.00082
3846.34134	0.00074
3844.28117	0.00068
3842.22100	0.00059
3840.16083	0.00043
3838.10065	0.00029
3836.04048	0.00025
3833.98031	0.00031
3831.92014	0.00043
3829.85997	0.00054
3827.79979	0.00061
3825.73962	0.00065
3823.67945	0.00068
3821.61928	0.00069
3819.55910	0.00069
3817.49893	0.00065
3815.43876	0.00056
3813.37859	0.00049
3811.31842	0.00042
3809.25824	0.00037
3807.19807	0.00036
3805.13790	0.00039
3803.07773	0.00044
3801.01756	0.00052
3798.95738	0.00061
3796.89721	0.00064
3794.83704	0.00057
3792.77687	0.00041
3790.71670	0.00024
3788.65652	0.00017
3786.59635	0.00020
3784.53618	0.00028
3782.47601	0.00032
3780.41583	0.00031
3778.35566	0.00029
3776.29549	0.00027
3774.23532	0.00028
3772.17515	0.00036
3770.11497	0.00044
3768.05480	0.00042
3765.99463	0.00034
3763.93446	0.00031
3761.87429	0.00033
3759.81411	0.00032
3757.75394	0.00025
3755.69377	0.00018
3753.63360	0.00021
3751.57342	0.00039
3749.51325	0.00067
3747.45308	0.00092
3745.39291	0.00111
3743.33274	0.00123
3741.27256	0.00126
3739.21239	0.00122
3737.15222	0.00117
3735.09205	0.00120
3733.03188	0.00131
3730.97170	0.00138
3728.91153	0.00132
3726.85136	0.00116
3724.79119	0.00100
3722.73102	0.00088
3720.67084	0.00075
3718.61067	0.00064
3716.55050	0.00062
3714.49033	0.00068
3712.43015	0.00077
3710.36998	0.00085
3708.30981	0.00088
3706.24964	0.00085
3704.18947	0.00080
3702.12929	0.00080
3700.06912	0.00080
3698.00895	0.00073
3695.94878	0.00057
3693.88861	0.00041
3691.82843	0.00035
3689.76826	0.00039
3687.70809	0.00045
3685.64792	0.00046
3683.58775	0.00044
3681.52757	0.00042
3679.46740	0.00044
3677.40723	0.00059
3675.34706	0.00083
3673.28688	0.00104
3671.22671	0.00116
3669.16654	0.00126
3667.10637	0.00131
3665.04620	0.00123
3662.98602	0.00107
3660.92585	0.00093
3658.86568	0.00091
3656.80551	0.00101
3654.74534	0.00125
3652.68516	0.00159
3650.62499	0.00189
3648.56482	0.00200
3646.50465	0.00186
3644.44447	0.00159
3642.38430	0.00137
3640.32413	0.00133
3638.26396	0.00150
3636.20379	0.00184
3634.14361	0.00226
3632.08344	0.00265
3630.02327	0.00297
3627.96310	0.00324
3625.90293	0.00342
3623.84275	0.00346
3621.78258	0.00338
3619.72241	0.00329
3617.66224	0.00331
3615.60207	0.00349
3613.54189	0.00373
3611.48172	0.00393
3609.42155	0.00405
3607.36138	0.00414
3605.30120	0.00428
3603.24103	0.00450
3601.18086	0.00479
3599.12069	0.00508
3597.06052	0.00533
3595.00034	0.00556
3592.94017	0.00580
3590.88000	0.00609
3588.81983	0.00636
3586.75966	0.00651
3584.69948	0.00648
3582.63931	0.00639
3580.57914	0.00639
3578.51897	0.00657
3576.45879	0.00686
3574.39862	0.00719
3572.33845	0.00754
3570.27828	0.00790
3568.21811	0.00825
3566.15793	0.00861
3564.09776	0.00898
3562.03759	0.00935
3559.97742	0.00972
3557.91725	0.01008
3555.85707	0.01037
3553.79690	0.01057
3551.73673	0.01074
3549.67656	0.01095
3547.61639	0.01128
3545.55621	0.01168
3543.49604	0.01207
3541.43587	0.01239
3539.37570	0.01269
3537.31552	0.01301
3535.25535	0.01335
3533.19518	0.01369
3531.13501	0.01400
3529.07484	0.01431
3527.01466	0.01468
3524.95449	0.01506
3522.89432	0.01539
3520.83415	0.01564
3518.77398	0.01583
3516.71380	0.01606
3514.65363	0.01636
3512.59346	0.01675
3510.53329	0.01714
3508.47312	0.01743
3506.41294	0.01760
3504.35277	0.01773
3502.29260	0.01791
3500.23243	0.01815
3498.17225	0.01846
3496.11208	0.01884
3494.05191	0.01924
3491.99174	0.01958
3489.93157	0.01989
3487.87139	0.02021
3485.81122	0.02056
3483.75105	0.02089
3481.69088	0.02120
3479.63071	0.02152
3477.57053	0.02184
3475.51036	0.02217
3473.45019	0.02252
3471.39002	0.02292
3469.32984	0.02337
3467.26967	0.02377
3465.20950	0.02407
3463.14933	0.02428
3461.08916	0.02448
3459.02898	0.02472
3456.96881	0.02496
3454.90864	0.02521
3452.84847	0.02550
3450.78830	0.02587
3448.72812	0.02629
3446.66795	0.02669
3444.60778	0.02703
3442.54761	0.02728
3440.48744	0.02745
3438.42726	0.02757
3436.36709	0.02768
3434.30692	0.02785
3432.24675	0.02810
3430.18657	0.02842
3428.12640	0.02877
3426.06623	0.02913
3424.00606	0.02946
3421.94589	0.02978
3419.88571	0.03012
3417.82554	0.03043
3415.76537	0.03069
3413.70520	0.03086
3411.64503	0.03099
3409.58485	0.03115
3407.52468	0.03140
3405.46451	0.03168
3403.40434	0.03193
3401.34416	0.03212
3399.28399	0.03231
3397.22382	0.03255
3395.16365	0.03283
3393.10348	0.03306
3391.04330	0.03324
3388.98313	0.03339
3386.92296	0.03358
3384.86279	0.03380
3382.80262	0.03399
3380.74244	0.03413
3378.68227	0.03423
3376.62210	0.03437
3374.56193	0.03458
3372.50176	0.03485
3370.44158	0.03510
3368.38141	0.03526
3366.32124	0.03533
3364.26107	0.03538
3362.20089	0.03547
3360.14072	0.03559
3358.08055	0.03567
3356.02038	0.03573
3353.96021	0.03581
3351.90003	0.03594
3349.83986	0.03612
3347.77969	0.03629
3345.71952	0.03640
3343.65935	0.03643
3341.59917	0.03642
3339.53900	0.03645
3337.47883	0.03654
3335.41866	0.03666
3333.35849	0.03677
3331.29831	0.03693
3329.23814	0.03712
3327.17797	0.03730
3325.11780	0.03739
3323.05762	0.03739
3320.99745	0.03732
3318.93728	0.03722
3316.87711	0.03716
3314.81694	0.03721
3312.75676	0.03739
3310.69659	0.03761
3308.63642	0.03775
3306.57625	0.03777
3304.51608	0.03771
3302.45590	0.03761
3300.39573	0.03750
3298.33556	0.03742
3296.27539	0.03736
3294.21521	0.03730
3292.15504	0.03724
3290.09487	0.03720
3288.03470	0.03721
3285.97453	0.03720
3283.91435	0.03715
3281.85418	0.03709
3279.79401	0.03710
3277.73384	0.03721
3275.67367	0.03736
3273.61349	0.03749
3271.55332	0.03754
3269.49315	0.03753
3267.43298	0.03749
3265.37281	0.03743
3263.31263	0.03735
3261.25246	0.03725
3259.19229	0.03713
3257.13212	0.03704
3255.07194	0.03695
3253.01177	0.03686
3250.95160	0.03673
3248.89143	0.03659
3246.83126	0.03650
3244.77108	0.03649
3242.71091	0.03653
3240.65074	0.03654
3238.59057	0.03648
3236.53040	0.03635
3234.47022	0.03618
3232.41005	0.03603
3230.34988	0.03590
3228.28971	0.03575
3226.22954	0.03557
3224.16936	0.03538
3222.10919	0.03520
3220.04902	0.03506
3217.98885	0.03498
3215.92867	0.03496
3213.86850	0.03494
3211.80833	0.03486
3209.74816	0.03472
3207.68799	0.03454
3205.62781	0.03436
3203.56764	0.03418
3201.50747	0.03404
3199.44730	0.03393
3197.38713	0.03384
3195.32695	0.03373
3193.26678	0.03360
3191.20661	0.03344
3189.14644	0.03327
3187.08626	0.03304
3185.02609	0.03276
3182.96592	0.03247
3180.90575	0.03224
3178.84558	0.03206
3176.78540	0.03191
3174.72523	0.03175
3172.66506	0.03155
3170.60489	0.03129
3168.54472	0.03101
3166.48454	0.03078
3164.42437	0.03063
3162.36420	0.03056
3160.30403	0.03055
3158.24386	0.03054
3156.18368	0.03041
3154.12351	0.03017
3152.06334	0.02987
3150.00317	0.02960
3147.94299	0.02937
3145.88282	0.02922
3143.82265	0.02909
3141.76248	0.02892
3139.70231	0.02863
3137.64213	0.02820
3135.58196	0.02778
3133.52179	0.02747
3131.46162	0.02729
3129.40145	0.02718
3127.34127	0.02706
3125.28110	0.02693
3123.22093	0.02680
3121.16076	0.02667
3119.10058	0.02649
3117.04041	0.02622
3114.98024	0.02590
3112.92007	0.02560
3110.85990	0.02538
3108.79972	0.02524
3106.73955	0.02512
3104.67938	0.02500
3102.61921	0.02483
3100.55904	0.02460
3098.49886	0.02430
3096.43869	0.02398
3094.37852	0.02367
3092.31835	0.02343
3090.25818	0.02327
3088.19800	0.02318
3086.13783	0.02313
3084.07766	0.02309
3082.01749	0.02297
3079.95731	0.02273
3077.89714	0.02242
3075.83697	0.02215
3073.77680	0.02198
3071.71663	0.02187
3069.65645	0.02174
3067.59628	0.02159
3065.53611	0.02144
3063.47594	0.02133
3061.41577	0.02121
3059.35559	0.02105
3057.29542	0.02083
3055.23525	0.02058
3053.17508	0.02034
3051.11491	0.02012
3049.05473	0.01990
3046.99456	0.01969
3044.93439	0.01952
3042.87422	0.01939
3040.81404	0.01928
3038.75387	0.01914
3036.69370	0.01897
3034.63353	0.01878
3032.57336	0.01862
3030.51318	0.01845
3028.45301	0.01827
3026.39284	0.01812
3024.33267	0.01803
3022.27250	0.01800
3020.21232	0.01804
3018.15215	0.01814
3016.09198	0.01825
3014.03181	0.01832
3011.97163	0.01827
3009.91146	0.01811
3007.85129	0.01789
3005.79112	0.01769
3003.73095	0.01757
3001.67077	0.01752
2999.61060	0.01751
2997.55043	0.01749
2995.49026	0.01741
2993.43009	0.01733
2991.36991	0.01733
2989.30974	0.01737
2987.24957	0.01740
2985.18940	0.01744
2983.12923	0.01751
2981.06905	0.01768
2979.00888	0.01799
2976.94871	0.01848
2974.88854	0.01908
2972.82836	0.01964
2970.76819	0.02021
2968.70802	0.02096
2966.64785	0.02190
2964.58768	0.02291
2962.52750	0.02397
2960.46733	0.02508
2958.40716	0.02624
2956.34699	0.02746
2954.28682	0.02874
2952.22664	0.03002
2950.16647	0.03118
2948.10630	0.03228
2946.04613	0.03363
2943.98596	0.03536
2941.92578	0.03728
2939.86561	0.03914
2937.80544	0.04094
2935.74527	0.04277
2933.68509	0.04460
2931.62492	0.04626
2929.56475	0.04770
2927.50458	0.04899
2925.44441	0.05013
2923.38423	0.05103
2921.32406	0.05160
2919.26389	0.05167
2917.20372	0.05106
2915.14355	0.04970
2913.08337	0.04779
2911.02320	0.04571
2908.96303	0.04378
2906.90286	0.04216
2904.84268	0.04080
2902.78251	0.03961
2900.72234	0.03853
2898.66217	0.03754
2896.60200	0.03653
2894.54182	0.03549
2892.48165	0.03450
2890.42148	0.03364
2888.36131	0.03292
2886.30114	0.03225
2884.24096	0.03171
2882.18079	0.03141
2880.12062	0.03124
2878.06045	0.03112
2876.00028	0.03108
2873.94010	0.03111
2871.87993	0.03125
2869.81976	0.03152
2867.75959	0.03190
2865.69941	0.03243
2863.63924	0.03333
2861.57907	0.03468
2859.51890	0.03618
2857.45873	0.03755
2855.39855	0.03875
2853.33838	0.03977
2851.27821	0.04023
2849.21804	0.03959
2847.15787	0.03764
2845.09769	0.03491
2843.03752	0.03218
2840.97735	0.02993
2838.91718	0.02824
2836.85700	0.02693
2834.79683	0.02584
2832.73666	0.02485
2830.67649	0.02398
2828.61632	0.02330
2826.55614	0.02281
2824.49597	0.02238
2822.43580	0.02191
2820.37563	0.02143
2818.31546	0.02104
2816.25528	0.02074
2814.19511	0.02048
2812.13494	0.02015
2810.07477	0.01978
2808.01460	0.01948
2805.95442	0.01929
2803.89425	0.01916
2801.83408	0.01897
2799.77391	0.01870
2797.71373	0.01844
2795.65356	0.01827
2793.59339	0.01813
2791.53322	0.01798
2789.47305	0.01780
2787.41287	0.01759
2785.35270	0.01737
2783.29253	0.01717
2781.23236	0.01703
2779.17219	0.01699
2777.11201	0.01702
2775.05184	0.01704
2772.99167	0.01697
2770.93150	0.01679
2768.87133	0.01655
2766.81115	0.01641
2764.75098	0.01642
2762.69081	0.01643
2760.63064	0.01631
2758.57046	0.01616
2756.51029	0.01615
2754.45012	0.01618
2752.38995	0.01612
2750.32978	0.01603
2748.26960	0.01607
2746.20943	0.01616
2744.14926	0.01616
2742.08909	0.01607
2740.02892	0.01594
2737.96874	0.01581
2735.90857	0.01573
2733.84840	0.01564
2731.78823	0.01555
2729.72805	0.01552
2727.66788	0.01560
2725.60771	0.01570
2723.54754	0.01569
2721.48737	0.01556
2719.42719	0.01537
2717.36702	0.01521
2715.30685	0.01516
2713.24668	0.01520
2711.18651	0.01522
2709.12633	0.01518
2707.06616	0.01512
2705.00599	0.01507
2702.94582	0.01508
2700.88565	0.01514
2698.82547	0.01515
2696.76530	0.01504
2694.70513	0.01485
2692.64496	0.01475
2690.58478	0.01473
2688.52461	0.01467
2686.46444	0.01455
2684.40427	0.01452
2682.34410	0.01462
2680.28392	0.01477
2678.22375	0.01486
2676.16358	0.01485
2674.10341	0.01479
2672.04324	0.01472
2669.98306	0.01461
2667.92289	0.01451
2665.86272	0.01447
2663.80255	0.01447
2661.74238	0.01446
2659.68220	0.01447
2657.62203	0.01449
2655.56186	0.01441
2653.50169	0.01421
2651.44151	0.01400
2649.38134	0.01391
2647.32117	0.01393
2645.26100	0.01397
2643.20083	0.01388
2641.14065	0.01363
2639.08048	0.01337
2637.02031	0.01329
2634.96014	0.01341
2632.89997	0.01358
2630.83979	0.01359
2628.77962	0.01345
2626.71945	0.01330
2624.65928	0.01324
2622.59910	0.01319
2620.53893	0.01308
2618.47876	0.01292
2616.41859	0.01275
2614.35842	0.01253
2612.29824	0.01229
2610.23807	0.01217
2608.17790	0.01226
2606.11773	0.01238
2604.05756	0.01228
2601.99738	0.01200
2599.93721	0.01185
2597.87704	0.01192
2595.81687	0.01204
2593.75670	0.01200
2591.69652	0.01181
2589.63635	0.01162
2587.57618	0.01159
2585.51601	0.01171
2583.45583	0.01192
2581.39566	0.01206
2579.33549	0.01198
2577.27532	0.01171
2575.21515	0.01141
2573.15497	0.01118
2571.09480	0.01107
2569.03463	0.01112
2566.97446	0.01127
2564.91429	0.01138
2562.85411	0.01134
2560.79394	0.01119
2558.73377	0.01105
2556.67360	0.01102
2554.61342	0.01096
2552.55325	0.01082
2550.49308	0.01071
2548.43291	0.01071
2546.37274	0.01076
2544.31256	0.01066
2542.25239	0.01042
2540.19222	0.01028
2538.13205	0.01042
2536.07188	0.01074
2534.01170	0.01099
2531.95153	0.01096
2529.89136	0.01073
2527.83119	0.01043
2525.77102	0.01021
2523.71084	0.01019
2521.65067	0.01025
2519.59050	0.01020
2517.53033	0.01009
2515.47015	0.01006
2513.40998	0.01019
2511.34981	0.01038
2509.28964	0.01044
2507.22947	0.01033
2505.16929	0.01019
2503.10912	0.01015
2501.04895	0.01016
2498.98878	0.01016
2496.92861	0.01015
2494.86843	0.01008
2492.80826	0.00992
2490.74809	0.00975
2488.68792	0.00961
2486.62775	0.00949
2484.56757	0.00939
2482.50740	0.00931
2480.44723	0.00924
2478.38706	0.00916
2476.32688	0.00908
2474.26671	0.00898
2472.20654	0.00889
2470.14637	0.00894
2468.08620	0.00915
2466.02602	0.00931
2463.96585	0.00924
2461.90568	0.00901
2459.84551	0.00891
2457.78534	0.00905
2455.72516	0.00923
2453.66499	0.00923
2451.60482	0.00908
2449.54465	0.00890
2447.48447	0.00886
2445.42430	0.00901
2443.36413	0.00919
2441.30396	0.00925
2439.24379	0.00923
2437.18361	0.00926
2435.12344	0.00930
2433.06327	0.00916
2431.00310	0.00878
2428.94293	0.00843
2426.88275	0.00833
2424.82258	0.00835
2422.76241	0.00832
2420.70224	0.00828
2418.64207	0.00833
2416.58189	0.00847
2414.52172	0.00861
2412.46155	0.00859
2410.40138	0.00843
2408.34120	0.00834
2406.28103	0.00838
2404.22086	0.00836
2402.16069	0.00823
2400.10052	0.00816
2398.04034	0.00827
2395.98017	0.00846
2393.92000	0.00865
2391.85983	0.00880
2389.79966	0.00890
2387.73948	0.00893
2385.67931	0.00891
2383.61914	0.00886
2381.55897	0.00882
2379.49880	0.00878
2377.43862	0.00867
2375.37845	0.00844
2373.31828	0.00811
2371.25811	0.00778
2369.19793	0.00768
2367.13776	0.00805
2365.07759	0.00879
2363.01742	0.00950
2360.95725	0.00985
2358.89707	0.00966
2356.83690	0.00920
2354.77673	0.00893
2352.71656	0.00904
2350.65639	0.00937
2348.59621	0.00950
2346.53604	0.00930
2344.47587	0.00912
2342.41570	0.00910
2340.35552	0.00908
2338.29535	0.00892
2336.23518	0.00863
2334.17501	0.00845
2332.11484	0.00860
2330.05466	0.00909
2327.99449	0.00968
2325.93432	0.01004
2323.87415	0.01003
2321.81398	0.00982
2319.75380	0.00965
2317.69363	0.00956
2315.63346	0.00944
2313.57329	0.00926
2311.51312	0.00907
2309.45294	0.00892
2307.39277	0.00883
2305.33260	0.00884
2303.27243	0.00894
2301.21225	0.00908
2299.15208	0.00920
2297.09191	0.00925
2295.03174	0.00925
2292.97157	0.00922
2290.91139	0.00918
2288.85122	0.00906
2286.79105	0.00881
2284.73088	0.00847
2282.67071	0.00814
2280.61053	0.00794
2278.55036	0.00789
2276.49019	0.00792
2274.43002	0.00791
2272.36984	0.00779
2270.30967	0.00761
2268.24950	0.00746
2266.18933	0.00737
2264.12916	0.00733
2262.06898	0.00728
2260.00881	0.00724
2257.94864	0.00720
2255.88847	0.00717
2253.82830	0.00709
2251.76812	0.00697
2249.70795	0.00686
2247.64778	0.00686
2245.58761	0.00702
2243.52744	0.00720
2241.46726	0.00725
2239.40709	0.00700
2237.34692	0.00658
2235.28675	0.00635
2233.22657	0.00628
2231.16640	0.00618
2229.10623	0.00624
2227.04606	0.00647
2224.98589	0.00665
2222.92571	0.00681
2220.86554	0.00698
2218.80537	0.00706
2216.74520	0.00696
2214.68503	0.00680
2212.62485	0.00662
2210.56468	0.00637
2208.50451	0.00628
2206.44434	0.00664
2204.38417	0.00713
2202.32399	0.00734
2200.26382	0.00745
2198.20365	0.00761
2196.14348	0.00757
2194.08330	0.00725
2192.02313	0.00698
2189.96296	0.00694
2187.90279	0.00695
2185.84262	0.00683
2183.78244	0.00672
2181.72227	0.00681
2179.66210	0.00685
2177.60193	0.00672
2175.54176	0.00675
2173.48158	0.00720
2171.42141	0.00780
2169.36124	0.00784
2167.30107	0.00732
2165.24089	0.00662
2163.18072	0.00544
2161.12055	0.00362
2159.06038	0.00201
2157.00021	0.00143
2154.94003	0.00215
2152.87986	0.00378
2150.81969	0.00521
2148.75952	0.00580
2146.69935	0.00579
2144.63917	0.00560
2142.57900	0.00542
2140.51883	0.00534
2138.45866	0.00539
2136.39849	0.00555
2134.33831	0.00572
2132.27814	0.00570
2130.21797	0.00545
2128.15780	0.00525
2126.09762	0.00538
2124.03745	0.00573
2121.97728	0.00606
2119.91711	0.00630
2117.85694	0.00640
2115.79676	0.00636
2113.73659	0.00636
2111.67642	0.00643
2109.61625	0.00648
2107.55608	0.00653
2105.49590	0.00645
2103.43573	0.00615
2101.37556	0.00579
2099.31539	0.00555
2097.25521	0.00549
2095.19504	0.00561
2093.13487	0.00586
2091.07470	0.00610
2089.01453	0.00618
2086.95435	0.00611
2084.89418	0.00607
2082.83401	0.00616
2080.77384	0.00625
2078.71367	0.00623
2076.65349	0.00613
2074.59332	0.00606
2072.53315	0.00601
2070.47298	0.00591
2068.41281	0.00575
2066.35263	0.00561
2064.29246	0.00554
2062.23229	0.00545
2060.17212	0.00527
2058.11194	0.00508
2056.05177	0.00510
2053.99160	0.00526
2051.93143	0.00527
2049.87126	0.00499
2047.81108	0.00452
2045.75091	0.00405
2043.69074	0.00368
2041.63057	0.00345
2039.57040	0.00332
2037.51022	0.00320
2035.45005	0.00302
2033.38988	0.00289
2031.32971	0.00294
2029.26954	0.00320
2027.20936	0.00366
2025.14919	0.00427
2023.08902	0.00481
2021.02885	0.00506
2018.96867	0.00498
2016.90850	0.00460
2014.84833	0.00388
2012.78816	0.00297
2010.72799	0.00224
2008.66781	0.00201
2006.60764	0.00225
2004.54747	0.00260
2002.48730	0.00277
2000.42713	0.00281
1998.36695	0.00290
1996.30678	0.00311
1994.24661	0.00333
1992.18644	0.00341
1990.12626	0.00331
1988.06609	0.00317
1986.00592	0.00312
1983.94575	0.00315
1981.88558	0.00311
1979.82540	0.00286
1977.76523	0.00245
1975.70506	0.00219
1973.64489	0.00232
1971.58472	0.00272
1969.52454	0.00309
1967.46437	0.00316
1965.40420	0.00296
1963.34403	0.00271
1961.28386	0.00259
1959.22368	0.00261
1957.16351	0.00274
1955.10334	0.00297
1953.04317	0.00329
1950.98299	0.00358
1948.92282	0.00368
1946.86265	0.00352
1944.80248	0.00318
1942.74231	0.00282
1940.68213	0.00256
1938.62196	0.00243
1936.56179	0.00238
1934.50162	0.00236
1932.44145	0.00238
1930.38127	0.00247
1928.32110	0.00263
1926.26093	0.00281
1924.20076	0.00296
1922.14059	0.00305
1920.08041	0.00307
1918.02024	0.00299
1915.96007	0.00288
1913.89990	0.00283
1911.83972	0.00290
1909.77955	0.00305
1907.71938	0.00316
1905.65921	0.00314
1903.59904	0.00299
1901.53886	0.00281
1899.47869	0.00274
1897.41852	0.00275
1895.35835	0.00276
1893.29818	0.00274
1891.23800	0.00271
1889.17783	0.00272
1887.11766	0.00281
1885.05749	0.00293
1882.99731	0.00303
1880.93714	0.00304
1878.87697	0.00296
1876.81680	0.00280
1874.75663	0.00265
1872.69645	0.00260
1870.63628	0.00268
1868.57611	0.00285
1866.51594	0.00301
1864.45577	0.00310
1862.39559	0.00313
1860.33542	0.00312
1858.27525	0.00307
1856.21508	0.00299
1854.15491	0.00289
1852.09473	0.00277
1850.03456	0.00266
1847.97439	0.00258
1845.91422	0.00251
1843.85404	0.00244
1841.79387	0.00237
1839.73370	0.00228
1837.67353	0.00219
1835.61336	0.00212
1833.55318	0.00205
1831.49301	0.00200
1829.43284	0.00201
1827.37267	0.00206
1825.31250	0.00207
1823.25232	0.00201
1821.19215	0.00189
1819.13198	0.00177
1817.07181	0.00169
1815.01163	0.00168
1812.95146	0.00171
1810.89129	0.00176
1808.83112	0.00185
1806.77095	0.00197
1804.71077	0.00212
1802.65060	0.00226
1800.59043	0.00228
1798.53026	0.00217
1796.47009	0.00196
1794.40991	0.00177
1792.34974	0.00165
1790.28957	0.00163
1788.22940	0.00163
1786.16923	0.00163
1784.10905	0.00165
1782.04888	0.00172
1779.98871	0.00175
1777.92854	0.00180
1775.86836	0.00188
1773.80819	0.00202
1771.74802	0.00223
1769.68785	0.00251
1767.62768	0.00284
1765.56750	0.00323
1763.50733	0.00374
1761.44716	0.00445
1759.38699	0.00540
1757.32682	0.00657
1755.26664	0.00788
1753.20647	0.00928
1751.14630	0.01072
1749.08613	0.01212
1747.02596	0.01338
1744.96578	0.01437
1742.90561	0.01501
1740.84544	0.01532
1738.78527	0.01541
1736.72509	0.01538
1734.66492	0.01532
1732.60475	0.01527
1730.54458	0.01518
1728.48441	0.01501
1726.42423	0.01479
1724.36406	0.01460
1722.30389	0.01450
1720.24372	0.01449
1718.18355	0.01453
1716.12337	0.01461
1714.06320	0.01469
1712.00303	0.01474
1709.94286	0.01475
1707.88268	0.01472
1705.82251	0.01465
1703.76234	0.01450
1701.70217	0.01428
1699.64200	0.01410
1697.58182	0.01413
1695.52165	0.01444
1693.46148	0.01497
1691.40131	0.01568
1689.34114	0.01655
1687.28096	0.01763
1685.22079	0.01903
1683.16062	0.02068
1681.10045	0.02228
1679.04028	0.02359
1676.98010	0.02458
1674.91993	0.02532
1672.85976	0.02579
1670.79959	0.02591
1668.73941	0.02566
1666.67924	0.02515
1664.61907	0.02451
1662.55890	0.02387
1660.49873	0.02334
1658.43855	0.02295
1656.37838	0.02265
1654.31821	0.02239
1652.25804	0.02222
1650.19787	0.02216
1648.13769	0.02214
1646.07752	0.02214
1644.01735	0.02222
1641.95718	0.02242
1639.89701	0.02272
1637.83683	0.02310
1635.77666	0.02357
1633.71649	0.02410
1631.65632	0.02463
1629.59614	0.02507
1627.53597	0.02539
1625.47580	0.02559
1623.41563	0.02574
1621.35546	0.02594
1619.29528	0.02620
1617.23511	0.02653
1615.17494	0.02697
1613.11477	0.02760
1611.05460	0.02842
1608.99442	0.02934
1606.93425	0.03010
1604.87408	0.03041
1602.81391	0.03010
1600.75373	0.02927
1598.69356	0.02816
1596.63339	0.02700
1594.57322	0.02596
1592.51305	0.02507
1590.45287	0.02430
1588.39270	0.02359
1586.33253	0.02289
1584.27236	0.02222
1582.21219	0.02164
1580.15201	0.02112
1578.09184	0.02060
1576.03167	0.02004
1573.97150	0.01948
1571.91133	0.01892
1569.85115	0.01833
1567.79098	0.01772
1565.73081	0.01708
1563.67064	0.01639
1561.61046	0.01566
1559.55029	0.01491
1557.49012	0.01422
1555.42995	0.01360
1553.36978	0.01297
1551.30960	0.01232
1549.24943	0.01166
1547.18926	0.01100
1545.12909	0.01035
1543.06892	0.00971
1541.00874	0.00912
1538.94857	0.00865
1536.88840	0.00826
1534.82823	0.00790
1532.76805	0.00757
1530.70788	0.00735
1528.64771	0.00729
1526.58754	0.00741
1524.52737	0.00776
1522.46719	0.00837
1520.40702	0.00920
1518.34685	0.01010
1516.28668	0.01082
1514.22651	0.01115
1512.16633	0.01097
1510.10616	0.01028
1508.04599	0.00918
1505.98582	0.00791
1503.92565	0.00677
1501.86547	0.00584
1499.80530	0.00508
1497.74513	0.00446
1495.68496	0.00398
1493.62478	0.00363
1491.56461	0.00332
1489.50444	0.00301
1487.44427	0.00273
1485.38410	0.00254
1483.32392	0.00254
1481.26375	0.00278
1479.20358	0.00331
1477.14341	0.00417
1475.08324	0.00538
1473.02306	0.00690
1470.96289	0.00863
1468.90272	0.01036
1466.84255	0.01194
1464.78238	0.01330
1462.72220	0.01440
1460.66203	0.01526
1458.60186	0.01598
1456.54169	0.01664
1454.48151	0.01722
1452.42134	0.01772
1450.36117	0.01820
1448.30100	0.01874
1446.24083	0.01937
1444.18065	0.02008
1442.12048	0.02080
1440.06031	0.02145
1438.00014	0.02198
1435.93997	0.02240
1433.87979	0.02274
1431.81962	0.02295
1429.75945	0.02307
1427.69928	0.02314
1425.63910	0.02323
1423.57893	0.02337
1421.51876	0.02352
1419.45859	0.02363
1417.39842	0.02364
1415.33824	0.02350
1413.27807	0.02323
1411.21790	0.02283
1409.15773	0.02235
1407.09756	0.02180
1405.03738	0.02120
1402.97721	0.02061
1400.91704	0.02005
1398.85687	0.01950
1396.79670	0.01897
1394.73652	0.01850
1392.67635	0.01817
1390.61618	0.01808
1388.55601	0.01823
1386.49583	0.01858
1384.43566	0.01907
1382.37549	0.01964
1380.31532	0.02020
1378.25515	0.02070
1376.19497	0.02107
1374.13480	0.02130
1372.07463	0.02142
1370.01446	0.02143
1367.95429	0.02131
1365.89411	0.02108
1363.83394	0.02076
1361.77377	0.02040
1359.71360	0.02005
1357.65343	0.01977
1355.59325	0.01955
1353.53308	0.01937
1351.47291	0.01924
1349.41274	0.01915
1347.35256	0.01910
1345.29239	0.01909
1343.23222	0.01909
1341.17205	0.01909
1339.11188	0.01905
1337.05170	0.01895
1334.99153	0.01885
1332.93136	0.01879
1330.87119	0.01880
1328.81102	0.01887
1326.75084	0.01899
1324.69067	0.01913
1322.63050	0.01923
1320.57033	0.01928
1318.51015	0.01924
1316.44998	0.01911
1314.38981	0.01888
1312.32964	0.01856
1310.26947	0.01817
1308.20929	0.01772
1306.14912	0.01723
1304.08895	0.01671
1302.02878	0.01623
1299.96861	0.01584
1297.90843	0.01559
1295.84826	0.01546
1293.78809	0.01548
1291.72792	0.01559
1289.66775	0.01577
1287.60757	0.01596
1285.54740	0.01615
1283.48723	0.01633
1281.42706	0.01650
1279.36688	0.01666
1277.30671	0.01682
1275.24654	0.01700
1273.18637	0.01722
1271.12620	0.01752
1269.06602	0.01791
1267.00585	0.01839
1264.94568	0.01896
1262.88551	0.01959
1260.82534	0.02024
1258.76516	0.02084
1256.70499	0.02135
1254.64482	0.02178
1252.58465	0.02215
1250.52447	0.02248
1248.46430	0.02277
1246.40413	0.02300
1244.34396	0.02316
1242.28379	0.02321
1240.22361	0.02316
1238.16344	0.02300
1236.10327	0.02273
1234.04310	0.02235
1231.98293	0.02186
1229.92275	0.02126
1227.86258	0.02057
1225.80241	0.01976
1223.74224	0.01882
1221.68207	0.01778
1219.62189	0.01671
1217.56172	0.01565
1215.50155	0.01461
1213.44138	0.01362
1211.38120	0.01266
1209.32103	0.01173
1207.26086	0.01080
1205.20069	0.00981
1203.14052	0.00877
1201.08034	0.00765
1199.02017	0.00649
1196.96000	0.00536
1194.89983	0.00438
1192.83966	0.00362
1190.77948	0.00306
1188.71931	0.00261
1186.65914	0.00229
1184.59897	0.00219
1182.53880	0.00233
1180.47862	0.00278
1178.41845	0.00358
1176.35828	0.00475
1174.29811	0.00625
1172.23793	0.00799
1170.17776	0.00976
1168.11759	0.01126
1166.05742	0.01227
1163.99725	0.01284
1161.93707	0.01324
1159.87690	0.01365
1157.81673	0.01412
1155.75656	0.01464
1153.69639	0.01525
1151.63621	0.01597
1149.57604	0.01682
1147.51587	0.01775
1145.45570	0.01862
1143.39552	0.01934
1141.33535	0.01990
1139.27518	0.02042
1137.21501	0.02089
1135.15484	0.02133
1133.09466	0.02185
1131.03449	0.02254
1128.97432	0.02338
1126.91415	0.02428
1124.85398	0.02521
1122.79380	0.02619
1120.73363	0.02723
1118.67346	0.02822
1116.61329	0.02907
1114.55312	0.02984
1112.49294	0.03066
1110.43277	0.03157
1108.37260	0.03247
1106.31243	0.03333
1104.25225	0.03426
1102.19208	0.03532
1100.13191	0.03657
1098.07174	0.03802
1096.01157	0.03960
1093.95139	0.04120
1091.89122	0.04276
1089.83105	0.04424
1087.77088	0.04559
1085.71071	0.04685
1083.65053	0.04815
1081.59036	0.04962
1079.53019	0.05129
1077.47002	0.05302
1075.40985	0.05466
1073.34967	0.05617
1071.28950	0.05759
1069.22933	0.05896
1067.16916	0.06023
1065.10898	0.06136
1063.04881	0.06234
1060.98864	0.06324
1058.92847	0.06415
1056.86830	0.06523
1054.80812	0.06658
1052.74795	0.06815
1050.68778	0.06985
1048.62761	0.07165
1046.56744	0.07346
1044.50726	0.07521
1042.44709	0.07686
1040.38692	0.07836
1038.32675	0.07962
1036.26657	0.08064
1034.20640	0.08139
1032.14623	0.08188
1030.08606	0.08215
1028.02589	0.08218
1025.96571	0.08198
1023.90554	0.08159
1021.84537	0.08110
1019.78520	0.08069
1017.72503	0.08048
1015.66485	0.08046
1013.60468	0.08054
1011.54451	0.08065
1009.48434	0.08071
1007.42417	0.08067
1005.36399	0.08044
1003.30382	0.08000
1001.24365	0.07936
999.18348	0.07853
997.12330	0.07759
995.06313	0.07655
993.00296	0.07530
990.94279	0.07392
988.88262	0.07263
986.82244	0.07146
984.76227	0.07034
982.70210	0.06924
980.64193	0.06816
978.58176	0.06705
976.52158	0.06596
974.46141	0.06484
972.40124	0.06360
970.34107	0.06226
968.28089	0.06097
966.22072	0.05976
964.16055	0.05853
962.10038	0.05726
960.04021	0.05597
957.98003	0.05467
955.91986	0.05337
953.85969	0.05211
951.79952	0.05093
949.73935	0.04985
947.67917	0.04878
945.61900	0.04757
943.55883	0.04614
941.49866	0.04447
939.43849	0.04247
937.37831	0.04012
935.31814	0.03748
933.25797	0.03476
931.19780	0.03227
929.13762	0.03030
927.07745	0.02873
925.01728	0.02726
922.95711	0.02580
920.89694	0.02445
918.83676	0.02318
916.77659	0.02188
914.71642	0.02051
912.65625	0.01905
910.59608	0.01759
908.53590	0.01642
906.47573	0.01565
904.41556	0.01518
902.35539	0.01488
900.29522	0.01468
898.23504	0.01461
896.17487	0.01477
894.11470	0.01508
892.05453	0.01530
889.99435	0.01525
887.93418	0.01491
885.87401	0.01435
883.81384	0.01361
881.75367	0.01269
879.69349	0.01164
877.63332	0.01077
875.57315	0.01025
873.51298	0.00984
871.45281	0.00933
869.39263	0.00882
867.33246	0.00843
865.27229	0.00812
863.21212	0.00784
861.15194	0.00764
859.09177	0.00753
857.03160	0.00745
854.97143	0.00742
852.91126	0.00755
850.85108	0.00780
848.79091	0.00798
846.73074	0.00789
844.67057	0.00762
842.61040	0.00733
840.55022	0.00704
838.49005	0.00679
836.42988	0.00676
834.36971	0.00683
832.30954	0.00662
830.24936	0.00611
828.18919	0.00561
826.12902	0.00526
824.06885	0.00496
822.00867	0.00460
819.94850	0.00429
817.88833	0.00420
815.82816	0.00435
813.76799	0.00464
811.70781	0.00477
809.64764	0.00461
807.58747	0.00432
805.52730	0.00421
803.46713	0.00436
801.40695	0.00447
799.34678	0.00426
797.28661	0.00382
795.22644	0.00333
793.16627	0.00285
791.10609	0.00250
789.04592	0.00234
786.98575	0.00238
784.92558	0.00250
782.86540	0.00285
780.80523	0.00333
778.74506	0.00355
776.68489	0.00336
774.62472	0.00301
772.56454	0.00280
770.50437	0.00280
768.44420	0.00286
766.38403	0.00285
764.32386	0.00276
762.26368	0.00265
760.20351	0.00253
758.14334	0.00250
756.08317	0.00260
754.02299	0.00265
751.96282	0.00253
749.90265	0.00215
747.84248	0.00203
745.78231	0.00215
743.72213	0.00209
741.66196	0.00156
739.60179	0.00100
737.54162	0.00085
735.48145	0.00107
733.42127	0.00140
731.36110	0.00170
729.30093	0.00197
727.24076	0.00219
725.18059	0.00233
723.12041	0.00238
721.06024	0.00239
719.00007	0.00244
716.93990	0.00253
714.87972	0.00267
712.81955	0.00287
710.75938	0.00318
708.69921	0.00362
706.63904	0.00414
704.57886	0.00472
702.51869	0.00528
700.45852	0.00571
698.39835	0.00589
696.33818	0.00581
694.27800	0.00551
692.21783	0.00507
690.15766	0.00458
688.09749	0.00413
686.03731	0.00372
683.97714	0.00335
681.91697	0.00302
679.85680	0.00276
677.79663	0.00263
675.73645	0.00265
673.67628	0.00268
671.61611	0.00248
669.55594	0.00203
667.49577	0.00185
665.43559	0.00220
663.37542	0.00270
661.31525	0.00301
659.25508	0.00301
657.19491	0.00282
655.13473	0.00264
653.07456	0.00257
651.01439	0.00257
648.95422	0.00261
646.89404	0.00260
644.83387	0.00288
642.77370	0.00336
640.71353	0.00379
638.65336	0.00401
636.59318	0.00401
634.53301	0.00377
632.47284	0.00325
630.41267	0.00259
628.35250	0.00214
626.29232	0.00217
624.23215	0.00242
622.17198	0.00236
620.11181	0.00223
618.05164	0.00228
615.99146	0.00215
613.93129	0.00181
611.87112	0.00150
609.81095	0.00108
607.75077	0.00051
605.69060	0.00027
603.63043	0.00000
601.57026	0.00005
599.51009	0.00000
