3996.73391,0.00006
3994.67373,0.00025
3992.61356,0.00039
3990.55339,0.00044
3988.49322,0.00044
3986.43305,0.00043
3984.37287,0.00050
3982.31270,0.00065
3980.25253,0.00082
3978.19236,0.00089
3976.13219,0.00082
3974.07201,0.00065
3972.01184,0.00051
3969.95167,0.00048
3967.89150,0.00058
3965.83133,0.00071
3963.77115,0.00075
3961.71098,0.00066
3959.65081,0.00047
3957.59064,0.00026
3955.53046,0.00009
3953.47029,-0.00000
3951.41012,0.00000
3949.34995,0.00010
3947.28978,0.00030
3945.22960,0.00052
3943.16943,0.00068
3941.10926,0.00075
3939.04909,0.00075
3936.98892,0.00075
3934.92874,0.00076
3932.86857,0.00073
3930.80840,0.00059
3928.74823,0.00034
3926.68805,0.00008
3924.62788,-0.00008
3922.56771,-0.00010
3920.50754,-0.00003
3918.44737,0.00005
3916.38719,0.00019
3914.32702,0.00044
3912.26685,0.00071
3910.20668,0.00088
3908.14651,0.00089
3906.08633,0.00074
3904.02616,0.00045
3901.96599,0.00015
3899.90582,0.00000
3897.84565,0.00010
3895.78547,0.00035
3893.72530,0.00063
3891.66513,0.00090
3889.60496,0.00118
3887.54478,0.00138
3885.48461,0.00143
3883.42444,0.00133
3881.36427,0.00112
3879.30410,0.00084
3877.24392,0.00051
3875.18375,0.00021
3873.12358,0.00011
3871.06341,0.00026
3869.00324,0.00057
3866.94306,0.00087
3864.88289,0.00101
3862.82272,0.00096
3860.76255,0.00078
3858.70237,0.00048
3856.64220,0.00014
3854.58203,0.00000
3852.52186,0.00025
3850.46169,0.00074
3848.40151,0.00111
3846.34134,0.00112
3844.28117,0.00075
3842.22100,0.00027
3840.16083,0.00000
3838.10065,0.00007
3836.04048,0.00044
3833.98031,0.00090
3831.92014,0.00122
3829.85997,0.00128
3827.79979,0.00117
3825.73962,0.00104
3823.67945,0.00096
3821.61928,0.00090
3819.55910,0.00095
3817.49893,0.00118
3815.43876,0.00155
3813.37859,0.00186
3811.31842,0.00191
3809.25824,0.00162
3807.19807,0.00112
3805.13790,0.00065
3803.07773,0.00043
3801.01756,0.00051
3798.95738,0.00084
3796.89721,0.00127
3794.83704,0.00168
3792.77687,0.00198
3790.71670,0.00210
3788.65652,0.00209
3786.59635,0.00196
3784.53618,0.00172
3782.47601,0.00137
3780.41583,0.00105
3778.35566,0.00090
3776.29549,0.00094
3774.23532,0.00111
3772.17515,0.00133
3770.11497,0.00159
3768.05480,0.00180
3765.99463,0.00186
3763.93446,0.00172
3761.87429,0.00146
3759.81411,0.00124
3757.75394,0.00114
3755.69377,0.00112
3753.63360,0.00108
3751.57342,0.00101
3749.51325,0.00092
3747.45308,0.00090
3745.39291,0.00087
3743.33274,0.00071
3741.27256,0.00048
3739.21239,0.00051
3737.15222,0.00101
3735.09205,0.00188
3733.03188,0.00272
3730.97170,0.00323
3728.91153,0.00330
3726.85136,0.00291
3724.79119,0.00222
3722.73102,0.00164
3720.67084,0.00141
3718.61067,0.00149
3716.55050,0.00163
3714.49033,0.00166
3712.43015,0.00163
3710.36998,0.00178
3708.30981,0.00219
3706.24964,0.00260
3704.18947,0.00269
3702.12929,0.00244
3700.06912,0.00213
3698.00895,0.00200
3695.94878,0.00205
3693.88861,0.00208
3691.82843,0.00200
3689.76826,0.00192
3687.70809,0.00201
3685.64792,0.00223
3683.58775,0.00236
3681.52757,0.00223
3679.46740,0.00183
3677.40723,0.00136
3675.34706,0.00105
3673.28688,0.00102
3671.22671,0.00114
3669.16654,0.00139
3667.10637,0.00181
3665.04620,0.00230
3662.98602,0.00269
3660.92585,0.00283
3658.86568,0.00275
3656.80551,0.00256
3654.74534,0.00238
3652.68516,0.00231
3650.62499,0.00245
3648.56482,0.00283
3646.50465,0.00336
3644.44447,0.00393
3642.38430,0.00447
3640.32413,0.00493
3638.26396,0.00523
3636.20379,0.00531
3634.14361,0.00518
3632.08344,0.00493
3630.02327,0.00468
3627.96310,0.00462
3625.90293,0.00482
3623.84275,0.00517
3621.78258,0.00550
3619.72241,0.00579
3617.66224,0.00610
3615.60207,0.00640
3613.54189,0.00666
3611.48172,0.00701
3609.42155,0.00752
3607.36138,0.00802
3605.30120,0.00831
3603.24103,0.00840
3601.18086,0.00846
3599.12069,0.00866
3597.06052,0.00902
3595.00034,0.00947
3592.94017,0.00996
3590.88000,0.01049
3588.81983,0.01105
3586.75966,0.01157
3584.69948,0.01192
3582.63931,0.01206
3580.57914,0.01207
3578.51897,0.01205
3576.45879,0.01207
3574.39862,0.01224
3572.33845,0.01255
3570.27828,0.01294
3568.21811,0.01335
3566.15793,0.01381
3564.09776,0.01431
3562.03759,0.01479
3559.97742,0.01523
3557.91725,0.01562
3555.85707,0.01595
3553.79690,0.01619
3551.73673,0.01639
3549.67656,0.01660
3547.61639,0.01683
3545.55621,0.01703
3543.49604,0.01718
3541.43587,0.01728
3539.37570,0.01737
3537.31552,0.01758
3535.25535,0.01799
3533.19518,0.01852
3531.13501,0.01901
3529.07484,0.01940
3527.01466,0.01972
3524.95449,0.02004
3522.89432,0.02044
3520.83415,0.02093
3518.77398,0.02141
3516.71380,0.02177
3514.65363,0.02205
3512.59346,0.02232
3510.53329,0.02256
3508.47312,0.02272
3506.41294,0.02278
3504.35277,0.02274
3502.29260,0.02274
3500.23243,0.02299
3498.17225,0.02350
3496.11208,0.02412
3494.05191,0.02471
3491.99174,0.02520
3489.93157,0.02562
3487.87139,0.02596
3485.81122,0.02623
3483.75105,0.02644
3481.69088,0.02658
3479.63071,0.02668
3477.57053,0.02678
3475.51036,0.02696
3473.45019,0.02724
3471.39002,0.02763
3469.32984,0.02808
3467.26967,0.02850
3465.20950,0.02880
3463.14933,0.02896
3461.08916,0.02909
3459.02898,0.02929
3456.96881,0.02957
3454.90864,0.02989
3452.84847,0.03023
3450.78830,0.03052
3448.72812,0.03073
3446.66795,0.03087
3444.60778,0.03102
3442.54761,0.03123
3440.48744,0.03150
3438.42726,0.03178
3436.36709,0.03201
3434.30692,0.03222
3432.24675,0.03245
3430.18657,0.03275
3428.12640,0.03305
3426.06623,0.03329
3424.00606,0.03345
3421.94589,0.03362
3419.88571,0.03393
3417.82554,0.03433
3415.76537,0.03469
3413.70520,0.03490
3411.64503,0.03496
3409.58485,0.03495
3407.52468,0.03498
3405.46451,0.03511
3403.40434,0.03530
3401.34416,0.03551
3399.28399,0.03574
3397.22382,0.03601
3395.16365,0.03632
3393.10348,0.03660
3391.04330,0.03671
3388.98313,0.03663
3386.92296,0.03653
3384.86279,0.03656
3382.80262,0.03670
3380.74244,0.03686
3378.68227,0.03701
3376.62210,0.03719
3374.56193,0.03743
3372.50176,0.03770
3370.44158,0.03792
3368.38141,0.03807
3366.32124,0.03818
3364.26107,0.03830
3362.20089,0.03842
3360.14072,0.03854
3358.08055,0.03867
3356.02038,0.03880
3353.96021,0.03887
3351.90003,0.03881
3349.83986,0.03866
3347.77969,0.03852
3345.71952,0.03851
3343.65935,0.03864
3341.59917,0.03886
3339.53900,0.03905
3337.47883,0.03915
3335.41866,0.03922
3333.35849,0.03925
3331.29831,0.03921
3329.23814,0.03910
3327.17797,0.03902
3325.11780,0.03901
3323.05762,0.03909
3320.99745,0.03924
3318.93728,0.03941
3316.87711,0.03956
3314.81694,0.03966
3312.75676,0.03969
3310.69659,0.03963
3308.63642,0.03958
3306.57625,0.03967
3304.51608,0.03991
3302.45590,0.04019
3300.39573,0.04039
3298.33556,0.04046
3296.27539,0.04041
3294.21521,0.04030
3292.15504,0.04021
3290.09487,0.04015
3288.03470,0.04002
3285.97453,0.03982
3283.91435,0.03967
3281.85418,0.03965
3279.79401,0.03971
3277.73384,0.03975
3275.67367,0.03975
3273.61349,0.03970
3271.55332,0.03965
3269.49315,0.03966
3267.43298,0.03972
3265.37281,0.03977
3263.31263,0.03977
3261.25246,0.03974
3259.19229,0.03973
3257.13212,0.03978
3255.07194,0.03981
3253.01177,0.03974
3250.95160,0.03956
3248.89143,0.03932
3246.83126,0.03910
3244.77108,0.03896
3242.71091,0.03892
3240.65074,0.03894
3238.59057,0.03895
3236.53040,0.03888
3234.47022,0.03871
3232.41005,0.03843
3230.34988,0.03812
3228.28971,0.03787
3226.22954,0.03776
3224.16936,0.03779
3222.10919,0.03786
3220.04902,0.03778
3217.98885,0.03748
3215.92867,0.03710
3213.86850,0.03683
3211.80833,0.03671
3209.74816,0.03658
3207.68799,0.03639
3205.62781,0.03618
3203.56764,0.03601
3201.50747,0.03593
3199.44730,0.03592
3197.38713,0.03593
3195.32695,0.03584
3193.26678,0.03553
3191.20661,0.03505
3189.14644,0.03452
3187.08626,0.03402
3185.02609,0.03360
3182.96592,0.03330
3180.90575,0.03314
3178.84558,0.03307
3176.78540,0.03303
3174.72523,0.03299
3172.66506,0.03295
3170.60489,0.03287
3168.54472,0.03275
3166.48454,0.03257
3164.42437,0.03237
3162.36420,0.03211
3160.30403,0.03182
3158.24386,0.03158
3156.18368,0.03144
3154.12351,0.03131
3152.06334,0.03107
3150.00317,0.03078
3147.94299,0.03051
3145.88282,0.03027
3143.82265,0.03002
3141.76248,0.02976
3139.70231,0.02954
3137.64213,0.02937
3135.58196,0.02927
3133.52179,0.02920
3131.46162,0.02906
3129.40145,0.02878
3127.34127,0.02837
3125.28110,0.02791
3123.22093,0.02746
3121.16076,0.02710
3119.10058,0.02681
3117.04041,0.02654
3114.98024,0.02632
3112.92007,0.02615
3110.85990,0.02598
3108.79972,0.02580
3106.73955,0.02569
3104.67938,0.02564
3102.61921,0.02551
3100.55904,0.02521
3098.49886,0.02484
3096.43869,0.02457
3094.37852,0.02444
3092.31835,0.02438
3090.25818,0.02432
3088.19800,0.02422
3086.13783,0.02404
3084.07766,0.02379
3082.01749,0.02352
3079.95731,0.02327
3077.89714,0.02304
3075.83697,0.02283
3073.77680,0.02262
3071.71663,0.02237
3069.65645,0.02204
3067.59628,0.02167
3065.53611,0.02135
3063.47594,0.02115
3061.41577,0.02106
3059.35559,0.02101
3057.29542,0.02092
3055.23525,0.02078
3053.17508,0.02056
3051.11491,0.02028
3049.05473,0.02002
3046.99456,0.01990
3044.93439,0.01991
3042.87422,0.01991
3040.81404,0.01981
3038.75387,0.01959
3036.69370,0.01932
3034.63353,0.01903
3032.57336,0.01873
3030.51318,0.01842
3028.45301,0.01815
3026.39284,0.01794
3024.33267,0.01780
3022.27250,0.01772
3020.21232,0.01764
3018.15215,0.01757
3016.09198,0.01749
3014.03181,0.01745
3011.97163,0.01745
3009.91146,0.01745
3007.85129,0.01741
3005.79112,0.01730
3003.73095,0.01715
3001.67077,0.01697
2999.61060,0.01683
2997.55043,0.01675
2995.49026,0.01672
2993.43009,0.01669
2991.36991,0.01664
2989.30974,0.01657
2987.24957,0.01659
2985.18940,0.01673
2983.12923,0.01693
2981.06905,0.01712
2979.00888,0.01725
2976.94871,0.01735
2974.88854,0.01752
2972.82836,0.01775
2970.76819,0.01782
2968.70802,0.01774
2966.64785,0.01777
2964.58768,0.01802
2962.52750,0.01844
2960.46733,0.01890
2958.40716,0.01920
2956.34699,0.01931
2954.28682,0.01946
2952.22664,0.01977
2950.16647,0.02010
2948.10630,0.02041
2946.04613,0.02081
2943.98596,0.02113
2941.92578,0.02122
2939.86561,0.02131
2937.80544,0.02163
2935.74527,0.02196
2933.68509,0.02208
2931.62492,0.02204
2929.56475,0.02193
2927.50458,0.02172
2925.44441,0.02146
2923.38423,0.02125
2921.32406,0.02106
2919.26389,0.02088
2917.20372,0.02080
2915.14355,0.02079
2913.08337,0.02070
2911.02320,0.02052
2908.96303,0.02030
2906.90286,0.02004
2904.84268,0.01982
2902.78251,0.01978
2900.72234,0.01988
2898.66217,0.02005
2896.60200,0.02022
2894.54182,0.02030
2892.48165,0.02019
2890.42148,0.01997
2888.36131,0.01977
2886.30114,0.01965
2884.24096,0.01947
2882.18079,0.01922
2880.12062,0.01904
2878.06045,0.01900
2876.00028,0.01902
2873.94010,0.01901
2871.87993,0.01890
2869.81976,0.01875
2867.75959,0.01862
2865.69941,0.01852
2863.63924,0.01834
2861.57907,0.01808
2859.51890,0.01784
2857.45873,0.01765
2855.39855,0.01738
2853.33838,0.01711
2851.27821,0.01697
2849.21804,0.01682
2847.15787,0.01653
2845.09769,0.01621
2843.03752,0.01597
2840.97735,0.01580
2838.91718,0.01561
2836.85700,0.01536
2834.79683,0.01522
2832.73666,0.01527
2830.67649,0.01533
2828.61632,0.01525
2826.55614,0.01519
2824.49597,0.01519
2822.43580,0.01514
2820.37563,0.01501
2818.31546,0.01484
2816.25528,0.01466
2814.19511,0.01444
2812.13494,0.01426
2810.07477,0.01415
2808.01460,0.01405
2805.95442,0.01398
2803.89425,0.01402
2801.83408,0.01406
2799.77391,0.01398
2797.71373,0.01384
2795.65356,0.01369
2793.59339,0.01351
2791.53322,0.01337
2789.47305,0.01336
2787.41287,0.01328
2785.35270,0.01309
2783.29253,0.01301
2781.23236,0.01310
2779.17219,0.01315
2777.11201,0.01311
2775.05184,0.01305
2772.99167,0.01297
2770.93150,0.01285
2768.87133,0.01267
2766.81115,0.01244
2764.75098,0.01240
2762.69081,0.01256
2760.63064,0.01268
2758.57046,0.01261
2756.51029,0.01249
2754.45012,0.01242
2752.38995,0.01235
2750.32978,0.01225
2748.26960,0.01215
2746.20943,0.01206
2744.14926,0.01194
2742.08909,0.01182
2740.02892,0.01177
2737.96874,0.01178
2735.90857,0.01178
2733.84840,0.01181
2731.78823,0.01191
2729.72805,0.01196
2727.66788,0.01187
2725.60771,0.01179
2723.54754,0.01189
2721.48737,0.01210
2719.42719,0.01218
2717.36702,0.01208
2715.30685,0.01188
2713.24668,0.01165
2711.18651,0.01143
2709.12633,0.01131
2707.06616,0.01121
2705.00599,0.01109
2702.94582,0.01098
2700.88565,0.01093
2698.82547,0.01093
2696.76530,0.01094
2694.70513,0.01091
2692.64496,0.01084
2690.58478,0.01087
2688.52461,0.01101
2686.46444,0.01117
2684.40427,0.01124
2682.34410,0.01110
2680.28392,0.01077
2678.22375,0.01050
2676.16358,0.01055
2674.10341,0.01078
2672.04324,0.01086
2669.98306,0.01073
2667.92289,0.01053
2665.86272,0.01038
2663.80255,0.01040
2661.74238,0.01056
2659.68220,0.01060
2657.62203,0.01033
2655.56186,0.00985
2653.50169,0.00946
2651.44151,0.00942
2649.38134,0.00972
2647.32117,0.01000
2645.26100,0.01002
2643.20083,0.00996
2641.14065,0.00991
2639.08048,0.00971
2637.02031,0.00938
2634.96014,0.00919
2632.89997,0.00930
2630.83979,0.00952
2628.77962,0.00959
2626.71945,0.00938
2624.65928,0.00893
2622.59910,0.00854
2620.53893,0.00844
2618.47876,0.00849
2616.41859,0.00852
2614.35842,0.00856
2612.29824,0.00856
2610.23807,0.00853
2608.17790,0.00851
2606.11773,0.00843
2604.05756,0.00831
2601.99738,0.00819
2599.93721,0.00783
2597.87704,0.00735
2595.81687,0.00725
2593.75670,0.00756
2591.69652,0.00781
2589.63635,0.00773
2587.57618,0.00749
2585.51601,0.00734
2583.45583,0.00729
2581.39566,0.00725
2579.33549,0.00730
2577.27532,0.00734
2575.21515,0.00726
2573.15497,0.00724
2571.09480,0.00735
2569.03463,0.00734
2566.97446,0.00713
2564.91429,0.00693
2562.85411,0.00681
2560.79394,0.00671
2558.73377,0.00657
2556.67360,0.00652
2554.61342,0.00667
2552.55325,0.00683
2550.49308,0.00666
2548.43291,0.00626
2546.37274,0.00609
2544.31256,0.00639
2542.25239,0.00696
2540.19222,0.00742
2538.13205,0.00744
2536.07188,0.00712
2534.01170,0.00683
2531.95153,0.00675
2529.89136,0.00672
2527.83119,0.00660
2525.77102,0.00651
2523.71084,0.00655
2521.65067,0.00654
2519.59050,0.00654
2517.53033,0.00682
2515.47015,0.00727
2513.40998,0.00744
2511.34981,0.00716
2509.28964,0.00673
2507.22947,0.00654
2505.16929,0.00660
2503.10912,0.00661
2501.04895,0.00662
2498.98878,0.00696
2496.92861,0.00738
2494.86843,0.00736
2492.80826,0.00699
2490.74809,0.00667
2488.68792,0.00651
2486.62775,0.00646
2484.56757,0.00662
2482.50740,0.00686
2480.44723,0.00694
2478.38706,0.00685
2476.32688,0.00676
2474.26671,0.00670
2472.20654,0.00664
2470.14637,0.00660
2468.08620,0.00664
2466.02602,0.00666
2463.96585,0.00668
2461.90568,0.00679
2459.84551,0.00683
2457.78534,0.00666
2455.72516,0.00645
2453.66499,0.00639
2451.60482,0.00641
2449.54465,0.00646
2447.48447,0.00647
2445.42430,0.00635
2443.36413,0.00609
2441.30396,0.00583
2439.24379,0.00588
2437.18361,0.00613
2435.12344,0.00613
2433.06327,0.00580
2431.00310,0.00551
2428.94293,0.00558
2426.88275,0.00575
2424.82258,0.00566
2422.76241,0.00551
2420.70224,0.00562
2418.64207,0.00587
2416.58189,0.00600
2414.52172,0.00596
2412.46155,0.00581
2410.40138,0.00570
2408.34120,0.00576
2406.28103,0.00594
2404.22086,0.00615
2402.16069,0.00627
2400.10052,0.00629
2398.04034,0.00621
2395.98017,0.00610
2393.92000,0.00604
2391.85983,0.00601
2389.79966,0.00597
2387.73948,0.00592
2385.67931,0.00590
2383.61914,0.00591
2381.55897,0.00589
2379.49880,0.00588
2377.43862,0.00600
2375.37845,0.00638
2373.31828,0.00693
2371.25811,0.00729
2369.19793,0.00707
2367.13776,0.00629
2365.07759,0.00546
2363.01742,0.00492
2360.95725,0.00459
2358.89707,0.00456
2356.83690,0.00514
2354.77673,0.00611
2352.71656,0.00688
2350.65639,0.00709
2348.59621,0.00675
2346.53604,0.00614
2344.47587,0.00566
2342.41570,0.00545
2340.35552,0.00539
2338.29535,0.00531
2336.23518,0.00525
2334.17501,0.00539
2332.11484,0.00579
2330.05466,0.00635
2327.99449,0.00690
2325.93432,0.00721
2323.87415,0.00700
2321.81398,0.00620
2319.75380,0.00522
2317.69363,0.00462
2315.63346,0.00454
2313.57329,0.00464
2311.51312,0.00462
2309.45294,0.00454
2307.39277,0.00457
2305.33260,0.00478
2303.27243,0.00507
2301.21225,0.00535
2299.15208,0.00563
2297.09191,0.00593
2295.03174,0.00618
2292.97157,0.00624
2290.91139,0.00603
2288.85122,0.00568
2286.79105,0.00545
2284.73088,0.00544
2282.67071,0.00553
2280.61053,0.00557
2278.55036,0.00551
2276.49019,0.00541
2274.43002,0.00538
2272.36984,0.00534
2270.30967,0.00512
2268.24950,0.00466
2266.18933,0.00412
2264.12916,0.00373
2262.06898,0.00359
2260.00881,0.00367
2257.94864,0.00382
2255.88847,0.00401
2253.82830,0.00428
2251.76812,0.00462
2249.70795,0.00486
2247.64778,0.00478
2245.58761,0.00442
2243.52744,0.00397
2241.46726,0.00370
2239.40709,0.00400
2237.34692,0.00467
2235.28675,0.00480
2233.22657,0.00416
2231.16640,0.00365
2229.10623,0.00380
2227.04606,0.00437
2224.98589,0.00497
2222.92571,0.00551
2220.86554,0.00585
2218.80537,0.00572
2216.74520,0.00535
2214.68503,0.00481
2212.62485,0.00394
2210.56468,0.00324
2208.50451,0.00333
2206.44434,0.00402
2204.38417,0.00461
2202.32399,0.00486
2200.26382,0.00478
2198.20365,0.00420
2196.14348,0.00315
2194.08330,0.00214
2192.02313,0.00193
2189.96296,0.00266
2187.90279,0.00341
2185.84262,0.00314
2183.78244,0.00218
2181.72227,0.00193
2179.66210,0.00259
2177.60193,0.00294
2175.54176,0.00273
2173.48158,0.00262
2171.42141,0.00243
2169.36124,0.00204
2167.30107,0.00200
2165.24089,0.00234
2163.18072,0.00252
2161.12055,0.00230
2159.06038,0.00199
2157.00021,0.00200
2154.94003,0.00204
2152.87986,0.00187
2150.81969,0.00177
2148.75952,0.00212
2146.69935,0.00299
2144.63917,0.00344
2142.57900,0.00280
2140.51883,0.00177
2138.45866,0.00133
2136.39849,0.00154
2134.33831,0.00201
2132.27814,0.00265
2130.21797,0.00319
2128.15780,0.00305
2126.09762,0.00224
2124.03745,0.00142
2121.97728,0.00116
2119.91711,0.00146
2117.85694,0.00207
2115.79676,0.00267
2113.73659,0.00298
2111.67642,0.00299
2109.61625,0.00284
2107.55608,0.00285
2105.49590,0.00333
2103.43573,0.00407
2101.37556,0.00464
2099.31539,0.00473
2097.25521,0.00433
2095.19504,0.00367
2093.13487,0.00314
2091.07470,0.00295
2089.01453,0.00312
2086.95435,0.00354
2084.89418,0.00398
2082.83401,0.00421
2080.77384,0.00426
2078.71367,0.00428
2076.65349,0.00426
2074.59332,0.00408
2072.53315,0.00373
2070.47298,0.00325
2068.41281,0.00276
2066.35263,0.00246
2064.29246,0.00257
2062.23229,0.00310
2060.17212,0.00389
2058.11194,0.00464
2056.05177,0.00517
2053.99160,0.00552
2051.93143,0.00565
2049.87126,0.00538
2047.81108,0.00461
2045.75091,0.00347
2043.69074,0.00229
2041.63057,0.00155
2039.57040,0.00158
2037.51022,0.00230
2035.45005,0.00306
2033.38988,0.00318
2031.32971,0.00259
2029.26954,0.00187
2027.20936,0.00154
2025.14919,0.00156
2023.08902,0.00169
2021.02885,0.00191
2018.96867,0.00222
2016.90850,0.00235
2014.84833,0.00203
2012.78816,0.00148
2010.72799,0.00126
2008.66781,0.00153
2006.60764,0.00182
2004.54747,0.00169
2002.48730,0.00132
2000.42713,0.00121
1998.36695,0.00153
1996.30678,0.00210
1994.24661,0.00276
1992.18644,0.00345
1990.12626,0.00403
1988.06609,0.00431
1986.00592,0.00423
1983.94575,0.00375
1981.88558,0.00290
1979.82540,0.00189
1977.76523,0.00119
1975.70506,0.00108
1973.64489,0.00131
1971.58472,0.00156
1969.52454,0.00171
1967.46437,0.00156
1965.40420,0.00097
1963.34403,0.00026
1961.28386,0.00000
1959.22368,0.00039
1957.16351,0.00131
1955.10334,0.00238
1953.04317,0.00319
1950.98299,0.00342
1948.92282,0.00310
1946.86265,0.00256
1944.80248,0.00212
1942.74231,0.00193
1940.68213,0.00201
1938.62196,0.00222
1936.56179,0.00243
1934.50162,0.00258
1932.44145,0.00265
1930.38127,0.00263
1928.32110,0.00259
1926.26093,0.00257
1924.20076,0.00250
1922.14059,0.00228
1920.08041,0.00195
1918.02024,0.00170
1915.96007,0.00170
1913.89990,0.00197
1911.83972,0.00237
1909.77955,0.00272
1907.71938,0.00295
1905.65921,0.00304
1903.59904,0.00304
1901.53886,0.00299
1899.47869,0.00282
1897.41852,0.00244
1895.35835,0.00190
1893.29818,0.00142
1891.23800,0.00115
1889.17783,0.00116
1887.11766,0.00136
1885.05749,0.00155
1882.99731,0.00160
1880.93714,0.00150
1878.87697,0.00133
1876.81680,0.00123
1874.75663,0.00128
1872.69645,0.00143
1870.63628,0.00151
1868.57611,0.00152
1866.51594,0.00162
1864.45577,0.00181
1862.39559,0.00198
1860.33542,0.00208
1858.27525,0.00214
1856.21508,0.00214
1854.15491,0.00205
1852.09473,0.00187
1850.03456,0.00169
1847.97439,0.00159
1845.91422,0.00157
1843.85404,0.00153
1841.79387,0.00145
1839.73370,0.00136
1837.67353,0.00133
1835.61336,0.00142
1833.55318,0.00159
1831.49301,0.00174
1829.43284,0.00176
1827.37267,0.00165
1825.31250,0.00149
1823.25232,0.00136
1821.19215,0.00126
1819.13198,0.00116
1817.07181,0.00108
1815.01163,0.00103
1812.95146,0.00105
1810.89129,0.00119
1808.83112,0.00139
1806.77095,0.00155
1804.71077,0.00157
1802.65060,0.00147
1800.59043,0.00140
1798.53026,0.00143
1796.47009,0.00155
1794.40991,0.00162
1792.34974,0.00162
1790.28957,0.00160
1788.22940,0.00162
1786.16923,0.00164
1784.10905,0.00165
1782.04888,0.00162
1779.98871,0.00157
1777.92854,0.00150
1775.86836,0.00134
1773.80819,0.00111
1771.74802,0.00095
1769.68785,0.00097
1767.62768,0.00117
1765.56750,0.00150
1763.50733,0.00187
1761.44716,0.00225
1759.38699,0.00264
1757.32682,0.00302
1755.26664,0.00332
1753.20647,0.00354
1751.14630,0.00378
1749.08613,0.00421
1747.02596,0.00480
1744.96578,0.00543
1742.90561,0.00599
1740.84544,0.00646
1738.78527,0.00680
1736.72509,0.00696
1734.66492,0.00698
1732.60475,0.00698
1730.54458,0.00704
1728.48441,0.00712
1726.42423,0.00717
1724.36406,0.00715
1722.30389,0.00698
1720.24372,0.00661
1718.18355,0.00615
1716.12337,0.00582
1714.06320,0.00571
1712.00303,0.00567
1709.94286,0.00554
1707.88268,0.00522
1705.82251,0.00470
1703.76234,0.00407
1701.70217,0.00351
1699.64200,0.00322
1697.58182,0.00327
1695.52165,0.00355
1693.46148,0.00391
1691.40131,0.00423
1689.34114,0.00450
1687.28096,0.00474
1685.22079,0.00500
1683.16062,0.00535
1681.10045,0.00588
1679.04028,0.00649
1676.98010,0.00706
1674.91993,0.00750
1672.85976,0.00781
1670.79959,0.00808
1668.73941,0.00852
1666.67924,0.00919
1664.61907,0.00999
1662.55890,0.01082
1660.49873,0.01156
1658.43855,0.01214
1656.37838,0.01249
1654.31821,0.01265
1652.25804,0.01270
1650.19787,0.01268
1648.13769,0.01268
1646.07752,0.01284
1644.01735,0.01323
1641.95718,0.01373
1639.89701,0.01414
1637.83683,0.01437
1635.77666,0.01453
1633.71649,0.01480
1631.65632,0.01513
1629.59614,0.01533
1627.53597,0.01535
1625.47580,0.01526
1623.41563,0.01526
1621.35546,0.01538
1619.29528,0.01550
1617.23511,0.01559
1615.17494,0.01570
1613.11477,0.01576
1611.05460,0.01565
1608.99442,0.01536
1606.93425,0.01494
1604.87408,0.01441
1602.81391,0.01376
1600.75373,0.01301
1598.69356,0.01220
1596.63339,0.01137
1594.57322,0.01058
1592.51305,0.00985
1590.45287,0.00918
1588.39270,0.00855
1586.33253,0.00795
1584.27236,0.00736
1582.21219,0.00674
1580.15201,0.00613
1578.09184,0.00558
1576.03167,0.00513
1573.97150,0.00481
1571.91133,0.00454
1569.85115,0.00421
1567.79098,0.00384
1565.73081,0.00348
1563.67064,0.00312
1561.61046,0.00270
1559.55029,0.00228
1557.49012,0.00208
1555.42995,0.00219
1553.36978,0.00241
1551.30960,0.00251
1549.24943,0.00234
1547.18926,0.00188
1545.12909,0.00125
1543.06892,0.00072
1541.00874,0.00049
1538.94857,0.00059
1536.88840,0.00084
1534.82823,0.00102
1532.76805,0.00107
1530.70788,0.00099
1528.64771,0.00074
1526.58754,0.00039
1524.52737,0.00010
1522.46719,0.00000
1520.40702,0.00008
1518.34685,0.00027
1516.28668,0.00048
1514.22651,0.00058
1512.16633,0.00048
1510.10616,0.00019
1508.04599,-0.00006
1505.98582,-0.00000
1503.92565,0.00035
1501.86547,0.00076
1499.80530,0.00102
1497.74513,0.00112
1495.68496,0.00114
1493.62478,0.00117
1491.56461,0.00122
1489.50444,0.00136
1487.44427,0.00166
1485.38410,0.00210
1483.32392,0.00258
1481.26375,0.00298
1479.20358,0.00328
1477.14341,0.00348
1475.08324,0.00372
1473.02306,0.00411
1470.96289,0.00471
1468.90272,0.00537
1466.84255,0.00592
1464.78238,0.00633
1462.72220,0.00659
1460.66203,0.00671
1458.60186,0.00679
1456.54169,0.00703
1454.48151,0.00745
1452.42134,0.00791
1450.36117,0.00830
1448.30100,0.00863
1446.24083,0.00893
1444.18065,0.00917
1442.12048,0.00934
1440.06031,0.00949
1438.00014,0.00968
1435.93997,0.00997
1433.87979,0.01031
1431.81962,0.01066
1429.75945,0.01102
1427.69928,0.01142
1425.63910,0.01180
1423.57893,0.01211
1421.51876,0.01232
1419.45859,0.01251
1417.39842,0.01271
1415.33824,0.01293
1413.27807,0.01309
1411.21790,0.01314
1409.15773,0.01304
1407.09756,0.01281
1405.03738,0.01252
1402.97721,0.01221
1400.91704,0.01185
1398.85687,0.01144
1396.79670,0.01111
1394.73652,0.01094
1392.67635,0.01095
1390.61618,0.01103
1388.55601,0.01114
1386.49583,0.01129
1384.43566,0.01148
1382.37549,0.01172
1380.31532,0.01196
1378.25515,0.01219
1376.19497,0.01238
1374.13480,0.01252
1372.07463,0.01263
1370.01446,0.01266
1367.95429,0.01254
1365.89411,0.01225
1363.83394,0.01186
1361.77377,0.01151
1359.71360,0.01127
1357.65343,0.01111
1355.59325,0.01098
1353.53308,0.01089
1351.47291,0.01083
1349.41274,0.01073
1347.35256,0.01055
1345.29239,0.01028
1343.23222,0.01000
1341.17205,0.00980
1339.11188,0.00975
1337.05170,0.00984
1334.99153,0.00997
1332.93136,0.01001
1330.87119,0.00998
1328.81102,0.00996
1326.75084,0.00998
1324.69067,0.00998
1322.63050,0.00992
1320.57033,0.00983
1318.51015,0.00979
1316.44998,0.00984
1314.38981,0.00995
1312.32964,0.01007
1310.26947,0.01013
1308.20929,0.01007
1306.14912,0.00988
1304.08895,0.00958
1302.02878,0.00924
1299.96861,0.00895
1297.90843,0.00879
1295.84826,0.00873
1293.78809,0.00870
1291.72792,0.00864
1289.66775,0.00856
1287.60757,0.00848
1285.54740,0.00842
1283.48723,0.00841
1281.42706,0.00848
1279.36688,0.00858
1277.30671,0.00867
1275.24654,0.00874
1273.18637,0.00885
1271.12620,0.00911
1269.06602,0.00955
1267.00585,0.01015
1264.94568,0.01075
1262.88551,0.01125
1260.82534,0.01159
1258.76516,0.01183
1256.70499,0.01203
1254.64482,0.01222
1252.58465,0.01237
1250.52447,0.01246
1248.46430,0.01247
1246.40413,0.01241
1244.34396,0.01231
1242.28379,0.01213
1240.22361,0.01187
1238.16344,0.01155
1236.10327,0.01126
1234.04310,0.01100
1231.98293,0.01071
1229.92275,0.01035
1227.86258,0.00989
1225.80241,0.00936
1223.74224,0.00881
1221.68207,0.00828
1219.62189,0.00774
1217.56172,0.00718
1215.50155,0.00659
1213.44138,0.00595
1211.38120,0.00529
1209.32103,0.00467
1207.26086,0.00409
1205.20069,0.00351
1203.14052,0.00287
1201.08034,0.00217
1199.02017,0.00148
1196.96000,0.00090
1194.89983,0.00050
1192.83966,0.00018
1190.77948,0.00000
1188.71931,-0.00004
1186.65914,0.00003
1184.59897,0.00018
1182.53880,0.00046
1180.47862,0.00096
1178.41845,0.00170
1176.35828,0.00260
1174.29811,0.00363
1172.23793,0.00475
1170.17776,0.00585
1168.11759,0.00691
1166.05742,0.00807
1163.99725,0.00929
1161.93707,0.01038
1159.87690,0.01130
1157.81673,0.01221
1155.75656,0.01312
1153.69639,0.01394
1151.63621,0.01467
1149.57604,0.01545
1147.51587,0.01630
1145.45570,0.01697
1143.39552,0.01728
1141.33535,0.01738
1139.27518,0.01759
1137.21501,0.01820
1135.15484,0.01920
1133.09466,0.02022
1131.03449,0.02106
1128.97432,0.02188
1126.91415,0.02280
1124.85398,0.02375
1122.79380,0.02467
1120.73363,0.02561
1118.67346,0.02661
1116.61329,0.02765
1114.55312,0.02859
1112.49294,0.02941
1110.43277,0.03024
1108.37260,0.03122
1106.31243,0.03241
1104.25225,0.03377
1102.19208,0.03521
1100.13191,0.03666
1098.07174,0.03813
1096.01157,0.03962
1093.95139,0.04110
1091.89122,0.04250
1089.83105,0.04379
1087.77088,0.04494
1085.71071,0.04602
1083.65053,0.04716
1081.59036,0.04842
1079.53019,0.04965
1077.47002,0.05072
1075.40985,0.05171
1073.34967,0.05278
1071.28950,0.05391
1069.22933,0.05497
1067.16916,0.05583
1065.10898,0.05652
1063.04881,0.05711
1060.98864,0.05762
1058.92847,0.05814
1056.86830,0.05878
1054.80812,0.05953
1052.74795,0.06031
1050.68778,0.06103
1048.62761,0.06174
1046.56744,0.06249
1044.50726,0.06323
1042.44709,0.06391
1040.38692,0.06455
1038.32675,0.06516
1036.26657,0.06560
1034.20640,0.06574
1032.14623,0.06571
1030.08606,0.06552
1028.02589,0.06508
1025.96571,0.06452
1023.90554,0.06399
1021.84537,0.06342
1019.78520,0.06273
1017.72503,0.06215
1015.66485,0.06185
1013.60468,0.06161
1011.54451,0.06119
1009.48434,0.06073
1007.42417,0.06023
1005.36399,0.05953
1003.30382,0.05859
1001.24365,0.05743
999.18348,0.05614
997.12330,0.05494
995.06313,0.05395
993.00296,0.05318
990.94279,0.05257
988.88262,0.05189
986.82244,0.05090
984.76227,0.04979
982.70210,0.04890
980.64193,0.04829
978.58176,0.04773
976.52158,0.04700
974.46141,0.04601
972.40124,0.04480
970.34107,0.04341
968.28089,0.04200
966.22072,0.04076
964.16055,0.03975
962.10038,0.03892
960.04021,0.03815
957.98003,0.03719
955.91986,0.03604
953.85969,0.03492
951.79952,0.03390
949.73935,0.03285
947.67917,0.03168
945.61900,0.03022
943.55883,0.02839
941.49866,0.02632
939.43849,0.02430
937.37831,0.02244
935.31814,0.02056
933.25797,0.01865
931.19780,0.01699
929.13762,0.01567
927.07745,0.01462
925.01728,0.01370
922.95711,0.01269
920.89694,0.01149
918.83676,0.01035
916.77659,0.00965
914.71642,0.00936
912.65625,0.00906
910.59608,0.00855
908.53590,0.00801
906.47573,0.00763
904.41556,0.00742
902.35539,0.00737
900.29522,0.00753
898.23504,0.00774
896.17487,0.00770
894.11470,0.00747
892.05453,0.00739
889.99435,0.00741
887.93418,0.00722
885.87401,0.00690
883.81384,0.00666
881.75367,0.00636
879.69349,0.00588
877.63332,0.00546
875.57315,0.00532
873.51298,0.00546
871.45281,0.00557
869.39263,0.00555
867.33246,0.00560
865.27229,0.00557
863.21212,0.00524
861.15194,0.00501
859.09177,0.00521
857.03160,0.00557
854.97143,0.00556
852.91126,0.00491
850.85108,0.00395
848.79091,0.00325
846.73074,0.00296
844.67057,0.00286
842.61040,0.00276
840.55022,0.00248
838.49005,0.00193
836.42988,0.00126
834.36971,0.00081
832.30954,0.00069
830.24936,0.00078
828.18919,0.00098
826.12902,0.00103
824.06885,0.00085
822.00867,0.00067
819.94850,0.00063
817.88833,0.00060
815.82816,0.00064
813.76799,0.00116
811.70781,0.00215
809.64764,0.00292
807.58747,0.00296
805.52730,0.00250
803.46713,0.00221
801.40695,0.00232
799.34678,0.00250
797.28661,0.00229
795.22644,0.00179
793.16627,0.00132
791.10609,0.00085
789.04592,0.00044
786.98575,0.00039
784.92558,0.00060
782.86540,0.00082
780.80523,0.00118
778.74506,0.00171
776.68489,0.00202
774.62472,0.00187
772.56454,0.00143
770.50437,0.00106
768.44420,0.00103
766.38403,0.00133
764.32386,0.00193
762.26368,0.00268
760.20351,0.00304
758.14334,0.00283
756.08317,0.00246
754.02299,0.00214
751.96282,0.00179
749.90265,0.00160
747.84248,0.00183
745.78231,0.00213
743.72213,0.00187
741.66196,0.00109
739.60179,0.00033
737.54162,0.00000
735.48145,0.00011
733.42127,0.00077
731.36110,0.00155
729.30093,0.00210
727.24076,0.00224
725.18059,0.00200
723.12041,0.00165
721.06024,0.00142
719.00007,0.00151
716.93990,0.00186
714.87972,0.00221
712.81955,0.00247
710.75938,0.00271
708.69921,0.00298
706.63904,0.00320
704.57886,0.00332
702.51869,0.00332
700.45852,0.00332
698.39835,0.00345
696.33818,0.00364
694.27800,0.00360
692.21783,0.00315
690.15766,0.00243
688.09749,0.00161
686.03731,0.00097
683.97714,0.00085
681.91697,0.00138
679.85680,0.00228
677.79663,0.00313
675.73645,0.00379
673.67628,0.00427
671.61611,0.00448
669.55594,0.00417
667.49577,0.00337
665.43559,0.00267
663.37542,0.00256
661.31525,0.00289
659.25508,0.00328
657.19491,0.00362
655.13473,0.00396
653.07456,0.00418
651.01439,0.00410
648.95422,0.00372
646.89404,0.00324
644.83387,0.00275
642.77370,0.00210
640.71353,0.00123
638.65336,0.00038
636.59318,0.00000
634.53301,0.00042
632.47284,0.00183
630.41267,0.00343
628.35250,0.00393
626.29232,0.00275
624.23215,0.00117
622.17198,0.00004
620.11181,-0.00115
618.05164,-0.00201
615.99146,-0.00123
613.93129,0.00037
611.87112,0.00102
609.81095,0.00109
607.75077,0.00227
605.69060,0.00465
603.63043,0.00602
601.57026,0.00427
599.51009,0.00000
