3996.73391,-0.00051
3994.67373,-0.00041
3992.61356,-0.00026
3990.55339,-0.00003
3988.49322,0.00023
3986.43305,0.00041
3984.37287,0.00046
3982.31270,0.00041
3980.25253,0.00033
3978.19236,0.00024
3976.13219,0.00016
3974.07201,0.00007
3972.01184,0.00000
3969.95167,0.00005
3967.89150,0.00023
3965.83133,0.00041
3963.77115,0.00050
3961.71098,0.00054
3959.65081,0.00064
3957.59064,0.00077
3955.53046,0.00082
3953.47029,0.00076
3951.41012,0.00072
3949.34995,0.00073
3947.28978,0.00074
3945.22960,0.00072
3943.16943,0.00065
3941.10926,0.00059
3939.04909,0.00055
3936.98892,0.00064
3934.92874,0.00092
3932.86857,0.00130
3930.80840,0.00154
3928.74823,0.00144
3926.68805,0.00102
3924.62788,0.00049
3922.56771,0.00010
3920.50754,0.00000
3918.44737,0.00015
3916.38719,0.00049
3914.32702,0.00086
3912.26685,0.00113
3910.20668,0.00126
3908.14651,0.00131
3906.08633,0.00133
3904.02616,0.00141
3901.96599,0.00154
3899.90582,0.00169
3897.84565,0.00178
3895.78547,0.00178
3893.72530,0.00171
3891.66513,0.00161
3889.60496,0.00149
3887.54478,0.00139
3885.48461,0.00138
3883.42444,0.00150
3881.36427,0.00170
3879.30410,0.00186
3877.24392,0.00188
3875.18375,0.00182
3873.12358,0.00179
3871.06341,0.00187
3869.00324,0.00199
3866.94306,0.00202
3864.88289,0.00189
3862.82272,0.00163
3860.76255,0.00127
3858.70237,0.00084
3856.64220,0.00044
3854.58203,0.00026
3852.52186,0.00038
3850.46169,0.00060
3848.40151,0.00072
3846.34134,0.00077
3844.28117,0.00089
3842.22100,0.00116
3840.16083,0.00155
3838.10065,0.00182
3836.04048,0.00180
3833.98031,0.00155
3831.92014,0.00118
3829.85997,0.00089
3827.79979,0.00087
3825.73962,0.00118
3823.67945,0.00165
3821.61928,0.00200
3819.55910,0.00210
3817.49893,0.00199
3815.43876,0.00187
3813.37859,0.00185
3811.31842,0.00190
3809.25824,0.00186
3807.19807,0.00164
3805.13790,0.00125
3803.07773,0.00083
3801.01756,0.00057
3798.95738,0.00061
3796.89721,0.00092
3794.83704,0.00134
3792.77687,0.00172
3790.71670,0.00193
3788.65652,0.00192
3786.59635,0.00177
3784.53618,0.00157
3782.47601,0.00139
3780.41583,0.00130
3778.35566,0.00134
3776.29549,0.00142
3774.23532,0.00148
3772.17515,0.00154
3770.11497,0.00159
3768.05480,0.00153
3765.99463,0.00140
3763.93446,0.00133
3761.87429,0.00144
3759.81411,0.00168
3757.75394,0.00194
3755.69377,0.00210
3753.63360,0.00218
3751.57342,0.00222
3749.51325,0.00227
3747.45308,0.00238
3745.39291,0.00239
3743.33274,0.00211
3741.27256,0.00162
3739.21239,0.00127
3737.15222,0.00123
3735.09205,0.00136
3733.03188,0.00146
3730.97170,0.00156
3728.91153,0.00172
3726.85136,0.00179
3724.79119,0.00159
3722.73102,0.00122
3720.67084,0.00101
3718.61067,0.00114
3716.55050,0.00148
3714.49033,0.00189
3712.43015,0.00227
3710.36998,0.00251
3708.30981,0.00254
3706.24964,0.00234
3704.18947,0.00197
3702.12929,0.00157
3700.06912,0.00133
3698.00895,0.00129
3695.94878,0.00132
3693.88861,0.00131
3691.82843,0.00129
3689.76826,0.00139
3687.70809,0.00163
3685.64792,0.00187
3683.58775,0.00198
3681.52757,0.00193
3679.46740,0.00178
3677.40723,0.00163
3675.34706,0.00160
3673.28688,0.00165
3671.22671,0.00175
3669.16654,0.00191
3667.10637,0.00214
3665.04620,0.00242
3662.98602,0.00265
3660.92585,0.00274
3658.86568,0.00269
3656.80551,0.00259
3654.74534,0.00263
3652.68516,0.00289
3650.62499,0.00330
3648.56482,0.00369
3646.50465,0.00396
3644.44447,0.00413
3642.38430,0.00427
3640.32413,0.00443
3638.26396,0.00459
3636.20379,0.00472
3634.14361,0.00486
3632.08344,0.00502
3630.02327,0.00517
3627.96310,0.00535
3625.90293,0.00558
3623.84275,0.00581
3621.78258,0.00598
3619.72241,0.00612
3617.66224,0.00626
3615.60207,0.00645
3613.54189,0.00675
3611.48172,0.00724
3609.42155,0.00785
3607.36138,0.00831
3605.30120,0.00848
3603.24103,0.00847
3601.18086,0.00849
3599.12069,0.00866
3597.06052,0.00893
3595.00034,0.00926
3592.94017,0.00962
3590.88000,0.01008
3588.81983,0.01072
3586.75966,0.01145
3584.69948,0.01200
3582.63931,0.01226
3580.57914,0.01231
3578.51897,0.01231
3576.45879,0.01240
3574.39862,0.01267
3572.33845,0.01312
3570.27828,0.01364
3568.21811,0.01404
3566.15793,0.01428
3564.09776,0.01442
3562.03759,0.01449
3559.97742,0.01455
3557.91725,0.01471
3555.85707,0.01502
3553.79690,0.01537
3551.73673,0.01569
3549.67656,0.01598
3547.61639,0.01632
3545.55621,0.01668
3543.49604,0.01697
3541.43587,0.01713
3539.37570,0.01726
3537.31552,0.01748
3535.25535,0.01778
3533.19518,0.01804
3531.13501,0.01824
3529.07484,0.01849
3527.01466,0.01880
3524.95449,0.01911
3522.89432,0.01942
3520.83415,0.01981
3518.77398,0.02030
3516.71380,0.02080
3514.65363,0.02119
3512.59346,0.02147
3510.53329,0.02174
3508.47312,0.02207
3506.41294,0.02243
3504.35277,0.02270
3502.29260,0.02289
3500.23243,0.02308
3498.17225,0.02334
3496.11208,0.02366
3494.05191,0.02400
3491.99174,0.02439
3489.93157,0.02479
3487.87139,0.02520
3485.81122,0.02560
3483.75105,0.02593
3481.69088,0.02611
3479.63071,0.02609
3477.57053,0.02599
3475.51036,0.02600
3473.45019,0.02617
3471.39002,0.02643
3469.32984,0.02668
3467.26967,0.02692
3465.20950,0.02716
3463.14933,0.02740
3461.08916,0.02763
3459.02898,0.02786
3456.96881,0.02812
3454.90864,0.02845
3452.84847,0.02885
3450.78830,0.02930
3448.72812,0.02975
3446.66795,0.03013
3444.60778,0.03044
3442.54761,0.03068
3440.48744,0.03085
3438.42726,0.03094
3436.36709,0.03095
3434.30692,0.03094
3432.24675,0.03102
3430.18657,0.03130
3428.12640,0.03169
3426.06623,0.03199
3424.00606,0.03210
3421.94589,0.03215
3419.88571,0.03230
3417.82554,0.03256
3415.76537,0.03282
3413.70520,0.03299
3411.64503,0.03310
3409.58485,0.03323
3407.52468,0.03339
3405.46451,0.03355
3403.40434,0.03367
3401.34416,0.03373
3399.28399,0.03380
3397.22382,0.03393
3395.16365,0.03409
3393.10348,0.03425
3391.04330,0.03434
3388.98313,0.03437
3386.92296,0.03443
3384.86279,0.03456
3382.80262,0.03474
3380.74244,0.03488
3378.68227,0.03502
3376.62210,0.03530
3374.56193,0.03581
3372.50176,0.03641
3370.44158,0.03680
3368.38141,0.03685
3366.32124,0.03667
3364.26107,0.03646
3362.20089,0.03632
3360.14072,0.03629
3358.08055,0.03638
3356.02038,0.03653
3353.96021,0.03667
3351.90003,0.03675
3349.83986,0.03679
3347.77969,0.03682
3345.71952,0.03684
3343.65935,0.03685
3341.59917,0.03687
3339.53900,0.03693
3337.47883,0.03702
3335.41866,0.03711
3333.35849,0.03720
3331.29831,0.03729
3329.23814,0.03741
3327.17797,0.03755
3325.11780,0.03768
3323.05762,0.03781
3320.99745,0.03790
3318.93728,0.03792
3316.87711,0.03787
3314.81694,0.03776
3312.75676,0.03756
3310.69659,0.03729
3308.63642,0.03710
3306.57625,0.03712
3304.51608,0.03735
3302.45590,0.03766
3300.39573,0.03788
3298.33556,0.03797
3296.27539,0.03798
3294.21521,0.03796
3292.15504,0.03795
3290.09487,0.03796
3288.03470,0.03790
3285.97453,0.03774
3283.91435,0.03752
3281.85418,0.03727
3279.79401,0.03704
3277.73384,0.03690
3275.67367,0.03688
3273.61349,0.03697
3271.55332,0.03708
3269.49315,0.03717
3267.43298,0.03725
3265.37281,0.03730
3263.31263,0.03732
3261.25246,0.03730
3259.19229,0.03726
3257.13212,0.03723
3255.07194,0.03718
3253.01177,0.03703
3250.95160,0.03679
3248.89143,0.03658
3246.83126,0.03654
3244.77108,0.03666
3242.71091,0.03683
3240.65074,0.03696
3238.59057,0.03700
3236.53040,0.03686
3234.47022,0.03649
3232.41005,0.03593
3230.34988,0.03542
3228.28971,0.03517
3226.22954,0.03523
3224.16936,0.03544
3222.10919,0.03563
3220.04902,0.03567
3217.98885,0.03555
3215.92867,0.03536
3213.86850,0.03521
3211.80833,0.03511
3209.74816,0.03498
3207.68799,0.03472
3205.62781,0.03439
3203.56764,0.03411
3201.50747,0.03398
3199.44730,0.03393
3197.38713,0.03384
3195.32695,0.03361
3193.26678,0.03323
3191.20661,0.03274
3189.14644,0.03221
3187.08626,0.03171
3185.02609,0.03135
3182.96592,0.03121
3180.90575,0.03127
3178.84558,0.03143
3176.78540,0.03155
3174.72523,0.03157
3172.66506,0.03145
3170.60489,0.03120
3168.54472,0.03087
3166.48454,0.03051
3164.42437,0.03018
3162.36420,0.02993
3160.30403,0.02974
3158.24386,0.02965
3156.18368,0.02966
3154.12351,0.02971
3152.06334,0.02969
3150.00317,0.02959
3147.94299,0.02941
3145.88282,0.02915
3143.82265,0.02876
3141.76248,0.02835
3139.70231,0.02805
3137.64213,0.02788
3135.58196,0.02781
3133.52179,0.02773
3131.46162,0.02753
3129.40145,0.02720
3127.34127,0.02682
3125.28110,0.02645
3123.22093,0.02617
3121.16076,0.02599
3119.10058,0.02585
3117.04041,0.02567
3114.98024,0.02543
3112.92007,0.02519
3110.85990,0.02494
3108.79972,0.02469
3106.73955,0.02452
3104.67938,0.02440
3102.61921,0.02424
3100.55904,0.02397
3098.49886,0.02371
3096.43869,0.02357
3094.37852,0.02357
3092.31835,0.02362
3090.25818,0.02362
3088.19800,0.02356
3086.13783,0.02347
3084.07766,0.02330
3082.01749,0.02300
3079.95731,0.02255
3077.89714,0.02208
3075.83697,0.02172
3073.77680,0.02157
3071.71663,0.02156
3069.65645,0.02154
3067.59628,0.02143
3065.53611,0.02126
3063.47594,0.02110
3061.41577,0.02096
3059.35559,0.02080
3057.29542,0.02063
3055.23525,0.02049
3053.17508,0.02043
3051.11491,0.02037
3049.05473,0.02024
3046.99456,0.02003
3044.93439,0.01980
3042.87422,0.01957
3040.81404,0.01942
3038.75387,0.01935
3036.69370,0.01930
3034.63353,0.01916
3032.57336,0.01892
3030.51318,0.01859
3028.45301,0.01826
3026.39284,0.01801
3024.33267,0.01780
3022.27250,0.01755
3020.21232,0.01727
3018.15215,0.01709
3016.09198,0.01711
3014.03181,0.01731
3011.97163,0.01754
3009.91146,0.01768
3007.85129,0.01766
3005.79112,0.01753
3003.73095,0.01739
3001.67077,0.01726
2999.61060,0.01713
2997.55043,0.01699
2995.49026,0.01684
2993.43009,0.01669
2991.36991,0.01650
2989.30974,0.01635
2987.24957,0.01638
2985.18940,0.01657
2983.12923,0.01685
2981.06905,0.01718
2979.00888,0.01740
2976.94871,0.01743
2974.88854,0.01736
2972.82836,0.01736
2970.76819,0.01739
2968.70802,0.01743
2966.64785,0.01756
2964.58768,0.01776
2962.52750,0.01799
2960.46733,0.01827
2958.40716,0.01860
2956.34699,0.01886
2954.28682,0.01909
2952.22664,0.01940
2950.16647,0.01970
2948.10630,0.01984
2946.04613,0.01996
2943.98596,0.02023
2941.92578,0.02063
2939.86561,0.02106
2937.80544,0.02139
2935.74527,0.02148
2933.68509,0.02133
2931.62492,0.02117
2929.56475,0.02121
2927.50458,0.02133
2925.44441,0.02135
2923.38423,0.02125
2921.32406,0.02108
2919.26389,0.02086
2917.20372,0.02069
2915.14355,0.02062
2913.08337,0.02050
2911.02320,0.02025
2908.96303,0.01999
2906.90286,0.01984
2904.84268,0.01985
2902.78251,0.01990
2900.72234,0.01989
2898.66217,0.01989
2896.60200,0.01992
2894.54182,0.01993
2892.48165,0.01986
2890.42148,0.01972
2888.36131,0.01954
2886.30114,0.01933
2884.24096,0.01912
2882.18079,0.01905
2880.12062,0.01915
2878.06045,0.01925
2876.00028,0.01918
2873.94010,0.01894
2871.87993,0.01857
2869.81976,0.01820
2867.75959,0.01801
2865.69941,0.01806
2863.63924,0.01810
2861.57907,0.01788
2859.51890,0.01761
2857.45873,0.01747
2855.39855,0.01737
2853.33838,0.01719
2851.27821,0.01697
2849.21804,0.01672
2847.15787,0.01641
2845.09769,0.01605
2843.03752,0.01577
2840.97735,0.01566
2838.91718,0.01566
2836.85700,0.01566
2834.79683,0.01559
2832.73666,0.01543
2830.67649,0.01525
2828.61632,0.01510
2826.55614,0.01502
2824.49597,0.01495
2822.43580,0.01481
2820.37563,0.01471
2818.31546,0.01471
2816.25528,0.01461
2814.19511,0.01430
2812.13494,0.01396
2810.07477,0.01382
2808.01460,0.01386
2805.95442,0.01382
2803.89425,0.01364
2801.83408,0.01355
2799.77391,0.01360
2797.71373,0.01369
2795.65356,0.01369
2793.59339,0.01359
2791.53322,0.01361
2789.47305,0.01370
2787.41287,0.01359
2785.35270,0.01330
2783.29253,0.01313
2781.23236,0.01318
2779.17219,0.01322
2777.11201,0.01313
2775.05184,0.01297
2772.99167,0.01280
2770.93150,0.01275
2768.87133,0.01275
2766.81115,0.01266
2764.75098,0.01259
2762.69081,0.01264
2760.63064,0.01266
2758.57046,0.01254
2756.51029,0.01247
2754.45012,0.01248
2752.38995,0.01246
2750.32978,0.01244
2748.26960,0.01247
2746.20943,0.01250
2744.14926,0.01246
2742.08909,0.01228
2740.02892,0.01204
2737.96874,0.01193
2735.90857,0.01195
2733.84840,0.01196
2731.78823,0.01195
2729.72805,0.01198
2727.66788,0.01207
2725.60771,0.01217
2723.54754,0.01219
2721.48737,0.01213
2719.42719,0.01206
2717.36702,0.01210
2715.30685,0.01221
2713.24668,0.01218
2711.18651,0.01198
2709.12633,0.01178
2707.06616,0.01164
2705.00599,0.01141
2702.94582,0.01108
2700.88565,0.01087
2698.82547,0.01091
2696.76530,0.01106
2694.70513,0.01112
2692.64496,0.01108
2690.58478,0.01110
2688.52461,0.01121
2686.46444,0.01126
2684.40427,0.01117
2682.34410,0.01095
2680.28392,0.01069
2678.22375,0.01052
2676.16358,0.01053
2674.10341,0.01066
2672.04324,0.01078
2669.98306,0.01080
2667.92289,0.01067
2665.86272,0.01044
2663.80255,0.01025
2661.74238,0.01026
2659.68220,0.01037
2657.62203,0.01035
2655.56186,0.01011
2653.50169,0.00984
2651.44151,0.00978
2649.38134,0.00992
2647.32117,0.01003
2645.26100,0.00997
2643.20083,0.00988
2641.14065,0.00980
2639.08048,0.00965
2637.02031,0.00944
2634.96014,0.00926
2632.89997,0.00919
2630.83979,0.00917
2628.77962,0.00905
2626.71945,0.00884
2624.65928,0.00865
2622.59910,0.00853
2620.53893,0.00847
2618.47876,0.00839
2616.41859,0.00837
2614.35842,0.00849
2612.29824,0.00863
2610.23807,0.00866
2608.17790,0.00857
2606.11773,0.00841
2604.05756,0.00825
2601.99738,0.00810
2599.93721,0.00780
2597.87704,0.00744
2595.81687,0.00731
2593.75670,0.00747
2591.69652,0.00775
2589.63635,0.00802
2587.57618,0.00816
2585.51601,0.00799
2583.45583,0.00764
2581.39566,0.00746
2579.33549,0.00763
2577.27532,0.00801
2575.21515,0.00832
2573.15497,0.00836
2571.09480,0.00804
2569.03463,0.00746
2566.97446,0.00698
2564.91429,0.00681
2562.85411,0.00687
2560.79394,0.00691
2558.73377,0.00672
2556.67360,0.00649
2554.61342,0.00657
2552.55325,0.00681
2550.49308,0.00692
2548.43291,0.00687
2546.37274,0.00691
2544.31256,0.00712
2542.25239,0.00733
2540.19222,0.00732
2538.13205,0.00707
2536.07188,0.00682
2534.01170,0.00669
2531.95153,0.00663
2529.89136,0.00661
2527.83119,0.00662
2525.77102,0.00651
2523.71084,0.00624
2521.65067,0.00609
2519.59050,0.00636
2517.53033,0.00694
2515.47015,0.00745
2513.40998,0.00753
2511.34981,0.00727
2509.28964,0.00699
2507.22947,0.00684
2505.16929,0.00667
2503.10912,0.00647
2501.04895,0.00650
2498.98878,0.00682
2496.92861,0.00713
2494.86843,0.00718
2492.80826,0.00701
2490.74809,0.00679
2488.68792,0.00669
2486.62775,0.00672
2484.56757,0.00690
2482.50740,0.00720
2480.44723,0.00744
2478.38706,0.00745
2476.32688,0.00740
2474.26671,0.00739
2472.20654,0.00719
2470.14637,0.00679
2468.08620,0.00647
2466.02602,0.00621
2463.96585,0.00594
2461.90568,0.00600
2459.84551,0.00644
2457.78534,0.00686
2455.72516,0.00698
2453.66499,0.00687
2451.60482,0.00668
2449.54465,0.00660
2447.48447,0.00671
2445.42430,0.00686
2443.36413,0.00671
2441.30396,0.00625
2439.24379,0.00607
2437.18361,0.00640
2435.12344,0.00674
2433.06327,0.00667
2431.00310,0.00642
2428.94293,0.00647
2426.88275,0.00678
2424.82258,0.00687
2422.76241,0.00659
2420.70224,0.00634
2418.64207,0.00631
2416.58189,0.00628
2414.52172,0.00616
2412.46155,0.00610
2410.40138,0.00614
2408.34120,0.00626
2406.28103,0.00640
2404.22086,0.00640
2402.16069,0.00631
2400.10052,0.00623
2398.04034,0.00616
2395.98017,0.00617
2393.92000,0.00628
2391.85983,0.00639
2389.79966,0.00641
2387.73948,0.00630
2385.67931,0.00618
2383.61914,0.00613
2381.55897,0.00611
2379.49880,0.00599
2377.43862,0.00575
2375.37845,0.00548
2373.31828,0.00537
2371.25811,0.00568
2369.19793,0.00644
2367.13776,0.00732
2365.07759,0.00784
2363.01742,0.00764
2360.95725,0.00663
2358.89707,0.00556
2356.83690,0.00556
2354.77673,0.00666
2352.71656,0.00791
2350.65639,0.00859
2348.59621,0.00849
2346.53604,0.00782
2344.47587,0.00713
2342.41570,0.00677
2340.35552,0.00661
2338.29535,0.00632
2336.23518,0.00589
2334.17501,0.00565
2332.11484,0.00595
2330.05466,0.00683
2327.99449,0.00796
2325.93432,0.00883
2323.87415,0.00896
2321.81398,0.00824
2319.75380,0.00703
2317.69363,0.00592
2315.63346,0.00531
2313.57329,0.00523
2311.51312,0.00542
2309.45294,0.00568
2307.39277,0.00587
2305.33260,0.00595
2303.27243,0.00590
2301.21225,0.00574
2299.15208,0.00559
2297.09191,0.00554
2295.03174,0.00569
2292.97157,0.00597
2290.91139,0.00618
2288.85122,0.00614
2286.79105,0.00592
2284.73088,0.00571
2282.67071,0.00558
2280.61053,0.00549
2278.55036,0.00542
2276.49019,0.00545
2274.43002,0.00566
2272.36984,0.00597
2270.30967,0.00620
2268.24950,0.00629
2266.18933,0.00629
2264.12916,0.00617
2262.06898,0.00585
2260.00881,0.00526
2257.94864,0.00453
2255.88847,0.00391
2253.82830,0.00364
2251.76812,0.00382
2249.70795,0.00431
2247.64778,0.00484
2245.58761,0.00505
2243.52744,0.00489
2241.46726,0.00460
2239.40709,0.00427
2237.34692,0.00413
2235.28675,0.00438
2233.22657,0.00474
2231.16640,0.00502
2229.10623,0.00533
2227.04606,0.00552
2224.98589,0.00539
2222.92571,0.00526
2220.86554,0.00551
2218.80537,0.00614
2216.74520,0.00635
2214.68503,0.00534
2212.62485,0.00372
2210.56468,0.00296
2208.50451,0.00342
2206.44434,0.00411
2204.38417,0.00414
2202.32399,0.00372
2200.26382,0.00360
2198.20365,0.00349
2196.14348,0.00247
2194.08330,0.00127
2192.02313,0.00188
2189.96296,0.00419
2187.90279,0.00577
2185.84262,0.00529
2183.78244,0.00379
2181.72227,0.00296
2179.66210,0.00316
2177.60193,0.00330
2175.54176,0.00298
2173.48158,0.00278
2171.42141,0.00264
2169.36124,0.00238
2167.30107,0.00247
2165.24089,0.00296
2163.18072,0.00331
2161.12055,0.00291
2159.06038,0.00187
2157.00021,0.00143
2154.94003,0.00209
2152.87986,0.00274
2150.81969,0.00240
2148.75952,0.00173
2146.69935,0.00202
2144.63917,0.00295
2142.57900,0.00309
2140.51883,0.00240
2138.45866,0.00193
2136.39849,0.00204
2134.33831,0.00239
2132.27814,0.00263
2130.21797,0.00272
2128.15780,0.00277
2126.09762,0.00283
2124.03745,0.00288
2121.97728,0.00277
2119.91711,0.00252
2117.85694,0.00237
2115.79676,0.00252
2113.73659,0.00287
2111.67642,0.00323
2109.61625,0.00331
2107.55608,0.00313
2105.49590,0.00314
2103.43573,0.00344
2101.37556,0.00388
2099.31539,0.00409
2097.25521,0.00383
2095.19504,0.00325
2093.13487,0.00279
2091.07470,0.00281
2089.01453,0.00322
2086.95435,0.00362
2084.89418,0.00372
2082.83401,0.00355
2080.77384,0.00343
2078.71367,0.00364
2076.65349,0.00410
2074.59332,0.00445
2072.53315,0.00445
2070.47298,0.00414
2068.41281,0.00375
2066.35263,0.00339
2064.29246,0.00309
2062.23229,0.00298
2060.17212,0.00328
2058.11194,0.00392
2056.05177,0.00460
2053.99160,0.00501
2051.93143,0.00499
2049.87126,0.00466
2047.81108,0.00428
2045.75091,0.00391
2043.69074,0.00343
2041.63057,0.00290
2039.57040,0.00264
2037.51022,0.00281
2035.45005,0.00307
2033.38988,0.00300
2031.32971,0.00274
2029.26954,0.00269
2027.20936,0.00287
2025.14919,0.00296
2023.08902,0.00283
2021.02885,0.00265
2018.96867,0.00253
2016.90850,0.00241
2014.84833,0.00224
2012.78816,0.00213
2010.72799,0.00209
2008.66781,0.00205
2006.60764,0.00205
2004.54747,0.00219
2002.48730,0.00250
2000.42713,0.00283
1998.36695,0.00286
1996.30678,0.00254
1994.24661,0.00238
1992.18644,0.00283
1990.12626,0.00360
1988.06609,0.00402
1986.00592,0.00387
1983.94575,0.00333
1981.88558,0.00266
1979.82540,0.00205
1977.76523,0.00167
1975.70506,0.00151
1973.64489,0.00142
1971.58472,0.00135
1969.52454,0.00143
1967.46437,0.00165
1965.40420,0.00178
1963.34403,0.00154
1961.28386,0.00087
1959.22368,0.00015
1957.16351,0.00000
1955.10334,0.00063
1953.04317,0.00178
1950.98299,0.00297
1948.92282,0.00384
1946.86265,0.00422
1944.80248,0.00412
1942.74231,0.00383
1940.68213,0.00364
1938.62196,0.00352
1936.56179,0.00327
1934.50162,0.00287
1932.44145,0.00244
1930.38127,0.00219
1928.32110,0.00230
1926.26093,0.00271
1924.20076,0.00313
1922.14059,0.00325
1920.08041,0.00298
1918.02024,0.00252
1915.96007,0.00217
1913.89990,0.00208
1911.83972,0.00224
1909.77955,0.00261
1907.71938,0.00309
1905.65921,0.00356
1903.59904,0.00391
1901.53886,0.00407
1899.47869,0.00396
1897.41852,0.00355
1895.35835,0.00295
1893.29818,0.00232
1891.23800,0.00182
1889.17783,0.00151
1887.11766,0.00140
1885.05749,0.00142
1882.99731,0.00150
1880.93714,0.00158
1878.87697,0.00164
1876.81680,0.00169
1874.75663,0.00170
1872.69645,0.00161
1870.63628,0.00146
1868.57611,0.00143
1866.51594,0.00165
1864.45577,0.00201
1862.39559,0.00231
1860.33542,0.00245
1858.27525,0.00241
1856.21508,0.00227
1854.15491,0.00208
1852.09473,0.00191
1850.03456,0.00185
1847.97439,0.00197
1845.91422,0.00220
1843.85404,0.00235
1841.79387,0.00230
1839.73370,0.00214
1837.67353,0.00205
1835.61336,0.00208
1833.55318,0.00221
1831.49301,0.00233
1829.43284,0.00234
1827.37267,0.00225
1825.31250,0.00211
1823.25232,0.00195
1821.19215,0.00176
1819.13198,0.00158
1817.07181,0.00146
1815.01163,0.00147
1812.95146,0.00157
1810.89129,0.00169
1808.83112,0.00175
1806.77095,0.00178
1804.71077,0.00179
1802.65060,0.00179
1800.59043,0.00178
1798.53026,0.00175
1796.47009,0.00175
1794.40991,0.00182
1792.34974,0.00196
1790.28957,0.00209
1788.22940,0.00220
1786.16923,0.00227
1784.10905,0.00227
1782.04888,0.00217
1779.98871,0.00202
1777.92854,0.00189
1775.86836,0.00178
1773.80819,0.00175
1771.74802,0.00184
1769.68785,0.00201
1767.62768,0.00216
1765.56750,0.00227
1763.50733,0.00243
1761.44716,0.00267
1759.38699,0.00301
1757.32682,0.00345
1755.26664,0.00392
1753.20647,0.00437
1751.14630,0.00478
1749.08613,0.00518
1747.02596,0.00555
1744.96578,0.00592
1742.90561,0.00631
1740.84544,0.00670
1738.78527,0.00696
1736.72509,0.00701
1734.66492,0.00693
1732.60475,0.00679
1730.54458,0.00664
1728.48441,0.00651
1726.42423,0.00643
1724.36406,0.00647
1722.30389,0.00659
1720.24372,0.00674
1718.18355,0.00680
1716.12337,0.00668
1714.06320,0.00639
1712.00303,0.00603
1709.94286,0.00568
1707.88268,0.00538
1705.82251,0.00515
1703.76234,0.00494
1701.70217,0.00474
1699.64200,0.00457
1697.58182,0.00447
1695.52165,0.00439
1693.46148,0.00430
1691.40131,0.00425
1689.34114,0.00430
1687.28096,0.00453
1685.22079,0.00494
1683.16062,0.00549
1681.10045,0.00606
1679.04028,0.00664
1676.98010,0.00717
1674.91993,0.00759
1672.85976,0.00781
1670.79959,0.00793
1668.73941,0.00812
1666.67924,0.00855
1664.61907,0.00919
1662.55890,0.00988
1660.49873,0.01049
1658.43855,0.01103
1656.37838,0.01155
1654.31821,0.01194
1652.25804,0.01205
1650.19787,0.01191
1648.13769,0.01180
1646.07752,0.01189
1644.01735,0.01218
1641.95718,0.01255
1639.89701,0.01281
1637.83683,0.01287
1635.77666,0.01278
1633.71649,0.01271
1631.65632,0.01278
1629.59614,0.01295
1627.53597,0.01312
1625.47580,0.01323
1623.41563,0.01333
1621.35546,0.01342
1619.29528,0.01344
1617.23511,0.01341
1615.17494,0.01335
1613.11477,0.01329
1611.05460,0.01320
1608.99442,0.01299
1606.93425,0.01261
1604.87408,0.01210
1602.81391,0.01153
1600.75373,0.01094
1598.69356,0.01032
1596.63339,0.00967
1594.57322,0.00901
1592.51305,0.00835
1590.45287,0.00772
1588.39270,0.00711
1586.33253,0.00656
1584.27236,0.00602
1582.21219,0.00550
1580.15201,0.00504
1578.09184,0.00467
1576.03167,0.00435
1573.97150,0.00406
1571.91133,0.00378
1569.85115,0.00348
1567.79098,0.00317
1565.73081,0.00288
1563.67064,0.00262
1561.61046,0.00237
1559.55029,0.00215
1557.49012,0.00202
1555.42995,0.00200
1553.36978,0.00200
1551.30960,0.00190
1549.24943,0.00167
1547.18926,0.00139
1545.12909,0.00122
1543.06892,0.00125
1541.00874,0.00142
1538.94857,0.00152
1536.88840,0.00147
1534.82823,0.00129
1532.76805,0.00107
1530.70788,0.00081
1528.64771,0.00056
1526.58754,0.00037
1524.52737,0.00030
1522.46719,0.00034
1520.40702,0.00042
1518.34685,0.00047
1516.28668,0.00054
1514.22651,0.00065
1512.16633,0.00077
1510.10616,0.00083
1508.04599,0.00081
1505.98582,0.00074
1503.92565,0.00069
1501.86547,0.00077
1499.80530,0.00097
1497.74513,0.00114
1495.68496,0.00120
1493.62478,0.00119
1491.56461,0.00122
1489.50444,0.00133
1487.44427,0.00145
1485.38410,0.00157
1483.32392,0.00172
1481.26375,0.00197
1479.20358,0.00235
1477.14341,0.00281
1475.08324,0.00327
1473.02306,0.00366
1470.96289,0.00399
1468.90272,0.00432
1466.84255,0.00470
1464.78238,0.00508
1462.72220,0.00541
1460.66203,0.00571
1458.60186,0.00601
1456.54169,0.00630
1454.48151,0.00650
1452.42134,0.00662
1450.36117,0.00675
1448.30100,0.00693
1446.24083,0.00712
1444.18065,0.00730
1442.12048,0.00746
1440.06031,0.00764
1438.00014,0.00787
1435.93997,0.00813
1433.87979,0.00839
1431.81962,0.00862
1429.75945,0.00888
1427.69928,0.00918
1425.63910,0.00952
1423.57893,0.00984
1421.51876,0.01009
1419.45859,0.01027
1417.39842,0.01039
1415.33824,0.01048
1413.27807,0.01055
1411.21790,0.01059
1409.15773,0.01055
1407.09756,0.01041
1405.03738,0.01015
1402.97721,0.00984
1400.91704,0.00951
1398.85687,0.00921
1396.79670,0.00898
1394.73652,0.00889
1392.67635,0.00889
1390.61618,0.00893
1388.55601,0.00898
1386.49583,0.00905
1384.43566,0.00920
1382.37549,0.00938
1380.31532,0.00954
1378.25515,0.00965
1376.19497,0.00971
1374.13480,0.00975
1372.07463,0.00977
1370.01446,0.00977
1367.95429,0.00974
1365.89411,0.00966
1363.83394,0.00954
1361.77377,0.00943
1359.71360,0.00931
1357.65343,0.00915
1355.59325,0.00896
1353.53308,0.00877
1351.47291,0.00860
1349.41274,0.00844
1347.35256,0.00827
1345.29239,0.00808
1343.23222,0.00791
1341.17205,0.00781
1339.11188,0.00781
1337.05170,0.00788
1334.99153,0.00794
1332.93136,0.00795
1330.87119,0.00790
1328.81102,0.00787
1326.75084,0.00792
1324.69067,0.00800
1322.63050,0.00805
1320.57033,0.00806
1318.51015,0.00805
1316.44998,0.00804
1314.38981,0.00804
1312.32964,0.00807
1310.26947,0.00810
1308.20929,0.00807
1306.14912,0.00794
1304.08895,0.00771
1302.02878,0.00743
1299.96861,0.00715
1297.90843,0.00695
1295.84826,0.00687
1293.78809,0.00690
1291.72792,0.00695
1289.66775,0.00698
1287.60757,0.00696
1285.54740,0.00691
1283.48723,0.00682
1281.42706,0.00675
1279.36688,0.00673
1277.30671,0.00680
1275.24654,0.00694
1273.18637,0.00717
1271.12620,0.00747
1269.06602,0.00784
1267.00585,0.00828
1264.94568,0.00872
1262.88551,0.00911
1260.82534,0.00946
1258.76516,0.00978
1256.70499,0.01003
1254.64482,0.01018
1252.58465,0.01022
1250.52447,0.01019
1248.46430,0.01013
1246.40413,0.01007
1244.34396,0.01000
1242.28379,0.00986
1240.22361,0.00965
1238.16344,0.00942
1236.10327,0.00918
1234.04310,0.00888
1231.98293,0.00851
1229.92275,0.00812
1227.86258,0.00774
1225.80241,0.00736
1223.74224,0.00696
1221.68207,0.00654
1219.62189,0.00608
1217.56172,0.00561
1215.50155,0.00514
1213.44138,0.00465
1211.38120,0.00416
1209.32103,0.00367
1207.26086,0.00319
1205.20069,0.00271
1203.14052,0.00223
1201.08034,0.00177
1199.02017,0.00132
1196.96000,0.00085
1194.89983,0.00039
1192.83966,0.00006
1190.77948,0.00000
1188.71931,0.00006
1186.65914,0.00016
1184.59897,0.00038
1182.53880,0.00084
1180.47862,0.00155
1178.41845,0.00239
1176.35828,0.00324
1174.29811,0.00414
1172.23793,0.00505
1170.17776,0.00590
1168.11759,0.00674
1166.05742,0.00770
1163.99725,0.00872
1161.93707,0.00964
1159.87690,0.01048
1157.81673,0.01132
1155.75656,0.01216
1153.69639,0.01292
1151.63621,0.01357
1149.57604,0.01427
1147.51587,0.01504
1145.45570,0.01574
1143.39552,0.01627
1141.33535,0.01661
1139.27518,0.01682
1137.21501,0.01712
1135.15484,0.01772
1133.09466,0.01853
1131.03449,0.01939
1128.97432,0.02027
1126.91415,0.02114
1124.85398,0.02201
1122.79380,0.02292
1120.73363,0.02387
1118.67346,0.02473
1116.61329,0.02547
1114.55312,0.02613
1112.49294,0.02680
1110.43277,0.02763
1108.37260,0.02864
1106.31243,0.02973
1104.25225,0.03083
1102.19208,0.03194
1100.13191,0.03321
1098.07174,0.03471
1096.01157,0.03621
1093.95139,0.03759
1091.89122,0.03880
1089.83105,0.03971
1087.77088,0.04034
1085.71071,0.04100
1083.65053,0.04189
1081.59036,0.04291
1079.53019,0.04380
1077.47002,0.04465
1075.40985,0.04561
1073.34967,0.04656
1071.28950,0.04742
1069.22933,0.04823
1067.16916,0.04899
1065.10898,0.04969
1063.04881,0.05028
1060.98864,0.05072
1058.92847,0.05105
1056.86830,0.05143
1054.80812,0.05186
1052.74795,0.05228
1050.68778,0.05275
1048.62761,0.05336
1046.56744,0.05405
1044.50726,0.05463
1042.44709,0.05500
1040.38692,0.05517
1038.32675,0.05526
1036.26657,0.05532
1034.20640,0.05532
1032.14623,0.05525
1030.08606,0.05507
1028.02589,0.05466
1025.96571,0.05411
1023.90554,0.05358
1021.84537,0.05308
1019.78520,0.05253
1017.72503,0.05196
1015.66485,0.05147
1013.60468,0.05099
1011.54451,0.05038
1009.48434,0.04965
1007.42417,0.04887
1005.36399,0.04810
1003.30382,0.04735
1001.24365,0.04660
999.18348,0.04588
997.12330,0.04516
995.06313,0.04432
993.00296,0.04346
990.94279,0.04279
988.88262,0.04217
986.82244,0.04146
984.76227,0.04087
982.70210,0.04045
980.64193,0.04000
978.58176,0.03946
976.52158,0.03877
974.46141,0.03786
972.40124,0.03685
970.34107,0.03595
968.28089,0.03515
966.22072,0.03429
964.16055,0.03334
962.10038,0.03239
960.04021,0.03145
957.98003,0.03050
955.91986,0.02950
953.85969,0.02853
951.79952,0.02761
949.73935,0.02657
947.67917,0.02540
945.61900,0.02431
943.55883,0.02323
941.49866,0.02185
939.43849,0.02021
937.37831,0.01868
935.31814,0.01731
933.25797,0.01594
931.19780,0.01466
929.13762,0.01348
927.07745,0.01234
925.01728,0.01134
922.95711,0.01058
920.89694,0.00996
918.83676,0.00943
916.77659,0.00904
914.71642,0.00876
912.65625,0.00835
910.59608,0.00779
908.53590,0.00722
906.47573,0.00669
904.41556,0.00630
902.35539,0.00633
900.29522,0.00678
898.23504,0.00721
896.17487,0.00723
894.11470,0.00700
892.05453,0.00687
889.99435,0.00688
887.93418,0.00694
885.87401,0.00699
883.81384,0.00681
881.75367,0.00630
879.69349,0.00577
877.63332,0.00550
875.57315,0.00548
873.51298,0.00559
871.45281,0.00567
869.39263,0.00559
867.33246,0.00548
865.27229,0.00545
863.21212,0.00552
861.15194,0.00578
859.09177,0.00609
857.03160,0.00613
854.97143,0.00583
852.91126,0.00527
850.85108,0.00471
848.79091,0.00437
846.73074,0.00426
844.67057,0.00426
842.61040,0.00419
840.55022,0.00391
838.49005,0.00349
836.42988,0.00284
834.36971,0.00204
832.30954,0.00147
830.24936,0.00120
828.18919,0.00118
826.12902,0.00140
824.06885,0.00169
822.00867,0.00185
819.94850,0.00203
817.88833,0.00238
815.82816,0.00265
813.76799,0.00263
811.70781,0.00257
809.64764,0.00275
807.58747,0.00292
805.52730,0.00270
803.46713,0.00237
801.40695,0.00246
799.34678,0.00256
797.28661,0.00200
795.22644,0.00109
793.16627,0.00051
791.10609,0.00034
789.04592,0.00053
786.98575,0.00088
784.92558,0.00097
782.86540,0.00087
780.80523,0.00083
778.74506,0.00079
776.68489,0.00081
774.62472,0.00108
772.56454,0.00150
770.50437,0.00187
768.44420,0.00215
766.38403,0.00239
764.32386,0.00266
762.26368,0.00288
760.20351,0.00275
758.14334,0.00241
756.08317,0.00235
754.02299,0.00238
751.96282,0.00201
749.90265,0.00142
747.84248,0.00112
745.78231,0.00102
743.72213,0.00067
741.66196,0.00020
739.60179,0.00000
737.54162,-0.00002
735.48145,0.00027
733.42127,0.00110
731.36110,0.00208
729.30093,0.00259
727.24076,0.00255
725.18059,0.00238
723.12041,0.00232
721.06024,0.00231
719.00007,0.00230
716.93990,0.00228
714.87972,0.00233
712.81955,0.00260
710.75938,0.00306
708.69921,0.00344
706.63904,0.00357
704.57886,0.00359
702.51869,0.00369
700.45852,0.00392
698.39835,0.00422
696.33818,0.00444
694.27800,0.00440
692.21783,0.00410
690.15766,0.00369
688.09749,0.00347
686.03731,0.00363
683.97714,0.00416
681.91697,0.00484
679.85680,0.00542
677.79663,0.00589
675.73645,0.00639
673.67628,0.00691
671.61611,0.00731
669.55594,0.00742
667.49577,0.00725
665.43559,0.00694
663.37542,0.00657
661.31525,0.00625
659.25508,0.00615
657.19491,0.00628
655.13473,0.00654
653.07456,0.00680
651.01439,0.00701
648.95422,0.00719
646.89404,0.00741
644.83387,0.00742
642.77370,0.00693
640.71353,0.00624
638.65336,0.00601
636.59318,0.00639
634.53301,0.00703
632.47284,0.00763
630.41267,0.00786
628.35250,0.00711
626.29232,0.00525
624.23215,0.00397
622.17198,0.00484
620.11181,0.00683
618.05164,0.00790
615.99146,0.00791
613.93129,0.00834
611.87112,0.00945
609.81095,0.00983
607.75077,0.00930
605.69060,0.00844
603.63043,0.00659
601.57026,0.00348
599.51009,0.00000
