3996.73391,0.00058
3994.67373,0.00045
3992.61356,0.00047
3990.55339,0.00066
3988.49322,0.00076
3986.43305,0.00060
3984.37287,0.00033
3982.31270,0.00020
3980.25253,0.00033
3978.19236,0.00045
3976.13219,0.00030
3974.07201,0.00006
3972.01184,0.00000
3969.95167,0.00013
3967.89150,0.00030
3965.83133,0.00043
3963.77115,0.00054
3961.71098,0.00065
3959.65081,0.00074
3957.59064,0.00074
3955.53046,0.00066
3953.47029,0.00059
3951.41012,0.00063
3949.34995,0.00071
3947.28978,0.00065
3945.22960,0.00050
3943.16943,0.00040
3941.10926,0.00039
3939.04909,0.00049
3936.98892,0.00056
3934.92874,0.00046
3932.86857,0.00023
3930.80840,0.00009
3928.74823,0.00025
3926.68805,0.00058
3924.62788,0.00075
3922.56771,0.00066
3920.50754,0.00056
3918.44737,0.00062
3916.38719,0.00070
3914.32702,0.00068
3912.26685,0.00066
3910.20668,0.00068
3908.14651,0.00063
3906.08633,0.00058
3904.02616,0.00061
3901.96599,0.00060
3899.90582,0.00040
3897.84565,0.00025
3895.78547,0.00040
3893.72530,0.00071
3891.66513,0.00096
3889.60496,0.00119
3887.54478,0.00146
3885.48461,0.00147
3883.42444,0.00105
3881.36427,0.00052
3879.30410,0.00030
3877.24392,0.00050
3875.18375,0.00079
3873.12358,0.00090
3871.06341,0.00083
3869.00324,0.00079
3866.94306,0.00088
3864.88289,0.00090
3862.82272,0.00080
3860.76255,0.00068
3858.70237,0.00060
3856.64220,0.00045
3854.58203,0.00016
3852.52186,0.00021
3850.46169,0.00080
3848.40151,0.00131
3846.34134,0.00137
3844.28117,0.00112
3842.22100,0.00079
3840.16083,0.00038
3838.10065,0.00000
3836.04048,0.00000
3833.98031,0.00026
3831.92014,0.00046
3829.85997,0.00048
3827.79979,0.00032
3825.73962,0.00023
3823.67945,0.00036
3821.61928,0.00053
3819.55910,0.00072
3817.49893,0.00094
3815.43876,0.00096
3813.37859,0.00090
3811.31842,0.00102
3809.25824,0.00119
3807.19807,0.00109
3805.13790,0.00080
3803.07773,0.00072
3801.01756,0.00085
3798.95738,0.00100
3796.89721,0.00108
3794.83704,0.00104
3792.77687,0.00090
3790.71670,0.00069
3788.65652,0.00047
3786.59635,0.00044
3784.53618,0.00073
3782.47601,0.00114
3780.41583,0.00133
3778.35566,0.00118
3776.29549,0.00083
3774.23532,0.00062
3772.17515,0.00076
3770.11497,0.00098
3768.05480,0.00085
3765.99463,0.00069
3763.93446,0.00092
3761.87429,0.00108
3759.81411,0.00083
3757.75394,0.00055
3755.69377,0.00060
3753.63360,0.00082
3751.57342,0.00096
3749.51325,0.00095
3747.45308,0.00074
3745.39291,0.00032
3743.33274,0.00011
3741.27256,0.00049
3739.21239,0.00096
3737.15222,0.00084
3735.09205,0.00047
3733.03188,0.00054
3730.97170,0.00081
3728.91153,0.00089
3726.85136,0.00101
3724.79119,0.00121
3722.73102,0.00112
3720.67084,0.00092
3718.61067,0.00090
3716.55050,0.00124
3714.49033,0.00160
3712.43015,0.00146
3710.36998,0.00116
3708.30981,0.00093
3706.24964,0.00093
3704.18947,0.00102
3702.12929,0.00106
3700.06912,0.00119
3698.00895,0.00130
3695.94878,0.00117
3693.88861,0.00090
3691.82843,0.00100
3689.76826,0.00126
3687.70809,0.00135
3685.64792,0.00126
3683.58775,0.00124
3681.52757,0.00125
3679.46740,0.00140
3677.40723,0.00178
3675.34706,0.00201
3673.28688,0.00165
3671.22671,0.00104
3669.16654,0.00082
3667.10637,0.00123
3665.04620,0.00168
3662.98602,0.00181
3660.92585,0.00194
3658.86568,0.00225
3656.80551,0.00260
3654.74534,0.00283
3652.68516,0.00294
3650.62499,0.00288
3648.56482,0.00264
3646.50465,0.00248
3644.44447,0.00251
3642.38430,0.00264
3640.32413,0.00288
3638.26396,0.00321
3636.20379,0.00350
3634.14361,0.00367
3632.08344,0.00371
3630.02327,0.00362
3627.96310,0.00388
3625.90293,0.00456
3623.84275,0.00521
3621.78258,0.00551
3619.72241,0.00546
3617.66224,0.00533
3615.60207,0.00543
3613.54189,0.00581
3611.48172,0.00612
3609.42155,0.00633
3607.36138,0.00643
3605.30120,0.00655
3603.24103,0.00686
3601.18086,0.00711
3599.12069,0.00747
3597.06052,0.00793
3595.00034,0.00831
3592.94017,0.00848
3590.88000,0.00863
3588.81983,0.00868
3586.75966,0.00890
3584.69948,0.00925
3582.63931,0.00943
3580.57914,0.00959
3578.51897,0.00996
3576.45879,0.01043
3574.39862,0.01075
3572.33845,0.01095
3570.27828,0.01119
3568.21811,0.01146
3566.15793,0.01173
3564.09776,0.01196
3562.03759,0.01207
3559.97742,0.01233
3557.91725,0.01286
3555.85707,0.01340
3553.79690,0.01369
3551.73673,0.01378
3549.67656,0.01392
3547.61639,0.01420
3545.55621,0.01451
3543.49604,0.01478
3541.43587,0.01501
3539.37570,0.01517
3537.31552,0.01524
3535.25535,0.01526
3533.19518,0.01548
3531.13501,0.01599
3529.07484,0.01656
3527.01466,0.01684
3524.95449,0.01687
3522.89432,0.01699
3520.83415,0.01725
3518.77398,0.01748
3516.71380,0.01758
3514.65363,0.01774
3512.59346,0.01815
3510.53329,0.01865
3508.47312,0.01899
3506.41294,0.01928
3504.35277,0.01962
3502.29260,0.01992
3500.23243,0.01999
3498.17225,0.01989
3496.11208,0.01990
3494.05191,0.02015
3491.99174,0.02062
3489.93157,0.02110
3487.87139,0.02142
3485.81122,0.02152
3483.75105,0.02146
3481.69088,0.02149
3479.63071,0.02167
3477.57053,0.02184
3475.51036,0.02210
3473.45019,0.02255
3471.39002,0.02305
3469.32984,0.02347
3467.26967,0.02360
3465.20950,0.02351
3463.14933,0.02350
3461.08916,0.02364
3459.02898,0.02384
3456.96881,0.02414
3454.90864,0.02450
3452.84847,0.02456
3450.78830,0.02443
3448.72812,0.02465
3446.66795,0.02533
3444.60778,0.02590
3442.54761,0.02601
3440.48744,0.02604
3438.42726,0.02617
3436.36709,0.02627
3434.30692,0.02652
3432.24675,0.02684
3430.18657,0.02696
3428.12640,0.02708
3426.06623,0.02736
3424.00606,0.02759
3421.94589,0.02772
3419.88571,0.02791
3417.82554,0.02807
3415.76537,0.02809
3413.70520,0.02806
3411.64503,0.02817
3409.58485,0.02838
3407.52468,0.02851
3405.46451,0.02865
3403.40434,0.02892
3401.34416,0.02910
3399.28399,0.02925
3397.22382,0.02954
3395.16365,0.02984
3393.10348,0.03010
3391.04330,0.03022
3388.98313,0.02994
3386.92296,0.02962
3384.86279,0.02982
3382.80262,0.03030
3380.74244,0.03053
3378.68227,0.03044
3376.62210,0.03024
3374.56193,0.03024
3372.50176,0.03061
3370.44158,0.03104
3368.38141,0.03126
3366.32124,0.03133
3364.26107,0.03137
3362.20089,0.03143
3360.14072,0.03143
3358.08055,0.03144
3356.02038,0.03152
3353.96021,0.03156
3351.90003,0.03151
3349.83986,0.03145
3347.77969,0.03136
3345.71952,0.03135
3343.65935,0.03165
3341.59917,0.03204
3339.53900,0.03210
3337.47883,0.03187
3335.41866,0.03171
3333.35849,0.03171
3331.29831,0.03180
3329.23814,0.03199
3327.17797,0.03224
3325.11780,0.03232
3323.05762,0.03223
3320.99745,0.03218
3318.93728,0.03232
3316.87711,0.03252
3314.81694,0.03255
3312.75676,0.03246
3310.69659,0.03233
3308.63642,0.03217
3306.57625,0.03206
3304.51608,0.03211
3302.45590,0.03237
3300.39573,0.03270
3298.33556,0.03282
3296.27539,0.03260
3294.21521,0.03232
3292.15504,0.03212
3290.09487,0.03198
3288.03470,0.03204
3285.97453,0.03233
3283.91435,0.03264
3281.85418,0.03278
3279.79401,0.03267
3277.73384,0.03252
3275.67367,0.03263
3273.61349,0.03281
3271.55332,0.03270
3269.49315,0.03244
3267.43298,0.03227
3265.37281,0.03217
3263.31263,0.03207
3261.25246,0.03212
3259.19229,0.03235
3257.13212,0.03252
3255.07194,0.03239
3253.01177,0.03207
3250.95160,0.03190
3248.89143,0.03196
3246.83126,0.03204
3244.77108,0.03195
3242.71091,0.03185
3240.65074,0.03188
3238.59057,0.03188
3236.53040,0.03180
3234.47022,0.03186
3232.41005,0.03185
3230.34988,0.03142
3228.28971,0.03098
3226.22954,0.03088
3224.16936,0.03093
3222.10919,0.03093
3220.04902,0.03091
3217.98885,0.03084
3215.92867,0.03060
3213.86850,0.03031
3211.80833,0.03020
3209.74816,0.03025
3207.68799,0.03013
3205.62781,0.02974
3203.56764,0.02935
3201.50747,0.02909
3199.44730,0.02892
3197.38713,0.02881
3195.32695,0.02881
3193.26678,0.02890
3191.20661,0.02889
3189.14644,0.02864
3187.08626,0.02834
3185.02609,0.02821
3182.96592,0.02811
3180.90575,0.02786
3178.84558,0.02756
3176.78540,0.02742
3174.72523,0.02745
3172.66506,0.02735
3170.60489,0.02693
3168.54472,0.02647
3166.48454,0.02620
3164.42437,0.02589
3162.36420,0.02549
3160.30403,0.02554
3158.24386,0.02599
3156.18368,0.02616
3154.12351,0.02585
3152.06334,0.02538
3150.00317,0.02487
3147.94299,0.02444
3145.88282,0.02427
3143.82265,0.02415
3141.76248,0.02391
3139.70231,0.02371
3137.64213,0.02357
3135.58196,0.02345
3133.52179,0.02331
3131.46162,0.02307
3129.40145,0.02284
3127.34127,0.02261
3125.28110,0.02229
3123.22093,0.02199
3121.16076,0.02180
3119.10058,0.02161
3117.04041,0.02129
3114.98024,0.02091
3112.92007,0.02071
3110.85990,0.02076
3108.79972,0.02086
3106.73955,0.02072
3104.67938,0.02046
3102.61921,0.02021
3100.55904,0.01987
3098.49886,0.01954
3096.43869,0.01926
3094.37852,0.01903
3092.31835,0.01891
3090.25818,0.01880
3088.19800,0.01863
3086.13783,0.01845
3084.07766,0.01831
3082.01749,0.01803
3079.95731,0.01759
3077.89714,0.01732
3075.83697,0.01729
3073.77680,0.01726
3071.71663,0.01718
3069.65645,0.01705
3067.59628,0.01689
3065.53611,0.01665
3063.47594,0.01630
3061.41577,0.01605
3059.35559,0.01600
3057.29542,0.01587
3055.23525,0.01557
3053.17508,0.01536
3051.11491,0.01530
3049.05473,0.01518
3046.99456,0.01497
3044.93439,0.01481
3042.87422,0.01474
3040.81404,0.01464
3038.75387,0.01454
3036.69370,0.01445
3034.63353,0.01426
3032.57336,0.01400
3030.51318,0.01376
3028.45301,0.01360
3026.39284,0.01356
3024.33267,0.01355
3022.27250,0.01330
3020.21232,0.01299
3018.15215,0.01294
3016.09198,0.01296
3014.03181,0.01280
3011.97163,0.01253
3009.91146,0.01245
3007.85129,0.01249
3005.79112,0.01238
3003.73095,0.01220
3001.67077,0.01217
2999.61060,0.01223
2997.55043,0.01225
2995.49026,0.01226
2993.43009,0.01230
2991.36991,0.01225
2989.30974,0.01206
2987.24957,0.01192
2985.18940,0.01207
2983.12923,0.01235
2981.06905,0.01242
2979.00888,0.01244
2976.94871,0.01258
2974.88854,0.01261
2972.82836,0.01261
2970.76819,0.01276
2968.70802,0.01301
2966.64785,0.01329
2964.58768,0.01354
2962.52750,0.01383
2960.46733,0.01410
2958.40716,0.01430
2956.34699,0.01448
2954.28682,0.01459
2952.22664,0.01477
2950.16647,0.01513
2948.10630,0.01544
2946.04613,0.01562
2943.98596,0.01580
2941.92578,0.01595
2939.86561,0.01599
2937.80544,0.01601
2935.74527,0.01618
2933.68509,0.01634
2931.62492,0.01640
2929.56475,0.01649
2927.50458,0.01652
2925.44441,0.01634
2923.38423,0.01612
2921.32406,0.01592
2919.26389,0.01561
2917.20372,0.01535
2915.14355,0.01533
2913.08337,0.01539
2911.02320,0.01526
2908.96303,0.01503
2906.90286,0.01486
2904.84268,0.01482
2902.78251,0.01486
2900.72234,0.01487
2898.66217,0.01483
2896.60200,0.01475
2894.54182,0.01457
2892.48165,0.01440
2890.42148,0.01439
2888.36131,0.01438
2886.30114,0.01429
2884.24096,0.01429
2882.18079,0.01427
2880.12062,0.01413
2878.06045,0.01394
2876.00028,0.01373
2873.94010,0.01351
2871.87993,0.01328
2869.81976,0.01309
2867.75959,0.01297
2865.69941,0.01285
2863.63924,0.01269
2861.57907,0.01244
2859.51890,0.01223
2857.45873,0.01216
2855.39855,0.01211
2853.33838,0.01188
2851.27821,0.01154
2849.21804,0.01135
2847.15787,0.01128
2845.09769,0.01114
2843.03752,0.01102
2840.97735,0.01096
2838.91718,0.01084
2836.85700,0.01065
2834.79683,0.01050
2832.73666,0.01040
2830.67649,0.01032
2828.61632,0.01022
2826.55614,0.01011
2824.49597,0.01000
2822.43580,0.00999
2820.37563,0.01011
2818.31546,0.01013
2816.25528,0.00992
2814.19511,0.00965
2812.13494,0.00947
2810.07477,0.00937
2808.01460,0.00928
2805.95442,0.00921
2803.89425,0.00911
2801.83408,0.00890
2799.77391,0.00876
2797.71373,0.00895
2795.65356,0.00914
2793.59339,0.00904
2791.53322,0.00880
2789.47305,0.00860
2787.41287,0.00848
2785.35270,0.00835
2783.29253,0.00827
2781.23236,0.00834
2779.17219,0.00848
2777.11201,0.00851
2775.05184,0.00843
2772.99167,0.00836
2770.93150,0.00833
2768.87133,0.00835
2766.81115,0.00840
2764.75098,0.00841
2762.69081,0.00827
2760.63064,0.00809
2758.57046,0.00803
2756.51029,0.00805
2754.45012,0.00807
2752.38995,0.00800
2750.32978,0.00794
2748.26960,0.00800
2746.20943,0.00805
2744.14926,0.00798
2742.08909,0.00783
2740.02892,0.00767
2737.96874,0.00762
2735.90857,0.00766
2733.84840,0.00761
2731.78823,0.00751
2729.72805,0.00754
2727.66788,0.00754
2725.60771,0.00739
2723.54754,0.00732
2721.48737,0.00743
2719.42719,0.00748
2717.36702,0.00745
2715.30685,0.00742
2713.24668,0.00735
2711.18651,0.00729
2709.12633,0.00733
2707.06616,0.00737
2705.00599,0.00724
2702.94582,0.00704
2700.88565,0.00689
2698.82547,0.00687
2696.76530,0.00699
2694.70513,0.00709
2692.64496,0.00711
2690.58478,0.00706
2688.52461,0.00695
2686.46444,0.00678
2684.40427,0.00659
2682.34410,0.00654
2680.28392,0.00660
2678.22375,0.00662
2676.16358,0.00657
2674.10341,0.00651
2672.04324,0.00649
2669.98306,0.00642
2667.92289,0.00631
2665.86272,0.00635
2663.80255,0.00646
2661.74238,0.00648
2659.68220,0.00645
2657.62203,0.00638
2655.56186,0.00636
2653.50169,0.00636
2651.44151,0.00625
2649.38134,0.00606
2647.32117,0.00600
2645.26100,0.00610
2643.20083,0.00618
2641.14065,0.00608
2639.08048,0.00592
2637.02031,0.00573
2634.96014,0.00560
2632.89997,0.00562
2630.83979,0.00562
2628.77962,0.00547
2626.71945,0.00533
2624.65928,0.00525
2622.59910,0.00514
2620.53893,0.00513
2618.47876,0.00523
2616.41859,0.00517
2614.35842,0.00497
2612.29824,0.00490
2610.23807,0.00502
2608.17790,0.00517
2606.11773,0.00516
2604.05756,0.00501
2601.99738,0.00484
2599.93721,0.00476
2597.87704,0.00476
2595.81687,0.00472
2593.75670,0.00469
2591.69652,0.00470
2589.63635,0.00465
2587.57618,0.00450
2585.51601,0.00434
2583.45583,0.00445
2581.39566,0.00471
2579.33549,0.00466
2577.27532,0.00438
2575.21515,0.00413
2573.15497,0.00409
2571.09480,0.00429
2569.03463,0.00445
2566.97446,0.00449
2564.91429,0.00460
2562.85411,0.00486
2560.79394,0.00511
2558.73377,0.00498
2556.67360,0.00460
2554.61342,0.00436
2552.55325,0.00424
2550.49308,0.00422
2548.43291,0.00431
2546.37274,0.00441
2544.31256,0.00435
2542.25239,0.00404
2540.19222,0.00380
2538.13205,0.00373
2536.07188,0.00360
2534.01170,0.00360
2531.95153,0.00406
2529.89136,0.00448
2527.83119,0.00436
2525.77102,0.00415
2523.71084,0.00422
2521.65067,0.00418
2519.59050,0.00397
2517.53033,0.00381
2515.47015,0.00361
2513.40998,0.00364
2511.34981,0.00402
2509.28964,0.00421
2507.22947,0.00421
2505.16929,0.00410
2503.10912,0.00384
2501.04895,0.00382
2498.98878,0.00403
2496.92861,0.00408
2494.86843,0.00413
2492.80826,0.00411
2490.74809,0.00386
2488.68792,0.00372
2486.62775,0.00378
2484.56757,0.00364
2482.50740,0.00325
2480.44723,0.00314
2478.38706,0.00334
2476.32688,0.00349
2474.26671,0.00358
2472.20654,0.00359
2470.14637,0.00348
2468.08620,0.00350
2466.02602,0.00365
2463.96585,0.00380
2461.90568,0.00406
2459.84551,0.00425
2457.78534,0.00421
2455.72516,0.00403
2453.66499,0.00391
2451.60482,0.00393
2449.54465,0.00382
2447.48447,0.00358
2445.42430,0.00346
2443.36413,0.00343
2441.30396,0.00336
2439.24379,0.00349
2437.18361,0.00375
2435.12344,0.00366
2433.06327,0.00338
2431.00310,0.00343
2428.94293,0.00352
2426.88275,0.00346
2424.82258,0.00362
2422.76241,0.00396
2420.70224,0.00414
2418.64207,0.00407
2416.58189,0.00380
2414.52172,0.00350
2412.46155,0.00320
2410.40138,0.00292
2408.34120,0.00283
2406.28103,0.00293
2404.22086,0.00305
2402.16069,0.00308
2400.10052,0.00317
2398.04034,0.00340
2395.98017,0.00347
2393.92000,0.00319
2391.85983,0.00288
2389.79966,0.00280
2387.73948,0.00297
2385.67931,0.00333
2383.61914,0.00354
2381.55897,0.00345
2379.49880,0.00331
2377.43862,0.00328
2375.37845,0.00288
2373.31828,0.00340
2371.25811,0.00465
2369.19793,0.00411
2367.13776,0.00217
2365.07759,0.00136
2363.01742,0.00032
2360.95725,0.00175
2358.89707,0.00147
2356.83690,0.00189
2354.77673,0.00305
2352.71656,0.00338
2350.65639,0.00670
2348.59621,0.00865
2346.53604,0.00169
2344.47587,0.00122
2342.41570,0.00365
2340.35552,0.00513
2338.29535,0.00579
2336.23518,0.00512
2334.17501,0.00426
2332.11484,0.00338
2330.05466,0.00335
2327.99449,0.00297
2325.93432,0.00449
2323.87415,0.00483
2321.81398,0.00495
2319.75380,0.00415
2317.69363,0.00504
2315.63346,0.00520
2313.57329,0.00461
2311.51312,0.00442
2309.45294,0.00420
2307.39277,0.00389
2305.33260,0.00376
2303.27243,0.00391
2301.21225,0.00375
2299.15208,0.00393
2297.09191,0.00423
2295.03174,0.00410
2292.97157,0.00378
2290.91139,0.00350
2288.85122,0.00343
2286.79105,0.00368
2284.73088,0.00395
2282.67071,0.00382
2280.61053,0.00347
2278.55036,0.00347
2276.49019,0.00373
2274.43002,0.00386
2272.36984,0.00380
2270.30967,0.00369
2268.24950,0.00337
2266.18933,0.00316
2264.12916,0.00364
2262.06898,0.00434
2260.00881,0.00432
2257.94864,0.00384
2255.88847,0.00325
2253.82830,0.00290
2251.76812,0.00295
2249.70795,0.00313
2247.64778,0.00330
2245.58761,0.00350
2243.52744,0.00334
2241.46726,0.00279
2239.40709,0.00278
2237.34692,0.00332
2235.28675,0.00362
2233.22657,0.00338
2231.16640,0.00290
2229.10623,0.00258
2227.04606,0.00264
2224.98589,0.00296
2222.92571,0.00321
2220.86554,0.00312
2218.80537,0.00255
2216.74520,0.00203
2214.68503,0.00218
2212.62485,0.00270
2210.56468,0.00282
2208.50451,0.00260
2206.44434,0.00269
2204.38417,0.00329
2202.32399,0.00348
2200.26382,0.00286
2198.20365,0.00268
2196.14348,0.00316
2194.08330,0.00340
2192.02313,0.00351
2189.96296,0.00384
2187.90279,0.00403
2185.84262,0.00372
2183.78244,0.00308
2181.72227,0.00300
2179.66210,0.00325
2177.60193,0.00257
2175.54176,0.00130
2173.48158,0.00058
2171.42141,0.00073
2169.36124,0.00130
2167.30107,0.00186
2165.24089,0.00231
2163.18072,0.00266
2161.12055,0.00258
2159.06038,0.00149
2157.00021,0.00007
2154.94003,0.00000
2152.87986,0.00094
2150.81969,0.00140
2148.75952,0.00142
2146.69935,0.00139
2144.63917,0.00124
2142.57900,0.00110
2140.51883,0.00129
2138.45866,0.00148
2136.39849,0.00117
2134.33831,0.00066
2132.27814,0.00048
2130.21797,0.00071
2128.15780,0.00124
2126.09762,0.00184
2124.03745,0.00220
2121.97728,0.00205
2119.91711,0.00164
2117.85694,0.00186
2115.79676,0.00279
2113.73659,0.00334
2111.67642,0.00312
2109.61625,0.00276
2107.55608,0.00267
2105.49590,0.00278
2103.43573,0.00295
2101.37556,0.00328
2099.31539,0.00389
2097.25521,0.00441
2095.19504,0.00403
2093.13487,0.00290
2091.07470,0.00218
2089.01453,0.00225
2086.95435,0.00269
2084.89418,0.00292
2082.83401,0.00282
2080.77384,0.00268
2078.71367,0.00252
2076.65349,0.00210
2074.59332,0.00162
2072.53315,0.00167
2070.47298,0.00184
2068.41281,0.00163
2066.35263,0.00179
2064.29246,0.00259
2062.23229,0.00305
2060.17212,0.00276
2058.11194,0.00256
2056.05177,0.00279
2053.99160,0.00299
2051.93143,0.00279
2049.87126,0.00205
2047.81108,0.00129
2045.75091,0.00096
2043.69074,0.00104
2041.63057,0.00176
2039.57040,0.00262
2037.51022,0.00263
2035.45005,0.00201
2033.38988,0.00155
2031.32971,0.00168
2029.26954,0.00222
2027.20936,0.00233
2025.14919,0.00175
2023.08902,0.00132
2021.02885,0.00132
2018.96867,0.00092
2016.90850,0.00011
2014.84833,0.00000
2012.78816,0.00029
2010.72799,0.00009
2008.66781,0.00002
2006.60764,0.00089
2004.54747,0.00212
2002.48730,0.00257
2000.42713,0.00183
1998.36695,0.00075
1996.30678,0.00020
1994.24661,0.00017
1992.18644,0.00053
1990.12626,0.00133
1988.06609,0.00233
1986.00592,0.00303
1983.94575,0.00298
1981.88558,0.00209
1979.82540,0.00106
1977.76523,0.00059
1975.70506,0.00038
1973.64489,0.00058
1971.58472,0.00117
1969.52454,0.00140
1967.46437,0.00163
1965.40420,0.00212
1963.34403,0.00210
1961.28386,0.00156
1959.22368,0.00111
1957.16351,0.00129
1955.10334,0.00172
1953.04317,0.00153
1950.98299,0.00114
1948.92282,0.00134
1946.86265,0.00154
1944.80248,0.00149
1942.74231,0.00159
1940.68213,0.00171
1938.62196,0.00172
1936.56179,0.00167
1934.50162,0.00139
1932.44145,0.00099
1930.38127,0.00080
1928.32110,0.00089
1926.26093,0.00092
1924.20076,0.00059
1922.14059,0.00021
1920.08041,0.00033
1918.02024,0.00092
1915.96007,0.00146
1913.89990,0.00150
1911.83972,0.00124
1909.77955,0.00101
1907.71938,0.00089
1905.65921,0.00074
1903.59904,0.00035
1901.53886,0.00000
1899.47869,0.00008
1897.41852,0.00060
1895.35835,0.00123
1893.29818,0.00148
1891.23800,0.00114
1889.17783,0.00070
1887.11766,0.00064
1885.05749,0.00089
1882.99731,0.00114
1880.93714,0.00111
1878.87697,0.00090
1876.81680,0.00080
1874.75663,0.00081
1872.69645,0.00087
1870.63628,0.00096
1868.57611,0.00087
1866.51594,0.00059
1864.45577,0.00048
1862.39559,0.00066
1860.33542,0.00087
1858.27525,0.00093
1856.21508,0.00083
1854.15491,0.00077
1852.09473,0.00085
1850.03456,0.00089
1847.97439,0.00075
1845.91422,0.00049
1843.85404,0.00036
1841.79387,0.00047
1839.73370,0.00062
1837.67353,0.00070
1835.61336,0.00076
1833.55318,0.00078
1831.49301,0.00063
1829.43284,0.00043
1827.37267,0.00040
1825.31250,0.00048
1823.25232,0.00056
1821.19215,0.00053
1819.13198,0.00039
1817.07181,0.00021
1815.01163,0.00017
1812.95146,0.00034
1810.89129,0.00058
1808.83112,0.00070
1806.77095,0.00066
1804.71077,0.00045
1802.65060,0.00019
1800.59043,0.00014
1798.53026,0.00028
1796.47009,0.00027
1794.40991,0.00004
1792.34974,-0.00005
1790.28957,0.00018
1788.22940,0.00051
1786.16923,0.00072
1784.10905,0.00073
1782.04888,0.00054
1779.98871,0.00037
1777.92854,0.00037
1775.86836,0.00042
1773.80819,0.00039
1771.74802,0.00038
1769.68785,0.00054
1767.62768,0.00087
1765.56750,0.00119
1763.50733,0.00137
1761.44716,0.00148
1759.38699,0.00168
1757.32682,0.00210
1755.26664,0.00266
1753.20647,0.00309
1751.14630,0.00345
1749.08613,0.00392
1747.02596,0.00433
1744.96578,0.00461
1742.90561,0.00490
1740.84544,0.00519
1738.78527,0.00538
1736.72509,0.00548
1734.66492,0.00558
1732.60475,0.00578
1730.54458,0.00596
1728.48441,0.00598
1726.42423,0.00585
1724.36406,0.00562
1722.30389,0.00536
1720.24372,0.00506
1718.18355,0.00476
1716.12337,0.00462
1714.06320,0.00463
1712.00303,0.00445
1709.94286,0.00410
1707.88268,0.00385
1705.82251,0.00373
1703.76234,0.00359
1701.70217,0.00337
1699.64200,0.00315
1697.58182,0.00315
1695.52165,0.00342
1693.46148,0.00364
1691.40131,0.00374
1689.34114,0.00387
1687.28096,0.00402
1685.22079,0.00418
1683.16062,0.00450
1681.10045,0.00493
1679.04028,0.00533
1676.98010,0.00563
1674.91993,0.00583
1672.85976,0.00607
1670.79959,0.00658
1668.73941,0.00735
1666.67924,0.00799
1664.61907,0.00839
1662.55890,0.00887
1660.49873,0.00945
1658.43855,0.00985
1656.37838,0.00999
1654.31821,0.01012
1652.25804,0.01056
1650.19787,0.01092
1648.13769,0.01111
1646.07752,0.01147
1644.01735,0.01186
1641.95718,0.01201
1639.89701,0.01194
1637.83683,0.01179
1635.77666,0.01185
1633.71649,0.01212
1631.65632,0.01228
1629.59614,0.01240
1627.53597,0.01254
1625.47580,0.01265
1623.41563,0.01272
1621.35546,0.01273
1619.29528,0.01258
1617.23511,0.01243
1615.17494,0.01247
1613.11477,0.01260
1611.05460,0.01258
1608.99442,0.01229
1606.93425,0.01190
1604.87408,0.01154
1602.81391,0.01110
1600.75373,0.01049
1598.69356,0.00984
1596.63339,0.00931
1594.57322,0.00890
1592.51305,0.00844
1590.45287,0.00778
1588.39270,0.00691
1586.33253,0.00611
1584.27236,0.00561
1582.21219,0.00531
1580.15201,0.00499
1578.09184,0.00447
1576.03167,0.00384
1573.97150,0.00350
1571.91133,0.00339
1569.85115,0.00316
1567.79098,0.00280
1565.73081,0.00243
1563.67064,0.00213
1561.61046,0.00186
1559.55029,0.00157
1557.49012,0.00148
1555.42995,0.00157
1553.36978,0.00153
1551.30960,0.00134
1549.24943,0.00116
1547.18926,0.00105
1545.12909,0.00084
1543.06892,0.00044
1541.00874,0.00016
1538.94857,0.00029
1536.88840,0.00053
1534.82823,0.00058
1532.76805,0.00062
1530.70788,0.00081
1528.64771,0.00093
1526.58754,0.00087
1524.52737,0.00078
1522.46719,0.00065
1520.40702,0.00040
1518.34685,0.00020
1516.28668,0.00016
1514.22651,0.00016
1512.16633,0.00009
1510.10616,0.00000
1508.04599,0.00014
1505.98582,0.00068
1503.92565,0.00119
1501.86547,0.00138
1499.80530,0.00132
1497.74513,0.00119
1495.68496,0.00126
1493.62478,0.00146
1491.56461,0.00152
1489.50444,0.00148
1487.44427,0.00155
1485.38410,0.00175
1483.32392,0.00193
1481.26375,0.00208
1479.20358,0.00225
1477.14341,0.00251
1475.08324,0.00289
1473.02306,0.00341
1470.96289,0.00405
1468.90272,0.00458
1466.84255,0.00499
1464.78238,0.00538
1462.72220,0.00568
1460.66203,0.00578
1458.60186,0.00580
1456.54169,0.00604
1454.48151,0.00641
1452.42134,0.00664
1450.36117,0.00674
1448.30100,0.00689
1446.24083,0.00728
1444.18065,0.00773
1442.12048,0.00800
1440.06031,0.00812
1438.00014,0.00826
1435.93997,0.00846
1433.87979,0.00862
1431.81962,0.00876
1429.75945,0.00900
1427.69928,0.00930
1425.63910,0.00956
1423.57893,0.00980
1421.51876,0.01011
1419.45859,0.01049
1417.39842,0.01076
1415.33824,0.01081
1413.27807,0.01076
1411.21790,0.01071
1409.15773,0.01063
1407.09756,0.01045
1405.03738,0.01019
1402.97721,0.00996
1400.91704,0.00973
1398.85687,0.00945
1396.79670,0.00913
1394.73652,0.00887
1392.67635,0.00871
1390.61618,0.00864
1388.55601,0.00868
1386.49583,0.00893
1384.43566,0.00931
1382.37549,0.00958
1380.31532,0.00970
1378.25515,0.00979
1376.19497,0.00991
1374.13480,0.01005
1372.07463,0.01019
1370.01446,0.01025
1367.95429,0.01020
1365.89411,0.01003
1363.83394,0.00979
1361.77377,0.00960
1359.71360,0.00949
1357.65343,0.00942
1355.59325,0.00939
1353.53308,0.00936
1351.47291,0.00932
1349.41274,0.00926
1347.35256,0.00915
1345.29239,0.00893
1343.23222,0.00858
1341.17205,0.00816
1339.11188,0.00791
1337.05170,0.00799
1334.99153,0.00822
1332.93136,0.00842
1330.87119,0.00855
1328.81102,0.00863
1326.75084,0.00866
1324.69067,0.00864
1322.63050,0.00863
1320.57033,0.00870
1318.51015,0.00876
1316.44998,0.00877
1314.38981,0.00879
1312.32964,0.00881
1310.26947,0.00875
1308.20929,0.00855
1306.14912,0.00828
1304.08895,0.00811
1302.02878,0.00806
1299.96861,0.00801
1297.90843,0.00787
1295.84826,0.00761
1293.78809,0.00737
1291.72792,0.00729
1289.66775,0.00726
1287.60757,0.00718
1285.54740,0.00707
1283.48723,0.00693
1281.42706,0.00680
1279.36688,0.00678
1277.30671,0.00689
1275.24654,0.00703
1273.18637,0.00722
1271.12620,0.00745
1269.06602,0.00775
1267.00585,0.00818
1264.94568,0.00868
1262.88551,0.00913
1260.82534,0.00950
1258.76516,0.00974
1256.70499,0.00989
1254.64482,0.01005
1252.58465,0.01016
1250.52447,0.01025
1248.46430,0.01043
1246.40413,0.01062
1244.34396,0.01064
1242.28379,0.01053
1240.22361,0.01036
1238.16344,0.01005
1236.10327,0.00971
1234.04310,0.00948
1231.98293,0.00925
1229.92275,0.00885
1227.86258,0.00832
1225.80241,0.00789
1223.74224,0.00760
1221.68207,0.00735
1219.62189,0.00702
1217.56172,0.00658
1215.50155,0.00612
1213.44138,0.00566
1211.38120,0.00517
1209.32103,0.00463
1207.26086,0.00399
1205.20069,0.00326
1203.14052,0.00254
1201.08034,0.00193
1199.02017,0.00148
1196.96000,0.00114
1194.89983,0.00080
1192.83966,0.00045
1190.77948,0.00020
1188.71931,0.00005
1186.65914,0.00000
1184.59897,0.00011
1182.53880,0.00046
1180.47862,0.00092
1178.41845,0.00141
1176.35828,0.00203
1174.29811,0.00282
1172.23793,0.00357
1170.17776,0.00429
1168.11759,0.00518
1166.05742,0.00612
1163.99725,0.00691
1161.93707,0.00767
1159.87690,0.00843
1157.81673,0.00916
1155.75656,0.00981
1153.69639,0.01039
1151.63621,0.01100
1149.57604,0.01150
1147.51587,0.01192
1145.45570,0.01247
1143.39552,0.01297
1141.33535,0.01321
1139.27518,0.01332
1137.21501,0.01354
1135.15484,0.01391
1133.09466,0.01438
1131.03449,0.01487
1128.97432,0.01530
1126.91415,0.01575
1124.85398,0.01639
1122.79380,0.01717
1120.73363,0.01791
1118.67346,0.01852
1116.61329,0.01918
1114.55312,0.01992
1112.49294,0.02058
1110.43277,0.02122
1108.37260,0.02188
1106.31243,0.02256
1104.25225,0.02334
1102.19208,0.02423
1100.13191,0.02521
1098.07174,0.02624
1096.01157,0.02722
1093.95139,0.02819
1091.89122,0.02912
1089.83105,0.02988
1087.77088,0.03058
1085.71071,0.03136
1083.65053,0.03218
1081.59036,0.03295
1079.53019,0.03370
1077.47002,0.03459
1075.40985,0.03559
1073.34967,0.03634
1071.28950,0.03684
1069.22933,0.03733
1067.16916,0.03785
1065.10898,0.03829
1063.04881,0.03855
1060.98864,0.03878
1058.92847,0.03921
1056.86830,0.03970
1054.80812,0.04009
1052.74795,0.04047
1050.68778,0.04084
1048.62761,0.04118
1046.56744,0.04165
1044.50726,0.04232
1042.44709,0.04307
1040.38692,0.04371
1038.32675,0.04398
1036.26657,0.04391
1034.20640,0.04389
1032.14623,0.04399
1030.08606,0.04404
1028.02589,0.04404
1025.96571,0.04399
1023.90554,0.04393
1021.84537,0.04395
1019.78520,0.04398
1017.72503,0.04393
1015.66485,0.04388
1013.60468,0.04387
1011.54451,0.04366
1009.48434,0.04321
1007.42417,0.04276
1005.36399,0.04233
1003.30382,0.04195
1001.24365,0.04168
999.18348,0.04128
997.12330,0.04059
995.06313,0.03982
993.00296,0.03922
990.94279,0.03864
988.88262,0.03793
986.82244,0.03732
984.76227,0.03692
982.70210,0.03660
980.64193,0.03625
978.58176,0.03583
976.52158,0.03540
974.46141,0.03500
972.40124,0.03455
970.34107,0.03388
968.28089,0.03297
966.22072,0.03207
964.16055,0.03141
962.10038,0.03096
960.04021,0.03047
957.98003,0.02972
955.91986,0.02888
953.85969,0.02814
951.79952,0.02743
949.73935,0.02660
947.67917,0.02564
945.61900,0.02468
943.55883,0.02360
941.49866,0.02220
939.43849,0.02053
937.37831,0.01870
935.31814,0.01695
933.25797,0.01539
931.19780,0.01400
929.13762,0.01275
927.07745,0.01155
925.01728,0.01044
922.95711,0.00965
920.89694,0.00916
918.83676,0.00873
916.77659,0.00815
914.71642,0.00757
912.65625,0.00715
910.59608,0.00673
908.53590,0.00631
906.47573,0.00596
904.41556,0.00572
902.35539,0.00578
900.29522,0.00613
898.23504,0.00639
896.17487,0.00634
894.11470,0.00606
892.05453,0.00588
889.99435,0.00573
887.93418,0.00540
885.87401,0.00518
883.81384,0.00501
881.75367,0.00460
879.69349,0.00424
877.63332,0.00414
875.57315,0.00402
873.51298,0.00396
871.45281,0.00399
869.39263,0.00388
867.33246,0.00361
865.27229,0.00338
863.21212,0.00340
861.15194,0.00370
859.09177,0.00391
857.03160,0.00382
854.97143,0.00364
852.91126,0.00343
850.85108,0.00321
848.79091,0.00307
846.73074,0.00273
844.67057,0.00220
842.61040,0.00191
840.55022,0.00172
838.49005,0.00130
836.42988,0.00094
834.36971,0.00085
832.30954,0.00072
830.24936,0.00039
828.18919,0.00031
826.12902,0.00051
824.06885,0.00058
822.00867,0.00069
819.94850,0.00104
817.88833,0.00141
815.82816,0.00174
813.76799,0.00220
811.70781,0.00258
809.64764,0.00268
807.58747,0.00263
805.52730,0.00263
803.46713,0.00281
801.40695,0.00286
799.34678,0.00247
797.28661,0.00206
795.22644,0.00199
793.16627,0.00199
791.10609,0.00193
789.04592,0.00184
786.98575,0.00179
784.92558,0.00192
782.86540,0.00203
780.80523,0.00183
778.74506,0.00173
776.68489,0.00198
774.62472,0.00218
772.56454,0.00214
770.50437,0.00205
768.44420,0.00193
766.38403,0.00168
764.32386,0.00150
762.26368,0.00159
760.20351,0.00180
758.14334,0.00209
756.08317,0.00244
754.02299,0.00266
751.96282,0.00276
749.90265,0.00291
747.84248,0.00282
745.78231,0.00238
743.72213,0.00200
741.66196,0.00187
739.60179,0.00180
737.54162,0.00181
735.48145,0.00197
733.42127,0.00220
731.36110,0.00254
729.30093,0.00300
727.24076,0.00336
725.18059,0.00340
723.12041,0.00367
721.06024,0.00315
719.00007,0.00407
716.93990,0.00499
714.87972,0.00541
712.81955,0.00556
710.75938,0.00559
708.69921,0.00590
706.63904,0.00633
704.57886,0.00642
702.51869,0.00612
700.45852,0.00600
698.39835,0.00640
696.33818,0.00717
694.27800,0.00805
692.21783,0.00844
690.15766,0.00801
688.09749,0.00753
686.03731,0.00786
683.97714,0.00864
681.91697,0.00902
679.85680,0.00897
677.79663,0.00866
675.73645,0.00836
673.67628,0.01028
671.61611,0.01457
669.55594,0.00877
667.49577,0.00000
665.43559,0.01412
663.37542,0.01184
661.31525,0.00747
659.25508,0.00674
657.19491,0.00733
655.13473,0.00776
653.07456,0.00755
651.01439,0.00677
648.95422,0.00624
646.89404,0.00677
644.83387,0.00646
642.77370,0.00592
640.71353,0.00510
638.65336,0.00360
636.59318,0.00253
634.53301,0.00281
632.47284,0.00363
630.41267,0.00351
628.35250,0.00232
626.29232,0.00098
624.23215,0.00000
622.17198,0.00070
620.11181,0.00242
618.05164,0.00337
615.99146,0.00421
613.93129,0.00447
611.87112,0.00365
609.81095,0.00370
607.75077,0.00401
605.69060,0.00236
603.63043,0.00003
601.57026,-0.00062
599.51009,0.00000
