3996.73391,0.00092
3994.67373,0.00078
3992.61356,0.00071
3990.55339,0.00068
3988.49322,0.00051
3986.43305,0.00019
3984.37287,0.00000
3982.31270,0.00008
3980.25253,0.00027
3978.19236,0.00040
3976.13219,0.00044
3974.07201,0.00042
3972.01184,0.00041
3969.95167,0.00052
3967.89150,0.00064
3965.83133,0.00065
3963.77115,0.00064
3961.71098,0.00078
3959.65081,0.00089
3957.59064,0.00079
3955.53046,0.00058
3953.47029,0.00045
3951.41012,0.00050
3949.34995,0.00075
3947.28978,0.00089
3945.22960,0.00081
3943.16943,0.00076
3941.10926,0.00082
3939.04909,0.00080
3936.98892,0.00064
3934.92874,0.00050
3932.86857,0.00047
3930.80840,0.00063
3928.74823,0.00085
3926.68805,0.00099
3924.62788,0.00107
3922.56771,0.00104
3920.50754,0.00090
3918.44737,0.00092
3916.38719,0.00106
3914.32702,0.00101
3912.26685,0.00082
3910.20668,0.00076
3908.14651,0.00073
3906.08633,0.00070
3904.02616,0.00095
3901.96599,0.00131
3899.90582,0.00144
3897.84565,0.00138
3895.78547,0.00118
3893.72530,0.00096
3891.66513,0.00108
3889.60496,0.00151
3887.54478,0.00188
3885.48461,0.00211
3883.42444,0.00202
3881.36427,0.00158
3879.30410,0.00128
3877.24392,0.00126
3875.18375,0.00121
3873.12358,0.00116
3871.06341,0.00148
3869.00324,0.00209
3866.94306,0.00223
3864.88289,0.00184
3862.82272,0.00153
3860.76255,0.00140
3858.70237,0.00105
3856.64220,0.00036
3854.58203,0.00000
3852.52186,0.00082
3850.46169,0.00195
3848.40151,0.00229
3846.34134,0.00199
3844.28117,0.00155
3842.22100,0.00118
3840.16083,0.00087
3838.10065,0.00089
3836.04048,0.00122
3833.98031,0.00129
3831.92014,0.00120
3829.85997,0.00127
3827.79979,0.00139
3825.73962,0.00137
3823.67945,0.00127
3821.61928,0.00144
3819.55910,0.00184
3817.49893,0.00204
3815.43876,0.00211
3813.37859,0.00196
3811.31842,0.00153
3809.25824,0.00121
3807.19807,0.00119
3805.13790,0.00119
3803.07773,0.00124
3801.01756,0.00162
3798.95738,0.00189
3796.89721,0.00183
3794.83704,0.00163
3792.77687,0.00139
3790.71670,0.00122
3788.65652,0.00114
3786.59635,0.00110
3784.53618,0.00113
3782.47601,0.00118
3780.41583,0.00132
3778.35566,0.00161
3776.29549,0.00169
3774.23532,0.00145
3772.17515,0.00128
3770.11497,0.00145
3768.05480,0.00175
3765.99463,0.00187
3763.93446,0.00179
3761.87429,0.00161
3759.81411,0.00152
3757.75394,0.00138
3755.69377,0.00103
3753.63360,0.00086
3751.57342,0.00142
3749.51325,0.00227
3747.45308,0.00232
3745.39291,0.00199
3743.33274,0.00207
3741.27256,0.00217
3739.21239,0.00197
3737.15222,0.00180
3735.09205,0.00191
3733.03188,0.00202
3730.97170,0.00192
3728.91153,0.00171
3726.85136,0.00170
3724.79119,0.00200
3722.73102,0.00228
3720.67084,0.00226
3718.61067,0.00214
3716.55050,0.00214
3714.49033,0.00211
3712.43015,0.00202
3710.36998,0.00215
3708.30981,0.00232
3706.24964,0.00222
3704.18947,0.00185
3702.12929,0.00163
3700.06912,0.00192
3698.00895,0.00234
3695.94878,0.00237
3693.88861,0.00206
3691.82843,0.00184
3689.76826,0.00197
3687.70809,0.00221
3685.64792,0.00224
3683.58775,0.00218
3681.52757,0.00209
3679.46740,0.00190
3677.40723,0.00194
3675.34706,0.00255
3673.28688,0.00296
3671.22671,0.00284
3669.16654,0.00291
3667.10637,0.00305
3665.04620,0.00285
3662.98602,0.00260
3660.92585,0.00264
3658.86568,0.00291
3656.80551,0.00314
3654.74534,0.00300
3652.68516,0.00251
3650.62499,0.00261
3648.56482,0.00370
3646.50465,0.00447
3644.44447,0.00438
3642.38430,0.00406
3640.32413,0.00392
3638.26396,0.00405
3636.20379,0.00438
3634.14361,0.00470
3632.08344,0.00473
3630.02327,0.00485
3627.96310,0.00573
3625.90293,0.00663
3623.84275,0.00679
3621.78258,0.00659
3619.72241,0.00664
3617.66224,0.00691
3615.60207,0.00704
3613.54189,0.00702
3611.48172,0.00689
3609.42155,0.00695
3607.36138,0.00746
3605.30120,0.00813
3603.24103,0.00857
3601.18086,0.00875
3599.12069,0.00899
3597.06052,0.00937
3595.00034,0.00978
3592.94017,0.01009
3590.88000,0.01012
3588.81983,0.00998
3586.75966,0.01033
3584.69948,0.01096
3582.63931,0.01117
3580.57914,0.01119
3578.51897,0.01145
3576.45879,0.01187
3574.39862,0.01222
3572.33845,0.01239
3570.27828,0.01249
3568.21811,0.01301
3566.15793,0.01397
3564.09776,0.01451
3562.03759,0.01444
3559.97742,0.01443
3557.91725,0.01473
3555.85707,0.01502
3553.79690,0.01518
3551.73673,0.01535
3549.67656,0.01561
3547.61639,0.01593
3545.55621,0.01630
3543.49604,0.01667
3541.43587,0.01697
3539.37570,0.01722
3537.31552,0.01739
3535.25535,0.01749
3533.19518,0.01765
3531.13501,0.01806
3529.07484,0.01858
3527.01466,0.01894
3524.95449,0.01920
3522.89432,0.01951
3520.83415,0.01977
3518.77398,0.01993
3516.71380,0.02015
3514.65363,0.02050
3512.59346,0.02089
3510.53329,0.02113
3508.47312,0.02126
3506.41294,0.02152
3504.35277,0.02195
3502.29260,0.02243
3500.23243,0.02273
3498.17225,0.02276
3496.11208,0.02272
3494.05191,0.02299
3491.99174,0.02365
3489.93157,0.02432
3487.87139,0.02464
3485.81122,0.02454
3483.75105,0.02437
3481.69088,0.02452
3479.63071,0.02490
3477.57053,0.02522
3475.51036,0.02547
3473.45019,0.02568
3471.39002,0.02597
3469.32984,0.02639
3467.26967,0.02665
3465.20950,0.02653
3463.14933,0.02628
3461.08916,0.02634
3459.02898,0.02678
3456.96881,0.02742
3454.90864,0.02795
3452.84847,0.02810
3450.78830,0.02794
3448.72812,0.02797
3446.66795,0.02841
3444.60778,0.02879
3442.54761,0.02894
3440.48744,0.02926
3438.42726,0.02960
3436.36709,0.02970
3434.30692,0.02985
3432.24675,0.03013
3430.18657,0.03032
3428.12640,0.03041
3426.06623,0.03064
3424.00606,0.03098
3421.94589,0.03125
3419.88571,0.03140
3417.82554,0.03146
3415.76537,0.03158
3413.70520,0.03181
3411.64503,0.03199
3409.58485,0.03212
3407.52468,0.03219
3405.46451,0.03226
3403.40434,0.03240
3401.34416,0.03254
3399.28399,0.03274
3397.22382,0.03311
3395.16365,0.03339
3393.10348,0.03361
3391.04330,0.03394
3388.98313,0.03411
3386.92296,0.03407
3384.86279,0.03405
3382.80262,0.03410
3380.74244,0.03422
3378.68227,0.03441
3376.62210,0.03471
3374.56193,0.03512
3372.50176,0.03540
3370.44158,0.03542
3368.38141,0.03545
3366.32124,0.03565
3364.26107,0.03591
3362.20089,0.03595
3360.14072,0.03569
3358.08055,0.03545
3356.02038,0.03547
3353.96021,0.03564
3351.90003,0.03574
3349.83986,0.03563
3347.77969,0.03553
3345.71952,0.03572
3343.65935,0.03601
3341.59917,0.03611
3339.53900,0.03614
3337.47883,0.03623
3335.41866,0.03638
3333.35849,0.03656
3331.29831,0.03662
3329.23814,0.03652
3327.17797,0.03638
3325.11780,0.03638
3323.05762,0.03651
3320.99745,0.03655
3318.93728,0.03667
3316.87711,0.03706
3314.81694,0.03728
3312.75676,0.03707
3310.69659,0.03665
3308.63642,0.03636
3306.57625,0.03632
3304.51608,0.03634
3302.45590,0.03637
3300.39573,0.03654
3298.33556,0.03674
3296.27539,0.03684
3294.21521,0.03691
3292.15504,0.03693
3290.09487,0.03685
3288.03470,0.03683
3285.97453,0.03680
3283.91435,0.03666
3281.85418,0.03661
3279.79401,0.03675
3277.73384,0.03696
3275.67367,0.03700
3273.61349,0.03687
3271.55332,0.03671
3269.49315,0.03660
3267.43298,0.03664
3265.37281,0.03671
3263.31263,0.03665
3261.25246,0.03662
3259.19229,0.03673
3257.13212,0.03667
3255.07194,0.03640
3253.01177,0.03627
3250.95160,0.03627
3248.89143,0.03617
3246.83126,0.03609
3244.77108,0.03620
3242.71091,0.03631
3240.65074,0.03628
3238.59057,0.03613
3236.53040,0.03595
3234.47022,0.03596
3232.41005,0.03590
3230.34988,0.03551
3228.28971,0.03515
3226.22954,0.03508
3224.16936,0.03519
3222.10919,0.03530
3220.04902,0.03524
3217.98885,0.03507
3215.92867,0.03490
3213.86850,0.03461
3211.80833,0.03436
3209.74816,0.03429
3207.68799,0.03417
3205.62781,0.03379
3203.56764,0.03331
3201.50747,0.03300
3199.44730,0.03290
3197.38713,0.03283
3195.32695,0.03270
3193.26678,0.03254
3191.20661,0.03252
3189.14644,0.03260
3187.08626,0.03245
3185.02609,0.03213
3182.96592,0.03195
3180.90575,0.03182
3178.84558,0.03157
3176.78540,0.03128
3174.72523,0.03111
3172.66506,0.03101
3170.60489,0.03072
3168.54472,0.03027
3166.48454,0.03000
3164.42437,0.02989
3162.36420,0.02969
3160.30403,0.02945
3158.24386,0.02934
3156.18368,0.02923
3154.12351,0.02903
3152.06334,0.02880
3150.00317,0.02841
3147.94299,0.02789
3145.88282,0.02752
3143.82265,0.02734
3141.76248,0.02724
3139.70231,0.02716
3137.64213,0.02706
3135.58196,0.02688
3133.52179,0.02654
3131.46162,0.02624
3129.40145,0.02611
3127.34127,0.02597
3125.28110,0.02572
3123.22093,0.02546
3121.16076,0.02527
3119.10058,0.02508
3117.04041,0.02479
3114.98024,0.02437
3112.92007,0.02386
3110.85990,0.02347
3108.79972,0.02343
3106.73955,0.02344
3104.67938,0.02327
3102.61921,0.02303
3100.55904,0.02278
3098.49886,0.02264
3096.43869,0.02260
3094.37852,0.02244
3092.31835,0.02216
3090.25818,0.02186
3088.19800,0.02158
3086.13783,0.02132
3084.07766,0.02110
3082.01749,0.02076
3079.95731,0.02025
3077.89714,0.01990
3075.83697,0.01986
3073.77680,0.01989
3071.71663,0.01982
3069.65645,0.01954
3067.59628,0.01918
3065.53611,0.01890
3063.47594,0.01862
3061.41577,0.01836
3059.35559,0.01822
3057.29542,0.01813
3055.23525,0.01797
3053.17508,0.01791
3051.11491,0.01788
3049.05473,0.01760
3046.99456,0.01716
3044.93439,0.01682
3042.87422,0.01664
3040.81404,0.01660
3038.75387,0.01669
3036.69370,0.01676
3034.63353,0.01655
3032.57336,0.01620
3030.51318,0.01595
3028.45301,0.01570
3026.39284,0.01555
3024.33267,0.01552
3022.27250,0.01529
3020.21232,0.01498
3018.15215,0.01489
3016.09198,0.01489
3014.03181,0.01471
3011.97163,0.01441
3009.91146,0.01437
3007.85129,0.01458
3005.79112,0.01466
3003.73095,0.01456
3001.67077,0.01443
2999.61060,0.01432
2997.55043,0.01424
2995.49026,0.01425
2993.43009,0.01429
2991.36991,0.01425
2989.30974,0.01418
2987.24957,0.01422
2985.18940,0.01440
2983.12923,0.01442
2981.06905,0.01425
2979.00888,0.01437
2976.94871,0.01472
2974.88854,0.01487
2972.82836,0.01489
2970.76819,0.01503
2968.70802,0.01528
2966.64785,0.01550
2964.58768,0.01567
2962.52750,0.01588
2960.46733,0.01616
2958.40716,0.01649
2956.34699,0.01687
2954.28682,0.01727
2952.22664,0.01759
2950.16647,0.01781
2948.10630,0.01805
2946.04613,0.01832
2943.98596,0.01848
2941.92578,0.01861
2939.86561,0.01882
2937.80544,0.01899
2935.74527,0.01917
2933.68509,0.01932
2931.62492,0.01931
2929.56475,0.01926
2927.50458,0.01919
2925.44441,0.01904
2923.38423,0.01892
2921.32406,0.01875
2919.26389,0.01835
2917.20372,0.01797
2915.14355,0.01783
2913.08337,0.01782
2911.02320,0.01778
2908.96303,0.01761
2906.90286,0.01745
2904.84268,0.01745
2902.78251,0.01752
2900.72234,0.01749
2898.66217,0.01729
2896.60200,0.01705
2894.54182,0.01686
2892.48165,0.01676
2890.42148,0.01684
2888.36131,0.01692
2886.30114,0.01687
2884.24096,0.01677
2882.18079,0.01662
2880.12062,0.01650
2878.06045,0.01635
2876.00028,0.01602
2873.94010,0.01565
2871.87993,0.01544
2869.81976,0.01534
2867.75959,0.01519
2865.69941,0.01489
2863.63924,0.01461
2861.57907,0.01453
2859.51890,0.01448
2857.45873,0.01431
2855.39855,0.01410
2853.33838,0.01387
2851.27821,0.01365
2849.21804,0.01349
2847.15787,0.01336
2845.09769,0.01323
2843.03752,0.01313
2840.97735,0.01300
2838.91718,0.01287
2836.85700,0.01282
2834.79683,0.01277
2832.73666,0.01261
2830.67649,0.01246
2828.61632,0.01229
2826.55614,0.01204
2824.49597,0.01181
2822.43580,0.01176
2820.37563,0.01192
2818.31546,0.01203
2816.25528,0.01191
2814.19511,0.01168
2812.13494,0.01145
2810.07477,0.01132
2808.01460,0.01127
2805.95442,0.01117
2803.89425,0.01101
2801.83408,0.01083
2799.77391,0.01081
2797.71373,0.01097
2795.65356,0.01089
2793.59339,0.01057
2791.53322,0.01056
2789.47305,0.01075
2787.41287,0.01069
2785.35270,0.01048
2783.29253,0.01036
2781.23236,0.01028
2779.17219,0.01027
2777.11201,0.01029
2775.05184,0.01024
2772.99167,0.01020
2770.93150,0.01020
2768.87133,0.01018
2766.81115,0.01017
2764.75098,0.01019
2762.69081,0.01016
2760.63064,0.01006
2758.57046,0.00994
2756.51029,0.00991
2754.45012,0.00994
2752.38995,0.00994
2750.32978,0.01001
2748.26960,0.01018
2746.20943,0.01018
2744.14926,0.00997
2742.08909,0.00975
2740.02892,0.00959
2737.96874,0.00951
2735.90857,0.00946
2733.84840,0.00934
2731.78823,0.00922
2729.72805,0.00919
2727.66788,0.00911
2725.60771,0.00895
2723.54754,0.00885
2721.48737,0.00887
2719.42719,0.00895
2717.36702,0.00907
2715.30685,0.00907
2713.24668,0.00890
2711.18651,0.00878
2709.12633,0.00879
2707.06616,0.00884
2705.00599,0.00883
2702.94582,0.00877
2700.88565,0.00869
2698.82547,0.00875
2696.76530,0.00885
2694.70513,0.00879
2692.64496,0.00860
2690.58478,0.00840
2688.52461,0.00826
2686.46444,0.00826
2684.40427,0.00833
2682.34410,0.00842
2680.28392,0.00851
2678.22375,0.00849
2676.16358,0.00831
2674.10341,0.00809
2672.04324,0.00796
2669.98306,0.00788
2667.92289,0.00788
2665.86272,0.00798
2663.80255,0.00800
2661.74238,0.00796
2659.68220,0.00797
2657.62203,0.00804
2655.56186,0.00810
2653.50169,0.00800
2651.44151,0.00773
2649.38134,0.00750
2647.32117,0.00748
2645.26100,0.00761
2643.20083,0.00774
2641.14065,0.00768
2639.08048,0.00747
2637.02031,0.00727
2634.96014,0.00709
2632.89997,0.00702
2630.83979,0.00711
2628.77962,0.00715
2626.71945,0.00705
2624.65928,0.00690
2622.59910,0.00675
2620.53893,0.00666
2618.47876,0.00647
2616.41859,0.00614
2614.35842,0.00612
2612.29824,0.00650
2610.23807,0.00671
2608.17790,0.00652
2606.11773,0.00631
2604.05756,0.00623
2601.99738,0.00616
2599.93721,0.00615
2597.87704,0.00622
2595.81687,0.00614
2593.75670,0.00600
2591.69652,0.00602
2589.63635,0.00612
2587.57618,0.00608
2585.51601,0.00588
2583.45583,0.00578
2581.39566,0.00584
2579.33549,0.00575
2577.27532,0.00550
2575.21515,0.00542
2573.15497,0.00543
2571.09480,0.00539
2569.03463,0.00532
2566.97446,0.00526
2564.91429,0.00540
2562.85411,0.00573
2560.79394,0.00583
2558.73377,0.00559
2556.67360,0.00536
2554.61342,0.00527
2552.55325,0.00523
2550.49308,0.00529
2548.43291,0.00545
2546.37274,0.00569
2544.31256,0.00580
2542.25239,0.00548
2540.19222,0.00497
2538.13205,0.00463
2536.07188,0.00449
2534.01170,0.00460
2531.95153,0.00491
2529.89136,0.00526
2527.83119,0.00541
2525.77102,0.00530
2523.71084,0.00510
2521.65067,0.00498
2519.59050,0.00508
2517.53033,0.00531
2515.47015,0.00527
2513.40998,0.00518
2511.34981,0.00537
2509.28964,0.00546
2507.22947,0.00539
2505.16929,0.00538
2503.10912,0.00537
2501.04895,0.00522
2498.98878,0.00503
2496.92861,0.00502
2494.86843,0.00525
2492.80826,0.00532
2490.74809,0.00501
2488.68792,0.00479
2486.62775,0.00477
2484.56757,0.00463
2482.50740,0.00452
2480.44723,0.00472
2478.38706,0.00490
2476.32688,0.00477
2474.26671,0.00449
2472.20654,0.00436
2470.14637,0.00448
2468.08620,0.00474
2466.02602,0.00484
2463.96585,0.00471
2461.90568,0.00463
2459.84551,0.00476
2457.78534,0.00511
2455.72516,0.00534
2453.66499,0.00512
2451.60482,0.00482
2449.54465,0.00487
2447.48447,0.00506
2445.42430,0.00519
2443.36413,0.00516
2441.30396,0.00483
2439.24379,0.00446
2437.18361,0.00444
2435.12344,0.00463
2433.06327,0.00461
2431.00310,0.00433
2428.94293,0.00410
2426.88275,0.00418
2424.82258,0.00444
2422.76241,0.00466
2420.70224,0.00473
2418.64207,0.00469
2416.58189,0.00464
2414.52172,0.00452
2412.46155,0.00439
2410.40138,0.00441
2408.34120,0.00451
2406.28103,0.00464
2404.22086,0.00471
2402.16069,0.00454
2400.10052,0.00436
2398.04034,0.00435
2395.98017,0.00427
2393.92000,0.00397
2391.85983,0.00385
2389.79966,0.00421
2387.73948,0.00470
2385.67931,0.00488
2383.61914,0.00472
2381.55897,0.00443
2379.49880,0.00411
2377.43862,0.00385
2375.37845,0.00372
2373.31828,0.00400
2371.25811,0.00450
2369.19793,0.00398
2367.13776,0.00266
2365.07759,0.00281
2363.01742,0.00421
2360.95725,0.00548
2358.89707,0.00566
2356.83690,0.00626
2354.77673,0.00704
2352.71656,0.00668
2350.65639,0.00633
2348.59621,0.00584
2346.53604,0.00410
2344.47587,0.00420
2342.41570,0.00545
2340.35552,0.00640
2338.29535,0.00671
2336.23518,0.00605
2334.17501,0.00488
2332.11484,0.00408
2330.05466,0.00414
2327.99449,0.00428
2325.93432,0.00468
2323.87415,0.00519
2321.81398,0.00568
2319.75380,0.00541
2317.69363,0.00510
2315.63346,0.00484
2313.57329,0.00479
2311.51312,0.00500
2309.45294,0.00515
2307.39277,0.00517
2305.33260,0.00519
2303.27243,0.00515
2301.21225,0.00492
2299.15208,0.00481
2297.09191,0.00479
2295.03174,0.00471
2292.97157,0.00466
2290.91139,0.00466
2288.85122,0.00458
2286.79105,0.00445
2284.73088,0.00446
2282.67071,0.00451
2280.61053,0.00443
2278.55036,0.00428
2276.49019,0.00427
2274.43002,0.00436
2272.36984,0.00440
2270.30967,0.00435
2268.24950,0.00396
2266.18933,0.00348
2264.12916,0.00367
2262.06898,0.00437
2260.00881,0.00477
2257.94864,0.00469
2255.88847,0.00433
2253.82830,0.00410
2251.76812,0.00424
2249.70795,0.00428
2247.64778,0.00403
2245.58761,0.00395
2243.52744,0.00400
2241.46726,0.00400
2239.40709,0.00399
2237.34692,0.00396
2235.28675,0.00408
2233.22657,0.00412
2231.16640,0.00365
2229.10623,0.00317
2227.04606,0.00314
2224.98589,0.00343
2222.92571,0.00366
2220.86554,0.00349
2218.80537,0.00315
2216.74520,0.00313
2214.68503,0.00341
2212.62485,0.00353
2210.56468,0.00332
2208.50451,0.00317
2206.44434,0.00317
2204.38417,0.00310
2202.32399,0.00312
2200.26382,0.00353
2198.20365,0.00421
2196.14348,0.00438
2194.08330,0.00389
2192.02313,0.00342
2189.96296,0.00313
2187.90279,0.00267
2185.84262,0.00263
2183.78244,0.00344
2181.72227,0.00430
2179.66210,0.00431
2177.60193,0.00339
2175.54176,0.00224
2173.48158,0.00175
2171.42141,0.00224
2169.36124,0.00287
2167.30107,0.00341
2165.24089,0.00420
2163.18072,0.00428
2161.12055,0.00311
2159.06038,0.00159
2157.00021,0.00075
2154.94003,0.00155
2152.87986,0.00323
2150.81969,0.00367
2148.75952,0.00274
2146.69935,0.00193
2144.63917,0.00151
2142.57900,0.00116
2140.51883,0.00125
2138.45866,0.00118
2136.39849,0.00071
2134.33831,0.00089
2132.27814,0.00151
2130.21797,0.00193
2128.15780,0.00237
2126.09762,0.00255
2124.03745,0.00248
2121.97728,0.00259
2119.91711,0.00263
2117.85694,0.00273
2115.79676,0.00324
2113.73659,0.00346
2111.67642,0.00309
2109.61625,0.00303
2107.55608,0.00357
2105.49590,0.00410
2103.43573,0.00416
2101.37556,0.00392
2099.31539,0.00391
2097.25521,0.00402
2095.19504,0.00376
2093.13487,0.00342
2091.07470,0.00364
2089.01453,0.00405
2086.95435,0.00419
2084.89418,0.00402
2082.83401,0.00358
2080.77384,0.00347
2078.71367,0.00389
2076.65349,0.00415
2074.59332,0.00416
2072.53315,0.00391
2070.47298,0.00306
2068.41281,0.00245
2066.35263,0.00252
2064.29246,0.00229
2062.23229,0.00170
2060.17212,0.00147
2058.11194,0.00197
2056.05177,0.00290
2053.99160,0.00343
2051.93143,0.00329
2049.87126,0.00260
2047.81108,0.00147
2045.75091,0.00036
2043.69074,0.00000
2041.63057,0.00101
2039.57040,0.00288
2037.51022,0.00391
2035.45005,0.00296
2033.38988,0.00102
2031.32971,0.00048
2029.26954,0.00201
2027.20936,0.00354
2025.14919,0.00362
2023.08902,0.00324
2021.02885,0.00293
2018.96867,0.00194
2016.90850,0.00060
2014.84833,0.00024
2012.78816,0.00058
2010.72799,0.00089
2008.66781,0.00137
2006.60764,0.00169
2004.54747,0.00137
2002.48730,0.00097
2000.42713,0.00103
1998.36695,0.00136
1996.30678,0.00153
1994.24661,0.00149
1992.18644,0.00174
1990.12626,0.00220
1988.06609,0.00251
1986.00592,0.00266
1983.94575,0.00254
1981.88558,0.00189
1979.82540,0.00083
1977.76523,0.00000
1975.70506,0.00010
1973.64489,0.00124
1971.58472,0.00198
1969.52454,0.00145
1967.46437,0.00118
1965.40420,0.00165
1963.34403,0.00164
1961.28386,0.00134
1959.22368,0.00132
1957.16351,0.00144
1955.10334,0.00154
1953.04317,0.00160
1950.98299,0.00201
1948.92282,0.00249
1946.86265,0.00239
1944.80248,0.00214
1942.74231,0.00212
1940.68213,0.00187
1938.62196,0.00160
1936.56179,0.00171
1934.50162,0.00161
1932.44145,0.00105
1930.38127,0.00073
1928.32110,0.00101
1926.26093,0.00161
1924.20076,0.00196
1922.14059,0.00181
1920.08041,0.00159
1918.02024,0.00176
1915.96007,0.00212
1913.89990,0.00220
1911.83972,0.00208
1909.77955,0.00193
1907.71938,0.00178
1905.65921,0.00174
1903.59904,0.00171
1901.53886,0.00158
1899.47869,0.00146
1897.41852,0.00145
1895.35835,0.00152
1893.29818,0.00169
1891.23800,0.00186
1889.17783,0.00184
1887.11766,0.00164
1885.05749,0.00153
1882.99731,0.00157
1880.93714,0.00150
1878.87697,0.00129
1876.81680,0.00117
1874.75663,0.00125
1872.69645,0.00131
1870.63628,0.00128
1868.57611,0.00125
1866.51594,0.00124
1864.45577,0.00130
1862.39559,0.00146
1860.33542,0.00156
1858.27525,0.00139
1856.21508,0.00112
1854.15491,0.00113
1852.09473,0.00133
1850.03456,0.00128
1847.97439,0.00099
1845.91422,0.00077
1843.85404,0.00094
1841.79387,0.00137
1839.73370,0.00158
1837.67353,0.00148
1835.61336,0.00119
1833.55318,0.00089
1831.49301,0.00079
1829.43284,0.00095
1827.37267,0.00120
1825.31250,0.00139
1823.25232,0.00145
1821.19215,0.00128
1819.13198,0.00103
1817.07181,0.00085
1815.01163,0.00075
1812.95146,0.00069
1810.89129,0.00068
1808.83112,0.00080
1806.77095,0.00096
1804.71077,0.00090
1802.65060,0.00069
1800.59043,0.00057
1798.53026,0.00059
1796.47009,0.00053
1794.40991,0.00041
1792.34974,0.00046
1790.28957,0.00068
1788.22940,0.00090
1786.16923,0.00110
1784.10905,0.00119
1782.04888,0.00106
1779.98871,0.00088
1777.92854,0.00085
1775.86836,0.00082
1773.80819,0.00067
1771.74802,0.00058
1769.68785,0.00074
1767.62768,0.00115
1765.56750,0.00158
1763.50733,0.00184
1761.44716,0.00204
1759.38699,0.00227
1757.32682,0.00271
1755.26664,0.00328
1753.20647,0.00363
1751.14630,0.00383
1749.08613,0.00425
1747.02596,0.00481
1744.96578,0.00522
1742.90561,0.00548
1740.84544,0.00580
1738.78527,0.00609
1736.72509,0.00617
1734.66492,0.00628
1732.60475,0.00656
1730.54458,0.00672
1728.48441,0.00672
1726.42423,0.00661
1724.36406,0.00639
1722.30389,0.00607
1720.24372,0.00569
1718.18355,0.00536
1716.12337,0.00524
1714.06320,0.00520
1712.00303,0.00498
1709.94286,0.00467
1707.88268,0.00443
1705.82251,0.00423
1703.76234,0.00400
1701.70217,0.00379
1699.64200,0.00374
1697.58182,0.00383
1695.52165,0.00400
1693.46148,0.00414
1691.40131,0.00417
1689.34114,0.00416
1687.28096,0.00412
1685.22079,0.00435
1683.16062,0.00501
1681.10045,0.00556
1679.04028,0.00585
1676.98010,0.00609
1674.91993,0.00638
1672.85976,0.00677
1670.79959,0.00742
1668.73941,0.00827
1666.67924,0.00886
1664.61907,0.00915
1662.55890,0.00956
1660.49873,0.01014
1658.43855,0.01062
1656.37838,0.01088
1654.31821,0.01120
1652.25804,0.01182
1650.19787,0.01218
1648.13769,0.01233
1646.07752,0.01272
1644.01735,0.01300
1641.95718,0.01299
1639.89701,0.01288
1637.83683,0.01282
1635.77666,0.01310
1633.71649,0.01354
1631.65632,0.01359
1629.59614,0.01342
1627.53597,0.01341
1625.47580,0.01353
1623.41563,0.01367
1621.35546,0.01372
1619.29528,0.01364
1617.23511,0.01360
1615.17494,0.01367
1613.11477,0.01361
1611.05460,0.01340
1608.99442,0.01316
1606.93425,0.01291
1604.87408,0.01257
1602.81391,0.01206
1600.75373,0.01145
1598.69356,0.01083
1596.63339,0.01024
1594.57322,0.00970
1592.51305,0.00917
1590.45287,0.00852
1588.39270,0.00770
1586.33253,0.00692
1584.27236,0.00633
1582.21219,0.00582
1580.15201,0.00528
1578.09184,0.00464
1576.03167,0.00403
1573.97150,0.00368
1571.91133,0.00345
1569.85115,0.00324
1567.79098,0.00306
1565.73081,0.00277
1563.67064,0.00236
1561.61046,0.00210
1559.55029,0.00219
1557.49012,0.00242
1555.42995,0.00229
1553.36978,0.00193
1551.30960,0.00163
1549.24943,0.00143
1547.18926,0.00124
1545.12909,0.00094
1543.06892,0.00057
1541.00874,0.00034
1538.94857,0.00042
1536.88840,0.00053
1534.82823,0.00056
1532.76805,0.00067
1530.70788,0.00079
1528.64771,0.00077
1526.58754,0.00070
1524.52737,0.00064
1522.46719,0.00048
1520.40702,0.00028
1518.34685,0.00018
1516.28668,0.00021
1514.22651,0.00023
1512.16633,0.00012
1510.10616,0.00000
1508.04599,0.00010
1505.98582,0.00055
1503.92565,0.00096
1501.86547,0.00108
1499.80530,0.00100
1497.74513,0.00096
1495.68496,0.00118
1493.62478,0.00140
1491.56461,0.00137
1489.50444,0.00140
1487.44427,0.00172
1485.38410,0.00200
1483.32392,0.00203
1481.26375,0.00203
1479.20358,0.00215
1477.14341,0.00248
1475.08324,0.00305
1473.02306,0.00380
1470.96289,0.00445
1468.90272,0.00479
1466.84255,0.00506
1464.78238,0.00550
1462.72220,0.00588
1460.66203,0.00602
1458.60186,0.00625
1456.54169,0.00682
1454.48151,0.00720
1452.42134,0.00725
1450.36117,0.00726
1448.30100,0.00739
1446.24083,0.00770
1444.18065,0.00806
1442.12048,0.00827
1440.06031,0.00837
1438.00014,0.00856
1435.93997,0.00891
1433.87979,0.00922
1431.81962,0.00943
1429.75945,0.00969
1427.69928,0.00995
1425.63910,0.01015
1423.57893,0.01036
1421.51876,0.01062
1419.45859,0.01089
1417.39842,0.01116
1415.33824,0.01132
1413.27807,0.01141
1411.21790,0.01146
1409.15773,0.01143
1407.09756,0.01125
1405.03738,0.01099
1402.97721,0.01068
1400.91704,0.01035
1398.85687,0.01005
1396.79670,0.00982
1394.73652,0.00959
1392.67635,0.00941
1390.61618,0.00934
1388.55601,0.00938
1386.49583,0.00955
1384.43566,0.00984
1382.37549,0.01013
1380.31532,0.01031
1378.25515,0.01046
1376.19497,0.01061
1374.13480,0.01077
1372.07463,0.01094
1370.01446,0.01102
1367.95429,0.01095
1365.89411,0.01074
1363.83394,0.01053
1361.77377,0.01042
1359.71360,0.01032
1357.65343,0.01017
1355.59325,0.01003
1353.53308,0.00987
1351.47291,0.00966
1349.41274,0.00949
1347.35256,0.00937
1345.29239,0.00920
1343.23222,0.00898
1341.17205,0.00875
1339.11188,0.00863
1337.05170,0.00867
1334.99153,0.00876
1332.93136,0.00882
1330.87119,0.00891
1328.81102,0.00906
1326.75084,0.00919
1324.69067,0.00921
1322.63050,0.00916
1320.57033,0.00915
1318.51015,0.00920
1316.44998,0.00926
1314.38981,0.00932
1312.32964,0.00936
1310.26947,0.00933
1308.20929,0.00918
1306.14912,0.00895
1304.08895,0.00866
1302.02878,0.00838
1299.96861,0.00821
1297.90843,0.00808
1295.84826,0.00789
1293.78809,0.00774
1291.72792,0.00769
1289.66775,0.00765
1287.60757,0.00754
1285.54740,0.00738
1283.48723,0.00723
1281.42706,0.00720
1279.36688,0.00733
1277.30671,0.00755
1275.24654,0.00772
1273.18637,0.00781
1271.12620,0.00798
1269.06602,0.00829
1267.00585,0.00868
1264.94568,0.00909
1262.88551,0.00951
1260.82534,0.00993
1258.76516,0.01027
1256.70499,0.01052
1254.64482,0.01073
1252.58465,0.01093
1250.52447,0.01115
1248.46430,0.01133
1246.40413,0.01138
1244.34396,0.01133
1242.28379,0.01119
1240.22361,0.01093
1238.16344,0.01064
1236.10327,0.01044
1234.04310,0.01027
1231.98293,0.00999
1229.92275,0.00947
1227.86258,0.00888
1225.80241,0.00845
1223.74224,0.00813
1221.68207,0.00777
1219.62189,0.00741
1217.56172,0.00711
1215.50155,0.00670
1213.44138,0.00615
1211.38120,0.00553
1209.32103,0.00494
1207.26086,0.00433
1205.20069,0.00361
1203.14052,0.00284
1201.08034,0.00222
1199.02017,0.00176
1196.96000,0.00138
1194.89983,0.00101
1192.83966,0.00062
1190.77948,0.00027
1188.71931,0.00004
1186.65914,0.00000
1184.59897,0.00014
1182.53880,0.00044
1180.47862,0.00085
1178.41845,0.00137
1176.35828,0.00212
1174.29811,0.00303
1172.23793,0.00388
1170.17776,0.00472
1168.11759,0.00570
1166.05742,0.00667
1163.99725,0.00741
1161.93707,0.00810
1159.87690,0.00888
1157.81673,0.00970
1155.75656,0.01043
1153.69639,0.01096
1151.63621,0.01141
1149.57604,0.01195
1147.51587,0.01250
1145.45570,0.01295
1143.39552,0.01331
1141.33535,0.01359
1139.27518,0.01376
1137.21501,0.01394
1135.15484,0.01433
1133.09466,0.01491
1131.03449,0.01556
1128.97432,0.01606
1126.91415,0.01654
1124.85398,0.01722
1122.79380,0.01807
1120.73363,0.01877
1118.67346,0.01925
1116.61329,0.01979
1114.55312,0.02046
1112.49294,0.02119
1110.43277,0.02203
1108.37260,0.02283
1106.31243,0.02342
1104.25225,0.02400
1102.19208,0.02481
1100.13191,0.02586
1098.07174,0.02691
1096.01157,0.02779
1093.95139,0.02874
1091.89122,0.02989
1089.83105,0.03097
1087.77088,0.03184
1085.71071,0.03257
1083.65053,0.03320
1081.59036,0.03386
1079.53019,0.03472
1077.47002,0.03573
1075.40985,0.03673
1073.34967,0.03754
1071.28950,0.03812
1069.22933,0.03864
1067.16916,0.03917
1065.10898,0.03961
1063.04881,0.03994
1060.98864,0.04015
1058.92847,0.04035
1056.86830,0.04072
1054.80812,0.04130
1052.74795,0.04184
1050.68778,0.04219
1048.62761,0.04258
1046.56744,0.04321
1044.50726,0.04390
1042.44709,0.04449
1040.38692,0.04498
1038.32675,0.04524
1036.26657,0.04531
1034.20640,0.04539
1032.14623,0.04547
1030.08606,0.04538
1028.02589,0.04521
1025.96571,0.04515
1023.90554,0.04513
1021.84537,0.04513
1019.78520,0.04526
1017.72503,0.04536
1015.66485,0.04527
1013.60468,0.04509
1011.54451,0.04484
1009.48434,0.04448
1007.42417,0.04405
1005.36399,0.04365
1003.30382,0.04332
1001.24365,0.04306
999.18348,0.04279
997.12330,0.04220
995.06313,0.04137
993.00296,0.04069
990.94279,0.04011
988.88262,0.03943
986.82244,0.03873
984.76227,0.03824
982.70210,0.03799
980.64193,0.03778
978.58176,0.03735
976.52158,0.03680
974.46141,0.03634
972.40124,0.03599
970.34107,0.03541
968.28089,0.03449
966.22072,0.03362
964.16055,0.03297
962.10038,0.03244
960.04021,0.03179
957.98003,0.03085
955.91986,0.03000
953.85969,0.02945
951.79952,0.02884
949.73935,0.02794
947.67917,0.02689
945.61900,0.02587
943.55883,0.02468
941.49866,0.02307
939.43849,0.02135
937.37831,0.01967
935.31814,0.01789
933.25797,0.01621
931.19780,0.01478
929.13762,0.01344
927.07745,0.01216
925.01728,0.01104
922.95711,0.01018
920.89694,0.00957
918.83676,0.00907
916.77659,0.00850
914.71642,0.00780
912.65625,0.00703
910.59608,0.00652
908.53590,0.00642
906.47573,0.00619
904.41556,0.00573
902.35539,0.00572
900.29522,0.00612
898.23504,0.00642
896.17487,0.00646
894.11470,0.00612
892.05453,0.00565
889.99435,0.00555
887.93418,0.00547
885.87401,0.00511
883.81384,0.00479
881.75367,0.00452
879.69349,0.00412
877.63332,0.00378
875.57315,0.00363
873.51298,0.00357
871.45281,0.00352
869.39263,0.00343
867.33246,0.00326
865.27229,0.00305
863.21212,0.00294
861.15194,0.00283
859.09177,0.00257
857.03160,0.00239
854.97143,0.00247
852.91126,0.00263
850.85108,0.00242
848.79091,0.00185
846.73074,0.00135
844.67057,0.00100
842.61040,0.00076
840.55022,0.00066
838.49005,0.00051
836.42988,0.00028
834.36971,0.00015
832.30954,0.00000
830.24936,-0.00009
828.18919,0.00017
826.12902,0.00040
824.06885,0.00015
822.00867,-0.00003
819.94850,0.00030
817.88833,0.00058
815.82816,0.00066
813.76799,0.00087
811.70781,0.00102
809.64764,0.00096
807.58747,0.00092
805.52730,0.00105
803.46713,0.00135
801.40695,0.00156
799.34678,0.00157
797.28661,0.00145
795.22644,0.00112
793.16627,0.00058
791.10609,0.00021
789.04592,0.00023
786.98575,0.00028
784.92558,0.00032
782.86540,0.00053
780.80523,0.00045
778.74506,-0.00006
776.68489,-0.00031
774.62472,0.00000
772.56454,0.00040
770.50437,0.00042
768.44420,0.00010
766.38403,-0.00012
764.32386,0.00009
762.26368,0.00043
760.20351,0.00053
758.14334,0.00030
756.08317,0.00007
754.02299,0.00005
751.96282,0.00000
749.90265,0.00006
747.84248,0.00031
745.78231,0.00057
743.72213,0.00071
741.66196,0.00049
739.60179,-0.00006
737.54162,-0.00043
735.48145,-0.00023
733.42127,0.00014
731.36110,0.00031
729.30093,0.00038
727.24076,0.00026
725.18059,0.00007
723.12041,0.00016
721.06024,-0.00004
719.00007,0.00004
716.93990,0.00052
714.87972,0.00105
712.81955,0.00132
710.75938,0.00131
708.69921,0.00147
706.63904,0.00193
704.57886,0.00199
702.51869,0.00148
700.45852,0.00139
698.39835,0.00207
696.33818,0.00288
694.27800,0.00333
692.21783,0.00299
690.15766,0.00218
688.09749,0.00190
686.03731,0.00231
683.97714,0.00278
681.91697,0.00314
679.85680,0.00351
677.79663,0.00367
675.73645,0.00366
673.67628,0.00431
671.61611,0.00509
669.55594,0.00281
667.49577,0.00027
665.43559,0.00319
663.37542,0.00305
661.31525,0.00194
659.25508,0.00172
657.19491,0.00211
655.13473,0.00236
653.07456,0.00233
651.01439,0.00211
648.95422,0.00192
646.89404,0.00190
644.83387,0.00194
642.77370,0.00238
640.71353,0.00258
638.65336,0.00158
636.59318,0.00022
634.53301,0.00000
632.47284,0.00093
630.41267,0.00230
628.35250,0.00296
626.29232,0.00216
624.23215,0.00090
622.17198,0.00075
620.11181,0.00018
618.05164,-0.00135
615.99146,-0.00129
613.93129,0.00018
611.87112,0.00136
609.81095,0.00238
607.75077,0.00239
605.69060,0.00074
603.63043,-0.00045
601.57026,0.00012
599.51009,0.00000
