3996.73391,-0.00018
3994.67373,-0.00017
3992.61356,0.00020
3990.55339,0.00029
3988.49322,0.00021
3986.43305,0.00044
3984.37287,0.00050
3982.31270,0.00016
3980.25253,0.00000
3978.19236,0.00024
3976.13219,0.00060
3974.07201,0.00085
3972.01184,0.00111
3969.95167,0.00138
3967.89150,0.00148
3965.83133,0.00129
3963.77115,0.00106
3961.71098,0.00090
3959.65081,0.00073
3957.59064,0.00060
3955.53046,0.00067
3953.47029,0.00075
3951.41012,0.00075
3949.34995,0.00093
3947.28978,0.00113
3945.22960,0.00092
3943.16943,0.00052
3941.10926,0.00042
3939.04909,0.00070
3936.98892,0.00120
3934.92874,0.00171
3932.86857,0.00171
3930.80840,0.00087
3928.74823,0.00000
3926.68805,0.00013
3924.62788,0.00092
3922.56771,0.00123
3920.50754,0.00088
3918.44737,0.00056
3916.38719,0.00056
3914.32702,0.00079
3912.26685,0.00124
3910.20668,0.00152
3908.14651,0.00137
3906.08633,0.00137
3904.02616,0.00215
3901.96599,0.00310
3899.90582,0.00317
3897.84565,0.00248
3895.78547,0.00179
3893.72530,0.00152
3891.66513,0.00172
3889.60496,0.00193
3887.54478,0.00162
3885.48461,0.00107
3883.42444,0.00102
3881.36427,0.00159
3879.30410,0.00223
3877.24392,0.00254
3875.18375,0.00268
3873.12358,0.00274
3871.06341,0.00264
3869.00324,0.00217
3866.94306,0.00138
3864.88289,0.00098
3862.82272,0.00142
3860.76255,0.00185
3858.70237,0.00168
3856.64220,0.00119
3854.58203,0.00074
3852.52186,0.00090
3850.46169,0.00185
3848.40151,0.00266
3846.34134,0.00277
3844.28117,0.00250
3842.22100,0.00216
3840.16083,0.00167
3838.10065,0.00126
3836.04048,0.00136
3833.98031,0.00175
3831.92014,0.00212
3829.85997,0.00244
3827.79979,0.00282
3825.73962,0.00318
3823.67945,0.00317
3821.61928,0.00274
3819.55910,0.00219
3817.49893,0.00190
3815.43876,0.00184
3813.37859,0.00182
3811.31842,0.00196
3809.25824,0.00229
3807.19807,0.00257
3805.13790,0.00275
3803.07773,0.00306
3801.01756,0.00341
3798.95738,0.00357
3796.89721,0.00351
3794.83704,0.00306
3792.77687,0.00256
3790.71670,0.00245
3788.65652,0.00245
3786.59635,0.00227
3784.53618,0.00196
3782.47601,0.00156
3780.41583,0.00141
3778.35566,0.00179
3776.29549,0.00242
3774.23532,0.00306
3772.17515,0.00339
3770.11497,0.00326
3768.05480,0.00311
3765.99463,0.00324
3763.93446,0.00362
3761.87429,0.00398
3759.81411,0.00381
3757.75394,0.00298
3755.69377,0.00201
3753.63360,0.00107
3751.57342,0.00022
3749.51325,0.00000
3747.45308,0.00054
3745.39291,0.00198
3743.33274,0.00362
3741.27256,0.00439
3739.21239,0.00459
3737.15222,0.00446
3735.09205,0.00389
3733.03188,0.00317
3730.97170,0.00277
3728.91153,0.00274
3726.85136,0.00298
3724.79119,0.00312
3722.73102,0.00275
3720.67084,0.00221
3718.61067,0.00200
3716.55050,0.00217
3714.49033,0.00208
3712.43015,0.00166
3710.36998,0.00190
3708.30981,0.00283
3706.24964,0.00357
3704.18947,0.00352
3702.12929,0.00314
3700.06912,0.00313
3698.00895,0.00317
3695.94878,0.00292
3693.88861,0.00254
3691.82843,0.00248
3689.76826,0.00272
3687.70809,0.00275
3685.64792,0.00274
3683.58775,0.00297
3681.52757,0.00306
3679.46740,0.00302
3677.40723,0.00286
3675.34706,0.00230
3673.28688,0.00197
3671.22671,0.00278
3669.16654,0.00401
3667.10637,0.00416
3665.04620,0.00328
3662.98602,0.00230
3660.92585,0.00183
3658.86568,0.00200
3656.80551,0.00263
3654.74534,0.00335
3652.68516,0.00380
3650.62499,0.00370
3648.56482,0.00336
3646.50465,0.00350
3644.44447,0.00389
3642.38430,0.00394
3640.32413,0.00369
3638.26396,0.00380
3636.20379,0.00445
3634.14361,0.00506
3632.08344,0.00518
3630.02327,0.00497
3627.96310,0.00509
3625.90293,0.00568
3623.84275,0.00604
3621.78258,0.00598
3619.72241,0.00623
3617.66224,0.00713
3615.60207,0.00766
3613.54189,0.00732
3611.48172,0.00708
3609.42155,0.00782
3607.36138,0.00882
3605.30120,0.00911
3603.24103,0.00896
3601.18086,0.00873
3599.12069,0.00840
3597.06052,0.00839
3595.00034,0.00926
3592.94017,0.01008
3590.88000,0.00997
3588.81983,0.00974
3586.75966,0.01048
3584.69948,0.01134
3582.63931,0.01137
3580.57914,0.01128
3578.51897,0.01170
3576.45879,0.01207
3574.39862,0.01210
3572.33845,0.01212
3570.27828,0.01209
3568.21811,0.01226
3566.15793,0.01306
3564.09776,0.01403
3562.03759,0.01459
3559.97742,0.01486
3557.91725,0.01528
3555.85707,0.01597
3553.79690,0.01639
3551.73673,0.01615
3549.67656,0.01586
3547.61639,0.01635
3545.55621,0.01725
3543.49604,0.01775
3541.43587,0.01814
3539.37570,0.01878
3537.31552,0.01932
3535.25535,0.01952
3533.19518,0.01986
3531.13501,0.02060
3529.07484,0.02112
3527.01466,0.02093
3524.95449,0.02071
3522.89432,0.02104
3520.83415,0.02161
3518.77398,0.02219
3516.71380,0.02270
3514.65363,0.02316
3512.59346,0.02383
3510.53329,0.02470
3508.47312,0.02537
3506.41294,0.02564
3504.35277,0.02561
3502.29260,0.02565
3500.23243,0.02602
3498.17225,0.02656
3496.11208,0.02695
3494.05191,0.02723
3491.99174,0.02766
3489.93157,0.02835
3487.87139,0.02914
3485.81122,0.03001
3483.75105,0.03073
3481.69088,0.03090
3479.63071,0.03063
3477.57053,0.03013
3475.51036,0.02984
3473.45019,0.03054
3471.39002,0.03193
3469.32984,0.03266
3467.26967,0.03259
3465.20950,0.03280
3463.14933,0.03339
3461.08916,0.03362
3459.02898,0.03364
3456.96881,0.03398
3454.90864,0.03471
3452.84847,0.03557
3450.78830,0.03599
3448.72812,0.03615
3446.66795,0.03673
3444.60778,0.03725
3442.54761,0.03730
3440.48744,0.03739
3438.42726,0.03763
3436.36709,0.03775
3434.30692,0.03795
3432.24675,0.03844
3430.18657,0.03903
3428.12640,0.03933
3426.06623,0.03953
3424.00606,0.03996
3421.94589,0.04049
3419.88571,0.04087
3417.82554,0.04101
3415.76537,0.04121
3413.70520,0.04188
3411.64503,0.04279
3409.58485,0.04331
3407.52468,0.04350
3405.46451,0.04371
3403.40434,0.04394
3401.34416,0.04424
3399.28399,0.04451
3397.22382,0.04456
3395.16365,0.04460
3393.10348,0.04474
3391.04330,0.04493
3388.98313,0.04537
3386.92296,0.04600
3384.86279,0.04629
3382.80262,0.04640
3380.74244,0.04674
3378.68227,0.04687
3376.62210,0.04666
3374.56193,0.04684
3372.50176,0.04742
3370.44158,0.04764
3368.38141,0.04768
3366.32124,0.04777
3364.26107,0.04754
3362.20089,0.04741
3360.14072,0.04773
3358.08055,0.04799
3356.02038,0.04781
3353.96021,0.04779
3351.90003,0.04846
3349.83986,0.04923
3347.77969,0.04940
3345.71952,0.04892
3343.65935,0.04838
3341.59917,0.04839
3339.53900,0.04905
3337.47883,0.04982
3335.41866,0.05029
3333.35849,0.05061
3331.29831,0.05064
3329.23814,0.05001
3327.17797,0.04933
3325.11780,0.04942
3323.05762,0.05012
3320.99745,0.05083
3318.93728,0.05115
3316.87711,0.05096
3314.81694,0.05086
3312.75676,0.05126
3310.69659,0.05154
3308.63642,0.05149
3306.57625,0.05146
3304.51608,0.05136
3302.45590,0.05107
3300.39573,0.05099
3298.33556,0.05117
3296.27539,0.05119
3294.21521,0.05128
3292.15504,0.05184
3290.09487,0.05221
3288.03470,0.05186
3285.97453,0.05131
3283.91435,0.05113
3281.85418,0.05142
3279.79401,0.05171
3277.73384,0.05182
3275.67367,0.05192
3273.61349,0.05197
3271.55332,0.05175
3269.49315,0.05122
3267.43298,0.05077
3265.37281,0.05068
3263.31263,0.05080
3261.25246,0.05115
3259.19229,0.05155
3257.13212,0.05132
3255.07194,0.05072
3253.01177,0.05047
3250.95160,0.05039
3248.89143,0.05049
3246.83126,0.05086
3244.77108,0.05100
3242.71091,0.05058
3240.65074,0.04999
3238.59057,0.04980
3236.53040,0.04985
3234.47022,0.04967
3232.41005,0.04934
3230.34988,0.04899
3228.28971,0.04850
3226.22954,0.04821
3224.16936,0.04818
3222.10919,0.04822
3220.04902,0.04842
3217.98885,0.04859
3215.92867,0.04855
3213.86850,0.04837
3211.80833,0.04819
3209.74816,0.04842
3207.68799,0.04888
3205.62781,0.04867
3203.56764,0.04795
3201.50747,0.04757
3199.44730,0.04743
3197.38713,0.04717
3195.32695,0.04699
3193.26678,0.04681
3191.20661,0.04638
3189.14644,0.04586
3187.08626,0.04530
3185.02609,0.04492
3182.96592,0.04501
3180.90575,0.04495
3178.84558,0.04452
3176.78540,0.04432
3174.72523,0.04413
3172.66506,0.04341
3170.60489,0.04273
3168.54472,0.04278
3166.48454,0.04312
3164.42437,0.04286
3162.36420,0.04229
3160.30403,0.04194
3158.24386,0.04177
3156.18368,0.04180
3154.12351,0.04190
3152.06334,0.04205
3150.00317,0.04212
3147.94299,0.04166
3145.88282,0.04082
3143.82265,0.04036
3141.76248,0.04028
3139.70231,0.03996
3137.64213,0.03948
3135.58196,0.03931
3133.52179,0.03938
3131.46162,0.03915
3129.40145,0.03849
3127.34127,0.03823
3125.28110,0.03853
3123.22093,0.03852
3121.16076,0.03809
3119.10058,0.03766
3117.04041,0.03728
3114.98024,0.03707
3112.92007,0.03680
3110.85990,0.03608
3108.79972,0.03517
3106.73955,0.03466
3104.67938,0.03480
3102.61921,0.03523
3100.55904,0.03535
3098.49886,0.03485
3096.43869,0.03402
3094.37852,0.03354
3092.31835,0.03379
3090.25818,0.03424
3088.19800,0.03409
3086.13783,0.03340
3084.07766,0.03245
3082.01749,0.03157
3079.95731,0.03138
3077.89714,0.03161
3075.83697,0.03153
3073.77680,0.03110
3071.71663,0.03057
3069.65645,0.03020
3067.59628,0.03015
3065.53611,0.03014
3063.47594,0.03011
3061.41577,0.02995
3059.35559,0.02955
3057.29542,0.02920
3055.23525,0.02909
3053.17508,0.02893
3051.11491,0.02867
3049.05473,0.02830
3046.99456,0.02777
3044.93439,0.02747
3042.87422,0.02759
3040.81404,0.02756
3038.75387,0.02711
3036.69370,0.02648
3034.63353,0.02588
3032.57336,0.02563
3030.51318,0.02588
3028.45301,0.02616
3026.39284,0.02621
3024.33267,0.02600
3022.27250,0.02563
3020.21232,0.02532
3018.15215,0.02518
3016.09198,0.02530
3014.03181,0.02543
3011.97163,0.02525
3009.91146,0.02502
3007.85129,0.02509
3005.79112,0.02513
3003.73095,0.02463
3001.67077,0.02387
2999.61060,0.02346
2997.55043,0.02358
2995.49026,0.02377
2993.43009,0.02369
2991.36991,0.02364
2989.30974,0.02371
2987.24957,0.02370
2985.18940,0.02381
2983.12923,0.02431
2981.06905,0.02480
2979.00888,0.02476
2976.94871,0.02477
2974.88854,0.02540
2972.82836,0.02623
2970.76819,0.02698
2968.70802,0.02788
2966.64785,0.02890
2964.58768,0.02983
2962.52750,0.03095
2960.46733,0.03234
2958.40716,0.03373
2956.34699,0.03518
2954.28682,0.03685
2952.22664,0.03841
2950.16647,0.03969
2948.10630,0.04123
2946.04613,0.04346
2943.98596,0.04603
2941.92578,0.04828
2939.86561,0.05041
2937.80544,0.05306
2935.74527,0.05569
2933.68509,0.05785
2931.62492,0.05995
2929.56475,0.06193
2927.50458,0.06343
2925.44441,0.06442
2923.38423,0.06506
2921.32406,0.06557
2919.26389,0.06585
2917.20372,0.06556
2915.14355,0.06418
2913.08337,0.06164
2911.02320,0.05899
2908.96303,0.05711
2906.90286,0.05556
2904.84268,0.05359
2902.78251,0.05161
2900.72234,0.05007
2898.66217,0.04860
2896.60200,0.04702
2894.54182,0.04557
2892.48165,0.04443
2890.42148,0.04371
2888.36131,0.04325
2886.30114,0.04272
2884.24096,0.04184
2882.18079,0.04100
2880.12062,0.04089
2878.06045,0.04108
2876.00028,0.04105
2873.94010,0.04105
2871.87993,0.04108
2869.81976,0.04127
2867.75959,0.04182
2865.69941,0.04258
2863.63924,0.04365
2861.57907,0.04514
2859.51890,0.04686
2857.45873,0.04859
2855.39855,0.05022
2853.33838,0.05144
2851.27821,0.05181
2849.21804,0.05120
2847.15787,0.04933
2845.09769,0.04612
2843.03752,0.04257
2840.97735,0.03971
2838.91718,0.03760
2836.85700,0.03581
2834.79683,0.03431
2832.73666,0.03304
2830.67649,0.03193
2828.61632,0.03114
2826.55614,0.03048
2824.49597,0.02975
2822.43580,0.02932
2820.37563,0.02940
2818.31546,0.02937
2816.25528,0.02878
2814.19511,0.02815
2812.13494,0.02783
2810.07477,0.02757
2808.01460,0.02731
2805.95442,0.02701
2803.89425,0.02649
2801.83408,0.02598
2799.77391,0.02579
2797.71373,0.02577
2795.65356,0.02544
2793.59339,0.02478
2791.53322,0.02440
2789.47305,0.02438
2787.41287,0.02422
2785.35270,0.02390
2783.29253,0.02356
2781.23236,0.02321
2779.17219,0.02306
2777.11201,0.02314
2775.05184,0.02326
2772.99167,0.02331
2770.93150,0.02330
2768.87133,0.02336
2766.81115,0.02334
2764.75098,0.02312
2762.69081,0.02287
2760.63064,0.02264
2758.57046,0.02248
2756.51029,0.02238
2754.45012,0.02227
2752.38995,0.02214
2750.32978,0.02201
2748.26960,0.02189
2746.20943,0.02180
2744.14926,0.02173
2742.08909,0.02163
2740.02892,0.02152
2737.96874,0.02149
2735.90857,0.02138
2733.84840,0.02107
2731.78823,0.02081
2729.72805,0.02094
2727.66788,0.02115
2725.60771,0.02114
2723.54754,0.02116
2721.48737,0.02114
2719.42719,0.02096
2717.36702,0.02083
2715.30685,0.02079
2713.24668,0.02060
2711.18651,0.02044
2709.12633,0.02063
2707.06616,0.02080
2705.00599,0.02066
2702.94582,0.02060
2700.88565,0.02072
2698.82547,0.02087
2696.76530,0.02096
2694.70513,0.02091
2692.64496,0.02084
2690.58478,0.02072
2688.52461,0.02057
2686.46444,0.02063
2684.40427,0.02073
2682.34410,0.02056
2680.28392,0.02030
2678.22375,0.02023
2676.16358,0.02047
2674.10341,0.02067
2672.04324,0.02031
2669.98306,0.01960
2667.92289,0.01931
2665.86272,0.01974
2663.80255,0.02026
2661.74238,0.02017
2659.68220,0.01953
2657.62203,0.01906
2655.56186,0.01916
2653.50169,0.01940
2651.44151,0.01940
2649.38134,0.01923
2647.32117,0.01903
2645.26100,0.01882
2643.20083,0.01877
2641.14065,0.01889
2639.08048,0.01881
2637.02031,0.01866
2634.96014,0.01885
2632.89997,0.01908
2630.83979,0.01873
2628.77962,0.01818
2626.71945,0.01814
2624.65928,0.01845
2622.59910,0.01824
2620.53893,0.01744
2618.47876,0.01704
2616.41859,0.01729
2614.35842,0.01750
2612.29824,0.01715
2610.23807,0.01659
2608.17790,0.01665
2606.11773,0.01717
2604.05756,0.01719
2601.99738,0.01689
2599.93721,0.01699
2597.87704,0.01735
2595.81687,0.01739
2593.75670,0.01690
2591.69652,0.01608
2589.63635,0.01535
2587.57618,0.01518
2585.51601,0.01560
2583.45583,0.01633
2581.39566,0.01664
2579.33549,0.01611
2577.27532,0.01558
2575.21515,0.01552
2573.15497,0.01547
2571.09480,0.01535
2569.03463,0.01555
2566.97446,0.01598
2564.91429,0.01614
2562.85411,0.01609
2560.79394,0.01598
2558.73377,0.01549
2556.67360,0.01481
2554.61342,0.01469
2552.55325,0.01485
2550.49308,0.01470
2548.43291,0.01436
2546.37274,0.01390
2544.31256,0.01385
2542.25239,0.01444
2540.19222,0.01514
2538.13205,0.01566
2536.07188,0.01586
2534.01170,0.01571
2531.95153,0.01559
2529.89136,0.01535
2527.83119,0.01460
2525.77102,0.01396
2523.71084,0.01395
2521.65067,0.01413
2519.59050,0.01416
2517.53033,0.01405
2515.47015,0.01377
2513.40998,0.01360
2511.34981,0.01364
2509.28964,0.01353
2507.22947,0.01330
2505.16929,0.01306
2503.10912,0.01283
2501.04895,0.01296
2498.98878,0.01338
2496.92861,0.01311
2494.86843,0.01220
2492.80826,0.01188
2490.74809,0.01252
2488.68792,0.01341
2486.62775,0.01374
2484.56757,0.01339
2482.50740,0.01306
2480.44723,0.01308
2478.38706,0.01303
2476.32688,0.01262
2474.26671,0.01228
2472.20654,0.01240
2470.14637,0.01275
2468.08620,0.01292
2466.02602,0.01286
2463.96585,0.01296
2461.90568,0.01310
2459.84551,0.01311
2457.78534,0.01299
2455.72516,0.01275
2453.66499,0.01294
2451.60482,0.01316
2449.54465,0.01264
2447.48447,0.01221
2445.42430,0.01224
2443.36413,0.01214
2441.30396,0.01190
2439.24379,0.01180
2437.18361,0.01198
2435.12344,0.01252
2433.06327,0.01296
2431.00310,0.01256
2428.94293,0.01177
2426.88275,0.01172
2424.82258,0.01223
2422.76241,0.01246
2420.70224,0.01242
2418.64207,0.01237
2416.58189,0.01245
2414.52172,0.01266
2412.46155,0.01286
2410.40138,0.01265
2408.34120,0.01218
2406.28103,0.01239
2404.22086,0.01287
2402.16069,0.01274
2400.10052,0.01243
2398.04034,0.01228
2395.98017,0.01205
2393.92000,0.01180
2391.85983,0.01168
2389.79966,0.01177
2387.73948,0.01198
2385.67931,0.01216
2383.61914,0.01202
2381.55897,0.01162
2379.49880,0.01149
2377.43862,0.01220
2375.37845,0.01359
2373.31828,0.01560
2371.25811,0.01716
2369.19793,0.01695
2367.13776,0.01623
2365.07759,0.01604
2363.01742,0.01478
2360.95725,0.01392
2358.89707,0.01255
2356.83690,0.01275
2354.77673,0.01355
2352.71656,0.01338
2350.65639,0.01581
2348.59621,0.01687
2346.53604,0.01206
2344.47587,0.01101
2342.41570,0.01200
2340.35552,0.01277
2338.29535,0.01422
2336.23518,0.01572
2334.17501,0.01639
2332.11484,0.01510
2330.05466,0.01386
2327.99449,0.01329
2325.93432,0.01342
2323.87415,0.01263
2321.81398,0.01229
2319.75380,0.01214
2317.69363,0.01228
2315.63346,0.01172
2313.57329,0.01111
2311.51312,0.01132
2309.45294,0.01226
2307.39277,0.01311
2305.33260,0.01315
2303.27243,0.01231
2301.21225,0.01101
2299.15208,0.01059
2297.09191,0.01098
2295.03174,0.01110
2292.97157,0.01101
2290.91139,0.01122
2288.85122,0.01151
2286.79105,0.01144
2284.73088,0.01100
2282.67071,0.01034
2280.61053,0.00958
2278.55036,0.00900
2276.49019,0.00869
2274.43002,0.00856
2272.36984,0.00829
2270.30967,0.00813
2268.24950,0.00859
2266.18933,0.00918
2264.12916,0.00927
2262.06898,0.00906
2260.00881,0.00892
2257.94864,0.00939
2255.88847,0.01006
2253.82830,0.00987
2251.76812,0.00910
2249.70795,0.00876
2247.64778,0.00856
2245.58761,0.00785
2243.52744,0.00772
2241.46726,0.00864
2239.40709,0.00894
2237.34692,0.00850
2235.28675,0.00878
2233.22657,0.00941
2231.16640,0.00950
2229.10623,0.00920
2227.04606,0.00886
2224.98589,0.00866
2222.92571,0.00828
2220.86554,0.00810
2218.80537,0.00848
2216.74520,0.00869
2214.68503,0.00871
2212.62485,0.00874
2210.56468,0.00859
2208.50451,0.00850
2206.44434,0.00836
2204.38417,0.00724
2202.32399,0.00578
2200.26382,0.00577
2198.20365,0.00716
2196.14348,0.00830
2194.08330,0.00759
2192.02313,0.00579
2189.96296,0.00541
2187.90279,0.00691
2185.84262,0.00895
2183.78244,0.01053
2181.72227,0.00994
2179.66210,0.00724
2177.60193,0.00598
2175.54176,0.00784
2173.48158,0.01136
2171.42141,0.01237
2169.36124,0.00901
2167.30107,0.00695
2165.24089,0.00924
2163.18072,0.01109
2161.12055,0.01019
2159.06038,0.00931
2157.00021,0.00976
2154.94003,0.00972
2152.87986,0.00867
2150.81969,0.00824
2148.75952,0.00870
2146.69935,0.00775
2144.63917,0.00593
2142.57900,0.00550
2140.51883,0.00596
2138.45866,0.00688
2136.39849,0.00707
2134.33831,0.00635
2132.27814,0.00694
2130.21797,0.00855
2128.15780,0.00885
2126.09762,0.00766
2124.03745,0.00700
2121.97728,0.00716
2119.91711,0.00739
2117.85694,0.00740
2115.79676,0.00729
2113.73659,0.00767
2111.67642,0.00840
2109.61625,0.00801
2107.55608,0.00685
2105.49590,0.00731
2103.43573,0.00852
2101.37556,0.00860
2099.31539,0.00841
2097.25521,0.00819
2095.19504,0.00744
2093.13487,0.00679
2091.07470,0.00685
2089.01453,0.00728
2086.95435,0.00783
2084.89418,0.00827
2082.83401,0.00799
2080.77384,0.00749
2078.71367,0.00807
2076.65349,0.00880
2074.59332,0.00842
2072.53315,0.00760
2070.47298,0.00782
2068.41281,0.00913
2066.35263,0.00977
2064.29246,0.00926
2062.23229,0.00819
2060.17212,0.00701
2058.11194,0.00702
2056.05177,0.00812
2053.99160,0.00828
2051.93143,0.00639
2049.87126,0.00423
2047.81108,0.00497
2045.75091,0.00757
2043.69074,0.00874
2041.63057,0.00915
2039.57040,0.00934
2037.51022,0.00749
2035.45005,0.00490
2033.38988,0.00432
2031.32971,0.00485
2029.26954,0.00451
2027.20936,0.00356
2025.14919,0.00354
2023.08902,0.00394
2021.02885,0.00338
2018.96867,0.00261
2016.90850,0.00223
2014.84833,0.00216
2012.78816,0.00346
2010.72799,0.00564
2008.66781,0.00626
2006.60764,0.00600
2004.54747,0.00722
2002.48730,0.00785
2000.42713,0.00610
1998.36695,0.00499
1996.30678,0.00609
1994.24661,0.00670
1992.18644,0.00627
1990.12626,0.00708
1988.06609,0.00838
1986.00592,0.00802
1983.94575,0.00623
1981.88558,0.00516
1979.82540,0.00590
1977.76523,0.00632
1975.70506,0.00496
1973.64489,0.00220
1971.58472,0.00000
1969.52454,0.00131
1967.46437,0.00501
1965.40420,0.00729
1963.34403,0.00737
1961.28386,0.00717
1959.22368,0.00731
1957.16351,0.00702
1955.10334,0.00597
1953.04317,0.00437
1950.98299,0.00349
1948.92282,0.00375
1946.86265,0.00415
1944.80248,0.00460
1942.74231,0.00481
1940.68213,0.00460
1938.62196,0.00445
1936.56179,0.00385
1934.50162,0.00295
1932.44145,0.00294
1930.38127,0.00343
1928.32110,0.00339
1926.26093,0.00342
1924.20076,0.00440
1922.14059,0.00567
1920.08041,0.00571
1918.02024,0.00458
1915.96007,0.00396
1913.89990,0.00413
1911.83972,0.00388
1909.77955,0.00325
1907.71938,0.00335
1905.65921,0.00421
1903.59904,0.00445
1901.53886,0.00345
1899.47869,0.00250
1897.41852,0.00280
1895.35835,0.00391
1893.29818,0.00452
1891.23800,0.00413
1889.17783,0.00382
1887.11766,0.00431
1885.05749,0.00455
1882.99731,0.00401
1880.93714,0.00360
1878.87697,0.00388
1876.81680,0.00428
1874.75663,0.00434
1872.69645,0.00424
1870.63628,0.00415
1868.57611,0.00372
1866.51594,0.00308
1864.45577,0.00286
1862.39559,0.00297
1860.33542,0.00300
1858.27525,0.00267
1856.21508,0.00210
1854.15491,0.00201
1852.09473,0.00258
1850.03456,0.00293
1847.97439,0.00281
1845.91422,0.00295
1843.85404,0.00331
1841.79387,0.00302
1839.73370,0.00227
1837.67353,0.00172
1835.61336,0.00159
1833.55318,0.00157
1831.49301,0.00149
1829.43284,0.00168
1827.37267,0.00232
1825.31250,0.00291
1823.25232,0.00291
1821.19215,0.00231
1819.13198,0.00155
1817.07181,0.00116
1815.01163,0.00131
1812.95146,0.00163
1810.89129,0.00155
1808.83112,0.00090
1806.77095,0.00029
1804.71077,0.00024
1802.65060,0.00052
1800.59043,0.00075
1798.53026,0.00092
1796.47009,0.00117
1794.40991,0.00141
1792.34974,0.00136
1790.28957,0.00092
1788.22940,0.00047
1786.16923,0.00019
1784.10905,0.00005
1782.04888,0.00000
1779.98871,-0.00002
1777.92854,0.00021
1775.86836,0.00081
1773.80819,0.00139
1771.74802,0.00130
1769.68785,0.00062
1767.62768,0.00036
1765.56750,0.00106
1763.50733,0.00223
1761.44716,0.00324
1759.38699,0.00404
1757.32682,0.00509
1755.26664,0.00659
1753.20647,0.00834
1751.14630,0.01024
1749.08613,0.01177
1747.02596,0.01259
1744.96578,0.01315
1742.90561,0.01369
1740.84544,0.01419
1738.78527,0.01476
1736.72509,0.01531
1734.66492,0.01561
1732.60475,0.01579
1730.54458,0.01604
1728.48441,0.01608
1726.42423,0.01576
1724.36406,0.01543
1722.30389,0.01535
1720.24372,0.01527
1718.18355,0.01502
1716.12337,0.01507
1714.06320,0.01551
1712.00303,0.01582
1709.94286,0.01590
1707.88268,0.01583
1705.82251,0.01560
1703.76234,0.01529
1701.70217,0.01471
1699.64200,0.01406
1697.58182,0.01439
1695.52165,0.01577
1693.46148,0.01717
1691.40131,0.01822
1689.34114,0.01920
1687.28096,0.02016
1685.22079,0.02165
1683.16062,0.02437
1681.10045,0.02711
1679.04028,0.02907
1676.98010,0.03043
1674.91993,0.03133
1672.85976,0.03171
1670.79959,0.03163
1668.73941,0.03140
1666.67924,0.03119
1664.61907,0.03065
1662.55890,0.02964
1660.49873,0.02865
1658.43855,0.02802
1656.37838,0.02763
1654.31821,0.02742
1652.25804,0.02748
1650.19787,0.02755
1648.13769,0.02741
1646.07752,0.02741
1644.01735,0.02762
1641.95718,0.02782
1639.89701,0.02822
1637.83683,0.02893
1635.77666,0.02980
1633.71649,0.03065
1631.65632,0.03127
1629.59614,0.03167
1627.53597,0.03206
1625.47580,0.03251
1623.41563,0.03293
1621.35546,0.03316
1619.29528,0.03302
1617.23511,0.03281
1615.17494,0.03318
1613.11477,0.03429
1611.05460,0.03576
1608.99442,0.03718
1606.93425,0.03823
1604.87408,0.03861
1602.81391,0.03811
1600.75373,0.03688
1598.69356,0.03540
1596.63339,0.03399
1594.57322,0.03271
1592.51305,0.03170
1590.45287,0.03095
1588.39270,0.03023
1586.33253,0.02950
1584.27236,0.02867
1582.21219,0.02743
1580.15201,0.02593
1578.09184,0.02475
1576.03167,0.02420
1573.97150,0.02393
1571.91133,0.02345
1569.85115,0.02285
1567.79098,0.02232
1565.73081,0.02153
1563.67064,0.02039
1561.61046,0.01920
1559.55029,0.01790
1557.49012,0.01653
1555.42995,0.01556
1553.36978,0.01490
1551.30960,0.01440
1549.24943,0.01394
1547.18926,0.01331
1545.12909,0.01223
1543.06892,0.01083
1541.00874,0.00952
1538.94857,0.00874
1536.88840,0.00850
1534.82823,0.00822
1532.76805,0.00772
1530.70788,0.00730
1528.64771,0.00710
1526.58754,0.00703
1524.52737,0.00695
1522.46719,0.00721
1520.40702,0.00845
1518.34685,0.01036
1516.28668,0.01214
1514.22651,0.01294
1512.16633,0.01250
1510.10616,0.01127
1508.04599,0.00942
1505.98582,0.00725
1503.92565,0.00598
1501.86547,0.00543
1499.80530,0.00476
1497.74513,0.00374
1495.68496,0.00276
1493.62478,0.00208
1491.56461,0.00154
1489.50444,0.00109
1487.44427,0.00085
1485.38410,0.00079
1483.32392,0.00084
1481.26375,0.00103
1479.20358,0.00150
1477.14341,0.00230
1475.08324,0.00365
1473.02306,0.00588
1470.96289,0.00853
1468.90272,0.01073
1466.84255,0.01254
1464.78238,0.01438
1462.72220,0.01586
1460.66203,0.01653
1458.60186,0.01707
1456.54169,0.01825
1454.48151,0.01951
1452.42134,0.02041
1450.36117,0.02108
1448.30100,0.02167
1446.24083,0.02225
1444.18065,0.02294
1442.12048,0.02389
1440.06031,0.02502
1438.00014,0.02601
1435.93997,0.02665
1433.87979,0.02685
1431.81962,0.02690
1429.75945,0.02712
1427.69928,0.02744
1425.63910,0.02759
1423.57893,0.02752
1421.51876,0.02740
1419.45859,0.02750
1417.39842,0.02781
1415.33824,0.02801
1413.27807,0.02803
1411.21790,0.02771
1409.15773,0.02697
1407.09756,0.02605
1405.03738,0.02516
1402.97721,0.02456
1400.91704,0.02427
1398.85687,0.02376
1396.79670,0.02280
1394.73652,0.02189
1392.67635,0.02133
1390.61618,0.02099
1388.55601,0.02083
1386.49583,0.02105
1384.43566,0.02168
1382.37549,0.02244
1380.31532,0.02319
1378.25515,0.02390
1376.19497,0.02438
1374.13480,0.02472
1372.07463,0.02512
1370.01446,0.02540
1367.95429,0.02525
1365.89411,0.02460
1363.83394,0.02382
1361.77377,0.02338
1359.71360,0.02323
1357.65343,0.02305
1355.59325,0.02277
1353.53308,0.02254
1351.47291,0.02251
1349.41274,0.02262
1347.35256,0.02268
1345.29239,0.02261
1343.23222,0.02227
1341.17205,0.02172
1339.11188,0.02149
1337.05170,0.02183
1334.99153,0.02223
1332.93136,0.02224
1330.87119,0.02203
1328.81102,0.02201
1326.75084,0.02226
1324.69067,0.02253
1322.63050,0.02258
1320.57033,0.02247
1318.51015,0.02247
1316.44998,0.02248
1314.38981,0.02215
1312.32964,0.02175
1310.26947,0.02142
1308.20929,0.02074
1306.14912,0.01976
1304.08895,0.01914
1302.02878,0.01880
1299.96861,0.01824
1297.90843,0.01772
1295.84826,0.01763
1293.78809,0.01780
1291.72792,0.01793
1289.66775,0.01796
1287.60757,0.01803
1285.54740,0.01819
1283.48723,0.01832
1281.42706,0.01857
1279.36688,0.01899
1277.30671,0.01930
1275.24654,0.01951
1273.18637,0.01980
1271.12620,0.02025
1269.06602,0.02092
1267.00585,0.02157
1264.94568,0.02205
1262.88551,0.02260
1260.82534,0.02330
1258.76516,0.02405
1256.70499,0.02485
1254.64482,0.02554
1252.58465,0.02595
1250.52447,0.02626
1248.46430,0.02672
1246.40413,0.02721
1244.34396,0.02757
1242.28379,0.02768
1240.22361,0.02750
1238.16344,0.02731
1236.10327,0.02714
1234.04310,0.02652
1231.98293,0.02547
1229.92275,0.02451
1227.86258,0.02365
1225.80241,0.02266
1223.74224,0.02148
1221.68207,0.02006
1219.62189,0.01867
1217.56172,0.01749
1215.50155,0.01630
1213.44138,0.01503
1211.38120,0.01383
1209.32103,0.01270
1207.26086,0.01142
1205.20069,0.01018
1203.14052,0.00908
1201.08034,0.00749
1199.02017,0.00541
1196.96000,0.00362
1194.89983,0.00233
1192.83966,0.00122
1190.77948,0.00036
1188.71931,0.00000
1186.65914,0.00010
1184.59897,0.00040
1182.53880,0.00055
1180.47862,0.00052
1178.41845,0.00089
1176.35828,0.00225
1174.29811,0.00431
1172.23793,0.00658
1170.17776,0.00886
1168.11759,0.01074
1166.05742,0.01203
1163.99725,0.01289
1161.93707,0.01355
1159.87690,0.01416
1157.81673,0.01480
1155.75656,0.01559
1153.69639,0.01646
1151.63621,0.01720
1149.57604,0.01783
1147.51587,0.01867
1145.45570,0.02006
1143.39552,0.02165
1141.33535,0.02280
1139.27518,0.02333
1137.21501,0.02349
1135.15484,0.02369
1133.09466,0.02423
1131.03449,0.02524
1128.97432,0.02653
1126.91415,0.02776
1124.85398,0.02905
1122.79380,0.03065
1120.73363,0.03216
1118.67346,0.03317
1116.61329,0.03410
1114.55312,0.03513
1112.49294,0.03618
1110.43277,0.03739
1108.37260,0.03859
1106.31243,0.03972
1104.25225,0.04096
1102.19208,0.04234
1100.13191,0.04373
1098.07174,0.04537
1096.01157,0.04765
1093.95139,0.05026
1091.89122,0.05269
1089.83105,0.05469
1087.77088,0.05638
1085.71071,0.05786
1083.65053,0.05933
1081.59036,0.06119
1079.53019,0.06365
1077.47002,0.06617
1075.40985,0.06831
1073.34967,0.07036
1071.28950,0.07223
1069.22933,0.07387
1067.16916,0.07576
1065.10898,0.07764
1063.04881,0.07922
1060.98864,0.08075
1058.92847,0.08229
1056.86830,0.08356
1054.80812,0.08456
1052.74795,0.08607
1050.68778,0.08859
1048.62761,0.09173
1046.56744,0.09479
1044.50726,0.09731
1042.44709,0.09964
1040.38692,0.10197
1038.32675,0.10378
1036.26657,0.10515
1034.20640,0.10662
1032.14623,0.10743
1030.08606,0.10707
1028.02589,0.10643
1025.96571,0.10617
1023.90554,0.10627
1021.84537,0.10620
1019.78520,0.10582
1017.72503,0.10537
1015.66485,0.10487
1013.60468,0.10453
1011.54451,0.10487
1009.48434,0.10569
1007.42417,0.10576
1005.36399,0.10505
1003.30382,0.10434
1001.24365,0.10350
999.18348,0.10236
997.12330,0.10066
995.06313,0.09843
993.00296,0.09641
990.94279,0.09491
988.88262,0.09343
986.82244,0.09173
984.76227,0.09023
982.70210,0.08902
980.64193,0.08794
978.58176,0.08678
976.52158,0.08505
974.46141,0.08285
972.40124,0.08096
970.34107,0.07955
968.28089,0.07794
966.22072,0.07571
964.16055,0.07343
962.10038,0.07173
960.04021,0.07036
957.98003,0.06872
955.91986,0.06692
953.85969,0.06552
951.79952,0.06411
949.73935,0.06216
947.67917,0.06032
945.61900,0.05910
943.55883,0.05773
941.49866,0.05520
939.43849,0.05165
937.37831,0.04764
935.31814,0.04380
933.25797,0.04077
931.19780,0.03825
929.13762,0.03533
927.07745,0.03238
925.01728,0.03028
922.95711,0.02851
920.89694,0.02669
918.83676,0.02522
916.77659,0.02382
914.71642,0.02243
912.65625,0.02115
910.59608,0.01953
908.53590,0.01774
906.47573,0.01619
904.41556,0.01481
902.35539,0.01403
900.29522,0.01430
898.23504,0.01529
896.17487,0.01619
894.11470,0.01653
892.05453,0.01635
889.99435,0.01593
887.93418,0.01533
885.87401,0.01426
883.81384,0.01275
881.75367,0.01116
879.69349,0.00989
877.63332,0.00902
875.57315,0.00829
873.51298,0.00777
871.45281,0.00767
869.39263,0.00765
867.33246,0.00732
865.27229,0.00715
863.21212,0.00702
861.15194,0.00650
859.09177,0.00652
857.03160,0.00698
854.97143,0.00680
852.91126,0.00588
850.85108,0.00471
848.79091,0.00429
846.73074,0.00481
844.67057,0.00531
842.61040,0.00534
840.55022,0.00506
838.49005,0.00540
836.42988,0.00659
834.36971,0.00696
832.30954,0.00628
830.24936,0.00599
828.18919,0.00623
826.12902,0.00584
824.06885,0.00449
822.00867,0.00316
819.94850,0.00268
817.88833,0.00278
815.82816,0.00252
813.76799,0.00225
811.70781,0.00305
809.64764,0.00426
807.58747,0.00445
805.52730,0.00331
803.46713,0.00172
801.40695,0.00086
799.34678,0.00072
797.28661,0.00036
795.22644,0.00000
793.16627,0.00007
791.10609,-0.00008
789.04592,-0.00063
786.98575,-0.00003
784.92558,0.00177
782.86540,0.00244
780.80523,0.00122
778.74506,0.00023
776.68489,0.00029
774.62472,-0.00036
772.56454,-0.00137
770.50437,-0.00038
768.44420,0.00139
766.38403,0.00153
764.32386,0.00097
762.26368,0.00107
760.20351,0.00199
758.14334,0.00236
756.08317,0.00086
754.02299,-0.00059
751.96282,0.00005
749.90265,0.00153
747.84248,0.00218
745.78231,0.00135
743.72213,0.00013
741.66196,0.00015
739.60179,-0.00000
737.54162,-0.00107
735.48145,-0.00145
733.42127,-0.00071
731.36110,0.00007
729.30093,-0.00010
727.24076,-0.00003
725.18059,0.00198
723.12041,0.00517
721.06024,0.00701
719.00007,0.00772
716.93990,0.00691
714.87972,0.00555
712.81955,0.00492
710.75938,0.00475
708.69921,0.00549
706.63904,0.00787
704.57886,0.01042
702.51869,0.01160
700.45852,0.01248
698.39835,0.01387
696.33818,0.01442
694.27800,0.01372
692.21783,0.01283
690.15766,0.01130
688.09749,0.00852
686.03731,0.00673
683.97714,0.00855
681.91697,0.01252
679.85680,0.01460
677.79663,0.01310
675.73645,0.00980
673.67628,0.00952
671.61611,0.01288
669.55594,0.00769
667.49577,0.00000
665.43559,0.00560
663.37542,0.00503
661.31525,0.00487
659.25508,0.00651
657.19491,0.00767
655.13473,0.00805
653.07456,0.00699
651.01439,0.00549
648.95422,0.00572
646.89404,0.00677
644.83387,0.00604
642.77370,0.00474
640.71353,0.00460
638.65336,0.00580
636.59318,0.00702
634.53301,0.00754
632.47284,0.00855
630.41267,0.00963
628.35250,0.00984
626.29232,0.00965
624.23215,0.00759
622.17198,0.00592
620.11181,0.00518
618.05164,0.00346
615.99146,0.00498
613.93129,0.00827
611.87112,0.00639
609.81095,-0.00014
607.75077,-0.00342
605.69060,-0.00174
603.63043,0.00017
601.57026,0.00098
599.51009,0.00000
