3996.73391	0.00027
3994.67373	0.00043
3992.61356	0.00051
3990.55339	0.00047
3988.49322	0.00034
3986.43305	0.00019
3984.37287	0.00008
3982.31270	0.00002
3980.25253	0.00000
3978.19236	0.00002
3976.13219	0.00009
3974.07201	0.00021
3972.01184	0.00034
3969.95167	0.00040
3967.89150	0.00036
3965.83133	0.00026
3963.77115	0.00021
3961.71098	0.00027
3959.65081	0.00037
3957.59064	0.00044
3955.53046	0.00047
3953.47029	0.00047
3951.41012	0.00048
3949.34995	0.00055
3947.28978	0.00062
3945.22960	0.00060
3943.16943	0.00051
3941.10926	0.00040
3939.04909	0.00035
3936.98892	0.00037
3934.92874	0.00049
3932.86857	0.00065
3930.80840	0.00076
3928.74823	0.00078
3926.68805	0.00075
3924.62788	0.00068
3922.56771	0.00058
3920.50754	0.00048
3918.44737	0.00050
3916.38719	0.00062
3914.32702	0.00074
3912.26685	0.00073
3910.20668	0.00060
3908.14651	0.00042
3906.08633	0.00028
3904.02616	0.00026
3901.96599	0.00028
3899.90582	0.00030
3897.84565	0.00039
3895.78547	0.00061
3893.72530	0.00086
3891.66513	0.00103
3889.60496	0.00106
3887.54478	0.00097
3885.48461	0.00079
3883.42444	0.00064
3881.36427	0.00058
3879.30410	0.00060
3877.24392	0.00058
3875.18375	0.00047
3873.12358	0.00031
3871.06341	0.00020
3869.00324	0.00019
3866.94306	0.00026
3864.88289	0.00039
3862.82272	0.00059
3860.76255	0.00077
3858.70237	0.00084
3856.64220	0.00079
3854.58203	0.00071
3852.52186	0.00067
3850.46169	0.00068
3848.40151	0.00067
3846.34134	0.00060
3844.28117	0.00049
3842.22100	0.00040
3840.16083	0.00042
3838.10065	0.00058
3836.04048	0.00083
3833.98031	0.00106
3831.92014	0.00121
3829.85997	0.00122
3827.79979	0.00113
3825.73962	0.00099
3823.67945	0.00084
3821.61928	0.00073
3819.55910	0.00067
3817.49893	0.00063
3815.43876	0.00063
3813.37859	0.00066
3811.31842	0.00070
3809.25824	0.00072
3807.19807	0.00076
3805.13790	0.00082
3803.07773	0.00088
3801.01756	0.00093
3798.95738	0.00091
3796.89721	0.00083
3794.83704	0.00076
3792.77687	0.00074
3790.71670	0.00074
3788.65652	0.00072
3786.59635	0.00065
3784.53618	0.00052
3782.47601	0.00037
3780.41583	0.00026
3778.35566	0.00026
3776.29549	0.00033
3774.23532	0.00041
3772.17515	0.00047
3770.11497	0.00055
3768.05480	0.00064
3765.99463	0.00073
3763.93446	0.00083
3761.87429	0.00087
3759.81411	0.00082
3757.75394	0.00072
3755.69377	0.00064
3753.63360	0.00066
3751.57342	0.00080
3749.51325	0.00094
3747.45308	0.00097
3745.39291	0.00094
3743.33274	0.00102
3741.27256	0.00118
3739.21239	0.00131
3737.15222	0.00139
3735.09205	0.00143
3733.03188	0.00153
3730.97170	0.00166
3728.91153	0.00171
3726.85136	0.00162
3724.79119	0.00143
3722.73102	0.00123
3720.67084	0.00105
3718.61067	0.00089
3716.55050	0.00076
3714.49033	0.00065
3712.43015	0.00061
3710.36998	0.00064
3708.30981	0.00066
3706.24964	0.00064
3704.18947	0.00061
3702.12929	0.00067
3700.06912	0.00079
3698.00895	0.00083
3695.94878	0.00070
3693.88861	0.00052
3691.82843	0.00041
3689.76826	0.00051
3687.70809	0.00072
3685.64792	0.00082
3683.58775	0.00075
3681.52757	0.00061
3679.46740	0.00052
3677.40723	0.00054
3675.34706	0.00066
3673.28688	0.00080
3671.22671	0.00090
3669.16654	0.00101
3667.10637	0.00107
3665.04620	0.00102
3662.98602	0.00090
3660.92585	0.00084
3658.86568	0.00086
3656.80551	0.00095
3654.74534	0.00108
3652.68516	0.00119
3650.62499	0.00125
3648.56482	0.00127
3646.50465	0.00124
3644.44447	0.00118
3642.38430	0.00117
3640.32413	0.00126
3638.26396	0.00146
3636.20379	0.00172
3634.14361	0.00196
3632.08344	0.00211
3630.02327	0.00219
3627.96310	0.00231
3625.90293	0.00254
3623.84275	0.00279
3621.78258	0.00297
3619.72241	0.00309
3617.66224	0.00319
3615.60207	0.00329
3613.54189	0.00339
3611.48172	0.00350
3609.42155	0.00363
3607.36138	0.00380
3605.30120	0.00397
3603.24103	0.00410
3601.18086	0.00424
3599.12069	0.00447
3597.06052	0.00481
3595.00034	0.00516
3592.94017	0.00538
3590.88000	0.00544
3588.81983	0.00543
3586.75966	0.00545
3584.69948	0.00551
3582.63931	0.00565
3580.57914	0.00589
3578.51897	0.00623
3576.45879	0.00659
3574.39862	0.00691
3572.33845	0.00714
3570.27828	0.00733
3568.21811	0.00759
3566.15793	0.00797
3564.09776	0.00839
3562.03759	0.00877
3559.97742	0.00909
3557.91725	0.00938
3555.85707	0.00965
3553.79690	0.00994
3551.73673	0.01028
3549.67656	0.01059
3547.61639	0.01081
3545.55621	0.01099
3543.49604	0.01126
3541.43587	0.01168
3539.37570	0.01222
3537.31552	0.01276
3535.25535	0.01321
3533.19518	0.01351
3531.13501	0.01368
3529.07484	0.01384
3527.01466	0.01408
3524.95449	0.01445
3522.89432	0.01486
3520.83415	0.01523
3518.77398	0.01556
3516.71380	0.01585
3514.65363	0.01615
3512.59346	0.01647
3510.53329	0.01681
3508.47312	0.01713
3506.41294	0.01738
3504.35277	0.01757
3502.29260	0.01774
3500.23243	0.01792
3498.17225	0.01813
3496.11208	0.01841
3494.05191	0.01875
3491.99174	0.01911
3489.93157	0.01950
3487.87139	0.01992
3485.81122	0.02034
3483.75105	0.02075
3481.69088	0.02113
3479.63071	0.02147
3477.57053	0.02176
3475.51036	0.02203
3473.45019	0.02237
3471.39002	0.02276
3469.32984	0.02315
3467.26967	0.02348
3465.20950	0.02375
3463.14933	0.02400
3461.08916	0.02423
3459.02898	0.02443
3456.96881	0.02461
3454.90864	0.02479
3452.84847	0.02501
3450.78830	0.02531
3448.72812	0.02567
3446.66795	0.02607
3444.60778	0.02644
3442.54761	0.02679
3440.48744	0.02715
3438.42726	0.02749
3436.36709	0.02775
3434.30692	0.02794
3432.24675	0.02811
3430.18657	0.02834
3428.12640	0.02864
3426.06623	0.02894
3424.00606	0.02922
3421.94589	0.02953
3419.88571	0.02991
3417.82554	0.03033
3415.76537	0.03069
3413.70520	0.03092
3411.64503	0.03104
3409.58485	0.03115
3407.52468	0.03134
3405.46451	0.03165
3403.40434	0.03199
3401.34416	0.03227
3399.28399	0.03250
3397.22382	0.03270
3395.16365	0.03288
3393.10348	0.03306
3391.04330	0.03327
3388.98313	0.03354
3386.92296	0.03383
3384.86279	0.03409
3382.80262	0.03431
3380.74244	0.03449
3378.68227	0.03467
3376.62210	0.03485
3374.56193	0.03500
3372.50176	0.03512
3370.44158	0.03527
3368.38141	0.03544
3366.32124	0.03563
3364.26107	0.03582
3362.20089	0.03597
3360.14072	0.03605
3358.08055	0.03606
3356.02038	0.03609
3353.96021	0.03619
3351.90003	0.03636
3349.83986	0.03652
3347.77969	0.03666
3345.71952	0.03675
3343.65935	0.03678
3341.59917	0.03674
3339.53900	0.03671
3337.47883	0.03673
3335.41866	0.03679
3333.35849	0.03686
3331.29831	0.03694
3329.23814	0.03707
3327.17797	0.03722
3325.11780	0.03734
3323.05762	0.03742
3320.99745	0.03743
3318.93728	0.03740
3316.87711	0.03733
3314.81694	0.03725
3312.75676	0.03724
3310.69659	0.03734
3308.63642	0.03748
3306.57625	0.03759
3304.51608	0.03763
3302.45590	0.03766
3300.39573	0.03771
3298.33556	0.03781
3296.27539	0.03792
3294.21521	0.03799
3292.15504	0.03801
3290.09487	0.03797
3288.03470	0.03785
3285.97453	0.03767
3283.91435	0.03749
3281.85418	0.03739
3279.79401	0.03739
3277.73384	0.03748
3275.67367	0.03764
3273.61349	0.03776
3271.55332	0.03777
3269.49315	0.03768
3267.43298	0.03759
3265.37281	0.03755
3263.31263	0.03752
3261.25246	0.03749
3259.19229	0.03745
3257.13212	0.03742
3255.07194	0.03737
3253.01177	0.03726
3250.95160	0.03711
3248.89143	0.03698
3246.83126	0.03691
3244.77108	0.03691
3242.71091	0.03694
3240.65074	0.03694
3238.59057	0.03686
3236.53040	0.03672
3234.47022	0.03655
3232.41005	0.03642
3230.34988	0.03634
3228.28971	0.03629
3226.22954	0.03620
3224.16936	0.03605
3222.10919	0.03588
3220.04902	0.03571
3217.98885	0.03560
3215.92867	0.03552
3213.86850	0.03546
3211.80833	0.03542
3209.74816	0.03536
3207.68799	0.03525
3205.62781	0.03506
3203.56764	0.03484
3201.50747	0.03463
3199.44730	0.03448
3197.38713	0.03438
3195.32695	0.03429
3193.26678	0.03418
3191.20661	0.03403
3189.14644	0.03385
3187.08626	0.03366
3185.02609	0.03345
3182.96592	0.03322
3180.90575	0.03295
3178.84558	0.03265
3176.78540	0.03237
3174.72523	0.03211
3172.66506	0.03187
3170.60489	0.03164
3168.54472	0.03140
3166.48454	0.03120
3164.42437	0.03108
3162.36420	0.03103
3160.30403	0.03107
3158.24386	0.03109
3156.18368	0.03101
3154.12351	0.03076
3152.06334	0.03039
3150.00317	0.02999
3147.94299	0.02966
3145.88282	0.02946
3143.82265	0.02939
3141.76248	0.02932
3139.70231	0.02915
3137.64213	0.02883
3135.58196	0.02844
3133.52179	0.02812
3131.46162	0.02792
3129.40145	0.02782
3127.34127	0.02774
3125.28110	0.02760
3123.22093	0.02741
3121.16076	0.02721
3119.10058	0.02701
3117.04041	0.02678
3114.98024	0.02653
3112.92007	0.02628
3110.85990	0.02603
3108.79972	0.02582
3106.73955	0.02563
3104.67938	0.02546
3102.61921	0.02529
3100.55904	0.02511
3098.49886	0.02489
3096.43869	0.02465
3094.37852	0.02442
3092.31835	0.02423
3090.25818	0.02411
3088.19800	0.02402
3086.13783	0.02391
3084.07766	0.02374
3082.01749	0.02351
3079.95731	0.02326
3077.89714	0.02303
3075.83697	0.02282
3073.77680	0.02263
3071.71663	0.02244
3069.65645	0.02225
3067.59628	0.02209
3065.53611	0.02195
3063.47594	0.02180
3061.41577	0.02160
3059.35559	0.02134
3057.29542	0.02110
3055.23525	0.02091
3053.17508	0.02078
3051.11491	0.02064
3049.05473	0.02045
3046.99456	0.02021
3044.93439	0.01996
3042.87422	0.01975
3040.81404	0.01960
3038.75387	0.01950
3036.69370	0.01942
3034.63353	0.01932
3032.57336	0.01916
3030.51318	0.01898
3028.45301	0.01880
3026.39284	0.01865
3024.33267	0.01855
3022.27250	0.01847
3020.21232	0.01840
3018.15215	0.01837
3016.09198	0.01842
3014.03181	0.01849
3011.97163	0.01851
3009.91146	0.01844
3007.85129	0.01828
3005.79112	0.01808
3003.73095	0.01788
3001.67077	0.01768
2999.61060	0.01752
2997.55043	0.01745
2995.49026	0.01741
2993.43009	0.01736
2991.36991	0.01734
2989.30974	0.01736
2987.24957	0.01736
2985.18940	0.01736
2983.12923	0.01743
2981.06905	0.01764
2979.00888	0.01803
2976.94871	0.01854
2974.88854	0.01910
2972.82836	0.01964
2970.76819	0.02013
2968.70802	0.02070
2966.64785	0.02147
2964.58768	0.02242
2962.52750	0.02356
2960.46733	0.02481
2958.40716	0.02610
2956.34699	0.02736
2954.28682	0.02864
2952.22664	0.02995
2950.16647	0.03124
2948.10630	0.03250
2946.04613	0.03388
2943.98596	0.03544
2941.92578	0.03712
2939.86561	0.03885
2937.80544	0.04070
2935.74527	0.04266
2933.68509	0.04465
2931.62492	0.04658
2929.56475	0.04832
2927.50458	0.04981
2925.44441	0.05109
2923.38423	0.05220
2921.32406	0.05301
2919.26389	0.05324
2917.20372	0.05274
2915.14355	0.05155
2913.08337	0.04986
2911.02320	0.04793
2908.96303	0.04604
2906.90286	0.04430
2904.84268	0.04268
2902.78251	0.04118
2900.72234	0.03984
2898.66217	0.03865
2896.60200	0.03755
2894.54182	0.03656
2892.48165	0.03570
2890.42148	0.03491
2888.36131	0.03411
2886.30114	0.03334
2884.24096	0.03272
2882.18079	0.03229
2880.12062	0.03201
2878.06045	0.03186
2876.00028	0.03177
2873.94010	0.03173
2871.87993	0.03184
2869.81976	0.03212
2867.75959	0.03251
2865.69941	0.03306
2863.63924	0.03394
2861.57907	0.03527
2859.51890	0.03687
2857.45873	0.03849
2855.39855	0.03999
2853.33838	0.04128
2851.27821	0.04199
2849.21804	0.04156
2847.15787	0.03975
2845.09769	0.03703
2843.03752	0.03418
2840.97735	0.03181
2838.91718	0.03006
2836.85700	0.02867
2834.79683	0.02743
2832.73666	0.02629
2830.67649	0.02532
2828.61632	0.02454
2826.55614	0.02396
2824.49597	0.02352
2822.43580	0.02310
2820.37563	0.02264
2818.31546	0.02222
2816.25528	0.02182
2814.19511	0.02138
2812.13494	0.02099
2810.07477	0.02072
2808.01460	0.02057
2805.95442	0.02046
2803.89425	0.02030
2801.83408	0.02005
2799.77391	0.01977
2797.71373	0.01954
2795.65356	0.01938
2793.59339	0.01922
2791.53322	0.01905
2789.47305	0.01888
2787.41287	0.01869
2785.35270	0.01844
2783.29253	0.01817
2781.23236	0.01796
2779.17219	0.01786
2777.11201	0.01778
2775.05184	0.01769
2772.99167	0.01760
2770.93150	0.01751
2768.87133	0.01742
2766.81115	0.01734
2764.75098	0.01728
2762.69081	0.01719
2760.63064	0.01703
2758.57046	0.01686
2756.51029	0.01679
2754.45012	0.01681
2752.38995	0.01688
2750.32978	0.01692
2748.26960	0.01692
2746.20943	0.01688
2744.14926	0.01682
2742.08909	0.01673
2740.02892	0.01666
2737.96874	0.01668
2735.90857	0.01674
2733.84840	0.01670
2731.78823	0.01650
2729.72805	0.01627
2727.66788	0.01610
2725.60771	0.01596
2723.54754	0.01592
2721.48737	0.01599
2719.42719	0.01606
2717.36702	0.01606
2715.30685	0.01601
2713.24668	0.01600
2711.18651	0.01601
2709.12633	0.01599
2707.06616	0.01594
2705.00599	0.01587
2702.94582	0.01582
2700.88565	0.01581
2698.82547	0.01583
2696.76530	0.01583
2694.70513	0.01576
2692.64496	0.01566
2690.58478	0.01555
2688.52461	0.01538
2686.46444	0.01519
2684.40427	0.01510
2682.34410	0.01513
2680.28392	0.01515
2678.22375	0.01511
2676.16358	0.01506
2674.10341	0.01509
2672.04324	0.01516
2669.98306	0.01514
2667.92289	0.01507
2665.86272	0.01503
2663.80255	0.01506
2661.74238	0.01508
2659.68220	0.01507
2657.62203	0.01497
2655.56186	0.01482
2653.50169	0.01467
2651.44151	0.01453
2649.38134	0.01440
2647.32117	0.01435
2645.26100	0.01436
2643.20083	0.01429
2641.14065	0.01410
2639.08048	0.01395
2637.02031	0.01391
2634.96014	0.01396
2632.89997	0.01399
2630.83979	0.01389
2628.77962	0.01373
2626.71945	0.01369
2624.65928	0.01378
2622.59910	0.01376
2620.53893	0.01351
2618.47876	0.01323
2616.41859	0.01313
2614.35842	0.01310
2612.29824	0.01296
2610.23807	0.01278
2608.17790	0.01279
2606.11773	0.01287
2604.05756	0.01273
2601.99738	0.01244
2599.93721	0.01229
2597.87704	0.01237
2595.81687	0.01254
2593.75670	0.01260
2591.69652	0.01244
2589.63635	0.01212
2587.57618	0.01181
2585.51601	0.01173
2583.45583	0.01199
2581.39566	0.01240
2579.33549	0.01257
2577.27532	0.01243
2575.21515	0.01217
2573.15497	0.01193
2571.09480	0.01174
2569.03463	0.01163
2566.97446	0.01160
2564.91429	0.01163
2562.85411	0.01168
2560.79394	0.01167
2558.73377	0.01158
2556.67360	0.01146
2554.61342	0.01135
2552.55325	0.01128
2550.49308	0.01130
2548.43291	0.01138
2546.37274	0.01141
2544.31256	0.01126
2542.25239	0.01095
2540.19222	0.01070
2538.13205	0.01071
2536.07188	0.01089
2534.01170	0.01103
2531.95153	0.01101
2529.89136	0.01079
2527.83119	0.01041
2525.77102	0.01013
2523.71084	0.01015
2521.65067	0.01031
2519.59050	0.01037
2517.53033	0.01033
2515.47015	0.01028
2513.40998	0.01027
2511.34981	0.01033
2509.28964	0.01038
2507.22947	0.01031
2505.16929	0.01016
2503.10912	0.01005
2501.04895	0.01003
2498.98878	0.01004
2496.92861	0.01001
2494.86843	0.00992
2492.80826	0.00977
2490.74809	0.00964
2488.68792	0.00964
2486.62775	0.00974
2484.56757	0.00978
2482.50740	0.00975
2480.44723	0.00974
2478.38706	0.00974
2476.32688	0.00968
2474.26671	0.00959
2472.20654	0.00953
2470.14637	0.00959
2468.08620	0.00972
2466.02602	0.00970
2463.96585	0.00944
2461.90568	0.00914
2459.84551	0.00908
2457.78534	0.00918
2455.72516	0.00924
2453.66499	0.00922
2451.60482	0.00919
2449.54465	0.00914
2447.48447	0.00910
2445.42430	0.00919
2443.36413	0.00934
2441.30396	0.00936
2439.24379	0.00921
2437.18361	0.00902
2435.12344	0.00885
2433.06327	0.00867
2431.00310	0.00848
2428.94293	0.00843
2426.88275	0.00848
2424.82258	0.00847
2422.76241	0.00842
2420.70224	0.00849
2418.64207	0.00863
2416.58189	0.00869
2414.52172	0.00869
2412.46155	0.00859
2410.40138	0.00839
2408.34120	0.00827
2406.28103	0.00831
2404.22086	0.00842
2402.16069	0.00853
2400.10052	0.00858
2398.04034	0.00856
2395.98017	0.00852
2393.92000	0.00855
2391.85983	0.00865
2389.79966	0.00877
2387.73948	0.00885
2385.67931	0.00885
2383.61914	0.00881
2381.55897	0.00875
2379.49880	0.00867
2377.43862	0.00853
2375.37845	0.00840
2373.31828	0.00836
2371.25811	0.00840
2369.19793	0.00847
2367.13776	0.00864
2365.07759	0.00901
2363.01742	0.00946
2360.95725	0.00970
2358.89707	0.00956
2356.83690	0.00921
2354.77673	0.00900
2352.71656	0.00911
2350.65639	0.00935
2348.59621	0.00932
2346.53604	0.00893
2344.47587	0.00855
2342.41570	0.00837
2340.35552	0.00832
2338.29535	0.00829
2336.23518	0.00829
2334.17501	0.00847
2332.11484	0.00891
2330.05466	0.00957
2327.99449	0.01027
2325.93432	0.01068
2323.87415	0.01061
2321.81398	0.01024
2319.75380	0.00995
2317.69363	0.00985
2315.63346	0.00980
2313.57329	0.00969
2311.51312	0.00950
2309.45294	0.00927
2307.39277	0.00905
2305.33260	0.00893
2303.27243	0.00890
2301.21225	0.00891
2299.15208	0.00892
2297.09191	0.00893
2295.03174	0.00892
2292.97157	0.00885
2290.91139	0.00872
2288.85122	0.00852
2286.79105	0.00828
2284.73088	0.00807
2282.67071	0.00798
2280.61053	0.00803
2278.55036	0.00812
2276.49019	0.00813
2274.43002	0.00799
2272.36984	0.00775
2270.30967	0.00752
2268.24950	0.00736
2266.18933	0.00724
2264.12916	0.00714
2262.06898	0.00710
2260.00881	0.00713
2257.94864	0.00716
2255.88847	0.00713
2253.82830	0.00703
2251.76812	0.00692
2249.70795	0.00682
2247.64778	0.00668
2245.58761	0.00653
2243.52744	0.00642
2241.46726	0.00642
2239.40709	0.00651
2237.34692	0.00675
2235.28675	0.00713
2233.22657	0.00711
2231.16640	0.00652
2229.10623	0.00608
2227.04606	0.00627
2224.98589	0.00666
2222.92571	0.00677
2220.86554	0.00669
2218.80537	0.00668
2216.74520	0.00675
2214.68503	0.00679
2212.62485	0.00652
2210.56468	0.00593
2208.50451	0.00548
2206.44434	0.00557
2204.38417	0.00603
2202.32399	0.00635
2200.26382	0.00640
2198.20365	0.00649
2196.14348	0.00682
2194.08330	0.00710
2192.02313	0.00697
2189.96296	0.00658
2187.90279	0.00636
2185.84262	0.00642
2183.78244	0.00655
2181.72227	0.00648
2179.66210	0.00610
2177.60193	0.00574
2175.54176	0.00577
2173.48158	0.00596
2171.42141	0.00604
2169.36124	0.00622
2167.30107	0.00649
2165.24089	0.00631
2163.18072	0.00538
2161.12055	0.00417
2159.06038	0.00336
2157.00021	0.00301
2154.94003	0.00290
2152.87986	0.00327
2150.81969	0.00425
2148.75952	0.00537
2146.69935	0.00600
2144.63917	0.00601
2142.57900	0.00564
2140.51883	0.00525
2138.45866	0.00516
2136.39849	0.00517
2134.33831	0.00484
2132.27814	0.00434
2130.21797	0.00427
2128.15780	0.00474
2126.09762	0.00539
2124.03745	0.00604
2121.97728	0.00647
2119.91711	0.00648
2117.85694	0.00622
2115.79676	0.00601
2113.73659	0.00593
2111.67642	0.00584
2109.61625	0.00565
2107.55608	0.00558
2105.49590	0.00568
2103.43573	0.00566
2101.37556	0.00545
2099.31539	0.00537
2097.25521	0.00554
2095.19504	0.00590
2093.13487	0.00625
2091.07470	0.00641
2089.01453	0.00630
2086.95435	0.00602
2084.89418	0.00578
2082.83401	0.00575
2080.77384	0.00587
2078.71367	0.00599
2076.65349	0.00605
2074.59332	0.00605
2072.53315	0.00591
2070.47298	0.00561
2068.41281	0.00525
2066.35263	0.00497
2064.29246	0.00488
2062.23229	0.00496
2060.17212	0.00507
2058.11194	0.00518
2056.05177	0.00535
2053.99160	0.00559
2051.93143	0.00568
2049.87126	0.00541
2047.81108	0.00476
2045.75091	0.00397
2043.69074	0.00334
2041.63057	0.00304
2039.57040	0.00305
2037.51022	0.00326
2035.45005	0.00358
2033.38988	0.00393
2031.32971	0.00415
2029.26954	0.00412
2027.20936	0.00400
2025.14919	0.00393
2023.08902	0.00386
2021.02885	0.00377
2018.96867	0.00373
2016.90850	0.00379
2014.84833	0.00390
2012.78816	0.00400
2010.72799	0.00400
2008.66781	0.00388
2006.60764	0.00366
2004.54747	0.00341
2002.48730	0.00316
2000.42713	0.00296
1998.36695	0.00288
1996.30678	0.00303
1994.24661	0.00339
1992.18644	0.00377
1990.12626	0.00403
1988.06609	0.00421
1986.00592	0.00436
1983.94575	0.00436
1981.88558	0.00413
1979.82540	0.00368
1977.76523	0.00314
1975.70506	0.00273
1973.64489	0.00262
1971.58472	0.00277
1969.52454	0.00305
1967.46437	0.00328
1965.40420	0.00335
1963.34403	0.00331
1961.28386	0.00329
1959.22368	0.00335
1957.16351	0.00350
1955.10334	0.00377
1953.04317	0.00410
1950.98299	0.00433
1948.92282	0.00433
1946.86265	0.00413
1944.80248	0.00385
1942.74231	0.00357
1940.68213	0.00338
1938.62196	0.00332
1936.56179	0.00337
1934.50162	0.00349
1932.44145	0.00365
1930.38127	0.00380
1928.32110	0.00388
1926.26093	0.00390
1924.20076	0.00392
1922.14059	0.00395
1920.08041	0.00398
1918.02024	0.00401
1915.96007	0.00405
1913.89990	0.00407
1911.83972	0.00411
1909.77955	0.00418
1907.71938	0.00424
1905.65921	0.00423
1903.59904	0.00414
1901.53886	0.00402
1899.47869	0.00391
1897.41852	0.00382
1895.35835	0.00375
1893.29818	0.00374
1891.23800	0.00375
1889.17783	0.00376
1887.11766	0.00375
1885.05749	0.00376
1882.99731	0.00383
1880.93714	0.00392
1878.87697	0.00393
1876.81680	0.00385
1874.75663	0.00372
1872.69645	0.00362
1870.63628	0.00361
1868.57611	0.00370
1866.51594	0.00380
1864.45577	0.00387
1862.39559	0.00394
1860.33542	0.00402
1858.27525	0.00410
1856.21508	0.00411
1854.15491	0.00404
1852.09473	0.00392
1850.03456	0.00382
1847.97439	0.00377
1845.91422	0.00374
1843.85404	0.00369
1841.79387	0.00362
1839.73370	0.00349
1837.67353	0.00331
1835.61336	0.00314
1833.55318	0.00305
1831.49301	0.00310
1829.43284	0.00328
1827.37267	0.00349
1825.31250	0.00359
1823.25232	0.00350
1821.19215	0.00330
1819.13198	0.00308
1817.07181	0.00295
1815.01163	0.00296
1812.95146	0.00304
1810.89129	0.00316
1808.83112	0.00330
1806.77095	0.00341
1804.71077	0.00352
1802.65060	0.00361
1800.59043	0.00364
1798.53026	0.00358
1796.47009	0.00343
1794.40991	0.00322
1792.34974	0.00304
1790.28957	0.00293
1788.22940	0.00287
1786.16923	0.00284
1784.10905	0.00285
1782.04888	0.00287
1779.98871	0.00282
1777.92854	0.00277
1775.86836	0.00275
1773.80819	0.00281
1771.74802	0.00296
1769.68785	0.00319
1767.62768	0.00347
1765.56750	0.00382
1763.50733	0.00434
1761.44716	0.00506
1759.38699	0.00598
1757.32682	0.00701
1755.26664	0.00813
1753.20647	0.00929
1751.14630	0.01050
1749.08613	0.01180
1747.02596	0.01309
1744.96578	0.01419
1742.90561	0.01501
1740.84544	0.01553
1738.78527	0.01579
1736.72509	0.01586
1734.66492	0.01582
1732.60475	0.01580
1730.54458	0.01581
1728.48441	0.01580
1726.42423	0.01581
1724.36406	0.01583
1722.30389	0.01587
1720.24372	0.01590
1718.18355	0.01594
1716.12337	0.01602
1714.06320	0.01611
1712.00303	0.01612
1709.94286	0.01602
1707.88268	0.01584
1705.82251	0.01565
1703.76234	0.01550
1701.70217	0.01534
1699.64200	0.01525
1697.58182	0.01537
1695.52165	0.01579
1693.46148	0.01646
1691.40131	0.01722
1689.34114	0.01809
1687.28096	0.01917
1685.22079	0.02056
1683.16062	0.02222
1681.10045	0.02385
1679.04028	0.02521
1676.98010	0.02627
1674.91993	0.02708
1672.85976	0.02757
1670.79959	0.02767
1668.73941	0.02744
1666.67924	0.02700
1664.61907	0.02644
1662.55890	0.02584
1660.49873	0.02527
1658.43855	0.02476
1656.37838	0.02429
1654.31821	0.02389
1652.25804	0.02365
1650.19787	0.02358
1648.13769	0.02357
1646.07752	0.02364
1644.01735	0.02384
1641.95718	0.02413
1639.89701	0.02449
1637.83683	0.02490
1635.77666	0.02541
1633.71649	0.02601
1631.65632	0.02658
1629.59614	0.02703
1627.53597	0.02736
1625.47580	0.02761
1623.41563	0.02782
1621.35546	0.02806
1619.29528	0.02833
1617.23511	0.02871
1615.17494	0.02926
1613.11477	0.03001
1611.05460	0.03096
1608.99442	0.03198
1606.93425	0.03283
1604.87408	0.03319
1602.81391	0.03290
1600.75373	0.03204
1598.69356	0.03085
1596.63339	0.02960
1594.57322	0.02848
1592.51305	0.02759
1590.45287	0.02690
1588.39270	0.02632
1586.33253	0.02573
1584.27236	0.02509
1582.21219	0.02442
1580.15201	0.02374
1578.09184	0.02308
1576.03167	0.02249
1573.97150	0.02200
1571.91133	0.02152
1569.85115	0.02094
1567.79098	0.02027
1565.73081	0.01952
1563.67064	0.01870
1561.61046	0.01784
1559.55029	0.01700
1557.49012	0.01630
1555.42995	0.01572
1553.36978	0.01515
1551.30960	0.01453
1549.24943	0.01387
1547.18926	0.01320
1545.12909	0.01249
1543.06892	0.01175
1541.00874	0.01107
1538.94857	0.01053
1536.88840	0.01013
1534.82823	0.00978
1532.76805	0.00944
1530.70788	0.00917
1528.64771	0.00897
1526.58754	0.00890
1524.52737	0.00912
1522.46719	0.00975
1520.40702	0.01077
1518.34685	0.01190
1516.28668	0.01279
1514.22651	0.01316
1512.16633	0.01287
1510.10616	0.01197
1508.04599	0.01070
1505.98582	0.00942
1503.92565	0.00838
1501.86547	0.00756
1499.80530	0.00684
1497.74513	0.00617
1495.68496	0.00557
1493.62478	0.00505
1491.56461	0.00457
1489.50444	0.00417
1487.44427	0.00390
1485.38410	0.00377
1483.32392	0.00380
1481.26375	0.00401
1479.20358	0.00449
1477.14341	0.00534
1475.08324	0.00664
1473.02306	0.00835
1470.96289	0.01027
1468.90272	0.01210
1466.84255	0.01368
1464.78238	0.01498
1462.72220	0.01602
1460.66203	0.01686
1458.60186	0.01761
1456.54169	0.01837
1454.48151	0.01904
1452.42134	0.01955
1450.36117	0.02000
1448.30100	0.02052
1446.24083	0.02118
1444.18065	0.02192
1442.12048	0.02267
1440.06031	0.02332
1438.00014	0.02382
1435.93997	0.02421
1433.87979	0.02451
1431.81962	0.02472
1429.75945	0.02486
1427.69928	0.02501
1425.63910	0.02518
1423.57893	0.02537
1421.51876	0.02554
1419.45859	0.02564
1417.39842	0.02566
1415.33824	0.02558
1413.27807	0.02536
1411.21790	0.02501
1409.15773	0.02456
1407.09756	0.02402
1405.03738	0.02339
1402.97721	0.02274
1400.91704	0.02214
1398.85687	0.02159
1396.79670	0.02109
1394.73652	0.02062
1392.67635	0.02024
1390.61618	0.02005
1388.55601	0.02009
1386.49583	0.02040
1384.43566	0.02091
1382.37549	0.02154
1380.31532	0.02219
1378.25515	0.02277
1376.19497	0.02323
1374.13480	0.02354
1372.07463	0.02372
1370.01446	0.02376
1367.95429	0.02366
1365.89411	0.02343
1363.83394	0.02308
1361.77377	0.02266
1359.71360	0.02224
1357.65343	0.02189
1355.59325	0.02164
1353.53308	0.02148
1351.47291	0.02139
1349.41274	0.02133
1347.35256	0.02130
1345.29239	0.02129
1343.23222	0.02128
1341.17205	0.02124
1339.11188	0.02119
1337.05170	0.02115
1334.99153	0.02112
1332.93136	0.02112
1330.87119	0.02115
1328.81102	0.02120
1326.75084	0.02127
1324.69067	0.02135
1322.63050	0.02141
1320.57033	0.02143
1318.51015	0.02140
1316.44998	0.02130
1314.38981	0.02112
1312.32964	0.02085
1310.26947	0.02048
1308.20929	0.02003
1306.14912	0.01950
1304.08895	0.01895
1302.02878	0.01843
1299.96861	0.01798
1297.90843	0.01766
1295.84826	0.01751
1293.78809	0.01754
1291.72792	0.01770
1289.66775	0.01792
1287.60757	0.01813
1285.54740	0.01833
1283.48723	0.01851
1281.42706	0.01867
1279.36688	0.01883
1277.30671	0.01899
1275.24654	0.01917
1273.18637	0.01938
1271.12620	0.01967
1269.06602	0.02007
1267.00585	0.02056
1264.94568	0.02113
1262.88551	0.02179
1260.82534	0.02247
1258.76516	0.02313
1256.70499	0.02370
1254.64482	0.02416
1252.58465	0.02453
1250.52447	0.02484
1248.46430	0.02511
1246.40413	0.02535
1244.34396	0.02551
1242.28379	0.02557
1240.22361	0.02556
1238.16344	0.02548
1236.10327	0.02529
1234.04310	0.02496
1231.98293	0.02446
1229.92275	0.02379
1227.86258	0.02300
1225.80241	0.02211
1223.74224	0.02114
1221.68207	0.02013
1219.62189	0.01910
1217.56172	0.01806
1215.50155	0.01700
1213.44138	0.01597
1211.38120	0.01495
1209.32103	0.01395
1207.26086	0.01293
1205.20069	0.01188
1203.14052	0.01077
1201.08034	0.00959
1199.02017	0.00835
1196.96000	0.00714
1194.89983	0.00607
1192.83966	0.00522
1190.77948	0.00457
1188.71931	0.00411
1186.65914	0.00380
1184.59897	0.00365
1182.53880	0.00364
1180.47862	0.00394
1178.41845	0.00463
1176.35828	0.00575
1174.29811	0.00729
1172.23793	0.00913
1170.17776	0.01100
1168.11759	0.01253
1166.05742	0.01354
1163.99725	0.01412
1161.93707	0.01452
1159.87690	0.01490
1157.81673	0.01534
1155.75656	0.01587
1153.69639	0.01651
1151.63621	0.01728
1149.57604	0.01813
1147.51587	0.01904
1145.45570	0.01996
1143.39552	0.02075
1141.33535	0.02138
1139.27518	0.02194
1137.21501	0.02248
1135.15484	0.02303
1133.09466	0.02368
1131.03449	0.02445
1128.97432	0.02531
1126.91415	0.02620
1124.85398	0.02714
1122.79380	0.02816
1120.73363	0.02926
1118.67346	0.03034
1116.61329	0.03131
1114.55312	0.03220
1112.49294	0.03312
1110.43277	0.03409
1108.37260	0.03506
1106.31243	0.03600
1104.25225	0.03693
1102.19208	0.03800
1100.13191	0.03929
1098.07174	0.04077
1096.01157	0.04238
1093.95139	0.04410
1091.89122	0.04585
1089.83105	0.04749
1087.77088	0.04896
1085.71071	0.05036
1083.65053	0.05180
1081.59036	0.05336
1079.53019	0.05506
1077.47002	0.05685
1075.40985	0.05865
1073.34967	0.06044
1071.28950	0.06215
1069.22933	0.06374
1067.16916	0.06511
1065.10898	0.06623
1063.04881	0.06723
1060.98864	0.06828
1058.92847	0.06947
1056.86830	0.07078
1054.80812	0.07217
1052.74795	0.07366
1050.68778	0.07534
1048.62761	0.07726
1046.56744	0.07936
1044.50726	0.08150
1042.44709	0.08353
1040.38692	0.08533
1038.32675	0.08686
1036.26657	0.08810
1034.20640	0.08899
1032.14623	0.08951
1030.08606	0.08969
1028.02589	0.08960
1025.96571	0.08928
1023.90554	0.08883
1021.84537	0.08838
1019.78520	0.08804
1017.72503	0.08787
1015.66485	0.08788
1013.60468	0.08797
1011.54451	0.08808
1009.48434	0.08820
1007.42417	0.08822
1005.36399	0.08800
1003.30382	0.08755
1001.24365	0.08690
999.18348	0.08606
997.12330	0.08510
995.06313	0.08405
993.00296	0.08279
990.94279	0.08137
988.88262	0.07998
986.82244	0.07867
984.76227	0.07731
982.70210	0.07593
980.64193	0.07476
978.58176	0.07380
976.52158	0.07284
974.46141	0.07167
972.40124	0.07025
970.34107	0.06866
968.28089	0.06713
966.22072	0.06572
964.16055	0.06430
962.10038	0.06284
960.04021	0.06141
957.98003	0.06001
955.91986	0.05867
953.85969	0.05748
951.79952	0.05641
949.73935	0.05530
947.67917	0.05408
945.61900	0.05275
943.55883	0.05132
941.49866	0.04967
939.43849	0.04760
937.37831	0.04503
935.31814	0.04218
933.25797	0.03934
931.19780	0.03666
929.13762	0.03431
927.07745	0.03242
925.01728	0.03095
922.95711	0.02961
920.89694	0.02820
918.83676	0.02677
916.77659	0.02535
914.71642	0.02393
912.65625	0.02250
910.59608	0.02116
908.53590	0.02004
906.47573	0.01920
904.41556	0.01859
902.35539	0.01818
900.29522	0.01796
898.23504	0.01797
896.17487	0.01823
894.11470	0.01855
892.05453	0.01859
889.99435	0.01825
887.93418	0.01767
885.87401	0.01700
883.81384	0.01630
881.75367	0.01551
879.69349	0.01457
877.63332	0.01356
875.57315	0.01271
873.51298	0.01206
871.45281	0.01161
869.39263	0.01131
867.33246	0.01109
865.27229	0.01093
863.21212	0.01087
861.15194	0.01082
859.09177	0.01059
857.03160	0.01019
854.97143	0.00985
852.91126	0.00974
850.85108	0.00979
848.79091	0.00989
846.73074	0.00993
844.67057	0.00994
842.61040	0.00988
840.55022	0.00964
838.49005	0.00928
836.42988	0.00904
834.36971	0.00889
832.30954	0.00849
830.24936	0.00787
828.18919	0.00733
826.12902	0.00698
824.06885	0.00672
822.00867	0.00655
819.94850	0.00641
817.88833	0.00621
815.82816	0.00610
813.76799	0.00619
811.70781	0.00628
809.64764	0.00623
807.58747	0.00613
805.52730	0.00605
803.46713	0.00602
801.40695	0.00603
799.34678	0.00594
797.28661	0.00558
795.22644	0.00500
793.16627	0.00446
791.10609	0.00417
789.04592	0.00420
786.98575	0.00440
784.92558	0.00462
782.86540	0.00486
780.80523	0.00518
778.74506	0.00546
776.68489	0.00552
774.62472	0.00537
772.56454	0.00521
770.50437	0.00510
768.44420	0.00495
766.38403	0.00469
764.32386	0.00442
762.26368	0.00433
760.20351	0.00455
758.14334	0.00495
756.08317	0.00520
754.02299	0.00518
751.96282	0.00506
749.90265	0.00493
747.84248	0.00472
745.78231	0.00443
743.72213	0.00423
741.66196	0.00382
739.60179	0.00361
737.54162	0.00369
735.48145	0.00404
733.42127	0.00451
731.36110	0.00482
729.30093	0.00484
727.24076	0.00476
725.18059	0.00476
723.12041	0.00481
721.06024	0.00492
719.00007	0.00510
716.93990	0.00533
714.87972	0.00555
712.81955	0.00578
710.75938	0.00607
708.69921	0.00643
706.63904	0.00683
704.57886	0.00723
702.51869	0.00761
700.45852	0.00784
698.39835	0.00783
696.33818	0.00759
694.27800	0.00715
692.21783	0.00665
690.15766	0.00621
688.09749	0.00582
686.03731	0.00536
683.97714	0.00487
681.91697	0.00455
679.85680	0.00440
677.79663	0.00433
675.73645	0.00426
673.67628	0.00415
671.61611	0.00391
669.55594	0.00358
667.49577	0.00352
665.43559	0.00380
663.37542	0.00402
661.31525	0.00405
659.25508	0.00398
657.19491	0.00392
655.13473	0.00393
653.07456	0.00405
651.01439	0.00424
648.95422	0.00435
646.89404	0.00417
644.83387	0.00395
642.77370	0.00393
640.71353	0.00420
638.65336	0.00462
636.59318	0.00494
634.53301	0.00497
632.47284	0.00472
630.41267	0.00422
628.35250	0.00337
626.29232	0.00219
624.23215	0.00154
622.17198	0.00162
620.11181	0.00232
618.05164	0.00310
615.99146	0.00304
613.93129	0.00193
611.87112	0.00080
609.81095	0.00043
607.75077	0.00023
605.69060	0.00005
603.63043	0.00000
601.57026	0.00010
599.51009	0.00000
