3996.73391	0.00009
3994.67373	0.00028
3992.61356	0.00047
3990.55339	0.00061
3988.49322	0.00065
3986.43305	0.00053
3984.37287	0.00029
3982.31270	0.00008
3980.25253	0.00000
3978.19236	0.00003
3976.13219	0.00012
3974.07201	0.00026
3972.01184	0.00039
3969.95167	0.00047
3967.89150	0.00050
3965.83133	0.00050
3963.77115	0.00050
3961.71098	0.00053
3959.65081	0.00055
3957.59064	0.00054
3955.53046	0.00052
3953.47029	0.00048
3951.41012	0.00047
3949.34995	0.00054
3947.28978	0.00067
3945.22960	0.00072
3943.16943	0.00064
3941.10926	0.00050
3939.04909	0.00039
3936.98892	0.00035
3934.92874	0.00037
3932.86857	0.00043
3930.80840	0.00051
3928.74823	0.00058
3926.68805	0.00057
3924.62788	0.00048
3922.56771	0.00029
3920.50754	0.00012
3918.44737	0.00007
3916.38719	0.00013
3914.32702	0.00019
3912.26685	0.00020
3910.20668	0.00015
3908.14651	0.00008
3906.08633	0.00009
3904.02616	0.00021
3901.96599	0.00039
3899.90582	0.00055
3897.84565	0.00073
3895.78547	0.00089
3893.72530	0.00094
3891.66513	0.00090
3889.60496	0.00086
3887.54478	0.00080
3885.48461	0.00070
3883.42444	0.00058
3881.36427	0.00047
3879.30410	0.00040
3877.24392	0.00032
3875.18375	0.00023
3873.12358	0.00015
3871.06341	0.00010
3869.00324	0.00010
3866.94306	0.00020
3864.88289	0.00040
3862.82272	0.00063
3860.76255	0.00073
3858.70237	0.00061
3856.64220	0.00033
3854.58203	0.00007
3852.52186	0.00007
3850.46169	0.00031
3848.40151	0.00059
3846.34134	0.00077
3844.28117	0.00082
3842.22100	0.00075
3840.16083	0.00057
3838.10065	0.00040
3836.04048	0.00034
3833.98031	0.00045
3831.92014	0.00068
3829.85997	0.00092
3827.79979	0.00107
3825.73962	0.00107
3823.67945	0.00095
3821.61928	0.00081
3819.55910	0.00070
3817.49893	0.00061
3815.43876	0.00055
3813.37859	0.00053
3811.31842	0.00049
3809.25824	0.00043
3807.19807	0.00043
3805.13790	0.00057
3803.07773	0.00079
3801.01756	0.00103
3798.95738	0.00115
3796.89721	0.00108
3794.83704	0.00091
3792.77687	0.00073
3790.71670	0.00060
3788.65652	0.00056
3786.59635	0.00053
3784.53618	0.00043
3782.47601	0.00024
3780.41583	0.00008
3778.35566	0.00007
3776.29549	0.00019
3774.23532	0.00037
3772.17515	0.00051
3770.11497	0.00058
3768.05480	0.00057
3765.99463	0.00057
3763.93446	0.00062
3761.87429	0.00066
3759.81411	0.00066
3757.75394	0.00068
3755.69377	0.00077
3753.63360	0.00100
3751.57342	0.00138
3749.51325	0.00176
3747.45308	0.00189
3745.39291	0.00173
3743.33274	0.00141
3741.27256	0.00108
3739.21239	0.00090
3737.15222	0.00098
3735.09205	0.00130
3733.03188	0.00168
3730.97170	0.00192
3728.91153	0.00193
3726.85136	0.00179
3724.79119	0.00160
3722.73102	0.00137
3720.67084	0.00109
3718.61067	0.00080
3716.55050	0.00055
3714.49033	0.00033
3712.43015	0.00015
3710.36998	0.00012
3708.30981	0.00030
3706.24964	0.00060
3704.18947	0.00085
3702.12929	0.00104
3700.06912	0.00114
3698.00895	0.00108
3695.94878	0.00085
3693.88861	0.00058
3691.82843	0.00046
3689.76826	0.00050
3687.70809	0.00057
3685.64792	0.00059
3683.58775	0.00053
3681.52757	0.00044
3679.46740	0.00037
3677.40723	0.00041
3675.34706	0.00057
3673.28688	0.00075
3671.22671	0.00087
3669.16654	0.00095
3667.10637	0.00101
3665.04620	0.00101
3662.98602	0.00101
3660.92585	0.00106
3658.86568	0.00111
3656.80551	0.00112
3654.74534	0.00118
3652.68516	0.00136
3650.62499	0.00159
3648.56482	0.00173
3646.50465	0.00170
3644.44447	0.00157
3642.38430	0.00147
3640.32413	0.00145
3638.26396	0.00154
3636.20379	0.00175
3634.14361	0.00206
3632.08344	0.00237
3630.02327	0.00267
3627.96310	0.00297
3625.90293	0.00322
3623.84275	0.00330
3621.78258	0.00322
3619.72241	0.00314
3617.66224	0.00316
3615.60207	0.00324
3613.54189	0.00331
3611.48172	0.00337
3609.42155	0.00350
3607.36138	0.00371
3605.30120	0.00395
3603.24103	0.00416
3601.18086	0.00435
3599.12069	0.00455
3597.06052	0.00477
3595.00034	0.00504
3592.94017	0.00532
3590.88000	0.00551
3588.81983	0.00560
3586.75966	0.00565
3584.69948	0.00573
3582.63931	0.00584
3580.57914	0.00599
3578.51897	0.00619
3576.45879	0.00637
3574.39862	0.00654
3572.33845	0.00676
3570.27828	0.00709
3568.21811	0.00751
3566.15793	0.00796
3564.09776	0.00840
3562.03759	0.00882
3559.97742	0.00921
3557.91725	0.00951
3555.85707	0.00971
3553.79690	0.00987
3551.73673	0.01011
3549.67656	0.01045
3547.61639	0.01079
3545.55621	0.01108
3543.49604	0.01138
3541.43587	0.01175
3539.37570	0.01215
3537.31552	0.01251
3535.25535	0.01280
3533.19518	0.01303
3531.13501	0.01321
3529.07484	0.01343
3527.01466	0.01373
3524.95449	0.01408
3522.89432	0.01443
3520.83415	0.01474
3518.77398	0.01502
3516.71380	0.01525
3514.65363	0.01547
3512.59346	0.01570
3510.53329	0.01602
3508.47312	0.01635
3506.41294	0.01660
3504.35277	0.01678
3502.29260	0.01697
3500.23243	0.01721
3498.17225	0.01752
3496.11208	0.01793
3494.05191	0.01840
3491.99174	0.01884
3489.93157	0.01922
3487.87139	0.01955
3485.81122	0.01984
3483.75105	0.02008
3481.69088	0.02030
3479.63071	0.02050
3477.57053	0.02068
3475.51036	0.02090
3473.45019	0.02122
3471.39002	0.02166
3469.32984	0.02214
3467.26967	0.02258
3465.20950	0.02293
3463.14933	0.02322
3461.08916	0.02350
3459.02898	0.02381
3456.96881	0.02410
3454.90864	0.02437
3452.84847	0.02460
3450.78830	0.02481
3448.72812	0.02501
3446.66795	0.02519
3444.60778	0.02542
3442.54761	0.02571
3440.48744	0.02609
3438.42726	0.02647
3436.36709	0.02679
3434.30692	0.02703
3432.24675	0.02723
3430.18657	0.02743
3428.12640	0.02766
3426.06623	0.02787
3424.00606	0.02806
3421.94589	0.02828
3419.88571	0.02860
3417.82554	0.02900
3415.76537	0.02939
3413.70520	0.02965
3411.64503	0.02977
3409.58485	0.02985
3407.52468	0.03001
3405.46451	0.03026
3403.40434	0.03053
3401.34416	0.03073
3399.28399	0.03090
3397.22382	0.03109
3395.16365	0.03131
3393.10348	0.03154
3391.04330	0.03177
3388.98313	0.03200
3386.92296	0.03222
3384.86279	0.03243
3382.80262	0.03262
3380.74244	0.03282
3378.68227	0.03298
3376.62210	0.03309
3374.56193	0.03317
3372.50176	0.03327
3370.44158	0.03340
3368.38141	0.03359
3366.32124	0.03381
3364.26107	0.03403
3362.20089	0.03422
3360.14072	0.03437
3358.08055	0.03447
3356.02038	0.03456
3353.96021	0.03462
3351.90003	0.03463
3349.83986	0.03464
3347.77969	0.03470
3345.71952	0.03478
3343.65935	0.03480
3341.59917	0.03477
3339.53900	0.03480
3337.47883	0.03494
3335.41866	0.03513
3333.35849	0.03528
3331.29831	0.03537
3329.23814	0.03544
3327.17797	0.03549
3325.11780	0.03552
3323.05762	0.03551
3320.99745	0.03548
3318.93728	0.03550
3316.87711	0.03559
3314.81694	0.03573
3312.75676	0.03587
3310.69659	0.03596
3308.63642	0.03602
3306.57625	0.03605
3304.51608	0.03604
3302.45590	0.03598
3300.39573	0.03591
3298.33556	0.03587
3296.27539	0.03585
3294.21521	0.03583
3292.15504	0.03580
3290.09487	0.03574
3288.03470	0.03566
3285.97453	0.03562
3283.91435	0.03559
3281.85418	0.03558
3279.79401	0.03559
3277.73384	0.03567
3275.67367	0.03578
3273.61349	0.03585
3271.55332	0.03583
3269.49315	0.03573
3267.43298	0.03565
3265.37281	0.03560
3263.31263	0.03556
3261.25246	0.03552
3259.19229	0.03550
3257.13212	0.03550
3255.07194	0.03550
3253.01177	0.03546
3250.95160	0.03532
3248.89143	0.03510
3246.83126	0.03483
3244.77108	0.03460
3242.71091	0.03448
3240.65074	0.03445
3238.59057	0.03447
3236.53040	0.03445
3234.47022	0.03435
3232.41005	0.03419
3230.34988	0.03403
3228.28971	0.03391
3226.22954	0.03381
3224.16936	0.03371
3222.10919	0.03358
3220.04902	0.03345
3217.98885	0.03336
3215.92867	0.03334
3213.86850	0.03333
3211.80833	0.03331
3209.74816	0.03326
3207.68799	0.03316
3205.62781	0.03297
3203.56764	0.03269
3201.50747	0.03241
3199.44730	0.03220
3197.38713	0.03208
3195.32695	0.03203
3193.26678	0.03200
3191.20661	0.03195
3189.14644	0.03183
3187.08626	0.03161
3185.02609	0.03132
3182.96592	0.03104
3180.90575	0.03079
3178.84558	0.03056
3176.78540	0.03030
3174.72523	0.03000
3172.66506	0.02970
3170.60489	0.02944
3168.54472	0.02923
3166.48454	0.02908
3164.42437	0.02897
3162.36420	0.02889
3160.30403	0.02884
3158.24386	0.02880
3156.18368	0.02871
3154.12351	0.02854
3152.06334	0.02831
3150.00317	0.02807
3147.94299	0.02785
3145.88282	0.02765
3143.82265	0.02748
3141.76248	0.02728
3139.70231	0.02703
3137.64213	0.02669
3135.58196	0.02635
3133.52179	0.02607
3131.46162	0.02588
3129.40145	0.02573
3127.34127	0.02560
3125.28110	0.02547
3123.22093	0.02531
3121.16076	0.02512
3119.10058	0.02488
3117.04041	0.02462
3114.98024	0.02440
3112.92007	0.02425
3110.85990	0.02417
3108.79972	0.02407
3106.73955	0.02389
3104.67938	0.02365
3102.61921	0.02338
3100.55904	0.02309
3098.49886	0.02278
3096.43869	0.02245
3094.37852	0.02216
3092.31835	0.02193
3090.25818	0.02176
3088.19800	0.02164
3086.13783	0.02155
3084.07766	0.02145
3082.01749	0.02132
3079.95731	0.02116
3077.89714	0.02097
3075.83697	0.02079
3073.77680	0.02066
3071.71663	0.02055
3069.65645	0.02043
3067.59628	0.02027
3065.53611	0.02008
3063.47594	0.01987
3061.41577	0.01962
3059.35559	0.01936
3057.29542	0.01912
3055.23525	0.01895
3053.17508	0.01883
3051.11491	0.01872
3049.05473	0.01854
3046.99456	0.01832
3044.93439	0.01812
3042.87422	0.01796
3040.81404	0.01783
3038.75387	0.01770
3036.69370	0.01756
3034.63353	0.01744
3032.57336	0.01731
3030.51318	0.01718
3028.45301	0.01704
3026.39284	0.01691
3024.33267	0.01677
3022.27250	0.01666
3020.21232	0.01663
3018.15215	0.01669
3016.09198	0.01681
3014.03181	0.01690
3011.97163	0.01690
3009.91146	0.01677
3007.85129	0.01657
3005.79112	0.01634
3003.73095	0.01610
3001.67077	0.01586
2999.61060	0.01570
2997.55043	0.01564
2995.49026	0.01563
2993.43009	0.01555
2991.36991	0.01548
2989.30974	0.01552
2987.24957	0.01563
2985.18940	0.01577
2983.12923	0.01595
2981.06905	0.01615
2979.00888	0.01645
2976.94871	0.01695
2974.88854	0.01752
2972.82836	0.01798
2970.76819	0.01844
2968.70802	0.01913
2966.64785	0.02004
2964.58768	0.02106
2962.52750	0.02212
2960.46733	0.02321
2958.40716	0.02433
2956.34699	0.02549
2954.28682	0.02669
2952.22664	0.02794
2950.16647	0.02918
2948.10630	0.03038
2946.04613	0.03171
2943.98596	0.03326
2941.92578	0.03491
2939.86561	0.03662
2937.80544	0.03842
2935.74527	0.04025
2933.68509	0.04200
2931.62492	0.04361
2929.56475	0.04509
2927.50458	0.04637
2925.44441	0.04736
2923.38423	0.04812
2921.32406	0.04863
2919.26389	0.04869
2917.20372	0.04817
2915.14355	0.04704
2913.08337	0.04539
2911.02320	0.04347
2908.96303	0.04156
2906.90286	0.03985
2904.84268	0.03838
2902.78251	0.03713
2900.72234	0.03609
2898.66217	0.03517
2896.60200	0.03426
2894.54182	0.03334
2892.48165	0.03241
2890.42148	0.03152
2888.36131	0.03073
2886.30114	0.03011
2884.24096	0.02962
2882.18079	0.02923
2880.12062	0.02896
2878.06045	0.02882
2876.00028	0.02878
2873.94010	0.02881
2871.87993	0.02896
2869.81976	0.02929
2867.75959	0.02979
2865.69941	0.03051
2863.63924	0.03143
2861.57907	0.03254
2859.51890	0.03380
2857.45873	0.03509
2855.39855	0.03632
2853.33838	0.03735
2851.27821	0.03782
2849.21804	0.03720
2847.15787	0.03530
2845.09769	0.03262
2843.03752	0.02997
2840.97735	0.02782
2838.91718	0.02621
2836.85700	0.02491
2834.79683	0.02382
2832.73666	0.02290
2830.67649	0.02211
2828.61632	0.02142
2826.55614	0.02091
2824.49597	0.02056
2822.43580	0.02024
2820.37563	0.01991
2818.31546	0.01959
2816.25528	0.01925
2814.19511	0.01884
2812.13494	0.01845
2810.07477	0.01818
2808.01460	0.01794
2805.95442	0.01773
2803.89425	0.01757
2801.83408	0.01738
2799.77391	0.01710
2797.71373	0.01683
2795.65356	0.01666
2793.59339	0.01653
2791.53322	0.01639
2789.47305	0.01625
2787.41287	0.01610
2785.35270	0.01592
2783.29253	0.01566
2781.23236	0.01539
2779.17219	0.01523
2777.11201	0.01517
2775.05184	0.01506
2772.99167	0.01488
2770.93150	0.01465
2768.87133	0.01449
2766.81115	0.01448
2764.75098	0.01459
2762.69081	0.01466
2760.63064	0.01457
2758.57046	0.01440
2756.51029	0.01428
2754.45012	0.01422
2752.38995	0.01418
2750.32978	0.01418
2748.26960	0.01424
2746.20943	0.01433
2744.14926	0.01439
2742.08909	0.01437
2740.02892	0.01429
2737.96874	0.01421
2735.90857	0.01412
2733.84840	0.01398
2731.78823	0.01381
2729.72805	0.01366
2727.66788	0.01359
2725.60771	0.01363
2723.54754	0.01369
2721.48737	0.01369
2719.42719	0.01361
2717.36702	0.01349
2715.30685	0.01345
2713.24668	0.01348
2711.18651	0.01348
2709.12633	0.01342
2707.06616	0.01340
2705.00599	0.01343
2702.94582	0.01344
2700.88565	0.01338
2698.82547	0.01327
2696.76530	0.01313
2694.70513	0.01298
2692.64496	0.01293
2690.58478	0.01293
2688.52461	0.01287
2686.46444	0.01274
2684.40427	0.01271
2682.34410	0.01283
2680.28392	0.01294
2678.22375	0.01296
2676.16358	0.01292
2674.10341	0.01284
2672.04324	0.01273
2669.98306	0.01263
2667.92289	0.01261
2665.86272	0.01267
2663.80255	0.01272
2661.74238	0.01265
2659.68220	0.01252
2657.62203	0.01244
2655.56186	0.01244
2653.50169	0.01242
2651.44151	0.01230
2649.38134	0.01213
2647.32117	0.01202
2645.26100	0.01201
2643.20083	0.01198
2641.14065	0.01182
2639.08048	0.01160
2637.02031	0.01146
2634.96014	0.01147
2632.89997	0.01154
2630.83979	0.01158
2628.77962	0.01152
2626.71945	0.01138
2624.65928	0.01121
2622.59910	0.01106
2620.53893	0.01088
2618.47876	0.01073
2616.41859	0.01069
2614.35842	0.01067
2612.29824	0.01054
2610.23807	0.01045
2608.17790	0.01053
2606.11773	0.01062
2604.05756	0.01053
2601.99738	0.01035
2599.93721	0.01026
2597.87704	0.01023
2595.81687	0.01013
2593.75670	0.00993
2591.69652	0.00968
2589.63635	0.00947
2587.57618	0.00937
2585.51601	0.00938
2583.45583	0.00950
2581.39566	0.00968
2579.33549	0.00981
2577.27532	0.00980
2575.21515	0.00965
2573.15497	0.00947
2571.09480	0.00933
2569.03463	0.00927
2566.97446	0.00927
2564.91429	0.00929
2562.85411	0.00922
2560.79394	0.00908
2558.73377	0.00896
2556.67360	0.00895
2554.61342	0.00892
2552.55325	0.00874
2550.49308	0.00856
2548.43291	0.00856
2546.37274	0.00863
2544.31256	0.00853
2542.25239	0.00828
2540.19222	0.00811
2538.13205	0.00817
2536.07188	0.00835
2534.01170	0.00844
2531.95153	0.00839
2529.89136	0.00827
2527.83119	0.00813
2525.77102	0.00802
2523.71084	0.00803
2521.65067	0.00804
2519.59050	0.00794
2517.53033	0.00781
2515.47015	0.00771
2513.40998	0.00766
2511.34981	0.00769
2509.28964	0.00776
2507.22947	0.00779
2505.16929	0.00775
2503.10912	0.00771
2501.04895	0.00771
2498.98878	0.00773
2496.92861	0.00774
2494.86843	0.00769
2492.80826	0.00751
2490.74809	0.00728
2488.68792	0.00722
2486.62775	0.00735
2484.56757	0.00740
2482.50740	0.00733
2480.44723	0.00730
2478.38706	0.00740
2476.32688	0.00750
2474.26671	0.00747
2472.20654	0.00732
2470.14637	0.00721
2468.08620	0.00723
2466.02602	0.00730
2463.96585	0.00726
2461.90568	0.00714
2459.84551	0.00707
2457.78534	0.00707
2455.72516	0.00702
2453.66499	0.00694
2451.60482	0.00693
2449.54465	0.00699
2447.48447	0.00706
2445.42430	0.00710
2443.36413	0.00701
2441.30396	0.00674
2439.24379	0.00649
2437.18361	0.00653
2435.12344	0.00683
2433.06327	0.00703
2431.00310	0.00683
2428.94293	0.00643
2426.88275	0.00613
2424.82258	0.00596
2422.76241	0.00587
2420.70224	0.00592
2418.64207	0.00613
2416.58189	0.00633
2414.52172	0.00638
2412.46155	0.00628
2410.40138	0.00613
2408.34120	0.00606
2406.28103	0.00610
2404.22086	0.00616
2402.16069	0.00618
2400.10052	0.00619
2398.04034	0.00622
2395.98017	0.00625
2393.92000	0.00629
2391.85983	0.00631
2389.79966	0.00634
2387.73948	0.00637
2385.67931	0.00639
2383.61914	0.00638
2381.55897	0.00635
2379.49880	0.00631
2377.43862	0.00621
2375.37845	0.00597
2373.31828	0.00561
2371.25811	0.00525
2369.19793	0.00506
2367.13776	0.00519
2365.07759	0.00559
2363.01742	0.00604
2360.95725	0.00632
2358.89707	0.00626
2356.83690	0.00606
2354.77673	0.00613
2352.71656	0.00666
2350.65639	0.00736
2348.59621	0.00766
2346.53604	0.00733
2344.47587	0.00673
2342.41570	0.00621
2340.35552	0.00591
2338.29535	0.00580
2336.23518	0.00590
2334.17501	0.00621
2332.11484	0.00672
2330.05466	0.00736
2327.99449	0.00798
2325.93432	0.00836
2323.87415	0.00831
2321.81398	0.00800
2319.75380	0.00769
2317.69363	0.00742
2315.63346	0.00711
2313.57329	0.00679
2311.51312	0.00653
2309.45294	0.00636
2307.39277	0.00625
2305.33260	0.00620
2303.27243	0.00622
2301.21225	0.00633
2299.15208	0.00650
2297.09191	0.00663
2295.03174	0.00668
2292.97157	0.00666
2290.91139	0.00661
2288.85122	0.00647
2286.79105	0.00623
2284.73088	0.00591
2282.67071	0.00556
2280.61053	0.00528
2278.55036	0.00509
2276.49019	0.00497
2274.43002	0.00484
2272.36984	0.00473
2270.30967	0.00478
2268.24950	0.00503
2266.18933	0.00531
2264.12916	0.00536
2262.06898	0.00509
2260.00881	0.00466
2257.94864	0.00438
2255.88847	0.00440
2253.82830	0.00461
2251.76812	0.00475
2249.70795	0.00475
2247.64778	0.00463
2245.58761	0.00444
2243.52744	0.00425
2241.46726	0.00412
2239.40709	0.00409
2237.34692	0.00426
2235.28675	0.00454
2233.22657	0.00440
2231.16640	0.00379
2229.10623	0.00354
2227.04606	0.00389
2224.98589	0.00425
2222.92571	0.00439
2220.86554	0.00448
2218.80537	0.00442
2216.74520	0.00419
2214.68503	0.00406
2212.62485	0.00406
2210.56468	0.00383
2208.50451	0.00337
2206.44434	0.00324
2204.38417	0.00359
2202.32399	0.00396
2200.26382	0.00409
2198.20365	0.00402
2196.14348	0.00389
2194.08330	0.00396
2192.02313	0.00432
2189.96296	0.00474
2187.90279	0.00481
2185.84262	0.00428
2183.78244	0.00352
2181.72227	0.00317
2179.66210	0.00338
2177.60193	0.00385
2175.54176	0.00423
2173.48158	0.00455
2171.42141	0.00496
2169.36124	0.00510
2167.30107	0.00460
2165.24089	0.00383
2163.18072	0.00308
2161.12055	0.00219
2159.06038	0.00146
2157.00021	0.00124
2154.94003	0.00127
2152.87986	0.00160
2150.81969	0.00243
2148.75952	0.00311
2146.69935	0.00301
2144.63917	0.00243
2142.57900	0.00201
2140.51883	0.00200
2138.45866	0.00241
2136.39849	0.00300
2134.33831	0.00332
2132.27814	0.00317
2130.21797	0.00296
2128.15780	0.00300
2126.09762	0.00320
2124.03745	0.00346
2121.97728	0.00373
2119.91711	0.00399
2117.85694	0.00424
2115.79676	0.00449
2113.73659	0.00460
2111.67642	0.00443
2109.61625	0.00406
2107.55608	0.00377
2105.49590	0.00376
2103.43573	0.00391
2101.37556	0.00395
2099.31539	0.00388
2097.25521	0.00384
2095.19504	0.00396
2093.13487	0.00420
2091.07470	0.00440
2089.01453	0.00441
2086.95435	0.00425
2084.89418	0.00402
2082.83401	0.00385
2080.77384	0.00380
2078.71367	0.00379
2076.65349	0.00374
2074.59332	0.00362
2072.53315	0.00347
2070.47298	0.00334
2068.41281	0.00327
2066.35263	0.00322
2064.29246	0.00313
2062.23229	0.00298
2060.17212	0.00280
2058.11194	0.00278
2056.05177	0.00302
2053.99160	0.00344
2051.93143	0.00366
2049.87126	0.00336
2047.81108	0.00263
2045.75091	0.00188
2043.69074	0.00143
2041.63057	0.00136
2039.57040	0.00144
2037.51022	0.00144
2035.45005	0.00131
2033.38988	0.00122
2031.32971	0.00141
2029.26954	0.00190
2027.20936	0.00251
2025.14919	0.00291
2023.08902	0.00284
2021.02885	0.00231
2018.96867	0.00162
2016.90850	0.00107
2014.84833	0.00075
2012.78816	0.00063
2010.72799	0.00075
2008.66781	0.00115
2006.60764	0.00169
2004.54747	0.00214
2002.48730	0.00231
2000.42713	0.00216
1998.36695	0.00186
1996.30678	0.00160
1994.24661	0.00140
1992.18644	0.00121
1990.12626	0.00111
1988.06609	0.00128
1986.00592	0.00170
1983.94575	0.00207
1981.88558	0.00209
1979.82540	0.00179
1977.76523	0.00144
1975.70506	0.00128
1973.64489	0.00132
1971.58472	0.00142
1969.52454	0.00149
1967.46437	0.00150
1965.40420	0.00137
1963.34403	0.00106
1961.28386	0.00077
1959.22368	0.00070
1957.16351	0.00088
1955.10334	0.00122
1953.04317	0.00162
1950.98299	0.00199
1948.92282	0.00221
1946.86265	0.00216
1944.80248	0.00188
1942.74231	0.00155
1940.68213	0.00133
1938.62196	0.00125
1936.56179	0.00123
1934.50162	0.00118
1932.44145	0.00114
1930.38127	0.00116
1928.32110	0.00124
1926.26093	0.00134
1924.20076	0.00145
1922.14059	0.00154
1920.08041	0.00158
1918.02024	0.00161
1915.96007	0.00167
1913.89990	0.00173
1911.83972	0.00178
1909.77955	0.00179
1907.71938	0.00174
1905.65921	0.00165
1903.59904	0.00155
1901.53886	0.00151
1899.47869	0.00155
1897.41852	0.00164
1895.35835	0.00171
1893.29818	0.00172
1891.23800	0.00167
1889.17783	0.00158
1887.11766	0.00151
1885.05749	0.00151
1882.99731	0.00159
1880.93714	0.00168
1878.87697	0.00171
1876.81680	0.00164
1874.75663	0.00153
1872.69645	0.00146
1870.63628	0.00150
1868.57611	0.00162
1866.51594	0.00176
1864.45577	0.00184
1862.39559	0.00185
1860.33542	0.00184
1858.27525	0.00182
1856.21508	0.00180
1854.15491	0.00176
1852.09473	0.00170
1850.03456	0.00165
1847.97439	0.00164
1845.91422	0.00165
1843.85404	0.00164
1841.79387	0.00160
1839.73370	0.00156
1837.67353	0.00148
1835.61336	0.00138
1833.55318	0.00128
1831.49301	0.00121
1829.43284	0.00122
1827.37267	0.00127
1825.31250	0.00130
1823.25232	0.00124
1821.19215	0.00109
1819.13198	0.00089
1817.07181	0.00073
1815.01163	0.00070
1812.95146	0.00076
1810.89129	0.00092
1808.83112	0.00113
1806.77095	0.00133
1804.71077	0.00143
1802.65060	0.00145
1800.59043	0.00139
1798.53026	0.00131
1796.47009	0.00123
1794.40991	0.00113
1792.34974	0.00102
1790.28957	0.00093
1788.22940	0.00087
1786.16923	0.00080
1784.10905	0.00074
1782.04888	0.00071
1779.98871	0.00065
1777.92854	0.00064
1775.86836	0.00068
1773.80819	0.00080
1771.74802	0.00101
1769.68785	0.00130
1767.62768	0.00162
1765.56750	0.00198
1763.50733	0.00242
1761.44716	0.00304
1759.38699	0.00388
1757.32682	0.00492
1755.26664	0.00612
1753.20647	0.00737
1751.14630	0.00864
1749.08613	0.00991
1747.02596	0.01114
1744.96578	0.01216
1742.90561	0.01283
1740.84544	0.01316
1738.78527	0.01327
1736.72509	0.01327
1734.66492	0.01323
1732.60475	0.01322
1730.54458	0.01324
1728.48441	0.01324
1726.42423	0.01320
1724.36406	0.01314
1722.30389	0.01307
1720.24372	0.01296
1718.18355	0.01288
1716.12337	0.01292
1714.06320	0.01307
1712.00303	0.01321
1709.94286	0.01326
1707.88268	0.01322
1705.82251	0.01314
1703.76234	0.01301
1701.70217	0.01281
1699.64200	0.01263
1697.58182	0.01268
1695.52165	0.01305
1693.46148	0.01367
1691.40131	0.01438
1689.34114	0.01516
1687.28096	0.01611
1685.22079	0.01736
1683.16062	0.01892
1681.10045	0.02053
1679.04028	0.02190
1676.98010	0.02298
1674.91993	0.02382
1672.85976	0.02436
1670.79959	0.02451
1668.73941	0.02428
1666.67924	0.02380
1664.61907	0.02320
1662.55890	0.02255
1660.49873	0.02196
1658.43855	0.02143
1656.37838	0.02096
1654.31821	0.02061
1652.25804	0.02044
1650.19787	0.02043
1648.13769	0.02044
1646.07752	0.02048
1644.01735	0.02062
1641.95718	0.02084
1639.89701	0.02113
1637.83683	0.02154
1635.77666	0.02209
1633.71649	0.02274
1631.65632	0.02331
1629.59614	0.02373
1627.53597	0.02400
1625.47580	0.02417
1623.41563	0.02429
1621.35546	0.02445
1619.29528	0.02465
1617.23511	0.02493
1615.17494	0.02540
1613.11477	0.02610
1611.05460	0.02701
1608.99442	0.02798
1606.93425	0.02874
1604.87408	0.02902
1602.81391	0.02870
1600.75373	0.02785
1598.69356	0.02672
1596.63339	0.02555
1594.57322	0.02450
1592.51305	0.02366
1590.45287	0.02300
1588.39270	0.02243
1586.33253	0.02184
1584.27236	0.02119
1582.21219	0.02049
1580.15201	0.01980
1578.09184	0.01915
1576.03167	0.01860
1573.97150	0.01818
1571.91133	0.01778
1569.85115	0.01730
1567.79098	0.01672
1565.73081	0.01605
1563.67064	0.01525
1561.61046	0.01433
1559.55029	0.01339
1557.49012	0.01265
1555.42995	0.01212
1553.36978	0.01162
1551.30960	0.01104
1549.24943	0.01041
1547.18926	0.00980
1545.12909	0.00917
1543.06892	0.00849
1541.00874	0.00782
1538.94857	0.00731
1536.88840	0.00698
1534.82823	0.00671
1532.76805	0.00644
1530.70788	0.00622
1528.64771	0.00607
1526.58754	0.00606
1524.52737	0.00631
1522.46719	0.00691
1520.40702	0.00782
1518.34685	0.00882
1516.28668	0.00959
1514.22651	0.00993
1512.16633	0.00971
1510.10616	0.00892
1508.04599	0.00772
1505.98582	0.00646
1503.92565	0.00545
1501.86547	0.00467
1499.80530	0.00398
1497.74513	0.00335
1495.68496	0.00283
1493.62478	0.00240
1491.56461	0.00204
1489.50444	0.00174
1487.44427	0.00157
1485.38410	0.00152
1483.32392	0.00159
1481.26375	0.00181
1479.20358	0.00224
1477.14341	0.00296
1475.08324	0.00403
1473.02306	0.00548
1470.96289	0.00718
1468.90272	0.00891
1466.84255	0.01047
1464.78238	0.01175
1462.72220	0.01273
1460.66203	0.01345
1458.60186	0.01409
1456.54169	0.01482
1454.48151	0.01557
1452.42134	0.01622
1450.36117	0.01679
1448.30100	0.01736
1446.24083	0.01800
1444.18065	0.01870
1442.12048	0.01938
1440.06031	0.01997
1438.00014	0.02042
1435.93997	0.02080
1433.87979	0.02112
1431.81962	0.02138
1429.75945	0.02157
1427.69928	0.02172
1425.63910	0.02185
1423.57893	0.02194
1421.51876	0.02200
1419.45859	0.02201
1417.39842	0.02198
1415.33824	0.02190
1413.27807	0.02172
1411.21790	0.02141
1409.15773	0.02099
1407.09756	0.02045
1405.03738	0.01983
1402.97721	0.01919
1400.91704	0.01859
1398.85687	0.01804
1396.79670	0.01755
1394.73652	0.01712
1392.67635	0.01682
1390.61618	0.01672
1388.55601	0.01682
1386.49583	0.01713
1384.43566	0.01759
1382.37549	0.01814
1380.31532	0.01870
1378.25515	0.01921
1376.19497	0.01961
1374.13480	0.01990
1372.07463	0.02008
1370.01446	0.02013
1367.95429	0.02003
1365.89411	0.01976
1363.83394	0.01936
1361.77377	0.01891
1359.71360	0.01852
1357.65343	0.01822
1355.59325	0.01801
1353.53308	0.01787
1351.47291	0.01777
1349.41274	0.01770
1347.35256	0.01767
1345.29239	0.01767
1343.23222	0.01767
1341.17205	0.01764
1339.11188	0.01755
1337.05170	0.01746
1334.99153	0.01740
1332.93136	0.01738
1330.87119	0.01742
1328.81102	0.01750
1326.75084	0.01761
1324.69067	0.01771
1322.63050	0.01778
1320.57033	0.01777
1318.51015	0.01769
1316.44998	0.01754
1314.38981	0.01733
1312.32964	0.01710
1310.26947	0.01682
1308.20929	0.01644
1306.14912	0.01598
1304.08895	0.01544
1302.02878	0.01492
1299.96861	0.01445
1297.90843	0.01412
1295.84826	0.01398
1293.78809	0.01404
1291.72792	0.01426
1289.66775	0.01454
1287.60757	0.01478
1285.54740	0.01497
1283.48723	0.01514
1281.42706	0.01530
1279.36688	0.01544
1277.30671	0.01557
1275.24654	0.01569
1273.18637	0.01584
1271.12620	0.01610
1269.06602	0.01647
1267.00585	0.01695
1264.94568	0.01752
1262.88551	0.01815
1260.82534	0.01880
1258.76516	0.01940
1256.70499	0.01989
1254.64482	0.02028
1252.58465	0.02060
1250.52447	0.02089
1248.46430	0.02116
1246.40413	0.02139
1244.34396	0.02156
1242.28379	0.02165
1240.22361	0.02164
1238.16344	0.02153
1236.10327	0.02131
1234.04310	0.02096
1231.98293	0.02047
1229.92275	0.01985
1227.86258	0.01910
1225.80241	0.01824
1223.74224	0.01729
1221.68207	0.01628
1219.62189	0.01526
1217.56172	0.01425
1215.50155	0.01325
1213.44138	0.01229
1211.38120	0.01136
1209.32103	0.01045
1207.26086	0.00952
1205.20069	0.00854
1203.14052	0.00746
1201.08034	0.00630
1199.02017	0.00510
1196.96000	0.00398
1194.89983	0.00305
1192.83966	0.00230
1190.77948	0.00168
1188.71931	0.00120
1186.65914	0.00090
1184.59897	0.00079
1182.53880	0.00095
1180.47862	0.00138
1178.41845	0.00211
1176.35828	0.00318
1174.29811	0.00459
1172.23793	0.00628
1170.17776	0.00805
1168.11759	0.00953
1166.05742	0.01049
1163.99725	0.01101
1161.93707	0.01137
1159.87690	0.01177
1157.81673	0.01226
1155.75656	0.01283
1153.69639	0.01346
1151.63621	0.01414
1149.57604	0.01486
1147.51587	0.01564
1145.45570	0.01647
1143.39552	0.01723
1141.33535	0.01785
1139.27518	0.01836
1137.21501	0.01880
1135.15484	0.01931
1133.09466	0.01999
1131.03449	0.02078
1128.97432	0.02153
1126.91415	0.02225
1124.85398	0.02307
1122.79380	0.02406
1120.73363	0.02513
1118.67346	0.02618
1116.61329	0.02709
1114.55312	0.02794
1112.49294	0.02880
1110.43277	0.02969
1108.37260	0.03060
1106.31243	0.03145
1104.25225	0.03229
1102.19208	0.03329
1100.13191	0.03455
1098.07174	0.03601
1096.01157	0.03754
1093.95139	0.03908
1091.89122	0.04060
1089.83105	0.04209
1087.77088	0.04352
1085.71071	0.04487
1083.65053	0.04621
1081.59036	0.04766
1079.53019	0.04922
1077.47002	0.05086
1075.40985	0.05253
1073.34967	0.05417
1071.28950	0.05570
1069.22933	0.05709
1067.16916	0.05835
1065.10898	0.05948
1063.04881	0.06044
1060.98864	0.06128
1058.92847	0.06222
1056.86830	0.06337
1054.80812	0.06471
1052.74795	0.06617
1050.68778	0.06782
1048.62761	0.06968
1046.56744	0.07161
1044.50726	0.07342
1042.44709	0.07503
1040.38692	0.07642
1038.32675	0.07764
1036.26657	0.07867
1034.20640	0.07943
1032.14623	0.07989
1030.08606	0.08005
1028.02589	0.08001
1025.96571	0.07982
1023.90554	0.07953
1021.84537	0.07918
1019.78520	0.07886
1017.72503	0.07869
1015.66485	0.07868
1013.60468	0.07870
1011.54451	0.07870
1009.48434	0.07872
1007.42417	0.07874
1005.36399	0.07868
1003.30382	0.07839
1001.24365	0.07780
999.18348	0.07694
997.12330	0.07597
995.06313	0.07493
993.00296	0.07370
990.94279	0.07230
988.88262	0.07093
986.82244	0.06970
984.76227	0.06860
982.70210	0.06755
980.64193	0.06647
978.58176	0.06542
976.52158	0.06445
974.46141	0.06343
972.40124	0.06225
970.34107	0.06090
968.28089	0.05947
966.22072	0.05802
964.16055	0.05663
962.10038	0.05541
960.04021	0.05434
957.98003	0.05328
955.91986	0.05210
953.85969	0.05084
951.79952	0.04962
949.73935	0.04851
947.67917	0.04740
945.61900	0.04616
943.55883	0.04468
941.49866	0.04286
939.43849	0.04067
937.37831	0.03826
935.31814	0.03577
933.25797	0.03326
931.19780	0.03086
929.13762	0.02878
927.07745	0.02705
925.01728	0.02559
922.95711	0.02425
920.89694	0.02292
918.83676	0.02161
916.77659	0.02030
914.71642	0.01896
912.65625	0.01761
910.59608	0.01642
908.53590	0.01548
906.47573	0.01471
904.41556	0.01403
902.35539	0.01349
900.29522	0.01326
898.23504	0.01337
896.17487	0.01362
894.11470	0.01381
892.05453	0.01387
889.99435	0.01376
887.93418	0.01338
885.87401	0.01274
883.81384	0.01200
881.75367	0.01116
879.69349	0.01012
877.63332	0.00914
875.57315	0.00844
873.51298	0.00790
871.45281	0.00744
869.39263	0.00713
867.33246	0.00695
865.27229	0.00683
863.21212	0.00671
861.15194	0.00654
859.09177	0.00635
857.03160	0.00622
854.97143	0.00622
852.91126	0.00629
850.85108	0.00632
848.79091	0.00621
846.73074	0.00597
844.67057	0.00573
842.61040	0.00556
840.55022	0.00536
838.49005	0.00512
836.42988	0.00500
834.36971	0.00490
832.30954	0.00459
830.24936	0.00418
828.18919	0.00385
826.12902	0.00352
824.06885	0.00316
822.00867	0.00286
819.94850	0.00268
817.88833	0.00258
815.82816	0.00254
813.76799	0.00261
811.70781	0.00274
809.64764	0.00273
807.58747	0.00258
805.52730	0.00247
803.46713	0.00251
801.40695	0.00256
799.34678	0.00245
797.28661	0.00207
795.22644	0.00157
793.16627	0.00117
791.10609	0.00103
789.04592	0.00114
786.98575	0.00131
784.92558	0.00130
782.86540	0.00127
780.80523	0.00152
778.74506	0.00201
776.68489	0.00228
774.62472	0.00205
772.56454	0.00155
770.50437	0.00112
768.44420	0.00098
766.38403	0.00117
764.32386	0.00139
762.26368	0.00137
760.20351	0.00137
758.14334	0.00173
756.08317	0.00223
754.02299	0.00232
751.96282	0.00192
749.90265	0.00140
747.84248	0.00104
745.78231	0.00068
743.72213	0.00056
741.66196	0.00052
739.60179	0.00055
737.54162	0.00066
735.48145	0.00075
733.42127	0.00079
731.36110	0.00074
729.30093	0.00062
727.24076	0.00060
725.18059	0.00068
723.12041	0.00076
721.06024	0.00093
719.00007	0.00127
716.93990	0.00168
714.87972	0.00203
712.81955	0.00229
710.75938	0.00255
708.69921	0.00285
706.63904	0.00318
704.57886	0.00353
702.51869	0.00385
700.45852	0.00409
698.39835	0.00421
696.33818	0.00427
694.27800	0.00426
692.21783	0.00416
690.15766	0.00389
688.09749	0.00342
686.03731	0.00280
683.97714	0.00215
681.91697	0.00163
679.85680	0.00127
677.79663	0.00099
675.73645	0.00076
673.67628	0.00058
671.61611	0.00031
669.55594	0.00000
667.49577	0.00009
665.43559	0.00078
663.37542	0.00158
661.31525	0.00216
659.25508	0.00245
657.19491	0.00251
655.13473	0.00232
653.07456	0.00188
651.01439	0.00127
648.95422	0.00075
646.89404	0.00052
644.83387	0.00069
642.77370	0.00108
640.71353	0.00137
638.65336	0.00143
636.59318	0.00136
634.53301	0.00133
632.47284	0.00132
630.41267	0.00115
628.35250	0.00070
626.29232	0.00013
624.23215	0.00009
622.17198	0.00040
620.11181	0.00072
618.05164	0.00107
615.99146	0.00128
613.93129	0.00109
611.87112	0.00075
609.81095	0.00069
607.75077	0.00091
605.69060	0.00126
603.63043	0.00131
601.57026	0.00077
599.51009	0.00000
