3996.73391	0.00017
3994.67373	0.00044
3992.61356	0.00064
3990.55339	0.00073
3988.49322	0.00069
3986.43305	0.00054
3984.37287	0.00033
3982.31270	0.00013
3980.25253	0.00000
3978.19236	0.00000
3976.13219	0.00008
3974.07201	0.00019
3972.01184	0.00027
3969.95167	0.00030
3967.89150	0.00027
3965.83133	0.00026
3963.77115	0.00033
3961.71098	0.00049
3959.65081	0.00068
3957.59064	0.00082
3955.53046	0.00093
3953.47029	0.00101
3951.41012	0.00106
3949.34995	0.00104
3947.28978	0.00091
3945.22960	0.00071
3943.16943	0.00054
3941.10926	0.00046
3939.04909	0.00045
3936.98892	0.00046
3934.92874	0.00050
3932.86857	0.00061
3930.80840	0.00072
3928.74823	0.00075
3926.68805	0.00069
3924.62788	0.00060
3922.56771	0.00049
3920.50754	0.00039
3918.44737	0.00035
3916.38719	0.00039
3914.32702	0.00045
3912.26685	0.00046
3910.20668	0.00044
3908.14651	0.00039
3906.08633	0.00034
3904.02616	0.00032
3901.96599	0.00038
3899.90582	0.00048
3897.84565	0.00064
3895.78547	0.00082
3893.72530	0.00093
3891.66513	0.00092
3889.60496	0.00083
3887.54478	0.00070
3885.48461	0.00057
3883.42444	0.00046
3881.36427	0.00041
3879.30410	0.00040
3877.24392	0.00043
3875.18375	0.00045
3873.12358	0.00051
3871.06341	0.00059
3869.00324	0.00069
3866.94306	0.00082
3864.88289	0.00095
3862.82272	0.00105
3860.76255	0.00107
3858.70237	0.00099
3856.64220	0.00094
3854.58203	0.00099
3852.52186	0.00112
3850.46169	0.00119
3848.40151	0.00113
3846.34134	0.00097
3844.28117	0.00079
3842.22100	0.00069
3840.16083	0.00066
3838.10065	0.00067
3836.04048	0.00069
3833.98031	0.00071
3831.92014	0.00074
3829.85997	0.00080
3827.79979	0.00087
3825.73962	0.00091
3823.67945	0.00089
3821.61928	0.00081
3819.55910	0.00068
3817.49893	0.00054
3815.43876	0.00053
3813.37859	0.00069
3811.31842	0.00087
3809.25824	0.00095
3807.19807	0.00095
3805.13790	0.00092
3803.07773	0.00089
3801.01756	0.00086
3798.95738	0.00076
3796.89721	0.00061
3794.83704	0.00050
3792.77687	0.00046
3790.71670	0.00049
3788.65652	0.00054
3786.59635	0.00061
3784.53618	0.00066
3782.47601	0.00067
3780.41583	0.00067
3778.35566	0.00068
3776.29549	0.00067
3774.23532	0.00063
3772.17515	0.00061
3770.11497	0.00062
3768.05480	0.00062
3765.99463	0.00060
3763.93446	0.00060
3761.87429	0.00063
3759.81411	0.00063
3757.75394	0.00062
3755.69377	0.00065
3753.63360	0.00079
3751.57342	0.00105
3749.51325	0.00138
3747.45308	0.00160
3745.39291	0.00162
3743.33274	0.00152
3741.27256	0.00139
3739.21239	0.00127
3737.15222	0.00117
3735.09205	0.00109
3733.03188	0.00102
3730.97170	0.00087
3728.91153	0.00062
3726.85136	0.00036
3724.79119	0.00022
3722.73102	0.00024
3720.67084	0.00033
3718.61067	0.00041
3716.55050	0.00045
3714.49033	0.00050
3712.43015	0.00056
3710.36998	0.00062
3708.30981	0.00063
3706.24964	0.00062
3704.18947	0.00067
3702.12929	0.00080
3700.06912	0.00089
3698.00895	0.00080
3695.94878	0.00055
3693.88861	0.00031
3691.82843	0.00024
3689.76826	0.00039
3687.70809	0.00070
3685.64792	0.00098
3683.58775	0.00110
3681.52757	0.00107
3679.46740	0.00100
3677.40723	0.00100
3675.34706	0.00109
3673.28688	0.00120
3671.22671	0.00134
3669.16654	0.00153
3667.10637	0.00168
3665.04620	0.00170
3662.98602	0.00159
3660.92585	0.00146
3658.86568	0.00137
3656.80551	0.00131
3654.74534	0.00136
3652.68516	0.00153
3650.62499	0.00177
3648.56482	0.00199
3646.50465	0.00210
3644.44447	0.00211
3642.38430	0.00208
3640.32413	0.00206
3638.26396	0.00210
3636.20379	0.00220
3634.14361	0.00233
3632.08344	0.00246
3630.02327	0.00261
3627.96310	0.00280
3625.90293	0.00302
3623.84275	0.00319
3621.78258	0.00324
3619.72241	0.00325
3617.66224	0.00334
3615.60207	0.00355
3613.54189	0.00384
3611.48172	0.00408
3609.42155	0.00421
3607.36138	0.00431
3605.30120	0.00448
3603.24103	0.00470
3601.18086	0.00493
3599.12069	0.00512
3597.06052	0.00531
3595.00034	0.00553
3592.94017	0.00580
3590.88000	0.00607
3588.81983	0.00627
3586.75966	0.00640
3584.69948	0.00649
3582.63931	0.00660
3580.57914	0.00680
3578.51897	0.00711
3576.45879	0.00746
3574.39862	0.00779
3572.33845	0.00808
3570.27828	0.00841
3568.21811	0.00879
3566.15793	0.00920
3564.09776	0.00953
3562.03759	0.00976
3559.97742	0.00997
3557.91725	0.01022
3555.85707	0.01047
3553.79690	0.01067
3551.73673	0.01083
3549.67656	0.01100
3547.61639	0.01123
3545.55621	0.01158
3543.49604	0.01202
3541.43587	0.01249
3539.37570	0.01291
3537.31552	0.01327
3535.25535	0.01360
3533.19518	0.01389
3531.13501	0.01413
3529.07484	0.01435
3527.01466	0.01463
3524.95449	0.01498
3522.89432	0.01536
3520.83415	0.01574
3518.77398	0.01609
3516.71380	0.01639
3514.65363	0.01661
3512.59346	0.01677
3510.53329	0.01691
3508.47312	0.01709
3506.41294	0.01733
3504.35277	0.01764
3502.29260	0.01801
3500.23243	0.01838
3498.17225	0.01870
3496.11208	0.01898
3494.05191	0.01926
3491.99174	0.01958
3489.93157	0.01994
3487.87139	0.02033
3485.81122	0.02067
3483.75105	0.02093
3481.69088	0.02113
3479.63071	0.02130
3477.57053	0.02146
3475.51036	0.02165
3473.45019	0.02192
3471.39002	0.02230
3469.32984	0.02273
3467.26967	0.02315
3465.20950	0.02354
3463.14933	0.02395
3461.08916	0.02439
3459.02898	0.02483
3456.96881	0.02514
3454.90864	0.02529
3452.84847	0.02535
3450.78830	0.02543
3448.72812	0.02564
3446.66795	0.02595
3444.60778	0.02634
3442.54761	0.02674
3440.48744	0.02709
3438.42726	0.02736
3436.36709	0.02757
3434.30692	0.02775
3432.24675	0.02797
3430.18657	0.02823
3428.12640	0.02850
3426.06623	0.02868
3424.00606	0.02882
3421.94589	0.02905
3419.88571	0.02944
3417.82554	0.02989
3415.76537	0.03027
3413.70520	0.03047
3411.64503	0.03051
3409.58485	0.03053
3407.52468	0.03068
3405.46451	0.03094
3403.40434	0.03119
3401.34416	0.03134
3399.28399	0.03144
3397.22382	0.03164
3395.16365	0.03201
3393.10348	0.03243
3391.04330	0.03274
3388.98313	0.03293
3386.92296	0.03304
3384.86279	0.03314
3382.80262	0.03325
3380.74244	0.03335
3378.68227	0.03345
3376.62210	0.03356
3374.56193	0.03369
3372.50176	0.03391
3370.44158	0.03419
3368.38141	0.03446
3366.32124	0.03465
3364.26107	0.03478
3362.20089	0.03488
3360.14072	0.03498
3358.08055	0.03509
3356.02038	0.03519
3353.96021	0.03528
3351.90003	0.03538
3349.83986	0.03545
3347.77969	0.03551
3345.71952	0.03554
3343.65935	0.03555
3341.59917	0.03558
3339.53900	0.03565
3337.47883	0.03576
3335.41866	0.03586
3333.35849	0.03594
3331.29831	0.03603
3329.23814	0.03615
3327.17797	0.03626
3325.11780	0.03634
3323.05762	0.03635
3320.99745	0.03630
3318.93728	0.03625
3316.87711	0.03624
3314.81694	0.03629
3312.75676	0.03638
3310.69659	0.03648
3308.63642	0.03654
3306.57625	0.03656
3304.51608	0.03653
3302.45590	0.03645
3300.39573	0.03630
3298.33556	0.03616
3296.27539	0.03607
3294.21521	0.03606
3292.15504	0.03613
3290.09487	0.03624
3288.03470	0.03635
3285.97453	0.03643
3283.91435	0.03644
3281.85418	0.03640
3279.79401	0.03635
3277.73384	0.03632
3275.67367	0.03633
3273.61349	0.03636
3271.55332	0.03640
3269.49315	0.03641
3267.43298	0.03638
3265.37281	0.03631
3263.31263	0.03621
3261.25246	0.03610
3259.19229	0.03602
3257.13212	0.03596
3255.07194	0.03589
3253.01177	0.03579
3250.95160	0.03563
3248.89143	0.03543
3246.83126	0.03526
3244.77108	0.03518
3242.71091	0.03519
3240.65074	0.03523
3238.59057	0.03529
3236.53040	0.03534
3234.47022	0.03534
3232.41005	0.03526
3230.34988	0.03512
3228.28971	0.03491
3226.22954	0.03470
3224.16936	0.03450
3222.10919	0.03430
3220.04902	0.03410
3217.98885	0.03396
3215.92867	0.03389
3213.86850	0.03383
3211.80833	0.03374
3209.74816	0.03365
3207.68799	0.03355
3205.62781	0.03340
3203.56764	0.03316
3201.50747	0.03289
3199.44730	0.03272
3197.38713	0.03269
3195.32695	0.03272
3193.26678	0.03267
3191.20661	0.03251
3189.14644	0.03227
3187.08626	0.03201
3185.02609	0.03173
3182.96592	0.03146
3180.90575	0.03122
3178.84558	0.03105
3176.78540	0.03096
3174.72523	0.03090
3172.66506	0.03076
3170.60489	0.03048
3168.54472	0.03012
3166.48454	0.02975
3164.42437	0.02946
3162.36420	0.02931
3160.30403	0.02927
3158.24386	0.02927
3156.18368	0.02922
3154.12351	0.02912
3152.06334	0.02897
3150.00317	0.02874
3147.94299	0.02844
3145.88282	0.02816
3143.82265	0.02793
3141.76248	0.02773
3139.70231	0.02747
3137.64213	0.02713
3135.58196	0.02677
3133.52179	0.02653
3131.46162	0.02644
3129.40145	0.02641
3127.34127	0.02634
3125.28110	0.02615
3123.22093	0.02588
3121.16076	0.02561
3119.10058	0.02533
3117.04041	0.02503
3114.98024	0.02474
3112.92007	0.02453
3110.85990	0.02441
3108.79972	0.02437
3106.73955	0.02432
3104.67938	0.02419
3102.61921	0.02398
3100.55904	0.02373
3098.49886	0.02346
3096.43869	0.02321
3094.37852	0.02296
3092.31835	0.02273
3090.25818	0.02255
3088.19800	0.02244
3086.13783	0.02240
3084.07766	0.02236
3082.01749	0.02221
3079.95731	0.02194
3077.89714	0.02162
3075.83697	0.02138
3073.77680	0.02124
3071.71663	0.02115
3069.65645	0.02103
3067.59628	0.02084
3065.53611	0.02063
3063.47594	0.02042
3061.41577	0.02021
3059.35559	0.01997
3057.29542	0.01971
3055.23525	0.01949
3053.17508	0.01932
3051.11491	0.01918
3049.05473	0.01904
3046.99456	0.01887
3044.93439	0.01869
3042.87422	0.01853
3040.81404	0.01841
3038.75387	0.01832
3036.69370	0.01821
3034.63353	0.01809
3032.57336	0.01796
3030.51318	0.01784
3028.45301	0.01770
3026.39284	0.01756
3024.33267	0.01740
3022.27250	0.01728
3020.21232	0.01723
3018.15215	0.01729
3016.09198	0.01744
3014.03181	0.01760
3011.97163	0.01767
3009.91146	0.01758
3007.85129	0.01738
3005.79112	0.01713
3003.73095	0.01689
3001.67077	0.01669
2999.61060	0.01651
2997.55043	0.01637
2995.49026	0.01631
2993.43009	0.01628
2991.36991	0.01626
2989.30974	0.01632
2987.24957	0.01642
2985.18940	0.01651
2983.12923	0.01659
2981.06905	0.01673
2979.00888	0.01699
2976.94871	0.01742
2974.88854	0.01796
2972.82836	0.01855
2970.76819	0.01917
2968.70802	0.01991
2966.64785	0.02079
2964.58768	0.02178
2962.52750	0.02284
2960.46733	0.02393
2958.40716	0.02506
2956.34699	0.02619
2954.28682	0.02736
2952.22664	0.02857
2950.16647	0.02973
2948.10630	0.03085
2946.04613	0.03214
2943.98596	0.03369
2941.92578	0.03534
2939.86561	0.03698
2937.80544	0.03870
2935.74527	0.04060
2933.68509	0.04256
2931.62492	0.04428
2929.56475	0.04570
2927.50458	0.04692
2925.44441	0.04800
2923.38423	0.04892
2921.32406	0.04959
2919.26389	0.04975
2917.20372	0.04918
2915.14355	0.04781
2913.08337	0.04589
2911.02320	0.04387
2908.96303	0.04207
2906.90286	0.04052
2904.84268	0.03910
2902.78251	0.03775
2900.72234	0.03651
2898.66217	0.03545
2896.60200	0.03450
2894.54182	0.03357
2892.48165	0.03265
2890.42148	0.03182
2888.36131	0.03115
2886.30114	0.03058
2884.24096	0.03003
2882.18079	0.02955
2880.12062	0.02924
2878.06045	0.02914
2876.00028	0.02917
2873.94010	0.02927
2871.87993	0.02946
2869.81976	0.02976
2867.75959	0.03013
2865.69941	0.03065
2863.63924	0.03148
2861.57907	0.03265
2859.51890	0.03403
2857.45873	0.03542
2855.39855	0.03674
2853.33838	0.03793
2851.27821	0.03857
2849.21804	0.03801
2847.15787	0.03606
2845.09769	0.03330
2843.03752	0.03058
2840.97735	0.02835
2838.91718	0.02664
2836.85700	0.02531
2834.79683	0.02420
2832.73666	0.02327
2830.67649	0.02250
2828.61632	0.02188
2826.55614	0.02136
2824.49597	0.02091
2822.43580	0.02048
2820.37563	0.02007
2818.31546	0.01972
2816.25528	0.01941
2814.19511	0.01911
2812.13494	0.01881
2810.07477	0.01854
2808.01460	0.01829
2805.95442	0.01807
2803.89425	0.01782
2801.83408	0.01756
2799.77391	0.01730
2797.71373	0.01706
2795.65356	0.01687
2793.59339	0.01675
2791.53322	0.01667
2789.47305	0.01657
2787.41287	0.01639
2785.35270	0.01617
2783.29253	0.01597
2781.23236	0.01582
2779.17219	0.01575
2777.11201	0.01571
2775.05184	0.01565
2772.99167	0.01552
2770.93150	0.01534
2768.87133	0.01522
2766.81115	0.01523
2764.75098	0.01528
2762.69081	0.01525
2760.63064	0.01513
2758.57046	0.01504
2756.51029	0.01501
2754.45012	0.01495
2752.38995	0.01481
2750.32978	0.01470
2748.26960	0.01473
2746.20943	0.01483
2744.14926	0.01486
2742.08909	0.01479
2740.02892	0.01465
2737.96874	0.01451
2735.90857	0.01444
2733.84840	0.01443
2731.78823	0.01446
2729.72805	0.01448
2727.66788	0.01446
2725.60771	0.01438
2723.54754	0.01422
2721.48737	0.01408
2719.42719	0.01403
2717.36702	0.01407
2715.30685	0.01411
2713.24668	0.01409
2711.18651	0.01400
2709.12633	0.01388
2707.06616	0.01380
2705.00599	0.01375
2702.94582	0.01373
2700.88565	0.01374
2698.82547	0.01375
2696.76530	0.01375
2694.70513	0.01373
2692.64496	0.01371
2690.58478	0.01364
2688.52461	0.01349
2686.46444	0.01333
2684.40427	0.01332
2682.34410	0.01343
2680.28392	0.01349
2678.22375	0.01346
2676.16358	0.01338
2674.10341	0.01332
2672.04324	0.01326
2669.98306	0.01317
2667.92289	0.01307
2665.86272	0.01307
2663.80255	0.01314
2661.74238	0.01323
2659.68220	0.01332
2657.62203	0.01336
2655.56186	0.01330
2653.50169	0.01311
2651.44151	0.01285
2649.38134	0.01263
2647.32117	0.01254
2645.26100	0.01252
2643.20083	0.01247
2641.14065	0.01237
2639.08048	0.01223
2637.02031	0.01212
2634.96014	0.01207
2632.89997	0.01208
2630.83979	0.01210
2628.77962	0.01205
2626.71945	0.01197
2624.65928	0.01189
2622.59910	0.01172
2620.53893	0.01146
2618.47876	0.01125
2616.41859	0.01115
2614.35842	0.01113
2612.29824	0.01108
2610.23807	0.01104
2608.17790	0.01108
2606.11773	0.01113
2604.05756	0.01107
2601.99738	0.01090
2599.93721	0.01072
2597.87704	0.01064
2595.81687	0.01071
2593.75670	0.01075
2591.69652	0.01058
2589.63635	0.01037
2587.57618	0.01035
2585.51601	0.01045
2583.45583	0.01051
2581.39566	0.01050
2579.33549	0.01040
2577.27532	0.01026
2575.21515	0.01006
2573.15497	0.00981
2571.09480	0.00965
2569.03463	0.00971
2566.97446	0.00986
2564.91429	0.00996
2562.85411	0.01000
2560.79394	0.00994
2558.73377	0.00978
2556.67360	0.00964
2554.61342	0.00957
2552.55325	0.00948
2550.49308	0.00937
2548.43291	0.00938
2546.37274	0.00943
2544.31256	0.00931
2542.25239	0.00899
2540.19222	0.00876
2538.13205	0.00882
2536.07188	0.00908
2534.01170	0.00924
2531.95153	0.00915
2529.89136	0.00895
2527.83119	0.00882
2525.77102	0.00886
2523.71084	0.00906
2521.65067	0.00923
2519.59050	0.00915
2517.53033	0.00887
2515.47015	0.00862
2513.40998	0.00854
2511.34981	0.00855
2509.28964	0.00853
2507.22947	0.00847
2505.16929	0.00848
2503.10912	0.00856
2501.04895	0.00861
2498.98878	0.00864
2496.92861	0.00865
2494.86843	0.00865
2492.80826	0.00862
2490.74809	0.00857
2488.68792	0.00845
2486.62775	0.00826
2484.56757	0.00820
2482.50740	0.00831
2480.44723	0.00842
2478.38706	0.00838
2476.32688	0.00825
2474.26671	0.00815
2472.20654	0.00805
2470.14637	0.00794
2468.08620	0.00782
2466.02602	0.00776
2463.96585	0.00772
2461.90568	0.00767
2459.84551	0.00769
2457.78534	0.00777
2455.72516	0.00782
2453.66499	0.00783
2451.60482	0.00784
2449.54465	0.00781
2447.48447	0.00777
2445.42430	0.00782
2443.36413	0.00793
2441.30396	0.00803
2439.24379	0.00803
2437.18361	0.00800
2435.12344	0.00798
2433.06327	0.00781
2431.00310	0.00741
2428.94293	0.00707
2426.88275	0.00706
2424.82258	0.00717
2422.76241	0.00716
2420.70224	0.00710
2418.64207	0.00723
2416.58189	0.00747
2414.52172	0.00763
2412.46155	0.00762
2410.40138	0.00752
2408.34120	0.00739
2406.28103	0.00728
2404.22086	0.00719
2402.16069	0.00714
2400.10052	0.00711
2398.04034	0.00709
2395.98017	0.00709
2393.92000	0.00710
2391.85983	0.00713
2389.79966	0.00718
2387.73948	0.00724
2385.67931	0.00732
2383.61914	0.00746
2381.55897	0.00764
2379.49880	0.00782
2377.43862	0.00789
2375.37845	0.00777
2373.31828	0.00747
2371.25811	0.00713
2369.19793	0.00696
2367.13776	0.00699
2365.07759	0.00706
2363.01742	0.00711
2360.95725	0.00716
2358.89707	0.00716
2356.83690	0.00716
2354.77673	0.00729
2352.71656	0.00750
2350.65639	0.00768
2348.59621	0.00772
2346.53604	0.00754
2344.47587	0.00721
2342.41570	0.00686
2340.35552	0.00665
2338.29535	0.00668
2336.23518	0.00690
2334.17501	0.00722
2332.11484	0.00763
2330.05466	0.00813
2327.99449	0.00867
2325.93432	0.00899
2323.87415	0.00897
2321.81398	0.00877
2319.75380	0.00863
2317.69363	0.00853
2315.63346	0.00838
2313.57329	0.00814
2311.51312	0.00784
2309.45294	0.00756
2307.39277	0.00740
2305.33260	0.00739
2303.27243	0.00748
2301.21225	0.00759
2299.15208	0.00768
2297.09191	0.00767
2295.03174	0.00753
2292.97157	0.00732
2290.91139	0.00712
2288.85122	0.00698
2286.79105	0.00691
2284.73088	0.00687
2282.67071	0.00685
2280.61053	0.00689
2278.55036	0.00694
2276.49019	0.00690
2274.43002	0.00672
2272.36984	0.00644
2270.30967	0.00620
2268.24950	0.00610
2266.18933	0.00612
2264.12916	0.00613
2262.06898	0.00607
2260.00881	0.00594
2257.94864	0.00581
2255.88847	0.00575
2253.82830	0.00576
2251.76812	0.00583
2249.70795	0.00591
2247.64778	0.00602
2245.58761	0.00606
2243.52744	0.00595
2241.46726	0.00575
2239.40709	0.00542
2237.34692	0.00505
2235.28675	0.00492
2233.22657	0.00479
2231.16640	0.00438
2229.10623	0.00417
2227.04606	0.00448
2224.98589	0.00492
2222.92571	0.00518
2220.86554	0.00532
2218.80537	0.00532
2216.74520	0.00524
2214.68503	0.00521
2212.62485	0.00517
2210.56468	0.00491
2208.50451	0.00454
2206.44434	0.00461
2204.38417	0.00518
2202.32399	0.00561
2200.26382	0.00566
2198.20365	0.00565
2196.14348	0.00574
2194.08330	0.00584
2192.02313	0.00575
2189.96296	0.00546
2187.90279	0.00537
2185.84262	0.00564
2183.78244	0.00591
2181.72227	0.00586
2179.66210	0.00545
2177.60193	0.00493
2175.54176	0.00467
2173.48158	0.00478
2171.42141	0.00517
2169.36124	0.00581
2167.30107	0.00655
2165.24089	0.00683
2163.18072	0.00592
2161.12055	0.00403
2159.06038	0.00241
2157.00021	0.00170
2154.94003	0.00160
2152.87986	0.00212
2150.81969	0.00320
2148.75952	0.00413
2146.69935	0.00441
2144.63917	0.00425
2142.57900	0.00400
2140.51883	0.00376
2138.45866	0.00369
2136.39849	0.00396
2134.33831	0.00441
2132.27814	0.00467
2130.21797	0.00468
2128.15780	0.00466
2126.09762	0.00475
2124.03745	0.00501
2121.97728	0.00534
2119.91711	0.00547
2117.85694	0.00530
2115.79676	0.00510
2113.73659	0.00508
2111.67642	0.00517
2109.61625	0.00521
2107.55608	0.00528
2105.49590	0.00546
2103.43573	0.00554
2101.37556	0.00543
2099.31539	0.00527
2097.25521	0.00515
2095.19504	0.00508
2093.13487	0.00503
2091.07470	0.00499
2089.01453	0.00495
2086.95435	0.00496
2084.89418	0.00508
2082.83401	0.00527
2080.77384	0.00539
2078.71367	0.00533
2076.65349	0.00517
2074.59332	0.00506
2072.53315	0.00505
2070.47298	0.00509
2068.41281	0.00510
2066.35263	0.00503
2064.29246	0.00490
2062.23229	0.00472
2060.17212	0.00448
2058.11194	0.00425
2056.05177	0.00423
2053.99160	0.00445
2051.93143	0.00464
2049.87126	0.00451
2047.81108	0.00407
2045.75091	0.00352
2043.69074	0.00308
2041.63057	0.00292
2039.57040	0.00310
2037.51022	0.00355
2035.45005	0.00411
2033.38988	0.00456
2031.32971	0.00468
2029.26954	0.00450
2027.20936	0.00423
2025.14919	0.00403
2023.08902	0.00377
2021.02885	0.00331
2018.96867	0.00272
2016.90850	0.00222
2014.84833	0.00204
2012.78816	0.00221
2010.72799	0.00252
2008.66781	0.00275
2006.60764	0.00286
2004.54747	0.00289
2002.48730	0.00285
2000.42713	0.00277
1998.36695	0.00269
1996.30678	0.00261
1994.24661	0.00260
1992.18644	0.00265
1990.12626	0.00269
1988.06609	0.00273
1986.00592	0.00282
1983.94575	0.00288
1981.88558	0.00271
1979.82540	0.00235
1977.76523	0.00208
1975.70506	0.00206
1973.64489	0.00212
1971.58472	0.00200
1969.52454	0.00178
1967.46437	0.00177
1965.40420	0.00192
1963.34403	0.00194
1961.28386	0.00180
1959.22368	0.00183
1957.16351	0.00223
1955.10334	0.00289
1953.04317	0.00345
1950.98299	0.00362
1948.92282	0.00349
1946.86265	0.00325
1944.80248	0.00304
1942.74231	0.00284
1940.68213	0.00266
1938.62196	0.00252
1936.56179	0.00246
1934.50162	0.00246
1932.44145	0.00246
1930.38127	0.00246
1928.32110	0.00246
1926.26093	0.00244
1924.20076	0.00244
1922.14059	0.00250
1920.08041	0.00262
1918.02024	0.00277
1915.96007	0.00287
1913.89990	0.00287
1911.83972	0.00277
1909.77955	0.00262
1907.71938	0.00246
1905.65921	0.00235
1903.59904	0.00234
1901.53886	0.00245
1899.47869	0.00262
1897.41852	0.00281
1895.35835	0.00298
1893.29818	0.00306
1891.23800	0.00304
1889.17783	0.00293
1887.11766	0.00287
1885.05749	0.00292
1882.99731	0.00301
1880.93714	0.00306
1878.87697	0.00303
1876.81680	0.00291
1874.75663	0.00274
1872.69645	0.00255
1870.63628	0.00246
1868.57611	0.00253
1866.51594	0.00267
1864.45577	0.00275
1862.39559	0.00274
1860.33542	0.00269
1858.27525	0.00266
1856.21508	0.00267
1854.15491	0.00271
1852.09473	0.00274
1850.03456	0.00274
1847.97439	0.00273
1845.91422	0.00270
1843.85404	0.00265
1841.79387	0.00258
1839.73370	0.00249
1837.67353	0.00240
1835.61336	0.00233
1833.55318	0.00227
1831.49301	0.00224
1829.43284	0.00230
1827.37267	0.00241
1825.31250	0.00245
1823.25232	0.00236
1821.19215	0.00218
1819.13198	0.00200
1817.07181	0.00190
1815.01163	0.00191
1812.95146	0.00202
1810.89129	0.00220
1808.83112	0.00238
1806.77095	0.00247
1804.71077	0.00249
1802.65060	0.00249
1800.59043	0.00248
1798.53026	0.00244
1796.47009	0.00236
1794.40991	0.00223
1792.34974	0.00211
1790.28957	0.00203
1788.22940	0.00198
1786.16923	0.00194
1784.10905	0.00191
1782.04888	0.00193
1779.98871	0.00194
1777.92854	0.00198
1775.86836	0.00204
1773.80819	0.00215
1771.74802	0.00233
1769.68785	0.00256
1767.62768	0.00284
1765.56750	0.00321
1763.50733	0.00371
1761.44716	0.00442
1759.38699	0.00534
1757.32682	0.00641
1755.26664	0.00760
1753.20647	0.00887
1751.14630	0.01020
1749.08613	0.01157
1747.02596	0.01284
1744.96578	0.01387
1742.90561	0.01462
1740.84544	0.01508
1738.78527	0.01529
1736.72509	0.01532
1734.66492	0.01525
1732.60475	0.01519
1730.54458	0.01516
1728.48441	0.01510
1726.42423	0.01500
1724.36406	0.01487
1722.30389	0.01474
1720.24372	0.01462
1718.18355	0.01453
1716.12337	0.01451
1714.06320	0.01456
1712.00303	0.01461
1709.94286	0.01459
1707.88268	0.01448
1705.82251	0.01433
1703.76234	0.01416
1701.70217	0.01400
1699.64200	0.01390
1697.58182	0.01397
1695.52165	0.01428
1693.46148	0.01484
1691.40131	0.01556
1689.34114	0.01643
1687.28096	0.01749
1685.22079	0.01881
1683.16062	0.02038
1681.10045	0.02193
1679.04028	0.02322
1676.98010	0.02422
1674.91993	0.02497
1672.85976	0.02546
1670.79959	0.02563
1668.73941	0.02550
1666.67924	0.02516
1664.61907	0.02471
1662.55890	0.02423
1660.49873	0.02380
1658.43855	0.02342
1656.37838	0.02305
1654.31821	0.02268
1652.25804	0.02241
1650.19787	0.02230
1648.13769	0.02230
1646.07752	0.02241
1644.01735	0.02264
1641.95718	0.02297
1639.89701	0.02338
1637.83683	0.02386
1635.77666	0.02439
1633.71649	0.02497
1631.65632	0.02550
1629.59614	0.02589
1627.53597	0.02610
1625.47580	0.02618
1623.41563	0.02622
1621.35546	0.02630
1619.29528	0.02647
1617.23511	0.02676
1615.17494	0.02723
1613.11477	0.02793
1611.05460	0.02881
1608.99442	0.02974
1606.93425	0.03046
1604.87408	0.03071
1602.81391	0.03033
1600.75373	0.02943
1598.69356	0.02826
1596.63339	0.02707
1594.57322	0.02601
1592.51305	0.02510
1590.45287	0.02431
1588.39270	0.02359
1586.33253	0.02289
1584.27236	0.02219
1582.21219	0.02151
1580.15201	0.02086
1578.09184	0.02022
1576.03167	0.01962
1573.97150	0.01912
1571.91133	0.01863
1569.85115	0.01808
1567.79098	0.01745
1565.73081	0.01679
1563.67064	0.01607
1561.61046	0.01528
1559.55029	0.01446
1557.49012	0.01371
1555.42995	0.01309
1553.36978	0.01252
1551.30960	0.01195
1549.24943	0.01137
1547.18926	0.01080
1545.12909	0.01023
1543.06892	0.00963
1541.00874	0.00906
1538.94857	0.00860
1536.88840	0.00828
1534.82823	0.00799
1532.76805	0.00770
1530.70788	0.00741
1528.64771	0.00715
1526.58754	0.00703
1524.52737	0.00720
1522.46719	0.00776
1520.40702	0.00868
1518.34685	0.00970
1516.28668	0.01050
1514.22651	0.01083
1512.16633	0.01058
1510.10616	0.00980
1508.04599	0.00866
1505.98582	0.00744
1503.92565	0.00637
1501.86547	0.00551
1499.80530	0.00480
1497.74513	0.00417
1495.68496	0.00365
1493.62478	0.00323
1491.56461	0.00287
1489.50444	0.00257
1487.44427	0.00239
1485.38410	0.00236
1483.32392	0.00248
1481.26375	0.00279
1479.20358	0.00334
1477.14341	0.00419
1475.08324	0.00539
1473.02306	0.00695
1470.96289	0.00872
1468.90272	0.01046
1466.84255	0.01201
1464.78238	0.01330
1462.72220	0.01431
1460.66203	0.01510
1458.60186	0.01579
1456.54169	0.01651
1454.48151	0.01718
1452.42134	0.01775
1450.36117	0.01824
1448.30100	0.01875
1446.24083	0.01936
1444.18065	0.02004
1442.12048	0.02072
1440.06031	0.02131
1438.00014	0.02178
1435.93997	0.02214
1433.87979	0.02244
1431.81962	0.02265
1429.75945	0.02277
1427.69928	0.02284
1425.63910	0.02289
1423.57893	0.02294
1421.51876	0.02299
1419.45859	0.02300
1417.39842	0.02296
1415.33824	0.02285
1413.27807	0.02266
1411.21790	0.02236
1409.15773	0.02191
1407.09756	0.02134
1405.03738	0.02070
1402.97721	0.02004
1400.91704	0.01943
1398.85687	0.01888
1396.79670	0.01838
1394.73652	0.01794
1392.67635	0.01764
1390.61618	0.01753
1388.55601	0.01763
1386.49583	0.01794
1384.43566	0.01842
1382.37549	0.01900
1380.31532	0.01958
1378.25515	0.02011
1376.19497	0.02055
1374.13480	0.02089
1372.07463	0.02111
1370.01446	0.02118
1367.95429	0.02107
1365.89411	0.02079
1363.83394	0.02039
1361.77377	0.01997
1359.71360	0.01959
1357.65343	0.01929
1355.59325	0.01905
1353.53308	0.01887
1351.47291	0.01875
1349.41274	0.01868
1347.35256	0.01867
1345.29239	0.01870
1343.23222	0.01872
1341.17205	0.01870
1339.11188	0.01863
1337.05170	0.01856
1334.99153	0.01851
1332.93136	0.01848
1330.87119	0.01851
1328.81102	0.01858
1326.75084	0.01867
1324.69067	0.01875
1322.63050	0.01879
1320.57033	0.01879
1318.51015	0.01872
1316.44998	0.01859
1314.38981	0.01840
1312.32964	0.01816
1310.26947	0.01785
1308.20929	0.01745
1306.14912	0.01696
1304.08895	0.01642
1302.02878	0.01591
1299.96861	0.01551
1297.90843	0.01526
1295.84826	0.01517
1293.78809	0.01524
1291.72792	0.01542
1289.66775	0.01565
1287.60757	0.01584
1285.54740	0.01599
1283.48723	0.01610
1281.42706	0.01621
1279.36688	0.01633
1277.30671	0.01647
1275.24654	0.01663
1273.18637	0.01685
1271.12620	0.01716
1269.06602	0.01757
1267.00585	0.01807
1264.94568	0.01864
1262.88551	0.01925
1260.82534	0.01987
1258.76516	0.02044
1256.70499	0.02094
1254.64482	0.02139
1252.58465	0.02181
1250.52447	0.02217
1248.46430	0.02246
1246.40413	0.02265
1244.34396	0.02276
1242.28379	0.02281
1240.22361	0.02279
1238.16344	0.02268
1236.10327	0.02246
1234.04310	0.02209
1231.98293	0.02159
1229.92275	0.02096
1227.86258	0.02021
1225.80241	0.01933
1223.74224	0.01834
1221.68207	0.01727
1219.62189	0.01619
1217.56172	0.01514
1215.50155	0.01413
1213.44138	0.01319
1211.38120	0.01231
1209.32103	0.01146
1207.26086	0.01059
1205.20069	0.00963
1203.14052	0.00857
1201.08034	0.00742
1199.02017	0.00626
1196.96000	0.00517
1194.89983	0.00427
1192.83966	0.00359
1190.77948	0.00309
1188.71931	0.00270
1186.65914	0.00246
1184.59897	0.00235
1182.53880	0.00247
1180.47862	0.00287
1178.41845	0.00364
1176.35828	0.00487
1174.29811	0.00653
1172.23793	0.00843
1170.17776	0.01024
1168.11759	0.01166
1166.05742	0.01254
1163.99725	0.01310
1161.93707	0.01360
1159.87690	0.01412
1157.81673	0.01464
1155.75656	0.01518
1153.69639	0.01581
1151.63621	0.01655
1149.57604	0.01729
1147.51587	0.01795
1145.45570	0.01861
1143.39552	0.01932
1141.33535	0.02001
1139.27518	0.02062
1137.21501	0.02110
1135.15484	0.02152
1133.09466	0.02201
1131.03449	0.02269
1128.97432	0.02353
1126.91415	0.02441
1124.85398	0.02532
1122.79380	0.02632
1120.73363	0.02740
1118.67346	0.02844
1116.61329	0.02934
1114.55312	0.03016
1112.49294	0.03102
1110.43277	0.03195
1108.37260	0.03290
1106.31243	0.03385
1104.25225	0.03476
1102.19208	0.03570
1100.13191	0.03682
1098.07174	0.03818
1096.01157	0.03972
1093.95139	0.04133
1091.89122	0.04289
1089.83105	0.04435
1087.77088	0.04571
1085.71071	0.04697
1083.65053	0.04825
1081.59036	0.04965
1079.53019	0.05122
1077.47002	0.05290
1075.40985	0.05463
1073.34967	0.05631
1071.28950	0.05783
1069.22933	0.05914
1067.16916	0.06028
1065.10898	0.06126
1063.04881	0.06210
1060.98864	0.06293
1058.92847	0.06390
1056.86830	0.06509
1054.80812	0.06652
1052.74795	0.06810
1050.68778	0.06977
1048.62761	0.07145
1046.56744	0.07313
1044.50726	0.07478
1042.44709	0.07635
1040.38692	0.07773
1038.32675	0.07890
1036.26657	0.07990
1034.20640	0.08068
1032.14623	0.08115
1030.08606	0.08136
1028.02589	0.08138
1025.96571	0.08117
1023.90554	0.08081
1021.84537	0.08042
1019.78520	0.08012
1017.72503	0.07996
1015.66485	0.07988
1013.60468	0.07987
1011.54451	0.07993
1009.48434	0.07998
1007.42417	0.07992
1005.36399	0.07969
1003.30382	0.07923
1001.24365	0.07851
999.18348	0.07755
997.12330	0.07649
995.06313	0.07536
993.00296	0.07406
990.94279	0.07264
988.88262	0.07126
986.82244	0.06998
984.76227	0.06879
982.70210	0.06768
980.64193	0.06666
978.58176	0.06570
976.52158	0.06469
974.46141	0.06353
972.40124	0.06222
970.34107	0.06087
968.28089	0.05956
966.22072	0.05826
964.16055	0.05698
962.10038	0.05574
960.04021	0.05449
957.98003	0.05320
955.91986	0.05191
953.85969	0.05068
951.79952	0.04953
949.73935	0.04840
947.67917	0.04725
945.61900	0.04597
943.55883	0.04442
941.49866	0.04251
939.43849	0.04028
937.37831	0.03778
935.31814	0.03511
933.25797	0.03248
931.19780	0.03022
929.13762	0.02842
927.07745	0.02682
925.01728	0.02525
922.95711	0.02370
920.89694	0.02221
918.83676	0.02081
916.77659	0.01954
914.71642	0.01835
912.65625	0.01715
910.59608	0.01597
908.53590	0.01497
906.47573	0.01423
904.41556	0.01368
902.35539	0.01330
900.29522	0.01314
898.23504	0.01320
896.17487	0.01343
894.11470	0.01369
892.05453	0.01380
889.99435	0.01370
887.93418	0.01340
885.87401	0.01288
883.81384	0.01216
881.75367	0.01128
879.69349	0.01029
877.63332	0.00934
875.57315	0.00858
873.51298	0.00799
871.45281	0.00758
869.39263	0.00736
867.33246	0.00725
865.27229	0.00716
863.21212	0.00705
861.15194	0.00690
859.09177	0.00674
857.03160	0.00658
854.97143	0.00653
852.91126	0.00670
850.85108	0.00698
848.79091	0.00707
846.73074	0.00684
844.67057	0.00652
842.61040	0.00631
840.55022	0.00607
838.49005	0.00583
836.42988	0.00583
834.36971	0.00594
832.30954	0.00580
830.24936	0.00546
828.18919	0.00516
826.12902	0.00482
824.06885	0.00448
822.00867	0.00432
819.94850	0.00429
817.88833	0.00424
815.82816	0.00424
813.76799	0.00433
811.70781	0.00440
809.64764	0.00431
807.58747	0.00411
805.52730	0.00389
803.46713	0.00378
801.40695	0.00389
799.34678	0.00404
797.28661	0.00390
795.22644	0.00349
793.16627	0.00305
791.10609	0.00280
789.04592	0.00276
786.98575	0.00291
784.92558	0.00310
782.86540	0.00327
780.80523	0.00339
778.74506	0.00341
776.68489	0.00337
774.62472	0.00328
772.56454	0.00314
770.50437	0.00304
768.44420	0.00305
766.38403	0.00315
764.32386	0.00323
762.26368	0.00316
760.20351	0.00300
758.14334	0.00289
756.08317	0.00282
754.02299	0.00277
751.96282	0.00284
749.90265	0.00281
747.84248	0.00267
745.78231	0.00225
743.72213	0.00163
741.66196	0.00095
739.60179	0.00051
737.54162	0.00060
735.48145	0.00111
733.42127	0.00170
731.36110	0.00209
729.30093	0.00216
727.24076	0.00210
725.18059	0.00214
723.12041	0.00228
721.06024	0.00247
719.00007	0.00272
716.93990	0.00302
714.87972	0.00332
712.81955	0.00357
710.75938	0.00380
708.69921	0.00407
706.63904	0.00440
704.57886	0.00480
702.51869	0.00523
700.45852	0.00556
698.39835	0.00571
696.33818	0.00568
694.27800	0.00548
692.21783	0.00513
690.15766	0.00468
688.09749	0.00419
686.03731	0.00367
683.97714	0.00315
681.91697	0.00275
679.85680	0.00250
677.79663	0.00239
675.73645	0.00242
673.67628	0.00251
671.61611	0.00253
669.55594	0.00237
667.49577	0.00214
665.43559	0.00205
663.37542	0.00205
661.31525	0.00205
659.25508	0.00200
657.19491	0.00191
655.13473	0.00187
653.07456	0.00202
651.01439	0.00237
648.95422	0.00277
646.89404	0.00305
644.83387	0.00329
642.77370	0.00350
640.71353	0.00369
638.65336	0.00382
636.59318	0.00391
634.53301	0.00395
632.47284	0.00385
630.41267	0.00355
628.35250	0.00310
626.29232	0.00271
624.23215	0.00276
622.17198	0.00296
620.11181	0.00285
618.05164	0.00284
615.99146	0.00302
613.93129	0.00261
611.87112	0.00143
609.81095	0.00053
607.75077	0.00018
605.69060	0.00018
603.63043	0.00003
601.57026	0.00000
599.51009	0.00000
