3996.73391,0.00015
3994.67373,0.00005
3992.61356,0.00003
3990.55339,0.00013
3988.49322,0.00014
3986.43305,0.00009
3984.37287,0.00013
3982.31270,0.00018
3980.25253,0.00010
3978.19236,0.00000
3976.13219,0.00014
3974.07201,0.00046
3972.01184,0.00062
3969.95167,0.00047
3967.89150,0.00030
3965.83133,0.00031
3963.77115,0.00040
3961.71098,0.00049
3959.65081,0.00049
3957.59064,0.00039
3955.53046,0.00034
3953.47029,0.00038
3951.41012,0.00044
3949.34995,0.00049
3947.28978,0.00045
3945.22960,0.00033
3943.16943,0.00034
3941.10926,0.00052
3939.04909,0.00071
3936.98892,0.00079
3934.92874,0.00076
3932.86857,0.00060
3930.80840,0.00047
3928.74823,0.00050
3926.68805,0.00062
3924.62788,0.00069
3922.56771,0.00056
3920.50754,0.00026
3918.44737,0.00003
3916.38719,0.00008
3914.32702,0.00043
3912.26685,0.00078
3910.20668,0.00076
3908.14651,0.00039
3906.08633,0.00022
3904.02616,0.00067
3901.96599,0.00119
3899.90582,0.00106
3897.84565,0.00060
3895.78547,0.00039
3893.72530,0.00041
3891.66513,0.00040
3889.60496,0.00019
3887.54478,0.00000
3885.48461,0.00016
3883.42444,0.00038
3881.36427,0.00028
3879.30410,0.00005
3877.24392,0.00000
3875.18375,0.00005
3873.12358,0.00022
3871.06341,0.00058
3869.00324,0.00083
3866.94306,0.00075
3864.88289,0.00064
3862.82272,0.00069
3860.76255,0.00076
3858.70237,0.00086
3856.64220,0.00098
3854.58203,0.00080
3852.52186,0.00038
3850.46169,0.00035
3848.40151,0.00065
3846.34134,0.00080
3844.28117,0.00067
3842.22100,0.00042
3840.16083,0.00029
3838.10065,0.00055
3836.04048,0.00097
3833.98031,0.00112
3831.92014,0.00113
3829.85997,0.00100
3827.79979,0.00053
3825.73962,0.00007
3823.67945,0.00000
3821.61928,0.00019
3819.55910,0.00056
3817.49893,0.00100
3815.43876,0.00113
3813.37859,0.00090
3811.31842,0.00055
3809.25824,0.00037
3807.19807,0.00055
3805.13790,0.00085
3803.07773,0.00076
3801.01756,0.00027
3798.95738,0.00001
3796.89721,0.00019
3794.83704,0.00050
3792.77687,0.00071
3790.71670,0.00071
3788.65652,0.00061
3786.59635,0.00061
3784.53618,0.00076
3782.47601,0.00084
3780.41583,0.00078
3778.35566,0.00068
3776.29549,0.00054
3774.23532,0.00043
3772.17515,0.00034
3770.11497,0.00029
3768.05480,0.00044
3765.99463,0.00086
3763.93446,0.00133
3761.87429,0.00161
3759.81411,0.00157
3757.75394,0.00131
3755.69377,0.00105
3753.63360,0.00087
3751.57342,0.00069
3749.51325,0.00070
3747.45308,0.00107
3745.39291,0.00130
3743.33274,0.00093
3741.27256,0.00052
3739.21239,0.00049
3737.15222,0.00065
3735.09205,0.00078
3733.03188,0.00078
3730.97170,0.00068
3728.91153,0.00060
3726.85136,0.00048
3724.79119,0.00034
3722.73102,0.00047
3720.67084,0.00081
3718.61067,0.00096
3716.55050,0.00091
3714.49033,0.00105
3712.43015,0.00133
3710.36998,0.00130
3708.30981,0.00095
3706.24964,0.00061
3704.18947,0.00032
3702.12929,0.00017
3700.06912,0.00033
3698.00895,0.00067
3695.94878,0.00099
3693.88861,0.00124
3691.82843,0.00141
3689.76826,0.00147
3687.70809,0.00130
3685.64792,0.00097
3683.58775,0.00078
3681.52757,0.00089
3679.46740,0.00112
3677.40723,0.00131
3675.34706,0.00141
3673.28688,0.00138
3671.22671,0.00122
3669.16654,0.00106
3667.10637,0.00102
3665.04620,0.00110
3662.98602,0.00130
3660.92585,0.00164
3658.86568,0.00211
3656.80551,0.00255
3654.74534,0.00275
3652.68516,0.00274
3650.62499,0.00264
3648.56482,0.00256
3646.50465,0.00281
3644.44447,0.00330
3642.38430,0.00362
3640.32413,0.00368
3638.26396,0.00374
3636.20379,0.00389
3634.14361,0.00404
3632.08344,0.00416
3630.02327,0.00411
3627.96310,0.00388
3625.90293,0.00402
3623.84275,0.00483
3621.78258,0.00583
3619.72241,0.00622
3617.66224,0.00581
3615.60207,0.00547
3613.54189,0.00583
3611.48172,0.00654
3609.42155,0.00695
3607.36138,0.00703
3605.30120,0.00708
3603.24103,0.00720
3601.18086,0.00747
3599.12069,0.00796
3597.06052,0.00854
3595.00034,0.00880
3592.94017,0.00862
3590.88000,0.00847
3588.81983,0.00867
3586.75966,0.00900
3584.69948,0.00926
3582.63931,0.00954
3580.57914,0.00980
3578.51897,0.01002
3576.45879,0.01021
3574.39862,0.01037
3572.33845,0.01051
3570.27828,0.01065
3568.21811,0.01081
3566.15793,0.01105
3564.09776,0.01137
3562.03759,0.01182
3559.97742,0.01234
3557.91725,0.01269
3555.85707,0.01283
3553.79690,0.01292
3551.73673,0.01317
3549.67656,0.01370
3547.61639,0.01427
3545.55621,0.01454
3543.49604,0.01446
3541.43587,0.01434
3539.37570,0.01441
3537.31552,0.01464
3535.25535,0.01470
3533.19518,0.01454
3531.13501,0.01457
3529.07484,0.01498
3527.01466,0.01555
3524.95449,0.01599
3522.89432,0.01626
3520.83415,0.01646
3518.77398,0.01672
3516.71380,0.01708
3514.65363,0.01729
3512.59346,0.01732
3510.53329,0.01737
3508.47312,0.01754
3506.41294,0.01779
3504.35277,0.01808
3502.29260,0.01845
3500.23243,0.01882
3498.17225,0.01902
3496.11208,0.01910
3494.05191,0.01925
3491.99174,0.01954
3489.93157,0.01991
3487.87139,0.02015
3485.81122,0.02014
3483.75105,0.02006
3481.69088,0.02020
3479.63071,0.02064
3477.57053,0.02116
3475.51036,0.02153
3473.45019,0.02162
3471.39002,0.02150
3469.32984,0.02143
3467.26967,0.02159
3465.20950,0.02177
3463.14933,0.02185
3461.08916,0.02212
3459.02898,0.02266
3456.96881,0.02304
3454.90864,0.02311
3452.84847,0.02313
3450.78830,0.02315
3448.72812,0.02308
3446.66795,0.02317
3444.60778,0.02352
3442.54761,0.02387
3440.48744,0.02416
3438.42726,0.02436
3436.36709,0.02437
3434.30692,0.02434
3432.24675,0.02441
3430.18657,0.02449
3428.12640,0.02468
3426.06623,0.02509
3424.00606,0.02539
3421.94589,0.02551
3419.88571,0.02573
3417.82554,0.02602
3415.76537,0.02613
3413.70520,0.02605
3411.64503,0.02619
3409.58485,0.02666
3407.52468,0.02690
3405.46451,0.02663
3403.40434,0.02627
3401.34416,0.02630
3399.28399,0.02660
3397.22382,0.02691
3395.16365,0.02726
3393.10348,0.02755
3391.04330,0.02765
3388.98313,0.02760
3386.92296,0.02750
3384.86279,0.02750
3382.80262,0.02756
3380.74244,0.02750
3378.68227,0.02748
3376.62210,0.02764
3374.56193,0.02784
3372.50176,0.02790
3370.44158,0.02799
3368.38141,0.02814
3366.32124,0.02818
3364.26107,0.02816
3362.20089,0.02834
3360.14072,0.02870
3358.08055,0.02891
3356.02038,0.02889
3353.96021,0.02883
3351.90003,0.02884
3349.83986,0.02896
3347.77969,0.02896
3345.71952,0.02879
3343.65935,0.02872
3341.59917,0.02876
3339.53900,0.02874
3337.47883,0.02871
3335.41866,0.02881
3333.35849,0.02901
3331.29831,0.02912
3329.23814,0.02920
3327.17797,0.02925
3325.11780,0.02936
3323.05762,0.02955
3320.99745,0.02956
3318.93728,0.02941
3316.87711,0.02933
3314.81694,0.02931
3312.75676,0.02936
3310.69659,0.02941
3308.63642,0.02929
3306.57625,0.02915
3304.51608,0.02928
3302.45590,0.02955
3300.39573,0.02946
3298.33556,0.02915
3296.27539,0.02918
3294.21521,0.02944
3292.15504,0.02950
3290.09487,0.02940
3288.03470,0.02947
3285.97453,0.02958
3283.91435,0.02949
3281.85418,0.02927
3279.79401,0.02918
3277.73384,0.02930
3275.67367,0.02950
3273.61349,0.02955
3271.55332,0.02941
3269.49315,0.02934
3267.43298,0.02942
3265.37281,0.02938
3263.31263,0.02923
3261.25246,0.02909
3259.19229,0.02889
3257.13212,0.02877
3255.07194,0.02879
3253.01177,0.02892
3250.95160,0.02902
3248.89143,0.02893
3246.83126,0.02881
3244.77108,0.02881
3242.71091,0.02886
3240.65074,0.02882
3238.59057,0.02867
3236.53040,0.02854
3234.47022,0.02850
3232.41005,0.02850
3230.34988,0.02844
3228.28971,0.02844
3226.22954,0.02839
3224.16936,0.02811
3222.10919,0.02801
3220.04902,0.02812
3217.98885,0.02800
3215.92867,0.02767
3213.86850,0.02731
3211.80833,0.02704
3209.74816,0.02698
3207.68799,0.02706
3205.62781,0.02711
3203.56764,0.02704
3201.50747,0.02689
3199.44730,0.02680
3197.38713,0.02670
3195.32695,0.02650
3193.26678,0.02629
3191.20661,0.02619
3189.14644,0.02606
3187.08626,0.02594
3185.02609,0.02585
3182.96592,0.02568
3180.90575,0.02546
3178.84558,0.02531
3176.78540,0.02513
3174.72523,0.02482
3172.66506,0.02462
3170.60489,0.02465
3168.54472,0.02459
3166.48454,0.02441
3164.42437,0.02439
3162.36420,0.02429
3160.30403,0.02391
3158.24386,0.02352
3156.18368,0.02325
3154.12351,0.02310
3152.06334,0.02303
3150.00317,0.02294
3147.94299,0.02288
3145.88282,0.02284
3143.82265,0.02268
3141.76248,0.02244
3139.70231,0.02223
3137.64213,0.02202
3135.58196,0.02175
3133.52179,0.02146
3131.46162,0.02118
3129.40145,0.02095
3127.34127,0.02084
3125.28110,0.02069
3123.22093,0.02048
3121.16076,0.02043
3119.10058,0.02040
3117.04041,0.02025
3114.98024,0.02009
3112.92007,0.01992
3110.85990,0.01969
3108.79972,0.01952
3106.73955,0.01945
3104.67938,0.01939
3102.61921,0.01923
3100.55904,0.01892
3098.49886,0.01859
3096.43869,0.01844
3094.37852,0.01847
3092.31835,0.01836
3090.25818,0.01792
3088.19800,0.01752
3086.13783,0.01734
3084.07766,0.01725
3082.01749,0.01722
3079.95731,0.01726
3077.89714,0.01718
3075.83697,0.01693
3073.77680,0.01662
3071.71663,0.01635
3069.65645,0.01608
3067.59628,0.01582
3065.53611,0.01566
3063.47594,0.01557
3061.41577,0.01546
3059.35559,0.01532
3057.29542,0.01523
3055.23525,0.01515
3053.17508,0.01489
3051.11491,0.01449
3049.05473,0.01429
3046.99456,0.01429
3044.93439,0.01429
3042.87422,0.01418
3040.81404,0.01398
3038.75387,0.01374
3036.69370,0.01353
3034.63353,0.01345
3032.57336,0.01348
3030.51318,0.01352
3028.45301,0.01354
3026.39284,0.01345
3024.33267,0.01326
3022.27250,0.01310
3020.21232,0.01286
3018.15215,0.01254
3016.09198,0.01239
3014.03181,0.01236
3011.97163,0.01231
3009.91146,0.01213
3007.85129,0.01185
3005.79112,0.01175
3003.73095,0.01186
3001.67077,0.01194
2999.61060,0.01180
2997.55043,0.01158
2995.49026,0.01151
2993.43009,0.01150
2991.36991,0.01150
2989.30974,0.01158
2987.24957,0.01175
2985.18940,0.01194
2983.12923,0.01195
2981.06905,0.01176
2979.00888,0.01156
2976.94871,0.01148
2974.88854,0.01156
2972.82836,0.01176
2970.76819,0.01197
2968.70802,0.01217
2966.64785,0.01233
2964.58768,0.01238
2962.52750,0.01239
2960.46733,0.01257
2958.40716,0.01285
2956.34699,0.01315
2954.28682,0.01339
2952.22664,0.01339
2950.16647,0.01344
2948.10630,0.01379
2946.04613,0.01414
2943.98596,0.01423
2941.92578,0.01427
2939.86561,0.01447
2937.80544,0.01466
2935.74527,0.01471
2933.68509,0.01482
2931.62492,0.01496
2929.56475,0.01493
2927.50458,0.01475
2925.44441,0.01460
2923.38423,0.01457
2921.32406,0.01457
2919.26389,0.01450
2917.20372,0.01433
2915.14355,0.01414
2913.08337,0.01398
2911.02320,0.01382
2908.96303,0.01362
2906.90286,0.01350
2904.84268,0.01349
2902.78251,0.01340
2900.72234,0.01315
2898.66217,0.01308
2896.60200,0.01337
2894.54182,0.01353
2892.48165,0.01333
2890.42148,0.01318
2888.36131,0.01311
2886.30114,0.01298
2884.24096,0.01295
2882.18079,0.01294
2880.12062,0.01278
2878.06045,0.01253
2876.00028,0.01235
2873.94010,0.01227
2871.87993,0.01203
2869.81976,0.01166
2867.75959,0.01139
2865.69941,0.01128
2863.63924,0.01128
2861.57907,0.01129
2859.51890,0.01124
2857.45873,0.01113
2855.39855,0.01089
2853.33838,0.01064
2851.27821,0.01060
2849.21804,0.01067
2847.15787,0.01066
2845.09769,0.01048
2843.03752,0.01017
2840.97735,0.00992
2838.91718,0.00974
2836.85700,0.00958
2834.79683,0.00943
2832.73666,0.00932
2830.67649,0.00928
2828.61632,0.00920
2826.55614,0.00906
2824.49597,0.00907
2822.43580,0.00913
2820.37563,0.00902
2818.31546,0.00891
2816.25528,0.00891
2814.19511,0.00882
2812.13494,0.00861
2810.07477,0.00841
2808.01460,0.00839
2805.95442,0.00844
2803.89425,0.00840
2801.83408,0.00833
2799.77391,0.00834
2797.71373,0.00833
2795.65356,0.00819
2793.59339,0.00800
2791.53322,0.00793
2789.47305,0.00799
2787.41287,0.00806
2785.35270,0.00799
2783.29253,0.00783
2781.23236,0.00768
2779.17219,0.00755
2777.11201,0.00743
2775.05184,0.00743
2772.99167,0.00757
2770.93150,0.00770
2768.87133,0.00767
2766.81115,0.00759
2764.75098,0.00752
2762.69081,0.00745
2760.63064,0.00743
2758.57046,0.00740
2756.51029,0.00724
2754.45012,0.00708
2752.38995,0.00703
2750.32978,0.00702
2748.26960,0.00709
2746.20943,0.00717
2744.14926,0.00717
2742.08909,0.00711
2740.02892,0.00708
2737.96874,0.00696
2735.90857,0.00679
2733.84840,0.00695
2731.78823,0.00717
2729.72805,0.00707
2727.66788,0.00693
2725.60771,0.00692
2723.54754,0.00691
2721.48737,0.00682
2719.42719,0.00673
2717.36702,0.00677
2715.30685,0.00689
2713.24668,0.00685
2711.18651,0.00666
2709.12633,0.00646
2707.06616,0.00629
2705.00599,0.00618
2702.94582,0.00621
2700.88565,0.00629
2698.82547,0.00640
2696.76530,0.00651
2694.70513,0.00647
2692.64496,0.00624
2690.58478,0.00601
2688.52461,0.00593
2686.46444,0.00604
2684.40427,0.00617
2682.34410,0.00612
2680.28392,0.00598
2678.22375,0.00589
2676.16358,0.00575
2674.10341,0.00555
2672.04324,0.00547
2669.98306,0.00550
2667.92289,0.00549
2665.86272,0.00554
2663.80255,0.00564
2661.74238,0.00570
2659.68220,0.00572
2657.62203,0.00564
2655.56186,0.00557
2653.50169,0.00558
2651.44151,0.00553
2649.38134,0.00542
2647.32117,0.00538
2645.26100,0.00538
2643.20083,0.00539
2641.14065,0.00529
2639.08048,0.00513
2637.02031,0.00513
2634.96014,0.00524
2632.89997,0.00543
2630.83979,0.00559
2628.77962,0.00554
2626.71945,0.00538
2624.65928,0.00524
2622.59910,0.00508
2620.53893,0.00495
2618.47876,0.00501
2616.41859,0.00515
2614.35842,0.00516
2612.29824,0.00501
2610.23807,0.00477
2608.17790,0.00465
2606.11773,0.00450
2604.05756,0.00408
2601.99738,0.00394
2599.93721,0.00429
2597.87704,0.00458
2595.81687,0.00461
2593.75670,0.00450
2591.69652,0.00436
2589.63635,0.00426
2587.57618,0.00408
2585.51601,0.00392
2583.45583,0.00414
2581.39566,0.00452
2579.33549,0.00463
2577.27532,0.00449
2575.21515,0.00424
2573.15497,0.00388
2571.09480,0.00355
2569.03463,0.00343
2566.97446,0.00351
2564.91429,0.00364
2562.85411,0.00363
2560.79394,0.00351
2558.73377,0.00357
2556.67360,0.00376
2554.61342,0.00376
2552.55325,0.00347
2550.49308,0.00329
2548.43291,0.00340
2546.37274,0.00358
2544.31256,0.00354
2542.25239,0.00343
2540.19222,0.00351
2538.13205,0.00348
2536.07188,0.00338
2534.01170,0.00353
2531.95153,0.00364
2529.89136,0.00363
2527.83119,0.00370
2525.77102,0.00383
2523.71084,0.00392
2521.65067,0.00362
2519.59050,0.00305
2517.53033,0.00282
2515.47015,0.00305
2513.40998,0.00345
2511.34981,0.00363
2509.28964,0.00349
2507.22947,0.00335
2505.16929,0.00347
2503.10912,0.00365
2501.04895,0.00364
2498.98878,0.00349
2496.92861,0.00328
2494.86843,0.00330
2492.80826,0.00365
2490.74809,0.00376
2488.68792,0.00344
2486.62775,0.00319
2484.56757,0.00316
2482.50740,0.00324
2480.44723,0.00358
2478.38706,0.00395
2476.32688,0.00401
2474.26671,0.00400
2472.20654,0.00384
2470.14637,0.00335
2468.08620,0.00293
2466.02602,0.00293
2463.96585,0.00338
2461.90568,0.00397
2459.84551,0.00413
2457.78534,0.00381
2455.72516,0.00357
2453.66499,0.00364
2451.60482,0.00384
2449.54465,0.00391
2447.48447,0.00376
2445.42430,0.00362
2443.36413,0.00364
2441.30396,0.00367
2439.24379,0.00369
2437.18361,0.00361
2435.12344,0.00345
2433.06327,0.00355
2431.00310,0.00384
2428.94293,0.00395
2426.88275,0.00389
2424.82258,0.00374
2422.76241,0.00343
2420.70224,0.00311
2418.64207,0.00307
2416.58189,0.00319
2414.52172,0.00324
2412.46155,0.00322
2410.40138,0.00329
2408.34120,0.00354
2406.28103,0.00374
2404.22086,0.00356
2402.16069,0.00311
2400.10052,0.00291
2398.04034,0.00310
2395.98017,0.00337
2393.92000,0.00333
2391.85983,0.00310
2389.79966,0.00310
2387.73948,0.00335
2385.67931,0.00363
2383.61914,0.00366
2381.55897,0.00329
2379.49880,0.00274
2377.43862,0.00228
2375.37845,0.00206
2373.31828,0.00228
2371.25811,0.00293
2369.19793,0.00385
2367.13776,0.00394
2365.07759,0.00195
2363.01742,0.00000
2360.95725,0.00066
2358.89707,0.00221
2356.83690,0.00294
2354.77673,0.00349
2352.71656,0.00397
2350.65639,0.00408
2348.59621,0.00407
2346.53604,0.00418
2344.47587,0.00394
2342.41570,0.00291
2340.35552,0.00184
2338.29535,0.00126
2336.23518,0.00117
2334.17501,0.00170
2332.11484,0.00232
2330.05466,0.00256
2327.99449,0.00293
2325.93432,0.00337
2323.87415,0.00316
2321.81398,0.00280
2319.75380,0.00309
2317.69363,0.00348
2315.63346,0.00361
2313.57329,0.00378
2311.51312,0.00392
2309.45294,0.00386
2307.39277,0.00373
2305.33260,0.00370
2303.27243,0.00374
2301.21225,0.00371
2299.15208,0.00359
2297.09191,0.00352
2295.03174,0.00347
2292.97157,0.00331
2290.91139,0.00328
2288.85122,0.00339
2286.79105,0.00329
2284.73088,0.00307
2282.67071,0.00304
2280.61053,0.00322
2278.55036,0.00349
2276.49019,0.00374
2274.43002,0.00377
2272.36984,0.00357
2270.30967,0.00334
2268.24950,0.00320
2266.18933,0.00320
2264.12916,0.00338
2262.06898,0.00360
2260.00881,0.00356
2257.94864,0.00333
2255.88847,0.00332
2253.82830,0.00359
2251.76812,0.00373
2249.70795,0.00345
2247.64778,0.00288
2245.58761,0.00234
2243.52744,0.00222
2241.46726,0.00233
2239.40709,0.00241
2237.34692,0.00299
2235.28675,0.00355
2233.22657,0.00307
2231.16640,0.00231
2229.10623,0.00214
2227.04606,0.00205
2224.98589,0.00171
2222.92571,0.00139
2220.86554,0.00166
2218.80537,0.00271
2216.74520,0.00351
2214.68503,0.00335
2212.62485,0.00298
2210.56468,0.00290
2208.50451,0.00277
2206.44434,0.00233
2204.38417,0.00220
2202.32399,0.00276
2200.26382,0.00345
2198.20365,0.00392
2196.14348,0.00417
2194.08330,0.00425
2192.02313,0.00390
2189.96296,0.00344
2187.90279,0.00363
2185.84262,0.00403
2183.78244,0.00403
2181.72227,0.00373
2179.66210,0.00307
2177.60193,0.00234
2175.54176,0.00233
2173.48158,0.00273
2171.42141,0.00313
2169.36124,0.00340
2167.30107,0.00356
2165.24089,0.00396
2163.18072,0.00447
2161.12055,0.00549
2159.06038,0.00569
2157.00021,0.00328
2154.94003,0.00117
2152.87986,0.00153
2150.81969,0.00260
2148.75952,0.00290
2146.69935,0.00250
2144.63917,0.00147
2142.57900,0.00072
2140.51883,0.00127
2138.45866,0.00201
2136.39849,0.00172
2134.33831,0.00135
2132.27814,0.00172
2130.21797,0.00213
2128.15780,0.00209
2126.09762,0.00194
2124.03745,0.00219
2121.97728,0.00268
2119.91711,0.00312
2117.85694,0.00377
2115.79676,0.00389
2113.73659,0.00325
2111.67642,0.00315
2109.61625,0.00347
2107.55608,0.00320
2105.49590,0.00280
2103.43573,0.00313
2101.37556,0.00367
2099.31539,0.00346
2097.25521,0.00288
2095.19504,0.00266
2093.13487,0.00267
2091.07470,0.00270
2089.01453,0.00298
2086.95435,0.00343
2084.89418,0.00357
2082.83401,0.00324
2080.77384,0.00314
2078.71367,0.00369
2076.65349,0.00449
2074.59332,0.00504
2072.53315,0.00477
2070.47298,0.00370
2068.41281,0.00267
2066.35263,0.00231
2064.29246,0.00259
2062.23229,0.00315
2060.17212,0.00338
2058.11194,0.00312
2056.05177,0.00308
2053.99160,0.00369
2051.93143,0.00420
2049.87126,0.00408
2047.81108,0.00381
2045.75091,0.00352
2043.69074,0.00319
2041.63057,0.00309
2039.57040,0.00301
2037.51022,0.00283
2035.45005,0.00263
2033.38988,0.00257
2031.32971,0.00315
2029.26954,0.00382
2027.20936,0.00325
2025.14919,0.00148
2023.08902,0.00038
2021.02885,0.00123
2018.96867,0.00258
2016.90850,0.00261
2014.84833,0.00184
2012.78816,0.00215
2010.72799,0.00315
2008.66781,0.00286
2006.60764,0.00119
2004.54747,0.00000
2002.48730,0.00022
2000.42713,0.00128
1998.36695,0.00253
1996.30678,0.00344
1994.24661,0.00372
1992.18644,0.00337
1990.12626,0.00259
1988.06609,0.00209
1986.00592,0.00193
1983.94575,0.00181
1981.88558,0.00190
1979.82540,0.00179
1977.76523,0.00142
1975.70506,0.00126
1973.64489,0.00094
1971.58472,0.00062
1969.52454,0.00072
1967.46437,0.00085
1965.40420,0.00088
1963.34403,0.00136
1961.28386,0.00180
1959.22368,0.00136
1957.16351,0.00086
1955.10334,0.00103
1953.04317,0.00124
1950.98299,0.00112
1948.92282,0.00105
1946.86265,0.00138
1944.80248,0.00159
1942.74231,0.00096
1940.68213,0.00028
1938.62196,0.00046
1936.56179,0.00087
1934.50162,0.00088
1932.44145,0.00087
1930.38127,0.00100
1928.32110,0.00093
1926.26093,0.00086
1924.20076,0.00108
1922.14059,0.00124
1920.08041,0.00101
1918.02024,0.00074
1915.96007,0.00086
1913.89990,0.00122
1911.83972,0.00141
1909.77955,0.00112
1907.71938,0.00060
1905.65921,0.00049
1903.59904,0.00088
1901.53886,0.00106
1899.47869,0.00086
1897.41852,0.00071
1895.35835,0.00087
1893.29818,0.00118
1891.23800,0.00126
1889.17783,0.00111
1887.11766,0.00106
1885.05749,0.00117
1882.99731,0.00126
1880.93714,0.00122
1878.87697,0.00100
1876.81680,0.00063
1874.75663,0.00036
1872.69645,0.00031
1870.63628,0.00020
1868.57611,0.00000
1866.51594,-0.00001
1864.45577,0.00014
1862.39559,0.00021
1860.33542,0.00025
1858.27525,0.00041
1856.21508,0.00058
1854.15491,0.00050
1852.09473,0.00014
1850.03456,-0.00014
1847.97439,-0.00004
1845.91422,0.00032
1843.85404,0.00054
1841.79387,0.00044
1839.73370,0.00026
1837.67353,0.00025
1835.61336,0.00033
1833.55318,0.00026
1831.49301,0.00009
1829.43284,0.00000
1827.37267,0.00008
1825.31250,0.00025
1823.25232,0.00038
1821.19215,0.00040
1819.13198,0.00032
1817.07181,0.00026
1815.01163,0.00029
1812.95146,0.00027
1810.89129,0.00020
1808.83112,0.00012
1806.77095,0.00000
1804.71077,-0.00001
1802.65060,0.00006
1800.59043,0.00005
1798.53026,0.00004
1796.47009,0.00017
1794.40991,0.00025
1792.34974,0.00018
1790.28957,0.00009
1788.22940,0.00007
1786.16923,0.00009
1784.10905,0.00019
1782.04888,0.00034
1779.98871,0.00035
1777.92854,0.00017
1775.86836,0.00001
1773.80819,0.00004
1771.74802,0.00027
1769.68785,0.00056
1767.62768,0.00076
1765.56750,0.00086
1763.50733,0.00097
1761.44716,0.00118
1759.38699,0.00151
1757.32682,0.00190
1755.26664,0.00228
1753.20647,0.00256
1751.14630,0.00285
1749.08613,0.00322
1747.02596,0.00359
1744.96578,0.00389
1742.90561,0.00413
1740.84544,0.00431
1738.78527,0.00441
1736.72509,0.00458
1734.66492,0.00491
1732.60475,0.00511
1730.54458,0.00506
1728.48441,0.00507
1726.42423,0.00513
1724.36406,0.00503
1722.30389,0.00481
1720.24372,0.00468
1718.18355,0.00461
1716.12337,0.00444
1714.06320,0.00414
1712.00303,0.00389
1709.94286,0.00372
1707.88268,0.00353
1705.82251,0.00337
1703.76234,0.00329
1701.70217,0.00326
1699.64200,0.00332
1697.58182,0.00353
1695.52165,0.00370
1693.46148,0.00369
1691.40131,0.00367
1689.34114,0.00376
1687.28096,0.00384
1685.22079,0.00396
1683.16062,0.00457
1681.10045,0.00539
1679.04028,0.00595
1676.98010,0.00632
1674.91993,0.00669
1672.85976,0.00700
1670.79959,0.00737
1668.73941,0.00799
1666.67924,0.00869
1664.61907,0.00937
1662.55890,0.01006
1660.49873,0.01052
1658.43855,0.01063
1656.37838,0.01061
1654.31821,0.01092
1652.25804,0.01178
1650.19787,0.01234
1648.13769,0.01245
1646.07752,0.01257
1644.01735,0.01273
1641.95718,0.01279
1639.89701,0.01281
1637.83683,0.01279
1635.77666,0.01275
1633.71649,0.01278
1631.65632,0.01283
1629.59614,0.01281
1627.53597,0.01273
1625.47580,0.01270
1623.41563,0.01283
1621.35546,0.01294
1619.29528,0.01279
1617.23511,0.01247
1615.17494,0.01225
1613.11477,0.01215
1611.05460,0.01207
1608.99442,0.01197
1606.93425,0.01184
1604.87408,0.01159
1602.81391,0.01112
1600.75373,0.01048
1598.69356,0.00982
1596.63339,0.00919
1594.57322,0.00860
1592.51305,0.00800
1590.45287,0.00742
1588.39270,0.00687
1586.33253,0.00632
1584.27236,0.00573
1582.21219,0.00519
1580.15201,0.00472
1578.09184,0.00421
1576.03167,0.00360
1573.97150,0.00312
1571.91133,0.00282
1569.85115,0.00256
1567.79098,0.00240
1565.73081,0.00233
1563.67064,0.00223
1561.61046,0.00218
1559.55029,0.00220
1557.49012,0.00203
1555.42995,0.00169
1553.36978,0.00141
1551.30960,0.00118
1549.24943,0.00091
1547.18926,0.00063
1545.12909,0.00049
1543.06892,0.00056
1541.00874,0.00065
1538.94857,0.00049
1536.88840,0.00018
1534.82823,0.00000
1532.76805,0.00001
1530.70788,0.00000
1528.64771,-0.00008
1526.58754,-0.00009
1524.52737,0.00003
1522.46719,0.00018
1520.40702,0.00025
1518.34685,0.00016
1516.28668,0.00009
1514.22651,0.00008
1512.16633,0.00003
1510.10616,-0.00009
1508.04599,-0.00008
1505.98582,0.00015
1503.92565,0.00026
1501.86547,0.00023
1499.80530,0.00017
1497.74513,0.00009
1495.68496,0.00008
1493.62478,0.00017
1491.56461,0.00032
1489.50444,0.00053
1487.44427,0.00072
1485.38410,0.00086
1483.32392,0.00100
1481.26375,0.00115
1479.20358,0.00132
1477.14341,0.00149
1475.08324,0.00171
1473.02306,0.00215
1470.96289,0.00280
1468.90272,0.00335
1466.84255,0.00372
1464.78238,0.00402
1462.72220,0.00431
1460.66203,0.00459
1458.60186,0.00488
1456.54169,0.00521
1454.48151,0.00547
1452.42134,0.00562
1450.36117,0.00573
1448.30100,0.00588
1446.24083,0.00606
1444.18065,0.00625
1442.12048,0.00646
1440.06031,0.00670
1438.00014,0.00691
1435.93997,0.00706
1433.87979,0.00719
1431.81962,0.00742
1429.75945,0.00767
1427.69928,0.00790
1425.63910,0.00820
1423.57893,0.00865
1421.51876,0.00905
1419.45859,0.00929
1417.39842,0.00940
1415.33824,0.00942
1413.27807,0.00939
1411.21790,0.00936
1409.15773,0.00933
1407.09756,0.00929
1405.03738,0.00920
1402.97721,0.00891
1400.91704,0.00845
1398.85687,0.00802
1396.79670,0.00777
1394.73652,0.00761
1392.67635,0.00752
1390.61618,0.00753
1388.55601,0.00768
1386.49583,0.00788
1384.43566,0.00806
1382.37549,0.00827
1380.31532,0.00853
1378.25515,0.00874
1376.19497,0.00885
1374.13480,0.00902
1372.07463,0.00926
1370.01446,0.00938
1367.95429,0.00934
1365.89411,0.00918
1363.83394,0.00893
1361.77377,0.00869
1359.71360,0.00848
1357.65343,0.00827
1355.59325,0.00811
1353.53308,0.00805
1351.47291,0.00803
1349.41274,0.00804
1347.35256,0.00800
1345.29239,0.00787
1343.23222,0.00769
1341.17205,0.00758
1339.11188,0.00755
1337.05170,0.00753
1334.99153,0.00748
1332.93136,0.00746
1330.87119,0.00755
1328.81102,0.00762
1326.75084,0.00764
1324.69067,0.00775
1322.63050,0.00788
1320.57033,0.00790
1318.51015,0.00786
1316.44998,0.00782
1314.38981,0.00777
1312.32964,0.00777
1310.26947,0.00777
1308.20929,0.00769
1306.14912,0.00754
1304.08895,0.00738
1302.02878,0.00719
1299.96861,0.00696
1297.90843,0.00670
1295.84826,0.00650
1293.78809,0.00644
1291.72792,0.00649
1289.66775,0.00651
1287.60757,0.00647
1285.54740,0.00641
1283.48723,0.00638
1281.42706,0.00648
1279.36688,0.00662
1277.30671,0.00669
1275.24654,0.00678
1273.18637,0.00694
1271.12620,0.00715
1269.06602,0.00743
1267.00585,0.00776
1264.94568,0.00813
1262.88551,0.00856
1260.82534,0.00904
1258.76516,0.00952
1256.70499,0.00988
1254.64482,0.01007
1252.58465,0.01010
1250.52447,0.01010
1248.46430,0.01017
1246.40413,0.01019
1244.34396,0.01005
1242.28379,0.00990
1240.22361,0.00984
1238.16344,0.00974
1236.10327,0.00947
1234.04310,0.00913
1231.98293,0.00882
1229.92275,0.00852
1227.86258,0.00816
1225.80241,0.00774
1223.74224,0.00733
1221.68207,0.00696
1219.62189,0.00661
1217.56172,0.00620
1215.50155,0.00568
1213.44138,0.00508
1211.38120,0.00450
1209.32103,0.00407
1207.26086,0.00365
1205.20069,0.00304
1203.14052,0.00238
1201.08034,0.00188
1199.02017,0.00140
1196.96000,0.00084
1194.89983,0.00039
1192.83966,0.00013
1190.77948,0.00000
1188.71931,-0.00009
1186.65914,0.00001
1184.59897,0.00025
1182.53880,0.00049
1180.47862,0.00077
1178.41845,0.00130
1176.35828,0.00201
1174.29811,0.00267
1172.23793,0.00328
1170.17776,0.00396
1168.11759,0.00480
1166.05742,0.00578
1163.99725,0.00675
1161.93707,0.00757
1159.87690,0.00828
1157.81673,0.00896
1155.75656,0.00958
1153.69639,0.01010
1151.63621,0.01063
1149.57604,0.01129
1147.51587,0.01200
1145.45570,0.01260
1143.39552,0.01297
1141.33535,0.01322
1139.27518,0.01342
1137.21501,0.01352
1135.15484,0.01363
1133.09466,0.01396
1131.03449,0.01448
1128.97432,0.01509
1126.91415,0.01581
1124.85398,0.01664
1122.79380,0.01742
1120.73363,0.01809
1118.67346,0.01884
1116.61329,0.01960
1114.55312,0.02025
1112.49294,0.02091
1110.43277,0.02170
1108.37260,0.02243
1106.31243,0.02297
1104.25225,0.02350
1102.19208,0.02430
1100.13191,0.02530
1098.07174,0.02632
1096.01157,0.02746
1093.95139,0.02873
1091.89122,0.02987
1089.83105,0.03077
1087.77088,0.03151
1085.71071,0.03215
1083.65053,0.03284
1081.59036,0.03369
1079.53019,0.03457
1077.47002,0.03555
1075.40985,0.03666
1073.34967,0.03763
1071.28950,0.03829
1069.22933,0.03874
1067.16916,0.03902
1065.10898,0.03926
1063.04881,0.03962
1060.98864,0.04010
1058.92847,0.04060
1056.86830,0.04094
1054.80812,0.04122
1052.74795,0.04157
1050.68778,0.04190
1048.62761,0.04239
1046.56744,0.04310
1044.50726,0.04374
1042.44709,0.04420
1040.38692,0.04450
1038.32675,0.04484
1036.26657,0.04524
1034.20640,0.04548
1032.14623,0.04552
1030.08606,0.04546
1028.02589,0.04536
1025.96571,0.04527
1023.90554,0.04525
1021.84537,0.04523
1019.78520,0.04514
1017.72503,0.04496
1015.66485,0.04477
1013.60468,0.04468
1011.54451,0.04470
1009.48434,0.04473
1007.42417,0.04441
1005.36399,0.04379
1003.30382,0.04327
1001.24365,0.04284
999.18348,0.04230
997.12330,0.04167
995.06313,0.04113
993.00296,0.04075
990.94279,0.04036
988.88262,0.03974
986.82244,0.03904
984.76227,0.03860
982.70210,0.03832
980.64193,0.03794
978.58176,0.03748
976.52158,0.03692
974.46141,0.03616
972.40124,0.03540
970.34107,0.03491
968.28089,0.03435
966.22072,0.03349
964.16055,0.03264
962.10038,0.03191
960.04021,0.03123
957.98003,0.03055
955.91986,0.02981
953.85969,0.02908
951.79952,0.02837
949.73935,0.02750
947.67917,0.02651
945.61900,0.02555
943.55883,0.02440
941.49866,0.02289
939.43849,0.02114
937.37831,0.01936
935.31814,0.01749
933.25797,0.01571
931.19780,0.01426
929.13762,0.01303
927.07745,0.01173
925.01728,0.01037
922.95711,0.00920
920.89694,0.00857
918.83676,0.00831
916.77659,0.00787
914.71642,0.00717
912.65625,0.00636
910.59608,0.00549
908.53590,0.00495
906.47573,0.00505
904.41556,0.00524
902.35539,0.00504
900.29522,0.00486
898.23504,0.00514
896.17487,0.00554
894.11470,0.00552
892.05453,0.00528
889.99435,0.00503
887.93418,0.00472
885.87401,0.00426
883.81384,0.00375
881.75367,0.00350
879.69349,0.00346
877.63332,0.00334
875.57315,0.00323
873.51298,0.00324
871.45281,0.00314
869.39263,0.00295
867.33246,0.00278
865.27229,0.00268
863.21212,0.00258
861.15194,0.00238
859.09177,0.00234
857.03160,0.00257
854.97143,0.00257
852.91126,0.00222
850.85108,0.00188
848.79091,0.00157
846.73074,0.00140
844.67057,0.00141
842.61040,0.00130
840.55022,0.00102
838.49005,0.00064
836.42988,0.00028
834.36971,0.00000
832.30954,-0.00013
830.24936,0.00008
828.18919,0.00016
826.12902,-0.00022
824.06885,-0.00040
822.00867,-0.00020
819.94850,-0.00023
817.88833,-0.00043
815.82816,-0.00015
813.76799,0.00049
811.70781,0.00071
809.64764,0.00053
807.58747,0.00042
805.52730,0.00054
803.46713,0.00086
801.40695,0.00120
799.34678,0.00124
797.28661,0.00086
795.22644,0.00035
793.16627,0.00000
791.10609,0.00002
789.04592,0.00035
786.98575,0.00063
784.92558,0.00072
782.86540,0.00071
780.80523,0.00053
778.74506,0.00010
776.68489,-0.00015
774.62472,-0.00016
772.56454,-0.00023
770.50437,-0.00038
768.44420,-0.00049
766.38403,-0.00046
764.32386,-0.00033
762.26368,0.00005
760.20351,0.00043
758.14334,0.00038
756.08317,0.00023
754.02299,0.00027
751.96282,0.00020
749.90265,0.00000
747.84248,-0.00022
745.78231,-0.00037
743.72213,-0.00041
741.66196,-0.00054
739.60179,-0.00073
737.54162,-0.00063
735.48145,-0.00038
733.42127,-0.00043
731.36110,-0.00053
729.30093,-0.00028
727.24076,0.00012
725.18059,0.00016
723.12041,-0.00002
721.06024,0.00018
719.00007,0.00085
716.93990,0.00133
714.87972,0.00118
712.81955,0.00073
710.75938,0.00060
708.69921,0.00105
706.63904,0.00177
704.57886,0.00210
702.51869,0.00184
700.45852,0.00150
698.39835,0.00131
696.33818,0.00091
694.27800,0.00041
692.21783,0.00033
690.15766,0.00038
688.09749,0.00003
686.03731,-0.00021
683.97714,0.00020
681.91697,0.00086
679.85680,0.00122
677.79663,0.00122
675.73645,0.00099
673.67628,0.00067
671.61611,0.00040
669.55594,-0.00003
667.49577,-0.00090
665.43559,-0.00132
663.37542,-0.00067
661.31525,0.00014
659.25508,0.00013
657.19491,-0.00012
655.13473,0.00021
653.07456,0.00041
651.01439,-0.00010
648.95422,0.00000
646.89404,0.00144
644.83387,0.00294
642.77370,0.00294
640.71353,0.00171
638.65336,0.00097
636.59318,0.00147
634.53301,0.00210
632.47284,0.00187
630.41267,0.00102
628.35250,0.00036
626.29232,0.00044
624.23215,0.00090
622.17198,0.00163
620.11181,0.00180
618.05164,0.00103
615.99146,0.00109
613.93129,0.00165
611.87112,0.00074
609.81095,-0.00065
607.75077,-0.00002
605.69060,0.00126
603.63043,0.00004
601.57026,-0.00145
599.51009,0.00000
