3996.73391,0.00027
3994.67373,0.00005
3992.61356,0.00000
3990.55339,0.00024
3988.49322,0.00050
3986.43305,0.00063
3984.37287,0.00067
3982.31270,0.00070
3980.25253,0.00062
3978.19236,0.00042
3976.13219,0.00042
3974.07201,0.00073
3972.01184,0.00098
3969.95167,0.00090
3967.89150,0.00068
3965.83133,0.00060
3963.77115,0.00050
3961.71098,0.00034
3959.65081,0.00036
3957.59064,0.00058
3955.53046,0.00070
3953.47029,0.00063
3951.41012,0.00057
3949.34995,0.00055
3947.28978,0.00037
3945.22960,0.00009
3943.16943,0.00000
3941.10926,0.00017
3939.04909,0.00052
3936.98892,0.00079
3934.92874,0.00076
3932.86857,0.00050
3930.80840,0.00028
3928.74823,0.00024
3926.68805,0.00034
3924.62788,0.00055
3922.56771,0.00073
3920.50754,0.00064
3918.44737,0.00035
3916.38719,0.00022
3914.32702,0.00039
3912.26685,0.00076
3910.20668,0.00103
3908.14651,0.00103
3906.08633,0.00081
3904.02616,0.00052
3901.96599,0.00042
3899.90582,0.00052
3897.84565,0.00063
3895.78547,0.00067
3893.72530,0.00070
3891.66513,0.00068
3889.60496,0.00051
3887.54478,0.00026
3885.48461,0.00005
3883.42444,0.00003
3881.36427,0.00031
3879.30410,0.00075
3877.24392,0.00101
3875.18375,0.00092
3873.12358,0.00068
3871.06341,0.00063
3869.00324,0.00081
3866.94306,0.00099
3864.88289,0.00100
3862.82272,0.00080
3860.76255,0.00061
3858.70237,0.00063
3856.64220,0.00072
3854.58203,0.00060
3852.52186,0.00030
3850.46169,0.00023
3848.40151,0.00038
3846.34134,0.00050
3844.28117,0.00059
3842.22100,0.00072
3840.16083,0.00081
3838.10065,0.00088
3836.04048,0.00096
3833.98031,0.00089
3831.92014,0.00075
3829.85997,0.00056
3827.79979,0.00036
3825.73962,0.00036
3823.67945,0.00047
3821.61928,0.00054
3819.55910,0.00084
3817.49893,0.00124
3815.43876,0.00122
3813.37859,0.00084
3811.31842,0.00053
3809.25824,0.00042
3807.19807,0.00043
3805.13790,0.00042
3803.07773,0.00027
3801.01756,0.00007
3798.95738,0.00009
3796.89721,0.00037
3794.83704,0.00071
3792.77687,0.00085
3790.71670,0.00081
3788.65652,0.00083
3786.59635,0.00096
3784.53618,0.00107
3782.47601,0.00102
3780.41583,0.00083
3778.35566,0.00059
3776.29549,0.00047
3774.23532,0.00054
3772.17515,0.00072
3770.11497,0.00086
3768.05480,0.00094
3765.99463,0.00110
3763.93446,0.00139
3761.87429,0.00155
3759.81411,0.00143
3757.75394,0.00124
3755.69377,0.00117
3753.63360,0.00105
3751.57342,0.00071
3749.51325,0.00051
3747.45308,0.00080
3745.39291,0.00096
3743.33274,0.00072
3741.27256,0.00057
3739.21239,0.00059
3737.15222,0.00047
3735.09205,0.00023
3733.03188,0.00030
3730.97170,0.00072
3728.91153,0.00096
3726.85136,0.00086
3724.79119,0.00080
3722.73102,0.00098
3720.67084,0.00120
3718.61067,0.00131
3716.55050,0.00144
3714.49033,0.00157
3712.43015,0.00151
3710.36998,0.00130
3708.30981,0.00110
3706.24964,0.00099
3704.18947,0.00097
3702.12929,0.00110
3700.06912,0.00125
3698.00895,0.00129
3695.94878,0.00124
3693.88861,0.00101
3691.82843,0.00065
3689.76826,0.00056
3687.70809,0.00102
3685.64792,0.00152
3683.58775,0.00175
3681.52757,0.00190
3679.46740,0.00228
3677.40723,0.00276
3675.34706,0.00286
3673.28688,0.00239
3671.22671,0.00163
3669.16654,0.00109
3667.10637,0.00118
3665.04620,0.00171
3662.98602,0.00228
3660.92585,0.00268
3658.86568,0.00304
3656.80551,0.00361
3654.74534,0.00416
3652.68516,0.00440
3650.62499,0.00435
3648.56482,0.00428
3646.50465,0.00452
3644.44447,0.00487
3642.38430,0.00510
3640.32413,0.00528
3638.26396,0.00554
3636.20379,0.00589
3634.14361,0.00622
3632.08344,0.00643
3630.02327,0.00649
3627.96310,0.00655
3625.90293,0.00680
3623.84275,0.00732
3621.78258,0.00787
3619.72241,0.00819
3617.66224,0.00835
3615.60207,0.00865
3613.54189,0.00924
3611.48172,0.00966
3609.42155,0.00964
3607.36138,0.00972
3605.30120,0.01035
3603.24103,0.01116
3601.18086,0.01164
3599.12069,0.01188
3597.06052,0.01221
3595.00034,0.01248
3592.94017,0.01249
3590.88000,0.01277
3588.81983,0.01342
3586.75966,0.01374
3584.69948,0.01371
3582.63931,0.01404
3580.57914,0.01457
3578.51897,0.01490
3576.45879,0.01518
3574.39862,0.01553
3572.33845,0.01578
3570.27828,0.01584
3568.21811,0.01601
3566.15793,0.01656
3564.09776,0.01721
3562.03759,0.01765
3559.97742,0.01804
3557.91725,0.01848
3555.85707,0.01882
3553.79690,0.01912
3551.73673,0.01967
3549.67656,0.02049
3547.61639,0.02111
3545.55621,0.02117
3543.49604,0.02100
3541.43587,0.02111
3539.37570,0.02148
3537.31552,0.02176
3535.25535,0.02183
3533.19518,0.02199
3531.13501,0.02243
3529.07484,0.02291
3527.01466,0.02325
3524.95449,0.02361
3522.89432,0.02408
3520.83415,0.02454
3518.77398,0.02492
3516.71380,0.02531
3514.65363,0.02565
3512.59346,0.02585
3510.53329,0.02606
3508.47312,0.02626
3506.41294,0.02650
3504.35277,0.02697
3502.29260,0.02758
3500.23243,0.02796
3498.17225,0.02808
3496.11208,0.02821
3494.05191,0.02844
3491.99174,0.02872
3489.93157,0.02908
3487.87139,0.02951
3485.81122,0.02994
3483.75105,0.03032
3481.69088,0.03056
3479.63071,0.03077
3477.57053,0.03117
3475.51036,0.03172
3473.45019,0.03207
3471.39002,0.03212
3469.32984,0.03213
3467.26967,0.03231
3465.20950,0.03258
3463.14933,0.03275
3461.08916,0.03291
3459.02898,0.03315
3456.96881,0.03344
3454.90864,0.03381
3452.84847,0.03419
3450.78830,0.03454
3448.72812,0.03484
3446.66795,0.03497
3444.60778,0.03515
3442.54761,0.03561
3440.48744,0.03607
3438.42726,0.03634
3436.36709,0.03648
3434.30692,0.03650
3432.24675,0.03663
3430.18657,0.03678
3428.12640,0.03681
3426.06623,0.03701
3424.00606,0.03753
3421.94589,0.03818
3419.88571,0.03864
3417.82554,0.03877
3415.76537,0.03874
3413.70520,0.03877
3411.64503,0.03906
3409.58485,0.03943
3407.52468,0.03970
3405.46451,0.03978
3403.40434,0.03965
3401.34416,0.03973
3399.28399,0.04001
3397.22382,0.04011
3395.16365,0.04012
3393.10348,0.04031
3391.04330,0.04069
3388.98313,0.04094
3386.92296,0.04091
3384.86279,0.04085
3382.80262,0.04100
3380.74244,0.04129
3378.68227,0.04153
3376.62210,0.04165
3374.56193,0.04179
3372.50176,0.04201
3370.44158,0.04219
3368.38141,0.04219
3366.32124,0.04218
3364.26107,0.04228
3362.20089,0.04240
3360.14072,0.04249
3358.08055,0.04257
3356.02038,0.04273
3353.96021,0.04292
3351.90003,0.04303
3349.83986,0.04299
3347.77969,0.04283
3345.71952,0.04275
3343.65935,0.04288
3341.59917,0.04300
3339.53900,0.04302
3337.47883,0.04311
3335.41866,0.04321
3333.35849,0.04323
3331.29831,0.04330
3329.23814,0.04343
3327.17797,0.04338
3325.11780,0.04330
3323.05762,0.04350
3320.99745,0.04375
3318.93728,0.04387
3316.87711,0.04393
3314.81694,0.04389
3312.75676,0.04383
3310.69659,0.04378
3308.63642,0.04370
3306.57625,0.04369
3304.51608,0.04379
3302.45590,0.04373
3300.39573,0.04335
3298.33556,0.04311
3296.27539,0.04321
3294.21521,0.04346
3292.15504,0.04362
3290.09487,0.04366
3288.03470,0.04378
3285.97453,0.04395
3283.91435,0.04389
3281.85418,0.04366
3279.79401,0.04348
3277.73384,0.04334
3275.67367,0.04330
3273.61349,0.04329
3271.55332,0.04314
3269.49315,0.04306
3267.43298,0.04314
3265.37281,0.04323
3263.31263,0.04329
3261.25246,0.04337
3259.19229,0.04330
3257.13212,0.04308
3255.07194,0.04288
3253.01177,0.04280
3250.95160,0.04282
3248.89143,0.04287
3246.83126,0.04281
3244.77108,0.04268
3242.71091,0.04261
3240.65074,0.04251
3238.59057,0.04239
3236.53040,0.04231
3234.47022,0.04225
3232.41005,0.04219
3230.34988,0.04216
3228.28971,0.04214
3226.22954,0.04207
3224.16936,0.04193
3222.10919,0.04183
3220.04902,0.04182
3217.98885,0.04170
3215.92867,0.04143
3213.86850,0.04117
3211.80833,0.04091
3209.74816,0.04065
3207.68799,0.04039
3205.62781,0.04026
3203.56764,0.04034
3201.50747,0.04036
3199.44730,0.04019
3197.38713,0.03984
3195.32695,0.03938
3193.26678,0.03907
3191.20661,0.03899
3189.14644,0.03892
3187.08626,0.03878
3185.02609,0.03854
3182.96592,0.03830
3180.90575,0.03807
3178.84558,0.03785
3176.78540,0.03765
3174.72523,0.03739
3172.66506,0.03718
3170.60489,0.03709
3168.54472,0.03681
3166.48454,0.03641
3164.42437,0.03621
3162.36420,0.03607
3160.30403,0.03563
3158.24386,0.03505
3156.18368,0.03467
3154.12351,0.03446
3152.06334,0.03424
3150.00317,0.03407
3147.94299,0.03390
3145.88282,0.03368
3143.82265,0.03342
3141.76248,0.03301
3139.70231,0.03248
3137.64213,0.03214
3135.58196,0.03213
3133.52179,0.03216
3131.46162,0.03199
3129.40145,0.03168
3127.34127,0.03145
3125.28110,0.03117
3123.22093,0.03063
3121.16076,0.03007
3119.10058,0.02967
3117.04041,0.02945
3114.98024,0.02941
3112.92007,0.02932
3110.85990,0.02914
3108.79972,0.02891
3106.73955,0.02853
3104.67938,0.02815
3102.61921,0.02791
3100.55904,0.02768
3098.49886,0.02737
3096.43869,0.02714
3094.37852,0.02712
3092.31835,0.02708
3090.25818,0.02680
3088.19800,0.02641
3086.13783,0.02601
3084.07766,0.02564
3082.01749,0.02539
3079.95731,0.02526
3077.89714,0.02513
3075.83697,0.02486
3073.77680,0.02455
3071.71663,0.02423
3069.65645,0.02377
3067.59628,0.02328
3065.53611,0.02308
3063.47594,0.02312
3061.41577,0.02302
3059.35559,0.02274
3057.29542,0.02243
3055.23525,0.02216
3053.17508,0.02188
3051.11491,0.02155
3049.05473,0.02130
3046.99456,0.02118
3044.93439,0.02099
3042.87422,0.02070
3040.81404,0.02051
3038.75387,0.02042
3036.69370,0.02032
3034.63353,0.02025
3032.57336,0.02013
3030.51318,0.01992
3028.45301,0.01974
3026.39284,0.01963
3024.33267,0.01950
3022.27250,0.01925
3020.21232,0.01883
3018.15215,0.01844
3016.09198,0.01825
3014.03181,0.01814
3011.97163,0.01800
3009.91146,0.01784
3007.85129,0.01767
3005.79112,0.01757
3003.73095,0.01755
3001.67077,0.01763
2999.61060,0.01761
2997.55043,0.01750
2995.49026,0.01744
2993.43009,0.01729
2991.36991,0.01707
2989.30974,0.01701
2987.24957,0.01713
2985.18940,0.01737
2983.12923,0.01757
2981.06905,0.01750
2979.00888,0.01726
2976.94871,0.01711
2974.88854,0.01711
2972.82836,0.01720
2970.76819,0.01730
2968.70802,0.01747
2966.64785,0.01775
2964.58768,0.01800
2962.52750,0.01816
2960.46733,0.01831
2958.40716,0.01846
2956.34699,0.01874
2954.28682,0.01916
2952.22664,0.01940
2950.16647,0.01949
2948.10630,0.01973
2946.04613,0.02006
2943.98596,0.02030
2941.92578,0.02055
2939.86561,0.02085
2937.80544,0.02105
2935.74527,0.02120
2933.68509,0.02135
2931.62492,0.02136
2929.56475,0.02130
2927.50458,0.02118
2925.44441,0.02103
2923.38423,0.02100
2921.32406,0.02089
2919.26389,0.02055
2917.20372,0.02020
2915.14355,0.01997
2913.08337,0.01977
2911.02320,0.01958
2908.96303,0.01950
2906.90286,0.01938
2904.84268,0.01922
2902.78251,0.01914
2900.72234,0.01906
2898.66217,0.01896
2896.60200,0.01904
2894.54182,0.01913
2892.48165,0.01906
2890.42148,0.01902
2888.36131,0.01895
2886.30114,0.01877
2884.24096,0.01865
2882.18079,0.01862
2880.12062,0.01858
2878.06045,0.01832
2876.00028,0.01798
2873.94010,0.01779
2871.87993,0.01756
2869.81976,0.01715
2867.75959,0.01679
2865.69941,0.01657
2863.63924,0.01639
2861.57907,0.01625
2859.51890,0.01612
2857.45873,0.01599
2855.39855,0.01579
2853.33838,0.01550
2851.27821,0.01528
2849.21804,0.01521
2847.15787,0.01513
2845.09769,0.01496
2843.03752,0.01470
2840.97735,0.01440
2838.91718,0.01417
2836.85700,0.01398
2834.79683,0.01379
2832.73666,0.01370
2830.67649,0.01358
2828.61632,0.01329
2826.55614,0.01304
2824.49597,0.01306
2822.43580,0.01323
2820.37563,0.01320
2818.31546,0.01298
2816.25528,0.01283
2814.19511,0.01276
2812.13494,0.01266
2810.07477,0.01256
2808.01460,0.01241
2805.95442,0.01226
2803.89425,0.01220
2801.83408,0.01215
2799.77391,0.01199
2797.71373,0.01187
2795.65356,0.01189
2793.59339,0.01192
2791.53322,0.01188
2789.47305,0.01174
2787.41287,0.01155
2785.35270,0.01151
2783.29253,0.01158
2781.23236,0.01154
2779.17219,0.01132
2777.11201,0.01112
2775.05184,0.01109
2772.99167,0.01115
2770.93150,0.01113
2768.87133,0.01098
2766.81115,0.01080
2764.75098,0.01068
2762.69081,0.01066
2760.63064,0.01066
2758.57046,0.01070
2756.51029,0.01071
2754.45012,0.01062
2752.38995,0.01048
2750.32978,0.01041
2748.26960,0.01039
2746.20943,0.01038
2744.14926,0.01033
2742.08909,0.01030
2740.02892,0.01034
2737.96874,0.01038
2735.90857,0.01030
2733.84840,0.01020
2731.78823,0.01013
2729.72805,0.01007
2727.66788,0.01003
2725.60771,0.01005
2723.54754,0.01014
2721.48737,0.01012
2719.42719,0.00991
2717.36702,0.00970
2715.30685,0.00959
2713.24668,0.00950
2711.18651,0.00943
2709.12633,0.00943
2707.06616,0.00942
2705.00599,0.00934
2702.94582,0.00937
2700.88565,0.00946
2698.82547,0.00942
2696.76530,0.00939
2694.70513,0.00945
2692.64496,0.00944
2690.58478,0.00929
2688.52461,0.00914
2686.46444,0.00909
2684.40427,0.00905
2682.34410,0.00885
2680.28392,0.00864
2678.22375,0.00858
2676.16358,0.00855
2674.10341,0.00844
2672.04324,0.00840
2669.98306,0.00844
2667.92289,0.00834
2665.86272,0.00823
2663.80255,0.00834
2661.74238,0.00851
2659.68220,0.00860
2657.62203,0.00858
2655.56186,0.00849
2653.50169,0.00834
2651.44151,0.00816
2649.38134,0.00807
2647.32117,0.00805
2645.26100,0.00796
2643.20083,0.00782
2641.14065,0.00775
2639.08048,0.00764
2637.02031,0.00755
2634.96014,0.00761
2632.89997,0.00768
2630.83979,0.00756
2628.77962,0.00740
2626.71945,0.00734
2624.65928,0.00729
2622.59910,0.00710
2620.53893,0.00692
2618.47876,0.00697
2616.41859,0.00703
2614.35842,0.00704
2612.29824,0.00694
2610.23807,0.00663
2608.17790,0.00643
2606.11773,0.00643
2604.05756,0.00632
2601.99738,0.00629
2599.93721,0.00648
2597.87704,0.00657
2595.81687,0.00651
2593.75670,0.00651
2591.69652,0.00664
2589.63635,0.00680
2587.57618,0.00676
2585.51601,0.00659
2583.45583,0.00658
2581.39566,0.00656
2579.33549,0.00634
2577.27532,0.00623
2575.21515,0.00626
2573.15497,0.00609
2571.09480,0.00582
2569.03463,0.00580
2566.97446,0.00578
2564.91429,0.00557
2562.85411,0.00550
2560.79394,0.00565
2558.73377,0.00566
2556.67360,0.00534
2554.61342,0.00506
2552.55325,0.00526
2550.49308,0.00572
2548.43291,0.00594
2546.37274,0.00584
2544.31256,0.00566
2542.25239,0.00565
2540.19222,0.00569
2538.13205,0.00549
2536.07188,0.00520
2534.01170,0.00514
2531.95153,0.00521
2529.89136,0.00527
2527.83119,0.00541
2525.77102,0.00550
2523.71084,0.00525
2521.65067,0.00498
2519.59050,0.00507
2517.53033,0.00523
2515.47015,0.00516
2513.40998,0.00507
2511.34981,0.00510
2509.28964,0.00498
2507.22947,0.00482
2505.16929,0.00494
2503.10912,0.00526
2501.04895,0.00548
2498.98878,0.00551
2496.92861,0.00541
2494.86843,0.00540
2492.80826,0.00559
2490.74809,0.00568
2488.68792,0.00542
2486.62775,0.00513
2484.56757,0.00508
2482.50740,0.00522
2480.44723,0.00546
2478.38706,0.00564
2476.32688,0.00569
2474.26671,0.00557
2472.20654,0.00524
2470.14637,0.00490
2468.08620,0.00464
2466.02602,0.00452
2463.96585,0.00479
2461.90568,0.00527
2459.84551,0.00545
2457.78534,0.00525
2455.72516,0.00511
2453.66499,0.00522
2451.60482,0.00528
2449.54465,0.00520
2447.48447,0.00524
2445.42430,0.00548
2443.36413,0.00563
2441.30396,0.00549
2439.24379,0.00532
2437.18361,0.00538
2435.12344,0.00544
2433.06327,0.00530
2431.00310,0.00523
2428.94293,0.00528
2426.88275,0.00525
2424.82258,0.00503
2422.76241,0.00476
2420.70224,0.00470
2418.64207,0.00483
2416.58189,0.00490
2414.52172,0.00479
2412.46155,0.00468
2410.40138,0.00474
2408.34120,0.00502
2406.28103,0.00528
2404.22086,0.00531
2402.16069,0.00514
2400.10052,0.00487
2398.04034,0.00475
2395.98017,0.00481
2393.92000,0.00478
2391.85983,0.00463
2389.79966,0.00467
2387.73948,0.00495
2385.67931,0.00524
2383.61914,0.00533
2381.55897,0.00513
2379.49880,0.00479
2377.43862,0.00464
2375.37845,0.00469
2373.31828,0.00494
2371.25811,0.00522
2369.19793,0.00525
2367.13776,0.00480
2365.07759,0.00347
2363.01742,0.00206
2360.95725,0.00269
2358.89707,0.00357
2356.83690,0.00392
2354.77673,0.00446
2352.71656,0.00527
2350.65639,0.00655
2348.59621,0.00719
2346.53604,0.00607
2344.47587,0.00559
2342.41570,0.00504
2340.35552,0.00447
2338.29535,0.00434
2336.23518,0.00426
2334.17501,0.00438
2332.11484,0.00463
2330.05466,0.00513
2327.99449,0.00590
2325.93432,0.00686
2323.87415,0.00685
2321.81398,0.00624
2319.75380,0.00580
2317.69363,0.00619
2315.63346,0.00649
2313.57329,0.00620
2311.51312,0.00565
2309.45294,0.00526
2307.39277,0.00520
2305.33260,0.00525
2303.27243,0.00525
2301.21225,0.00522
2299.15208,0.00527
2297.09191,0.00525
2295.03174,0.00524
2292.97157,0.00540
2290.91139,0.00556
2288.85122,0.00546
2286.79105,0.00518
2284.73088,0.00508
2282.67071,0.00516
2280.61053,0.00517
2278.55036,0.00514
2276.49019,0.00531
2274.43002,0.00547
2272.36984,0.00512
2270.30967,0.00456
2268.24950,0.00435
2266.18933,0.00431
2264.12916,0.00424
2262.06898,0.00417
2260.00881,0.00409
2257.94864,0.00429
2255.88847,0.00479
2253.82830,0.00513
2251.76812,0.00519
2249.70795,0.00495
2247.64778,0.00431
2245.58761,0.00379
2243.52744,0.00393
2241.46726,0.00414
2239.40709,0.00415
2237.34692,0.00452
2235.28675,0.00483
2233.22657,0.00469
2231.16640,0.00455
2229.10623,0.00436
2227.04606,0.00406
2224.98589,0.00380
2222.92571,0.00334
2220.86554,0.00337
2218.80537,0.00450
2216.74520,0.00545
2214.68503,0.00514
2212.62485,0.00438
2210.56468,0.00440
2208.50451,0.00518
2206.44434,0.00520
2204.38417,0.00411
2202.32399,0.00353
2200.26382,0.00369
2198.20365,0.00364
2196.14348,0.00376
2194.08330,0.00430
2192.02313,0.00452
2189.96296,0.00475
2187.90279,0.00536
2185.84262,0.00591
2183.78244,0.00613
2181.72227,0.00562
2179.66210,0.00468
2177.60193,0.00377
2175.54176,0.00306
2173.48158,0.00289
2171.42141,0.00330
2169.36124,0.00397
2167.30107,0.00486
2165.24089,0.00596
2163.18072,0.00675
2161.12055,0.00699
2159.06038,0.00583
2157.00021,0.00349
2154.94003,0.00235
2152.87986,0.00282
2150.81969,0.00351
2148.75952,0.00381
2146.69935,0.00371
2144.63917,0.00316
2142.57900,0.00245
2140.51883,0.00214
2138.45866,0.00218
2136.39849,0.00236
2134.33831,0.00293
2132.27814,0.00380
2130.21797,0.00424
2128.15780,0.00411
2126.09762,0.00420
2124.03745,0.00458
2121.97728,0.00464
2119.91711,0.00458
2117.85694,0.00477
2115.79676,0.00461
2113.73659,0.00419
2111.67642,0.00441
2109.61625,0.00488
2107.55608,0.00487
2105.49590,0.00458
2103.43573,0.00442
2101.37556,0.00444
2099.31539,0.00436
2097.25521,0.00427
2095.19504,0.00443
2093.13487,0.00457
2091.07470,0.00439
2089.01453,0.00419
2086.95435,0.00438
2084.89418,0.00471
2082.83401,0.00464
2080.77384,0.00454
2078.71367,0.00498
2076.65349,0.00543
2074.59332,0.00527
2072.53315,0.00493
2070.47298,0.00491
2068.41281,0.00489
2066.35263,0.00462
2064.29246,0.00433
2062.23229,0.00419
2060.17212,0.00419
2058.11194,0.00433
2056.05177,0.00455
2053.99160,0.00485
2051.93143,0.00489
2049.87126,0.00441
2047.81108,0.00417
2045.75091,0.00458
2043.69074,0.00529
2041.63057,0.00570
2039.57040,0.00502
2037.51022,0.00431
2035.45005,0.00441
2033.38988,0.00415
2031.32971,0.00338
2029.26954,0.00302
2027.20936,0.00301
2025.14919,0.00265
2023.08902,0.00228
2021.02885,0.00254
2018.96867,0.00253
2016.90850,0.00183
2014.84833,0.00150
2012.78816,0.00209
2010.72799,0.00296
2008.66781,0.00268
2006.60764,0.00121
2004.54747,0.00005
2002.48730,0.00000
2000.42713,0.00109
1998.36695,0.00295
1996.30678,0.00414
1994.24661,0.00379
1992.18644,0.00311
1990.12626,0.00315
1988.06609,0.00329
1986.00592,0.00301
1983.94575,0.00288
1981.88558,0.00309
1979.82540,0.00276
1977.76523,0.00240
1975.70506,0.00298
1973.64489,0.00360
1971.58472,0.00351
1969.52454,0.00322
1967.46437,0.00309
1965.40420,0.00274
1963.34403,0.00251
1961.28386,0.00270
1959.22368,0.00248
1957.16351,0.00212
1955.10334,0.00243
1953.04317,0.00263
1950.98299,0.00201
1948.92282,0.00166
1946.86265,0.00220
1944.80248,0.00247
1942.74231,0.00182
1940.68213,0.00111
1938.62196,0.00081
1936.56179,0.00085
1934.50162,0.00128
1932.44145,0.00180
1930.38127,0.00195
1928.32110,0.00190
1926.26093,0.00191
1924.20076,0.00175
1922.14059,0.00139
1920.08041,0.00127
1918.02024,0.00151
1915.96007,0.00171
1913.89990,0.00166
1911.83972,0.00162
1909.77955,0.00152
1907.71938,0.00111
1905.65921,0.00082
1903.59904,0.00113
1901.53886,0.00164
1899.47869,0.00170
1897.41852,0.00135
1895.35835,0.00115
1893.29818,0.00120
1891.23800,0.00113
1889.17783,0.00108
1887.11766,0.00127
1885.05749,0.00155
1882.99731,0.00174
1880.93714,0.00182
1878.87697,0.00183
1876.81680,0.00173
1874.75663,0.00152
1872.69645,0.00124
1870.63628,0.00100
1868.57611,0.00086
1866.51594,0.00066
1864.45577,0.00042
1862.39559,0.00032
1860.33542,0.00050
1858.27525,0.00083
1856.21508,0.00093
1854.15491,0.00066
1852.09473,0.00026
1850.03456,0.00013
1847.97439,0.00045
1845.91422,0.00088
1843.85404,0.00095
1841.79387,0.00073
1839.73370,0.00052
1837.67353,0.00047
1835.61336,0.00060
1833.55318,0.00079
1831.49301,0.00096
1829.43284,0.00093
1827.37267,0.00068
1825.31250,0.00044
1823.25232,0.00037
1821.19215,0.00041
1819.13198,0.00039
1817.07181,0.00038
1815.01163,0.00045
1812.95146,0.00048
1810.89129,0.00041
1808.83112,0.00030
1806.77095,0.00017
1804.71077,0.00011
1802.65060,0.00018
1800.59043,0.00030
1798.53026,0.00044
1796.47009,0.00048
1794.40991,0.00029
1792.34974,0.00003
1790.28957,-0.00002
1788.22940,0.00016
1786.16923,0.00044
1784.10905,0.00066
1782.04888,0.00070
1779.98871,0.00052
1777.92854,0.00019
1775.86836,0.00000
1773.80819,0.00018
1771.74802,0.00062
1769.68785,0.00101
1767.62768,0.00124
1765.56750,0.00139
1763.50733,0.00165
1761.44716,0.00210
1759.38699,0.00257
1757.32682,0.00298
1755.26664,0.00339
1753.20647,0.00381
1751.14630,0.00431
1749.08613,0.00487
1747.02596,0.00533
1744.96578,0.00566
1742.90561,0.00586
1740.84544,0.00593
1738.78527,0.00609
1736.72509,0.00647
1734.66492,0.00687
1732.60475,0.00697
1730.54458,0.00684
1728.48441,0.00688
1726.42423,0.00705
1724.36406,0.00702
1722.30389,0.00679
1720.24372,0.00664
1718.18355,0.00665
1716.12337,0.00653
1714.06320,0.00615
1712.00303,0.00578
1709.94286,0.00556
1707.88268,0.00545
1705.82251,0.00537
1703.76234,0.00532
1701.70217,0.00534
1699.64200,0.00538
1697.58182,0.00555
1695.52165,0.00591
1693.46148,0.00624
1691.40131,0.00646
1689.34114,0.00676
1687.28096,0.00715
1685.22079,0.00754
1683.16062,0.00808
1681.10045,0.00879
1679.04028,0.00945
1676.98010,0.00994
1674.91993,0.01043
1672.85976,0.01101
1670.79959,0.01172
1668.73941,0.01260
1666.67924,0.01347
1664.61907,0.01434
1662.55890,0.01524
1660.49873,0.01593
1658.43855,0.01633
1656.37838,0.01665
1654.31821,0.01726
1652.25804,0.01816
1650.19787,0.01863
1648.13769,0.01869
1646.07752,0.01876
1644.01735,0.01896
1641.95718,0.01918
1639.89701,0.01941
1637.83683,0.01958
1635.77666,0.01956
1633.71649,0.01945
1631.65632,0.01938
1629.59614,0.01930
1627.53597,0.01920
1625.47580,0.01914
1623.41563,0.01911
1621.35546,0.01911
1619.29528,0.01908
1617.23511,0.01890
1615.17494,0.01854
1613.11477,0.01819
1611.05460,0.01795
1608.99442,0.01769
1606.93425,0.01729
1604.87408,0.01680
1602.81391,0.01624
1600.75373,0.01550
1598.69356,0.01468
1596.63339,0.01394
1594.57322,0.01318
1592.51305,0.01223
1590.45287,0.01124
1588.39270,0.01039
1586.33253,0.00963
1584.27236,0.00882
1582.21219,0.00805
1580.15201,0.00742
1578.09184,0.00675
1576.03167,0.00591
1573.97150,0.00520
1571.91133,0.00479
1569.85115,0.00447
1567.79098,0.00418
1565.73081,0.00388
1563.67064,0.00365
1561.61046,0.00362
1559.55029,0.00354
1557.49012,0.00308
1555.42995,0.00257
1553.36978,0.00223
1551.30960,0.00191
1549.24943,0.00153
1547.18926,0.00116
1545.12909,0.00096
1543.06892,0.00101
1541.00874,0.00120
1538.94857,0.00119
1536.88840,0.00083
1534.82823,0.00040
1532.76805,0.00017
1530.70788,0.00013
1528.64771,0.00014
1526.58754,0.00025
1524.52737,0.00040
1522.46719,0.00040
1520.40702,0.00027
1518.34685,0.00022
1516.28668,0.00029
1514.22651,0.00031
1512.16633,0.00020
1510.10616,0.00000
1508.04599,-0.00004
1505.98582,0.00025
1503.92565,0.00058
1501.86547,0.00079
1499.80530,0.00092
1497.74513,0.00093
1495.68496,0.00086
1493.62478,0.00081
1491.56461,0.00084
1489.50444,0.00106
1487.44427,0.00132
1485.38410,0.00146
1483.32392,0.00161
1481.26375,0.00191
1479.20358,0.00233
1477.14341,0.00283
1475.08324,0.00341
1473.02306,0.00413
1470.96289,0.00480
1468.90272,0.00515
1466.84255,0.00533
1464.78238,0.00559
1462.72220,0.00606
1460.66203,0.00663
1458.60186,0.00717
1456.54169,0.00759
1454.48151,0.00785
1452.42134,0.00803
1450.36117,0.00824
1448.30100,0.00851
1446.24083,0.00880
1444.18065,0.00910
1442.12048,0.00943
1440.06031,0.00978
1438.00014,0.01008
1435.93997,0.01025
1433.87979,0.01042
1431.81962,0.01073
1429.75945,0.01108
1427.69928,0.01136
1425.63910,0.01171
1423.57893,0.01221
1421.51876,0.01266
1419.45859,0.01299
1417.39842,0.01322
1415.33824,0.01327
1413.27807,0.01321
1411.21790,0.01315
1409.15773,0.01305
1407.09756,0.01283
1405.03738,0.01252
1402.97721,0.01216
1400.91704,0.01177
1398.85687,0.01141
1396.79670,0.01108
1394.73652,0.01077
1392.67635,0.01061
1390.61618,0.01065
1388.55601,0.01079
1386.49583,0.01098
1384.43566,0.01125
1382.37549,0.01160
1380.31532,0.01197
1378.25515,0.01224
1376.19497,0.01246
1374.13480,0.01276
1372.07463,0.01303
1370.01446,0.01309
1367.95429,0.01297
1365.89411,0.01272
1363.83394,0.01241
1361.77377,0.01218
1359.71360,0.01206
1357.65343,0.01194
1355.59325,0.01178
1353.53308,0.01160
1351.47291,0.01144
1349.41274,0.01126
1347.35256,0.01106
1345.29239,0.01085
1343.23222,0.01071
1341.17205,0.01065
1339.11188,0.01056
1337.05170,0.01041
1334.99153,0.01034
1332.93136,0.01044
1330.87119,0.01060
1328.81102,0.01072
1326.75084,0.01080
1324.69067,0.01084
1322.63050,0.01084
1320.57033,0.01087
1318.51015,0.01099
1316.44998,0.01111
1314.38981,0.01117
1312.32964,0.01113
1310.26947,0.01093
1308.20929,0.01061
1306.14912,0.01033
1304.08895,0.01011
1302.02878,0.00987
1299.96861,0.00961
1297.90843,0.00934
1295.84826,0.00915
1293.78809,0.00908
1291.72792,0.00909
1289.66775,0.00898
1287.60757,0.00873
1285.54740,0.00861
1283.48723,0.00871
1281.42706,0.00882
1279.36688,0.00885
1277.30671,0.00892
1275.24654,0.00909
1273.18637,0.00939
1271.12620,0.00980
1269.06602,0.01021
1267.00585,0.01063
1264.94568,0.01114
1262.88551,0.01178
1260.82534,0.01239
1258.76516,0.01292
1256.70499,0.01338
1254.64482,0.01371
1252.58465,0.01384
1250.52447,0.01389
1248.46430,0.01404
1246.40413,0.01413
1244.34396,0.01398
1242.28379,0.01379
1240.22361,0.01366
1238.16344,0.01341
1236.10327,0.01292
1234.04310,0.01239
1231.98293,0.01202
1229.92275,0.01170
1227.86258,0.01121
1225.80241,0.01062
1223.74224,0.01006
1221.68207,0.00952
1219.62189,0.00900
1217.56172,0.00848
1215.50155,0.00788
1213.44138,0.00716
1211.38120,0.00639
1209.32103,0.00569
1207.26086,0.00500
1205.20069,0.00414
1203.14052,0.00321
1201.08034,0.00242
1199.02017,0.00170
1196.96000,0.00104
1194.89983,0.00058
1192.83966,0.00022
1190.77948,0.00000
1188.71931,-0.00007
1186.65914,0.00006
1184.59897,0.00031
1182.53880,0.00068
1180.47862,0.00123
1178.41845,0.00200
1176.35828,0.00290
1174.29811,0.00377
1172.23793,0.00464
1170.17776,0.00568
1168.11759,0.00693
1166.05742,0.00831
1163.99725,0.00960
1161.93707,0.01067
1159.87690,0.01158
1157.81673,0.01243
1155.75656,0.01327
1153.69639,0.01410
1151.63621,0.01494
1149.57604,0.01579
1147.51587,0.01658
1145.45570,0.01725
1143.39552,0.01773
1141.33535,0.01804
1139.27518,0.01834
1137.21501,0.01871
1135.15484,0.01909
1133.09466,0.01951
1131.03449,0.02014
1128.97432,0.02101
1126.91415,0.02202
1124.85398,0.02313
1122.79380,0.02432
1120.73363,0.02550
1118.67346,0.02665
1116.61329,0.02768
1114.55312,0.02855
1112.49294,0.02942
1110.43277,0.03043
1108.37260,0.03149
1106.31243,0.03249
1104.25225,0.03342
1102.19208,0.03448
1100.13191,0.03586
1098.07174,0.03742
1096.01157,0.03901
1093.95139,0.04073
1091.89122,0.04239
1089.83105,0.04364
1087.77088,0.04455
1085.71071,0.04557
1083.65053,0.04688
1081.59036,0.04825
1079.53019,0.04943
1077.47002,0.05062
1075.40985,0.05204
1073.34967,0.05345
1071.28950,0.05446
1069.22933,0.05513
1067.16916,0.05565
1065.10898,0.05609
1063.04881,0.05647
1060.98864,0.05690
1058.92847,0.05752
1056.86830,0.05816
1054.80812,0.05866
1052.74795,0.05912
1050.68778,0.05965
1048.62761,0.06046
1046.56744,0.06156
1044.50726,0.06256
1042.44709,0.06324
1040.38692,0.06379
1038.32675,0.06445
1036.26657,0.06499
1034.20640,0.06515
1032.14623,0.06510
1030.08606,0.06510
1028.02589,0.06505
1025.96571,0.06480
1023.90554,0.06453
1021.84537,0.06430
1019.78520,0.06401
1017.72503,0.06365
1015.66485,0.06344
1013.60468,0.06332
1011.54451,0.06304
1009.48434,0.06272
1007.42417,0.06232
1005.36399,0.06160
1003.30382,0.06076
1001.24365,0.06009
999.18348,0.05943
997.12330,0.05854
995.06313,0.05758
993.00296,0.05672
990.94279,0.05598
988.88262,0.05524
986.82244,0.05443
984.76227,0.05381
982.70210,0.05336
980.64193,0.05275
978.58176,0.05200
976.52158,0.05118
974.46141,0.05024
972.40124,0.04922
970.34107,0.04815
968.28089,0.04698
966.22072,0.04572
964.16055,0.04454
962.10038,0.04347
960.04021,0.04238
957.98003,0.04128
955.91986,0.04024
953.85969,0.03920
951.79952,0.03805
949.73935,0.03666
947.67917,0.03512
945.61900,0.03357
943.55883,0.03183
941.49866,0.02961
939.43849,0.02715
937.37831,0.02482
935.31814,0.02254
933.25797,0.02028
931.19780,0.01821
929.13762,0.01647
927.07745,0.01480
925.01728,0.01305
922.95711,0.01163
920.89694,0.01072
918.83676,0.01002
916.77659,0.00922
914.71642,0.00834
912.65625,0.00743
910.59608,0.00661
908.53590,0.00615
906.47573,0.00600
904.41556,0.00593
902.35539,0.00592
900.29522,0.00598
898.23504,0.00608
896.17487,0.00617
894.11470,0.00612
892.05453,0.00608
889.99435,0.00601
887.93418,0.00560
885.87401,0.00492
883.81384,0.00423
881.75367,0.00380
879.69349,0.00370
877.63332,0.00360
875.57315,0.00349
873.51298,0.00336
871.45281,0.00304
869.39263,0.00283
867.33246,0.00295
865.27229,0.00320
863.21212,0.00316
861.15194,0.00280
859.09177,0.00264
857.03160,0.00275
854.97143,0.00266
852.91126,0.00226
850.85108,0.00179
848.79091,0.00143
846.73074,0.00132
844.67057,0.00124
842.61040,0.00081
840.55022,0.00025
838.49005,0.00000
836.42988,-0.00002
834.36971,-0.00014
832.30954,-0.00042
830.24936,-0.00070
828.18919,-0.00092
826.12902,-0.00090
824.06885,-0.00055
822.00867,-0.00029
819.94850,-0.00022
817.88833,-0.00016
815.82816,0.00002
813.76799,0.00021
811.70781,0.00019
809.64764,0.00020
807.58747,0.00042
805.52730,0.00069
803.46713,0.00107
801.40695,0.00145
799.34678,0.00135
797.28661,0.00077
795.22644,0.00023
793.16627,0.00000
791.10609,-0.00010
789.04592,-0.00019
786.98575,-0.00012
784.92558,0.00003
782.86540,-0.00009
780.80523,-0.00032
778.74506,-0.00018
776.68489,0.00027
774.62472,0.00034
772.56454,0.00017
770.50437,0.00043
768.44420,0.00063
766.38403,0.00035
764.32386,-0.00003
762.26368,0.00006
760.20351,0.00054
758.14334,0.00064
756.08317,0.00030
754.02299,0.00001
751.96282,0.00000
749.90265,0.00008
747.84248,-0.00007
745.78231,-0.00024
743.72213,-0.00009
741.66196,-0.00002
739.60179,-0.00009
737.54162,0.00014
735.48145,0.00036
733.42127,0.00025
731.36110,0.00017
729.30093,0.00040
727.24076,0.00081
725.18059,0.00109
723.12041,0.00133
721.06024,0.00142
719.00007,0.00166
716.93990,0.00179
714.87972,0.00181
712.81955,0.00184
710.75938,0.00191
708.69921,0.00218
706.63904,0.00265
704.57886,0.00291
702.51869,0.00271
700.45852,0.00244
698.39835,0.00249
696.33818,0.00257
694.27800,0.00247
692.21783,0.00245
690.15766,0.00253
688.09749,0.00239
686.03731,0.00209
683.97714,0.00200
681.91697,0.00227
679.85680,0.00273
677.79663,0.00270
675.73645,0.00196
673.67628,0.00195
671.61611,0.00334
669.55594,0.00247
667.49577,0.00013
665.43559,0.00195
663.37542,0.00174
661.31525,0.00150
659.25508,0.00158
657.19491,0.00165
655.13473,0.00169
653.07456,0.00096
651.01439,-0.00021
648.95422,0.00000
646.89404,0.00167
644.83387,0.00336
642.77370,0.00426
640.71353,0.00397
638.65336,0.00321
636.59318,0.00332
634.53301,0.00408
632.47284,0.00456
630.41267,0.00460
628.35250,0.00422
626.29232,0.00348
624.23215,0.00313
622.17198,0.00384
620.11181,0.00414
618.05164,0.00343
615.99146,0.00346
613.93129,0.00313
611.87112,0.00053
609.81095,-0.00144
607.75077,0.00011
605.69060,0.00296
603.63043,0.00387
601.57026,0.00227
599.51009,0.00000
