3996.73391,-0.00013
3994.67373,-0.00005
3992.61356,0.00011
3990.55339,0.00027
3988.49322,0.00037
3986.43305,0.00040
3984.37287,0.00030
3982.31270,0.00016
3980.25253,0.00010
3978.19236,0.00003
3976.13219,0.00000
3974.07201,0.00014
3972.01184,0.00034
3969.95167,0.00039
3967.89150,0.00036
3965.83133,0.00044
3963.77115,0.00049
3961.71098,0.00029
3959.65081,0.00004
3957.59064,0.00011
3955.53046,0.00036
3953.47029,0.00038
3951.41012,0.00016
3949.34995,0.00000
3947.28978,0.00009
3945.22960,0.00036
3943.16943,0.00063
3941.10926,0.00065
3939.04909,0.00038
3936.98892,0.00007
3934.92874,-0.00004
3932.86857,0.00015
3930.80840,0.00045
3928.74823,0.00058
3926.68805,0.00061
3924.62788,0.00072
3922.56771,0.00076
3920.50754,0.00052
3918.44737,0.00014
3916.38719,0.00000
3914.32702,0.00016
3912.26685,0.00039
3910.20668,0.00051
3908.14651,0.00057
3906.08633,0.00060
3904.02616,0.00052
3901.96599,0.00047
3899.90582,0.00064
3897.84565,0.00087
3895.78547,0.00097
3893.72530,0.00101
3891.66513,0.00108
3889.60496,0.00101
3887.54478,0.00083
3885.48461,0.00078
3883.42444,0.00084
3881.36427,0.00080
3879.30410,0.00064
3877.24392,0.00054
3875.18375,0.00056
3873.12358,0.00071
3871.06341,0.00099
3869.00324,0.00125
3866.94306,0.00117
3864.88289,0.00075
3862.82272,0.00040
3860.76255,0.00035
3858.70237,0.00047
3856.64220,0.00068
3854.58203,0.00094
3852.52186,0.00096
3850.46169,0.00075
3848.40151,0.00054
3846.34134,0.00045
3844.28117,0.00061
3842.22100,0.00090
3840.16083,0.00101
3838.10065,0.00090
3836.04048,0.00075
3833.98031,0.00072
3831.92014,0.00083
3829.85997,0.00083
3827.79979,0.00056
3825.73962,0.00029
3823.67945,0.00034
3821.61928,0.00067
3819.55910,0.00078
3817.49893,0.00050
3815.43876,0.00029
3813.37859,0.00041
3811.31842,0.00055
3809.25824,0.00064
3807.19807,0.00084
3805.13790,0.00097
3803.07773,0.00088
3801.01756,0.00076
3798.95738,0.00074
3796.89721,0.00083
3794.83704,0.00103
3792.77687,0.00114
3790.71670,0.00098
3788.65652,0.00071
3786.59635,0.00058
3784.53618,0.00062
3782.47601,0.00084
3780.41583,0.00122
3778.35566,0.00138
3776.29549,0.00110
3774.23532,0.00069
3772.17515,0.00029
3770.11497,0.00000
3768.05480,0.00012
3765.99463,0.00046
3763.93446,0.00067
3761.87429,0.00085
3759.81411,0.00102
3757.75394,0.00094
3755.69377,0.00067
3753.63360,0.00057
3751.57342,0.00100
3749.51325,0.00181
3747.45308,0.00217
3745.39291,0.00182
3743.33274,0.00122
3741.27256,0.00080
3739.21239,0.00058
3737.15222,0.00060
3735.09205,0.00075
3733.03188,0.00066
3730.97170,0.00044
3728.91153,0.00051
3726.85136,0.00085
3724.79119,0.00108
3722.73102,0.00118
3720.67084,0.00129
3718.61067,0.00124
3716.55050,0.00087
3714.49033,0.00035
3712.43015,0.00022
3710.36998,0.00069
3708.30981,0.00120
3706.24964,0.00130
3704.18947,0.00105
3702.12929,0.00078
3700.06912,0.00075
3698.00895,0.00092
3695.94878,0.00111
3693.88861,0.00136
3691.82843,0.00178
3689.76826,0.00208
3687.70809,0.00185
3685.64792,0.00137
3683.58775,0.00101
3681.52757,0.00088
3679.46740,0.00094
3677.40723,0.00106
3675.34706,0.00126
3673.28688,0.00158
3671.22671,0.00198
3669.16654,0.00241
3667.10637,0.00264
3665.04620,0.00268
3662.98602,0.00263
3660.92585,0.00242
3658.86568,0.00212
3656.80551,0.00212
3654.74534,0.00251
3652.68516,0.00301
3650.62499,0.00345
3648.56482,0.00354
3646.50465,0.00329
3644.44447,0.00322
3642.38430,0.00352
3640.32413,0.00393
3638.26396,0.00410
3636.20379,0.00403
3634.14361,0.00405
3632.08344,0.00425
3630.02327,0.00459
3627.96310,0.00514
3625.90293,0.00561
3623.84275,0.00578
3621.78258,0.00592
3619.72241,0.00626
3617.66224,0.00669
3615.60207,0.00698
3613.54189,0.00695
3611.48172,0.00676
3609.42155,0.00693
3607.36138,0.00756
3605.30120,0.00817
3603.24103,0.00838
3601.18086,0.00832
3599.12069,0.00844
3597.06052,0.00898
3595.00034,0.00961
3592.94017,0.00999
3590.88000,0.01023
3588.81983,0.01045
3586.75966,0.01046
3584.69948,0.01046
3582.63931,0.01073
3580.57914,0.01116
3578.51897,0.01158
3576.45879,0.01184
3574.39862,0.01197
3572.33845,0.01222
3570.27828,0.01261
3568.21811,0.01298
3566.15793,0.01353
3564.09776,0.01430
3562.03759,0.01483
3559.97742,0.01494
3557.91725,0.01487
3555.85707,0.01495
3553.79690,0.01522
3551.73673,0.01550
3549.67656,0.01560
3547.61639,0.01569
3545.55621,0.01601
3543.49604,0.01651
3541.43587,0.01701
3539.37570,0.01741
3537.31552,0.01769
3535.25535,0.01797
3533.19518,0.01830
3531.13501,0.01863
3529.07484,0.01887
3527.01466,0.01917
3524.95449,0.01958
3522.89432,0.01981
3520.83415,0.01982
3518.77398,0.01992
3516.71380,0.02030
3514.65363,0.02080
3512.59346,0.02124
3510.53329,0.02151
3508.47312,0.02165
3506.41294,0.02180
3504.35277,0.02205
3502.29260,0.02242
3500.23243,0.02290
3498.17225,0.02340
3496.11208,0.02385
3494.05191,0.02424
3491.99174,0.02445
3489.93157,0.02441
3487.87139,0.02429
3485.81122,0.02436
3483.75105,0.02471
3481.69088,0.02515
3479.63071,0.02549
3477.57053,0.02576
3475.51036,0.02604
3473.45019,0.02627
3471.39002,0.02643
3469.32984,0.02667
3467.26967,0.02700
3465.20950,0.02738
3463.14933,0.02778
3461.08916,0.02814
3459.02898,0.02835
3456.96881,0.02842
3454.90864,0.02850
3452.84847,0.02861
3450.78830,0.02879
3448.72812,0.02920
3446.66795,0.02977
3444.60778,0.03011
3442.54761,0.03018
3440.48744,0.03030
3438.42726,0.03064
3436.36709,0.03087
3434.30692,0.03082
3432.24675,0.03081
3430.18657,0.03113
3428.12640,0.03159
3426.06623,0.03191
3424.00606,0.03210
3421.94589,0.03235
3419.88571,0.03253
3417.82554,0.03264
3415.76537,0.03288
3413.70520,0.03322
3411.64503,0.03348
3409.58485,0.03367
3407.52468,0.03391
3405.46451,0.03415
3403.40434,0.03425
3401.34416,0.03426
3399.28399,0.03425
3397.22382,0.03448
3395.16365,0.03475
3393.10348,0.03486
3391.04330,0.03494
3388.98313,0.03519
3386.92296,0.03553
3384.86279,0.03573
3382.80262,0.03573
3380.74244,0.03566
3378.68227,0.03559
3376.62210,0.03557
3374.56193,0.03563
3372.50176,0.03579
3370.44158,0.03606
3368.38141,0.03629
3366.32124,0.03646
3364.26107,0.03666
3362.20089,0.03685
3360.14072,0.03694
3358.08055,0.03697
3356.02038,0.03705
3353.96021,0.03718
3351.90003,0.03719
3349.83986,0.03709
3347.77969,0.03703
3345.71952,0.03698
3343.65935,0.03694
3341.59917,0.03706
3339.53900,0.03730
3337.47883,0.03755
3335.41866,0.03781
3333.35849,0.03795
3331.29831,0.03802
3329.23814,0.03815
3327.17797,0.03824
3325.11780,0.03810
3323.05762,0.03786
3320.99745,0.03785
3318.93728,0.03811
3316.87711,0.03841
3314.81694,0.03856
3312.75676,0.03863
3310.69659,0.03879
3308.63642,0.03885
3306.57625,0.03865
3304.51608,0.03846
3302.45590,0.03848
3300.39573,0.03854
3298.33556,0.03854
3296.27539,0.03855
3294.21521,0.03859
3292.15504,0.03856
3290.09487,0.03850
3288.03470,0.03854
3285.97453,0.03861
3283.91435,0.03861
3281.85418,0.03863
3279.79401,0.03871
3277.73384,0.03887
3275.67367,0.03899
3273.61349,0.03899
3271.55332,0.03907
3269.49315,0.03911
3267.43298,0.03895
3265.37281,0.03873
3263.31263,0.03861
3261.25246,0.03856
3259.19229,0.03853
3257.13212,0.03858
3255.07194,0.03858
3253.01177,0.03855
3250.95160,0.03857
3248.89143,0.03847
3246.83126,0.03823
3244.77108,0.03807
3242.71091,0.03794
3240.65074,0.03763
3238.59057,0.03727
3236.53040,0.03717
3234.47022,0.03726
3232.41005,0.03734
3230.34988,0.03727
3228.28971,0.03712
3226.22954,0.03702
3224.16936,0.03692
3222.10919,0.03663
3220.04902,0.03630
3217.98885,0.03616
3215.92867,0.03615
3213.86850,0.03609
3211.80833,0.03587
3209.74816,0.03569
3207.68799,0.03560
3205.62781,0.03541
3203.56764,0.03515
3201.50747,0.03488
3199.44730,0.03457
3197.38713,0.03429
3195.32695,0.03408
3193.26678,0.03391
3191.20661,0.03373
3189.14644,0.03358
3187.08626,0.03349
3185.02609,0.03329
3182.96592,0.03290
3180.90575,0.03258
3178.84558,0.03246
3176.78540,0.03239
3174.72523,0.03212
3172.66506,0.03169
3170.60489,0.03140
3168.54472,0.03129
3166.48454,0.03109
3164.42437,0.03072
3162.36420,0.03036
3160.30403,0.03010
3158.24386,0.02982
3156.18368,0.02942
3154.12351,0.02911
3152.06334,0.02902
3150.00317,0.02890
3147.94299,0.02865
3145.88282,0.02828
3143.82265,0.02777
3141.76248,0.02741
3139.70231,0.02748
3137.64213,0.02770
3135.58196,0.02762
3133.52179,0.02725
3131.46162,0.02683
3129.40145,0.02636
3127.34127,0.02585
3125.28110,0.02545
3123.22093,0.02524
3121.16076,0.02514
3119.10058,0.02496
3117.04041,0.02470
3114.98024,0.02447
3112.92007,0.02424
3110.85990,0.02393
3108.79972,0.02357
3106.73955,0.02330
3104.67938,0.02312
3102.61921,0.02291
3100.55904,0.02256
3098.49886,0.02214
3096.43869,0.02173
3094.37852,0.02141
3092.31835,0.02118
3090.25818,0.02092
3088.19800,0.02067
3086.13783,0.02046
3084.07766,0.02027
3082.01749,0.02012
3079.95731,0.01997
3077.89714,0.01979
3075.83697,0.01965
3073.77680,0.01955
3071.71663,0.01931
3069.65645,0.01890
3067.59628,0.01859
3065.53611,0.01852
3063.47594,0.01838
3061.41577,0.01807
3059.35559,0.01770
3057.29542,0.01727
3055.23525,0.01694
3053.17508,0.01687
3051.11491,0.01677
3049.05473,0.01652
3046.99456,0.01634
3044.93439,0.01627
3042.87422,0.01613
3040.81404,0.01592
3038.75387,0.01574
3036.69370,0.01562
3034.63353,0.01544
3032.57336,0.01526
3030.51318,0.01513
3028.45301,0.01489
3026.39284,0.01465
3024.33267,0.01456
3022.27250,0.01449
3020.21232,0.01443
3018.15215,0.01431
3016.09198,0.01409
3014.03181,0.01389
3011.97163,0.01374
3009.91146,0.01359
3007.85129,0.01338
3005.79112,0.01313
3003.73095,0.01293
3001.67077,0.01286
2999.61060,0.01303
2997.55043,0.01323
2995.49026,0.01322
2993.43009,0.01312
2991.36991,0.01314
2989.30974,0.01327
2987.24957,0.01338
2985.18940,0.01340
2983.12923,0.01338
2981.06905,0.01343
2979.00888,0.01361
2976.94871,0.01384
2974.88854,0.01396
2972.82836,0.01410
2970.76819,0.01439
2968.70802,0.01463
2966.64785,0.01476
2964.58768,0.01497
2962.52750,0.01525
2960.46733,0.01564
2958.40716,0.01609
2956.34699,0.01641
2954.28682,0.01666
2952.22664,0.01690
2950.16647,0.01715
2948.10630,0.01757
2946.04613,0.01808
2943.98596,0.01844
2941.92578,0.01863
2939.86561,0.01874
2937.80544,0.01882
2935.74527,0.01883
2933.68509,0.01884
2931.62492,0.01889
2929.56475,0.01885
2927.50458,0.01877
2925.44441,0.01871
2923.38423,0.01848
2921.32406,0.01822
2919.26389,0.01806
2917.20372,0.01783
2915.14355,0.01746
2913.08337,0.01726
2911.02320,0.01735
2908.96303,0.01745
2906.90286,0.01739
2904.84268,0.01719
2902.78251,0.01698
2900.72234,0.01697
2898.66217,0.01707
2896.60200,0.01700
2894.54182,0.01682
2892.48165,0.01670
2890.42148,0.01663
2888.36131,0.01659
2886.30114,0.01658
2884.24096,0.01647
2882.18079,0.01633
2880.12062,0.01624
2878.06045,0.01607
2876.00028,0.01584
2873.94010,0.01566
2871.87993,0.01550
2869.81976,0.01531
2867.75959,0.01500
2865.69941,0.01467
2863.63924,0.01448
2861.57907,0.01433
2859.51890,0.01409
2857.45873,0.01376
2855.39855,0.01345
2853.33838,0.01323
2851.27821,0.01312
2849.21804,0.01304
2847.15787,0.01281
2845.09769,0.01248
2843.03752,0.01233
2840.97735,0.01237
2838.91718,0.01234
2836.85700,0.01216
2834.79683,0.01197
2832.73666,0.01191
2830.67649,0.01188
2828.61632,0.01174
2826.55614,0.01162
2824.49597,0.01153
2822.43580,0.01135
2820.37563,0.01126
2818.31546,0.01133
2816.25528,0.01120
2814.19511,0.01091
2812.13494,0.01075
2810.07477,0.01070
2808.01460,0.01070
2805.95442,0.01068
2803.89425,0.01060
2801.83408,0.01052
2799.77391,0.01049
2797.71373,0.01041
2795.65356,0.01033
2793.59339,0.01030
2791.53322,0.01031
2789.47305,0.01033
2787.41287,0.01023
2785.35270,0.01000
2783.29253,0.00980
2781.23236,0.00970
2779.17219,0.00972
2777.11201,0.00969
2775.05184,0.00957
2772.99167,0.00945
2770.93150,0.00939
2768.87133,0.00938
2766.81115,0.00939
2764.75098,0.00936
2762.69081,0.00930
2760.63064,0.00921
2758.57046,0.00920
2756.51029,0.00936
2754.45012,0.00950
2752.38995,0.00950
2750.32978,0.00937
2748.26960,0.00917
2746.20943,0.00903
2744.14926,0.00900
2742.08909,0.00899
2740.02892,0.00890
2737.96874,0.00883
2735.90857,0.00881
2733.84840,0.00881
2731.78823,0.00886
2729.72805,0.00892
2727.66788,0.00892
2725.60771,0.00884
2723.54754,0.00867
2721.48737,0.00852
2719.42719,0.00850
2717.36702,0.00853
2715.30685,0.00856
2713.24668,0.00856
2711.18651,0.00845
2709.12633,0.00835
2707.06616,0.00840
2705.00599,0.00854
2702.94582,0.00858
2700.88565,0.00854
2698.82547,0.00849
2696.76530,0.00841
2694.70513,0.00830
2692.64496,0.00826
2690.58478,0.00834
2688.52461,0.00835
2686.46444,0.00818
2684.40427,0.00803
2682.34410,0.00807
2680.28392,0.00821
2678.22375,0.00834
2676.16358,0.00832
2674.10341,0.00814
2672.04324,0.00800
2669.98306,0.00795
2667.92289,0.00793
2665.86272,0.00790
2663.80255,0.00784
2661.74238,0.00781
2659.68220,0.00781
2657.62203,0.00778
2655.56186,0.00773
2653.50169,0.00773
2651.44151,0.00772
2649.38134,0.00754
2647.32117,0.00734
2645.26100,0.00740
2643.20083,0.00760
2641.14065,0.00768
2639.08048,0.00750
2637.02031,0.00718
2634.96014,0.00693
2632.89997,0.00686
2630.83979,0.00686
2628.77962,0.00684
2626.71945,0.00683
2624.65928,0.00692
2622.59910,0.00700
2620.53893,0.00690
2618.47876,0.00671
2616.41859,0.00658
2614.35842,0.00648
2612.29824,0.00632
2610.23807,0.00624
2608.17790,0.00639
2606.11773,0.00650
2604.05756,0.00642
2601.99738,0.00634
2599.93721,0.00633
2597.87704,0.00636
2595.81687,0.00639
2593.75670,0.00641
2591.69652,0.00649
2589.63635,0.00646
2587.57618,0.00621
2585.51601,0.00595
2583.45583,0.00598
2581.39566,0.00622
2579.33549,0.00628
2577.27532,0.00624
2575.21515,0.00623
2573.15497,0.00609
2571.09480,0.00580
2569.03463,0.00551
2566.97446,0.00525
2564.91429,0.00519
2562.85411,0.00550
2560.79394,0.00584
2558.73377,0.00587
2556.67360,0.00562
2554.61342,0.00531
2552.55325,0.00519
2550.49308,0.00544
2548.43291,0.00568
2546.37274,0.00559
2544.31256,0.00547
2542.25239,0.00532
2540.19222,0.00522
2538.13205,0.00552
2536.07188,0.00594
2534.01170,0.00607
2531.95153,0.00588
2529.89136,0.00548
2527.83119,0.00519
2525.77102,0.00521
2523.71084,0.00542
2521.65067,0.00559
2519.59050,0.00557
2517.53033,0.00539
2515.47015,0.00518
2513.40998,0.00503
2511.34981,0.00505
2509.28964,0.00515
2507.22947,0.00509
2505.16929,0.00511
2503.10912,0.00541
2501.04895,0.00548
2498.98878,0.00525
2496.92861,0.00512
2494.86843,0.00511
2492.80826,0.00515
2490.74809,0.00518
2488.68792,0.00519
2486.62775,0.00530
2484.56757,0.00537
2482.50740,0.00530
2480.44723,0.00515
2478.38706,0.00497
2476.32688,0.00499
2474.26671,0.00518
2472.20654,0.00519
2470.14637,0.00488
2468.08620,0.00466
2466.02602,0.00482
2463.96585,0.00493
2461.90568,0.00473
2459.84551,0.00466
2457.78534,0.00490
2455.72516,0.00512
2453.66499,0.00520
2451.60482,0.00510
2449.54465,0.00492
2447.48447,0.00493
2445.42430,0.00496
2443.36413,0.00484
2441.30396,0.00479
2439.24379,0.00485
2437.18361,0.00476
2435.12344,0.00461
2433.06327,0.00468
2431.00310,0.00492
2428.94293,0.00510
2426.88275,0.00503
2424.82258,0.00478
2422.76241,0.00463
2420.70224,0.00463
2418.64207,0.00467
2416.58189,0.00477
2414.52172,0.00484
2412.46155,0.00484
2410.40138,0.00473
2408.34120,0.00458
2406.28103,0.00453
2404.22086,0.00451
2402.16069,0.00443
2400.10052,0.00428
2398.04034,0.00405
2395.98017,0.00390
2393.92000,0.00402
2391.85983,0.00429
2389.79966,0.00432
2387.73948,0.00413
2385.67931,0.00404
2383.61914,0.00411
2381.55897,0.00429
2379.49880,0.00457
2377.43862,0.00479
2375.37845,0.00473
2373.31828,0.00444
2371.25811,0.00401
2369.19793,0.00372
2367.13776,0.00395
2365.07759,0.00418
2363.01742,0.00363
2360.95725,0.00305
2358.89707,0.00335
2356.83690,0.00411
2354.77673,0.00471
2352.71656,0.00500
2350.65639,0.00513
2348.59621,0.00517
2346.53604,0.00534
2344.47587,0.00579
2342.41570,0.00600
2340.35552,0.00542
2338.29535,0.00466
2336.23518,0.00437
2334.17501,0.00435
2332.11484,0.00459
2330.05466,0.00512
2327.99449,0.00563
2325.93432,0.00577
2323.87415,0.00541
2321.81398,0.00508
2319.75380,0.00530
2317.69363,0.00560
2315.63346,0.00560
2313.57329,0.00559
2311.51312,0.00554
2309.45294,0.00545
2307.39277,0.00545
2305.33260,0.00535
2303.27243,0.00505
2301.21225,0.00481
2299.15208,0.00468
2297.09191,0.00446
2295.03174,0.00430
2292.97157,0.00443
2290.91139,0.00474
2288.85122,0.00486
2286.79105,0.00472
2284.73088,0.00453
2282.67071,0.00434
2280.61053,0.00413
2278.55036,0.00409
2276.49019,0.00441
2274.43002,0.00499
2272.36984,0.00542
2270.30967,0.00527
2268.24950,0.00473
2266.18933,0.00447
2264.12916,0.00457
2262.06898,0.00465
2260.00881,0.00468
2257.94864,0.00468
2255.88847,0.00460
2253.82830,0.00454
2251.76812,0.00449
2249.70795,0.00422
2247.64778,0.00401
2245.58761,0.00432
2243.52744,0.00493
2241.46726,0.00526
2239.40709,0.00511
2237.34692,0.00475
2235.28675,0.00451
2233.22657,0.00451
2231.16640,0.00416
2229.10623,0.00335
2227.04606,0.00330
2224.98589,0.00406
2222.92571,0.00443
2220.86554,0.00430
2218.80537,0.00381
2216.74520,0.00308
2214.68503,0.00296
2212.62485,0.00347
2210.56468,0.00362
2208.50451,0.00338
2206.44434,0.00349
2204.38417,0.00406
2202.32399,0.00440
2200.26382,0.00439
2198.20365,0.00433
2196.14348,0.00418
2194.08330,0.00404
2192.02313,0.00416
2189.96296,0.00433
2187.90279,0.00423
2185.84262,0.00411
2183.78244,0.00387
2181.72227,0.00356
2179.66210,0.00366
2177.60193,0.00365
2175.54176,0.00361
2173.48158,0.00426
2171.42141,0.00478
2169.36124,0.00473
2167.30107,0.00474
2165.24089,0.00496
2163.18072,0.00444
2161.12055,0.00211
2159.06038,0.00000
2157.00021,0.00026
2154.94003,0.00171
2152.87986,0.00307
2150.81969,0.00394
2148.75952,0.00408
2146.69935,0.00360
2144.63917,0.00316
2142.57900,0.00295
2140.51883,0.00293
2138.45866,0.00312
2136.39849,0.00312
2134.33831,0.00296
2132.27814,0.00310
2130.21797,0.00348
2128.15780,0.00372
2126.09762,0.00359
2124.03745,0.00323
2121.97728,0.00322
2119.91711,0.00354
2117.85694,0.00384
2115.79676,0.00415
2113.73659,0.00437
2111.67642,0.00438
2109.61625,0.00425
2107.55608,0.00406
2105.49590,0.00363
2103.43573,0.00304
2101.37556,0.00308
2099.31539,0.00375
2097.25521,0.00398
2095.19504,0.00363
2093.13487,0.00355
2091.07470,0.00392
2089.01453,0.00394
2086.95435,0.00354
2084.89418,0.00355
2082.83401,0.00392
2080.77384,0.00402
2078.71367,0.00388
2076.65349,0.00365
2074.59332,0.00334
2072.53315,0.00334
2070.47298,0.00365
2068.41281,0.00402
2066.35263,0.00413
2064.29246,0.00357
2062.23229,0.00260
2060.17212,0.00208
2058.11194,0.00243
2056.05177,0.00315
2053.99160,0.00352
2051.93143,0.00352
2049.87126,0.00346
2047.81108,0.00323
2045.75091,0.00240
2043.69074,0.00164
2041.63057,0.00209
2039.57040,0.00290
2037.51022,0.00254
2035.45005,0.00163
2033.38988,0.00160
2031.32971,0.00230
2029.26954,0.00259
2027.20936,0.00258
2025.14919,0.00287
2023.08902,0.00266
2021.02885,0.00180
2018.96867,0.00113
2016.90850,0.00115
2014.84833,0.00196
2012.78816,0.00261
2010.72799,0.00211
2008.66781,0.00103
2006.60764,0.00050
2004.54747,0.00073
2002.48730,0.00147
2000.42713,0.00256
1998.36695,0.00312
1996.30678,0.00243
1994.24661,0.00126
1992.18644,0.00058
1990.12626,0.00031
1988.06609,0.00055
1986.00592,0.00129
1983.94575,0.00206
1981.88558,0.00233
1979.82540,0.00160
1977.76523,0.00044
1975.70506,0.00000
1973.64489,0.00005
1971.58472,-0.00006
1969.52454,0.00022
1967.46437,0.00135
1965.40420,0.00198
1963.34403,0.00116
1961.28386,0.00011
1959.22368,-0.00004
1957.16351,0.00047
1955.10334,0.00078
1953.04317,0.00035
1950.98299,-0.00013
1948.92282,0.00014
1946.86265,0.00062
1944.80248,0.00064
1942.74231,0.00063
1940.68213,0.00102
1938.62196,0.00160
1936.56179,0.00206
1934.50162,0.00210
1932.44145,0.00172
1930.38127,0.00143
1928.32110,0.00142
1926.26093,0.00130
1924.20076,0.00113
1922.14059,0.00121
1920.08041,0.00135
1918.02024,0.00133
1915.96007,0.00136
1913.89990,0.00157
1911.83972,0.00156
1909.77955,0.00107
1907.71938,0.00056
1905.65921,0.00047
1903.59904,0.00062
1901.53886,0.00070
1899.47869,0.00073
1897.41852,0.00077
1895.35835,0.00071
1893.29818,0.00074
1891.23800,0.00099
1889.17783,0.00112
1887.11766,0.00106
1885.05749,0.00112
1882.99731,0.00123
1880.93714,0.00123
1878.87697,0.00108
1876.81680,0.00082
1874.75663,0.00061
1872.69645,0.00051
1870.63628,0.00047
1868.57611,0.00049
1866.51594,0.00058
1864.45577,0.00068
1862.39559,0.00080
1860.33542,0.00093
1858.27525,0.00086
1856.21508,0.00068
1854.15491,0.00066
1852.09473,0.00075
1850.03456,0.00074
1847.97439,0.00064
1845.91422,0.00059
1843.85404,0.00057
1841.79387,0.00051
1839.73370,0.00042
1837.67353,0.00035
1835.61336,0.00038
1833.55318,0.00050
1831.49301,0.00068
1829.43284,0.00082
1827.37267,0.00071
1825.31250,0.00046
1823.25232,0.00035
1821.19215,0.00044
1819.13198,0.00057
1817.07181,0.00055
1815.01163,0.00043
1812.95146,0.00034
1810.89129,0.00028
1808.83112,0.00020
1806.77095,0.00016
1804.71077,0.00017
1802.65060,0.00019
1800.59043,0.00028
1798.53026,0.00034
1796.47009,0.00023
1794.40991,0.00007
1792.34974,0.00009
1790.28957,0.00025
1788.22940,0.00034
1786.16923,0.00031
1784.10905,0.00020
1782.04888,0.00007
1779.98871,0.00000
1777.92854,0.00004
1775.86836,0.00023
1773.80819,0.00053
1771.74802,0.00067
1769.68785,0.00058
1767.62768,0.00053
1765.56750,0.00075
1763.50733,0.00114
1761.44716,0.00155
1759.38699,0.00188
1757.32682,0.00223
1755.26664,0.00263
1753.20647,0.00304
1751.14630,0.00358
1749.08613,0.00424
1747.02596,0.00484
1744.96578,0.00527
1742.90561,0.00559
1740.84544,0.00585
1738.78527,0.00609
1736.72509,0.00626
1734.66492,0.00646
1732.60475,0.00670
1730.54458,0.00684
1728.48441,0.00686
1726.42423,0.00681
1724.36406,0.00662
1722.30389,0.00634
1720.24372,0.00610
1718.18355,0.00580
1716.12337,0.00538
1714.06320,0.00494
1712.00303,0.00446
1709.94286,0.00397
1707.88268,0.00364
1705.82251,0.00354
1703.76234,0.00361
1701.70217,0.00367
1699.64200,0.00359
1697.58182,0.00340
1695.52165,0.00336
1693.46148,0.00352
1691.40131,0.00375
1689.34114,0.00394
1687.28096,0.00405
1685.22079,0.00434
1683.16062,0.00498
1681.10045,0.00550
1679.04028,0.00583
1676.98010,0.00624
1674.91993,0.00691
1672.85976,0.00766
1670.79959,0.00828
1668.73941,0.00877
1666.67924,0.00918
1664.61907,0.00971
1662.55890,0.01042
1660.49873,0.01108
1658.43855,0.01153
1656.37838,0.01197
1654.31821,0.01264
1652.25804,0.01336
1650.19787,0.01363
1648.13769,0.01376
1646.07752,0.01403
1644.01735,0.01425
1641.95718,0.01437
1639.89701,0.01457
1637.83683,0.01495
1635.77666,0.01529
1633.71649,0.01536
1631.65632,0.01536
1629.59614,0.01553
1627.53597,0.01579
1625.47580,0.01599
1623.41563,0.01610
1621.35546,0.01613
1619.29528,0.01613
1617.23511,0.01616
1615.17494,0.01613
1613.11477,0.01598
1611.05460,0.01573
1608.99442,0.01535
1606.93425,0.01484
1604.87408,0.01428
1602.81391,0.01373
1600.75373,0.01310
1598.69356,0.01238
1596.63339,0.01161
1594.57322,0.01080
1592.51305,0.00998
1590.45287,0.00922
1588.39270,0.00846
1586.33253,0.00768
1584.27236,0.00692
1582.21219,0.00620
1580.15201,0.00552
1578.09184,0.00489
1576.03167,0.00439
1573.97150,0.00401
1571.91133,0.00367
1569.85115,0.00337
1567.79098,0.00306
1565.73081,0.00267
1563.67064,0.00230
1561.61046,0.00218
1559.55029,0.00230
1557.49012,0.00231
1555.42995,0.00201
1553.36978,0.00155
1551.30960,0.00112
1549.24943,0.00086
1547.18926,0.00071
1545.12909,0.00054
1543.06892,0.00029
1541.00874,0.00006
1538.94857,0.00000
1536.88840,0.00013
1534.82823,0.00032
1532.76805,0.00041
1530.70788,0.00026
1528.64771,0.00004
1526.58754,-0.00001
1524.52737,0.00011
1522.46719,0.00030
1520.40702,0.00036
1518.34685,0.00028
1516.28668,0.00021
1514.22651,0.00020
1512.16633,0.00021
1510.10616,0.00026
1508.04599,0.00040
1505.98582,0.00054
1503.92565,0.00047
1501.86547,0.00028
1499.80530,0.00023
1497.74513,0.00041
1495.68496,0.00061
1493.62478,0.00064
1491.56461,0.00069
1489.50444,0.00092
1487.44427,0.00119
1485.38410,0.00138
1483.32392,0.00155
1481.26375,0.00181
1479.20358,0.00216
1477.14341,0.00261
1475.08324,0.00321
1473.02306,0.00395
1470.96289,0.00451
1468.90272,0.00472
1466.84255,0.00493
1464.78238,0.00537
1462.72220,0.00587
1460.66203,0.00632
1458.60186,0.00685
1456.54169,0.00735
1454.48151,0.00757
1452.42134,0.00772
1450.36117,0.00798
1448.30100,0.00829
1446.24083,0.00852
1444.18065,0.00871
1442.12048,0.00896
1440.06031,0.00923
1438.00014,0.00955
1435.93997,0.01000
1433.87979,0.01046
1431.81962,0.01084
1429.75945,0.01127
1427.69928,0.01170
1425.63910,0.01210
1423.57893,0.01251
1421.51876,0.01291
1419.45859,0.01324
1417.39842,0.01337
1415.33824,0.01330
1413.27807,0.01324
1411.21790,0.01326
1409.15773,0.01324
1407.09756,0.01311
1405.03738,0.01293
1402.97721,0.01265
1400.91704,0.01225
1398.85687,0.01188
1396.79670,0.01165
1394.73652,0.01146
1392.67635,0.01124
1390.61618,0.01109
1388.55601,0.01116
1386.49583,0.01135
1384.43566,0.01149
1382.37549,0.01161
1380.31532,0.01183
1378.25515,0.01211
1376.19497,0.01237
1374.13480,0.01259
1372.07463,0.01271
1370.01446,0.01265
1367.95429,0.01252
1365.89411,0.01247
1363.83394,0.01247
1361.77377,0.01236
1359.71360,0.01212
1357.65343,0.01182
1355.59325,0.01154
1353.53308,0.01133
1351.47291,0.01116
1349.41274,0.01102
1347.35256,0.01086
1345.29239,0.01069
1343.23222,0.01063
1341.17205,0.01077
1339.11188,0.01089
1337.05170,0.01077
1334.99153,0.01059
1332.93136,0.01051
1330.87119,0.01051
1328.81102,0.01058
1326.75084,0.01069
1324.69067,0.01075
1322.63050,0.01075
1320.57033,0.01079
1318.51015,0.01084
1316.44998,0.01085
1314.38981,0.01084
1312.32964,0.01081
1310.26947,0.01072
1308.20929,0.01059
1306.14912,0.01037
1304.08895,0.01005
1302.02878,0.00971
1299.96861,0.00942
1297.90843,0.00923
1295.84826,0.00913
1293.78809,0.00911
1291.72792,0.00906
1289.66775,0.00890
1287.60757,0.00875
1285.54740,0.00868
1283.48723,0.00866
1281.42706,0.00868
1279.36688,0.00878
1277.30671,0.00889
1275.24654,0.00902
1273.18637,0.00924
1271.12620,0.00955
1269.06602,0.00988
1267.00585,0.01029
1264.94568,0.01079
1262.88551,0.01127
1260.82534,0.01173
1258.76516,0.01221
1256.70499,0.01265
1254.64482,0.01285
1252.58465,0.01288
1250.52447,0.01296
1248.46430,0.01311
1246.40413,0.01313
1244.34396,0.01300
1242.28379,0.01285
1240.22361,0.01268
1238.16344,0.01239
1236.10327,0.01208
1234.04310,0.01181
1231.98293,0.01146
1229.92275,0.01094
1227.86258,0.01038
1225.80241,0.00996
1223.74224,0.00958
1221.68207,0.00916
1219.62189,0.00871
1217.56172,0.00824
1215.50155,0.00774
1213.44138,0.00714
1211.38120,0.00645
1209.32103,0.00576
1207.26086,0.00505
1205.20069,0.00431
1203.14052,0.00352
1201.08034,0.00278
1199.02017,0.00219
1196.96000,0.00163
1194.89983,0.00106
1192.83966,0.00064
1190.77948,0.00033
1188.71931,0.00009
1186.65914,0.00000
1184.59897,0.00005
1182.53880,0.00038
1180.47862,0.00094
1178.41845,0.00161
1176.35828,0.00230
1174.29811,0.00311
1172.23793,0.00412
1170.17776,0.00514
1168.11759,0.00601
1166.05742,0.00684
1163.99725,0.00778
1161.93707,0.00881
1159.87690,0.00979
1157.81673,0.01058
1155.75656,0.01127
1153.69639,0.01200
1151.63621,0.01261
1149.57604,0.01306
1147.51587,0.01353
1145.45570,0.01405
1143.39552,0.01449
1141.33535,0.01477
1139.27518,0.01502
1137.21501,0.01526
1135.15484,0.01546
1133.09466,0.01570
1131.03449,0.01615
1128.97432,0.01683
1126.91415,0.01754
1124.85398,0.01809
1122.79380,0.01862
1120.73363,0.01937
1118.67346,0.02027
1116.61329,0.02104
1114.55312,0.02171
1112.49294,0.02238
1110.43277,0.02305
1108.37260,0.02373
1106.31243,0.02441
1104.25225,0.02510
1102.19208,0.02601
1100.13191,0.02713
1098.07174,0.02819
1096.01157,0.02929
1093.95139,0.03050
1091.89122,0.03163
1089.83105,0.03266
1087.77088,0.03374
1085.71071,0.03474
1083.65053,0.03557
1081.59036,0.03633
1079.53019,0.03710
1077.47002,0.03803
1075.40985,0.03907
1073.34967,0.03990
1071.28950,0.04050
1069.22933,0.04117
1067.16916,0.04196
1065.10898,0.04267
1063.04881,0.04316
1060.98864,0.04350
1058.92847,0.04389
1056.86830,0.04439
1054.80812,0.04494
1052.74795,0.04545
1050.68778,0.04602
1048.62761,0.04668
1046.56744,0.04734
1044.50726,0.04799
1042.44709,0.04865
1040.38692,0.04938
1038.32675,0.05006
1036.26657,0.05051
1034.20640,0.05078
1032.14623,0.05095
1030.08606,0.05092
1028.02589,0.05090
1025.96571,0.05111
1023.90554,0.05133
1021.84537,0.05131
1019.78520,0.05116
1017.72503,0.05102
1015.66485,0.05102
1013.60468,0.05111
1011.54451,0.05115
1009.48434,0.05109
1007.42417,0.05087
1005.36399,0.05044
1003.30382,0.04989
1001.24365,0.04932
999.18348,0.04874
997.12330,0.04817
995.06313,0.04756
993.00296,0.04683
990.94279,0.04596
988.88262,0.04519
986.82244,0.04467
984.76227,0.04415
982.70210,0.04355
980.64193,0.04310
978.58176,0.04268
976.52158,0.04220
974.46141,0.04184
972.40124,0.04142
970.34107,0.04065
968.28089,0.03983
966.22072,0.03924
964.16055,0.03864
962.10038,0.03793
960.04021,0.03729
957.98003,0.03666
955.91986,0.03602
953.85969,0.03536
951.79952,0.03454
949.73935,0.03365
947.67917,0.03291
945.61900,0.03212
943.55883,0.03091
941.49866,0.02922
939.43849,0.02736
937.37831,0.02554
935.31814,0.02361
933.25797,0.02153
931.19780,0.01949
929.13762,0.01779
927.07745,0.01642
925.01728,0.01523
922.95711,0.01422
920.89694,0.01333
918.83676,0.01245
916.77659,0.01156
914.71642,0.01074
912.65625,0.00993
910.59608,0.00916
908.53590,0.00850
906.47573,0.00805
904.41556,0.00778
902.35539,0.00759
900.29522,0.00759
898.23504,0.00767
896.17487,0.00765
894.11470,0.00766
892.05453,0.00772
889.99435,0.00755
887.93418,0.00711
885.87401,0.00669
883.81384,0.00642
881.75367,0.00608
879.69349,0.00552
877.63332,0.00503
875.57315,0.00475
873.51298,0.00444
871.45281,0.00405
869.39263,0.00386
867.33246,0.00382
865.27229,0.00370
863.21212,0.00352
861.15194,0.00341
859.09177,0.00344
857.03160,0.00345
854.97143,0.00329
852.91126,0.00304
850.85108,0.00277
848.79091,0.00250
846.73074,0.00218
844.67057,0.00170
842.61040,0.00115
840.55022,0.00087
838.49005,0.00079
836.42988,0.00060
834.36971,0.00028
832.30954,0.00000
830.24936,-0.00007
828.18919,0.00002
826.12902,0.00025
824.06885,0.00053
822.00867,0.00072
819.94850,0.00086
817.88833,0.00103
815.82816,0.00106
813.76799,0.00105
811.70781,0.00142
809.64764,0.00206
807.58747,0.00242
805.52730,0.00251
803.46713,0.00251
801.40695,0.00234
799.34678,0.00203
797.28661,0.00171
795.22644,0.00138
793.16627,0.00105
791.10609,0.00091
789.04592,0.00104
786.98575,0.00128
784.92558,0.00125
782.86540,0.00101
780.80523,0.00107
778.74506,0.00124
776.68489,0.00111
774.62472,0.00090
772.56454,0.00089
770.50437,0.00101
768.44420,0.00102
766.38403,0.00093
764.32386,0.00091
762.26368,0.00112
760.20351,0.00132
758.14334,0.00120
756.08317,0.00080
754.02299,0.00050
751.96282,0.00058
749.90265,0.00067
747.84248,0.00049
745.78231,0.00019
743.72213,0.00000
741.66196,0.00024
739.60179,0.00066
737.54162,0.00046
735.48145,0.00013
733.42127,0.00021
731.36110,0.00015
729.30093,0.00000
727.24076,0.00012
725.18059,0.00016
723.12041,0.00031
721.06024,0.00064
719.00007,0.00099
716.93990,0.00151
714.87972,0.00215
712.81955,0.00239
710.75938,0.00207
708.69921,0.00153
706.63904,0.00122
704.57886,0.00135
702.51869,0.00161
700.45852,0.00170
698.39835,0.00173
696.33818,0.00169
694.27800,0.00147
692.21783,0.00143
690.15766,0.00178
688.09749,0.00204
686.03731,0.00165
683.97714,0.00104
681.91697,0.00079
679.85680,0.00062
677.79663,0.00043
675.73645,0.00059
673.67628,0.00119
671.61611,0.00177
669.55594,0.00161
667.49577,0.00074
665.43559,0.00016
663.37542,0.00026
661.31525,0.00062
659.25508,0.00071
657.19491,0.00026
655.13473,-0.00025
653.07456,-0.00008
651.01439,0.00054
648.95422,0.00057
646.89404,0.00000
644.83387,-0.00028
642.77370,-0.00015
640.71353,0.00011
638.65336,0.00041
636.59318,0.00060
634.53301,0.00069
632.47284,0.00070
630.41267,0.00055
628.35250,0.00004
626.29232,-0.00039
624.23215,0.00078
622.17198,0.00206
620.11181,0.00080
618.05164,-0.00162
615.99146,-0.00222
613.93129,-0.00065
611.87112,0.00042
609.81095,-0.00002
607.75077,-0.00035
605.69060,-0.00036
603.63043,-0.00025
601.57026,0.00013
599.51009,0.00000
