3996.73391,0.00031
3994.67373,0.00025
3992.61356,0.00016
3990.55339,0.00016
3988.49322,0.00017
3986.43305,0.00011
3984.37287,0.00014
3982.31270,0.00024
3980.25253,0.00030
3978.19236,0.00032
3976.13219,0.00038
3974.07201,0.00050
3972.01184,0.00054
3969.95167,0.00046
3967.89150,0.00033
3965.83133,0.00025
3963.77115,0.00018
3961.71098,0.00010
3959.65081,0.00004
3957.59064,0.00001
3955.53046,0.00000
3953.47029,0.00001
3951.41012,0.00003
3949.34995,0.00016
3947.28978,0.00047
3945.22960,0.00073
3943.16943,0.00084
3941.10926,0.00083
3939.04909,0.00077
3936.98892,0.00072
3934.92874,0.00065
3932.86857,0.00055
3930.80840,0.00048
3928.74823,0.00041
3926.68805,0.00040
3924.62788,0.00053
3922.56771,0.00060
3920.50754,0.00040
3918.44737,0.00014
3916.38719,0.00015
3914.32702,0.00039
3912.26685,0.00055
3910.20668,0.00050
3908.14651,0.00036
3906.08633,0.00024
3904.02616,0.00013
3901.96599,0.00004
3899.90582,0.00004
3897.84565,0.00006
3895.78547,0.00008
3893.72530,0.00020
3891.66513,0.00037
3889.60496,0.00045
3887.54478,0.00044
3885.48461,0.00041
3883.42444,0.00033
3881.36427,0.00035
3879.30410,0.00046
3877.24392,0.00044
3875.18375,0.00045
3873.12358,0.00061
3871.06341,0.00077
3869.00324,0.00084
3866.94306,0.00076
3864.88289,0.00066
3862.82272,0.00067
3860.76255,0.00059
3858.70237,0.00041
3856.64220,0.00042
3854.58203,0.00078
3852.52186,0.00111
3850.46169,0.00094
3848.40151,0.00062
3846.34134,0.00046
3844.28117,0.00043
3842.22100,0.00050
3840.16083,0.00065
3838.10065,0.00068
3836.04048,0.00049
3833.98031,0.00033
3831.92014,0.00038
3829.85997,0.00044
3827.79979,0.00038
3825.73962,0.00023
3823.67945,0.00015
3821.61928,0.00039
3819.55910,0.00070
3817.49893,0.00068
3815.43876,0.00048
3813.37859,0.00026
3811.31842,0.00005
3809.25824,0.00001
3807.19807,0.00019
3805.13790,0.00033
3803.07773,0.00053
3801.01756,0.00094
3798.95738,0.00115
3796.89721,0.00098
3794.83704,0.00068
3792.77687,0.00052
3790.71670,0.00046
3788.65652,0.00043
3786.59635,0.00048
3784.53618,0.00064
3782.47601,0.00087
3780.41583,0.00108
3778.35566,0.00105
3776.29549,0.00077
3774.23532,0.00051
3772.17515,0.00031
3770.11497,0.00029
3768.05480,0.00069
3765.99463,0.00116
3763.93446,0.00111
3761.87429,0.00074
3759.81411,0.00056
3757.75394,0.00062
3755.69377,0.00065
3753.63360,0.00060
3751.57342,0.00068
3749.51325,0.00095
3747.45308,0.00111
3745.39291,0.00116
3743.33274,0.00122
3741.27256,0.00113
3739.21239,0.00083
3737.15222,0.00058
3735.09205,0.00055
3733.03188,0.00058
3730.97170,0.00065
3728.91153,0.00085
3726.85136,0.00112
3724.79119,0.00120
3722.73102,0.00102
3720.67084,0.00084
3718.61067,0.00063
3716.55050,0.00043
3714.49033,0.00025
3712.43015,0.00019
3710.36998,0.00042
3708.30981,0.00067
3706.24964,0.00073
3704.18947,0.00060
3702.12929,0.00040
3700.06912,0.00036
3698.00895,0.00051
3695.94878,0.00070
3693.88861,0.00092
3691.82843,0.00143
3689.76826,0.00197
3687.70809,0.00192
3685.64792,0.00148
3683.58775,0.00118
3681.52757,0.00101
3679.46740,0.00080
3677.40723,0.00066
3675.34706,0.00101
3673.28688,0.00166
3671.22671,0.00210
3669.16654,0.00238
3667.10637,0.00248
3665.04620,0.00241
3662.98602,0.00224
3660.92585,0.00194
3658.86568,0.00160
3656.80551,0.00154
3654.74534,0.00171
3652.68516,0.00180
3650.62499,0.00199
3648.56482,0.00241
3646.50465,0.00265
3644.44447,0.00259
3642.38430,0.00251
3640.32413,0.00264
3638.26396,0.00296
3636.20379,0.00329
3634.14361,0.00343
3632.08344,0.00343
3630.02327,0.00369
3627.96310,0.00434
3625.90293,0.00462
3623.84275,0.00456
3621.78258,0.00472
3619.72241,0.00525
3617.66224,0.00567
3615.60207,0.00566
3613.54189,0.00553
3611.48172,0.00556
3609.42155,0.00596
3607.36138,0.00654
3605.30120,0.00684
3603.24103,0.00687
3601.18086,0.00692
3599.12069,0.00730
3597.06052,0.00790
3595.00034,0.00838
3592.94017,0.00861
3590.88000,0.00890
3588.81983,0.00926
3586.75966,0.00937
3584.69948,0.00923
3582.63931,0.00926
3580.57914,0.00962
3578.51897,0.01009
3576.45879,0.01036
3574.39862,0.01044
3572.33845,0.01053
3570.27828,0.01075
3568.21811,0.01120
3566.15793,0.01193
3564.09776,0.01254
3562.03759,0.01275
3559.97742,0.01279
3557.91725,0.01289
3555.85707,0.01312
3553.79690,0.01343
3551.73673,0.01368
3549.67656,0.01384
3547.61639,0.01402
3545.55621,0.01431
3543.49604,0.01461
3541.43587,0.01486
3539.37570,0.01509
3537.31552,0.01537
3535.25535,0.01577
3533.19518,0.01618
3531.13501,0.01645
3529.07484,0.01653
3527.01466,0.01652
3524.95449,0.01671
3522.89432,0.01712
3520.83415,0.01750
3518.77398,0.01773
3516.71380,0.01798
3514.65363,0.01829
3512.59346,0.01857
3510.53329,0.01878
3508.47312,0.01902
3506.41294,0.01928
3504.35277,0.01956
3502.29260,0.01986
3500.23243,0.02015
3498.17225,0.02050
3496.11208,0.02103
3494.05191,0.02163
3491.99174,0.02187
3489.93157,0.02163
3487.87139,0.02136
3485.81122,0.02145
3483.75105,0.02181
3481.69088,0.02231
3479.63071,0.02280
3477.57053,0.02308
3475.51036,0.02308
3473.45019,0.02299
3471.39002,0.02304
3469.32984,0.02331
3467.26967,0.02374
3465.20950,0.02424
3463.14933,0.02465
3461.08916,0.02479
3459.02898,0.02479
3456.96881,0.02483
3454.90864,0.02499
3452.84847,0.02525
3450.78830,0.02552
3448.72812,0.02587
3446.66795,0.02619
3444.60778,0.02617
3442.54761,0.02599
3440.48744,0.02607
3438.42726,0.02653
3436.36709,0.02705
3434.30692,0.02730
3432.24675,0.02744
3430.18657,0.02767
3428.12640,0.02793
3426.06623,0.02809
3424.00606,0.02818
3421.94589,0.02840
3419.88571,0.02873
3417.82554,0.02896
3415.76537,0.02924
3413.70520,0.02959
3411.64503,0.02966
3409.58485,0.02956
3407.52468,0.02975
3405.46451,0.03011
3403.40434,0.03013
3401.34416,0.02993
3399.28399,0.02988
3397.22382,0.03004
3395.16365,0.03015
3393.10348,0.03027
3391.04330,0.03047
3388.98313,0.03077
3386.92296,0.03112
3384.86279,0.03143
3382.80262,0.03162
3380.74244,0.03153
3378.68227,0.03139
3376.62210,0.03150
3374.56193,0.03166
3372.50176,0.03184
3370.44158,0.03211
3368.38141,0.03225
3366.32124,0.03224
3364.26107,0.03235
3362.20089,0.03268
3360.14072,0.03290
3358.08055,0.03279
3356.02038,0.03256
3353.96021,0.03247
3351.90003,0.03256
3349.83986,0.03274
3347.77969,0.03288
3345.71952,0.03292
3343.65935,0.03282
3341.59917,0.03273
3339.53900,0.03281
3337.47883,0.03312
3335.41866,0.03349
3333.35849,0.03368
3331.29831,0.03372
3329.23814,0.03382
3327.17797,0.03387
3325.11780,0.03377
3323.05762,0.03371
3320.99745,0.03385
3318.93728,0.03396
3316.87711,0.03393
3314.81694,0.03384
3312.75676,0.03389
3310.69659,0.03416
3308.63642,0.03432
3306.57625,0.03420
3304.51608,0.03403
3302.45590,0.03396
3300.39573,0.03389
3298.33556,0.03385
3296.27539,0.03397
3294.21521,0.03417
3292.15504,0.03423
3290.09487,0.03419
3288.03470,0.03425
3285.97453,0.03431
3283.91435,0.03426
3281.85418,0.03423
3279.79401,0.03427
3277.73384,0.03432
3275.67367,0.03443
3273.61349,0.03461
3271.55332,0.03471
3269.49315,0.03461
3267.43298,0.03433
3265.37281,0.03401
3263.31263,0.03385
3261.25246,0.03387
3259.19229,0.03397
3257.13212,0.03407
3255.07194,0.03404
3253.01177,0.03394
3250.95160,0.03381
3248.89143,0.03360
3246.83126,0.03341
3244.77108,0.03336
3242.71091,0.03336
3240.65074,0.03325
3238.59057,0.03323
3236.53040,0.03338
3234.47022,0.03345
3232.41005,0.03333
3230.34988,0.03308
3228.28971,0.03284
3226.22954,0.03284
3224.16936,0.03289
3222.10919,0.03266
3220.04902,0.03222
3217.98885,0.03186
3215.92867,0.03171
3213.86850,0.03172
3211.80833,0.03174
3209.74816,0.03173
3207.68799,0.03165
3205.62781,0.03139
3203.56764,0.03106
3201.50747,0.03075
3199.44730,0.03050
3197.38713,0.03032
3195.32695,0.03026
3193.26678,0.03032
3191.20661,0.03028
3189.14644,0.03000
3187.08626,0.02964
3185.02609,0.02932
3182.96592,0.02908
3180.90575,0.02892
3178.84558,0.02875
3176.78540,0.02855
3174.72523,0.02825
3172.66506,0.02785
3170.60489,0.02766
3168.54472,0.02776
3166.48454,0.02785
3164.42437,0.02760
3162.36420,0.02705
3160.30403,0.02665
3158.24386,0.02647
3156.18368,0.02632
3154.12351,0.02627
3152.06334,0.02623
3150.00317,0.02603
3147.94299,0.02577
3145.88282,0.02547
3143.82265,0.02504
3141.76248,0.02465
3139.70231,0.02455
3137.64213,0.02455
3135.58196,0.02433
3133.52179,0.02392
3131.46162,0.02355
3129.40145,0.02326
3127.34127,0.02288
3125.28110,0.02238
3123.22093,0.02205
3121.16076,0.02198
3119.10058,0.02197
3117.04041,0.02198
3114.98024,0.02201
3112.92007,0.02179
3110.85990,0.02138
3108.79972,0.02106
3106.73955,0.02091
3104.67938,0.02077
3102.61921,0.02047
3100.55904,0.02014
3098.49886,0.01989
3096.43869,0.01957
3094.37852,0.01922
3092.31835,0.01901
3090.25818,0.01881
3088.19800,0.01854
3086.13783,0.01833
3084.07766,0.01822
3082.01749,0.01814
3079.95731,0.01798
3077.89714,0.01778
3075.83697,0.01758
3073.77680,0.01724
3071.71663,0.01689
3069.65645,0.01678
3067.59628,0.01682
3065.53611,0.01675
3063.47594,0.01647
3061.41577,0.01622
3059.35559,0.01608
3057.29542,0.01589
3055.23525,0.01574
3053.17508,0.01578
3051.11491,0.01570
3049.05473,0.01533
3046.99456,0.01504
3044.93439,0.01497
3042.87422,0.01483
3040.81404,0.01453
3038.75387,0.01423
3036.69370,0.01407
3034.63353,0.01400
3032.57336,0.01398
3030.51318,0.01392
3028.45301,0.01372
3026.39284,0.01350
3024.33267,0.01337
3022.27250,0.01329
3020.21232,0.01318
3018.15215,0.01305
3016.09198,0.01292
3014.03181,0.01277
3011.97163,0.01258
3009.91146,0.01240
3007.85129,0.01222
3005.79112,0.01203
3003.73095,0.01189
3001.67077,0.01192
2999.61060,0.01214
2997.55043,0.01225
2995.49026,0.01219
2993.43009,0.01215
2991.36991,0.01217
2989.30974,0.01229
2987.24957,0.01244
2985.18940,0.01242
2983.12923,0.01233
2981.06905,0.01235
2979.00888,0.01251
2976.94871,0.01274
2974.88854,0.01301
2972.82836,0.01320
2970.76819,0.01329
2968.70802,0.01345
2966.64785,0.01371
2964.58768,0.01390
2962.52750,0.01402
2960.46733,0.01427
2958.40716,0.01464
2956.34699,0.01498
2954.28682,0.01522
2952.22664,0.01538
2950.16647,0.01559
2948.10630,0.01592
2946.04613,0.01622
2943.98596,0.01645
2941.92578,0.01668
2939.86561,0.01686
2937.80544,0.01694
2935.74527,0.01691
2933.68509,0.01687
2931.62492,0.01676
2929.56475,0.01650
2927.50458,0.01638
2925.44441,0.01658
2923.38423,0.01668
2921.32406,0.01654
2919.26389,0.01643
2917.20372,0.01631
2915.14355,0.01611
2913.08337,0.01594
2911.02320,0.01585
2908.96303,0.01583
2906.90286,0.01583
2904.84268,0.01574
2902.78251,0.01557
2900.72234,0.01551
2898.66217,0.01553
2896.60200,0.01542
2894.54182,0.01528
2892.48165,0.01521
2890.42148,0.01512
2888.36131,0.01505
2886.30114,0.01498
2884.24096,0.01481
2882.18079,0.01474
2880.12062,0.01477
2878.06045,0.01461
2876.00028,0.01427
2873.94010,0.01402
2871.87993,0.01388
2869.81976,0.01372
2867.75959,0.01346
2865.69941,0.01320
2863.63924,0.01313
2861.57907,0.01311
2859.51890,0.01291
2857.45873,0.01257
2855.39855,0.01225
2853.33838,0.01211
2851.27821,0.01215
2849.21804,0.01212
2847.15787,0.01189
2845.09769,0.01160
2843.03752,0.01144
2840.97735,0.01146
2838.91718,0.01145
2836.85700,0.01128
2834.79683,0.01110
2832.73666,0.01109
2830.67649,0.01109
2828.61632,0.01093
2826.55614,0.01070
2824.49597,0.01053
2822.43580,0.01045
2820.37563,0.01045
2818.31546,0.01043
2816.25528,0.01026
2814.19511,0.01010
2812.13494,0.01008
2810.07477,0.01007
2808.01460,0.01002
2805.95442,0.00998
2803.89425,0.00990
2801.83408,0.00984
2799.77391,0.00981
2797.71373,0.00971
2795.65356,0.00957
2793.59339,0.00956
2791.53322,0.00960
2789.47305,0.00955
2787.41287,0.00945
2785.35270,0.00933
2783.29253,0.00921
2781.23236,0.00911
2779.17219,0.00913
2777.11201,0.00909
2775.05184,0.00896
2772.99167,0.00889
2770.93150,0.00886
2768.87133,0.00880
2766.81115,0.00876
2764.75098,0.00877
2762.69081,0.00878
2760.63064,0.00878
2758.57046,0.00885
2756.51029,0.00893
2754.45012,0.00889
2752.38995,0.00876
2750.32978,0.00868
2748.26960,0.00865
2746.20943,0.00857
2744.14926,0.00850
2742.08909,0.00850
2740.02892,0.00851
2737.96874,0.00850
2735.90857,0.00845
2733.84840,0.00836
2731.78823,0.00839
2729.72805,0.00851
2727.66788,0.00856
2725.60771,0.00851
2723.54754,0.00834
2721.48737,0.00815
2719.42719,0.00811
2717.36702,0.00816
2715.30685,0.00816
2713.24668,0.00811
2711.18651,0.00803
2709.12633,0.00799
2707.06616,0.00797
2705.00599,0.00792
2702.94582,0.00790
2700.88565,0.00790
2698.82547,0.00785
2696.76530,0.00778
2694.70513,0.00773
2692.64496,0.00774
2690.58478,0.00784
2688.52461,0.00794
2686.46444,0.00796
2684.40427,0.00791
2682.34410,0.00787
2680.28392,0.00785
2678.22375,0.00781
2676.16358,0.00774
2674.10341,0.00770
2672.04324,0.00768
2669.98306,0.00763
2667.92289,0.00757
2665.86272,0.00752
2663.80255,0.00743
2661.74238,0.00734
2659.68220,0.00731
2657.62203,0.00730
2655.56186,0.00731
2653.50169,0.00740
2651.44151,0.00750
2649.38134,0.00744
2647.32117,0.00734
2645.26100,0.00729
2643.20083,0.00731
2641.14065,0.00739
2639.08048,0.00736
2637.02031,0.00714
2634.96014,0.00687
2632.89997,0.00673
2630.83979,0.00662
2628.77962,0.00648
2626.71945,0.00642
2624.65928,0.00657
2622.59910,0.00679
2620.53893,0.00683
2618.47876,0.00667
2616.41859,0.00653
2614.35842,0.00642
2612.29824,0.00622
2610.23807,0.00615
2608.17790,0.00628
2606.11773,0.00634
2604.05756,0.00621
2601.99738,0.00605
2599.93721,0.00602
2597.87704,0.00605
2595.81687,0.00599
2593.75670,0.00602
2591.69652,0.00623
2589.63635,0.00633
2587.57618,0.00618
2585.51601,0.00590
2583.45583,0.00577
2581.39566,0.00588
2579.33549,0.00592
2577.27532,0.00590
2575.21515,0.00599
2573.15497,0.00586
2571.09480,0.00544
2569.03463,0.00523
2566.97446,0.00524
2564.91429,0.00524
2562.85411,0.00529
2560.79394,0.00533
2558.73377,0.00529
2556.67360,0.00514
2554.61342,0.00485
2552.55325,0.00485
2550.49308,0.00544
2548.43291,0.00592
2546.37274,0.00574
2544.31256,0.00530
2542.25239,0.00501
2540.19222,0.00503
2538.13205,0.00541
2536.07188,0.00579
2534.01170,0.00583
2531.95153,0.00549
2529.89136,0.00503
2527.83119,0.00487
2525.77102,0.00513
2523.71084,0.00537
2521.65067,0.00543
2519.59050,0.00548
2517.53033,0.00554
2515.47015,0.00554
2513.40998,0.00543
2511.34981,0.00520
2509.28964,0.00494
2507.22947,0.00470
2505.16929,0.00463
2503.10912,0.00479
2501.04895,0.00486
2498.98878,0.00471
2496.92861,0.00460
2494.86843,0.00466
2492.80826,0.00469
2490.74809,0.00464
2488.68792,0.00477
2486.62775,0.00515
2484.56757,0.00542
2482.50740,0.00545
2480.44723,0.00533
2478.38706,0.00510
2476.32688,0.00493
2474.26671,0.00495
2472.20654,0.00496
2470.14637,0.00482
2468.08620,0.00474
2466.02602,0.00478
2463.96585,0.00473
2461.90568,0.00453
2459.84551,0.00443
2457.78534,0.00456
2455.72516,0.00476
2453.66499,0.00484
2451.60482,0.00472
2449.54465,0.00466
2447.48447,0.00486
2445.42430,0.00489
2443.36413,0.00461
2441.30396,0.00449
2439.24379,0.00457
2437.18361,0.00456
2435.12344,0.00451
2433.06327,0.00460
2431.00310,0.00476
2428.94293,0.00495
2426.88275,0.00504
2424.82258,0.00495
2422.76241,0.00489
2420.70224,0.00485
2418.64207,0.00480
2416.58189,0.00474
2414.52172,0.00454
2412.46155,0.00438
2410.40138,0.00440
2408.34120,0.00446
2406.28103,0.00451
2404.22086,0.00448
2402.16069,0.00433
2400.10052,0.00429
2398.04034,0.00429
2395.98017,0.00422
2393.92000,0.00424
2391.85983,0.00442
2389.79966,0.00445
2387.73948,0.00432
2385.67931,0.00432
2383.61914,0.00434
2381.55897,0.00423
2379.49880,0.00421
2377.43862,0.00435
2375.37845,0.00427
2373.31828,0.00438
2371.25811,0.00470
2369.19793,0.00470
2367.13776,0.00461
2365.07759,0.00454
2363.01742,0.00356
2360.95725,0.00393
2358.89707,0.00488
2356.83690,0.00555
2354.77673,0.00524
2352.71656,0.00512
2350.65639,0.00668
2348.59621,0.00722
2346.53604,0.00427
2344.47587,0.00414
2342.41570,0.00496
2340.35552,0.00460
2338.29535,0.00406
2336.23518,0.00396
2334.17501,0.00418
2332.11484,0.00433
2330.05466,0.00497
2327.99449,0.00558
2325.93432,0.00621
2323.87415,0.00568
2321.81398,0.00519
2319.75380,0.00501
2317.69363,0.00560
2315.63346,0.00562
2313.57329,0.00528
2311.51312,0.00522
2309.45294,0.00532
2307.39277,0.00553
2305.33260,0.00560
2303.27243,0.00544
2301.21225,0.00518
2299.15208,0.00502
2297.09191,0.00486
2295.03174,0.00482
2292.97157,0.00494
2290.91139,0.00490
2288.85122,0.00469
2286.79105,0.00462
2284.73088,0.00478
2282.67071,0.00487
2280.61053,0.00468
2278.55036,0.00442
2276.49019,0.00428
2274.43002,0.00438
2272.36984,0.00462
2270.30967,0.00467
2268.24950,0.00450
2266.18933,0.00446
2264.12916,0.00452
2262.06898,0.00448
2260.00881,0.00435
2257.94864,0.00419
2255.88847,0.00402
2253.82830,0.00374
2251.76812,0.00340
2249.70795,0.00362
2247.64778,0.00418
2245.58761,0.00425
2243.52744,0.00436
2241.46726,0.00460
2239.40709,0.00441
2237.34692,0.00393
2235.28675,0.00368
2233.22657,0.00374
2231.16640,0.00343
2229.10623,0.00267
2227.04606,0.00263
2224.98589,0.00361
2222.92571,0.00469
2220.86554,0.00508
2218.80537,0.00438
2216.74520,0.00328
2214.68503,0.00296
2212.62485,0.00322
2210.56468,0.00326
2208.50451,0.00336
2206.44434,0.00376
2204.38417,0.00403
2202.32399,0.00395
2200.26382,0.00345
2198.20365,0.00292
2196.14348,0.00292
2194.08330,0.00330
2192.02313,0.00348
2189.96296,0.00359
2187.90279,0.00389
2185.84262,0.00396
2183.78244,0.00327
2181.72227,0.00228
2179.66210,0.00208
2177.60193,0.00269
2175.54176,0.00346
2173.48158,0.00412
2171.42141,0.00468
2169.36124,0.00488
2167.30107,0.00444
2165.24089,0.00386
2163.18072,0.00335
2161.12055,0.00210
2159.06038,0.00056
2157.00021,0.00000
2154.94003,0.00069
2152.87986,0.00208
2150.81969,0.00312
2148.75952,0.00334
2146.69935,0.00307
2144.63917,0.00294
2142.57900,0.00308
2140.51883,0.00301
2138.45866,0.00238
2136.39849,0.00205
2134.33831,0.00274
2132.27814,0.00366
2130.21797,0.00401
2128.15780,0.00392
2126.09762,0.00360
2124.03745,0.00328
2121.97728,0.00328
2119.91711,0.00343
2117.85694,0.00341
2115.79676,0.00345
2113.73659,0.00379
2111.67642,0.00422
2109.61625,0.00454
2107.55608,0.00458
2105.49590,0.00410
2103.43573,0.00349
2101.37556,0.00348
2099.31539,0.00369
2097.25521,0.00347
2095.19504,0.00321
2093.13487,0.00332
2091.07470,0.00382
2089.01453,0.00436
2086.95435,0.00445
2084.89418,0.00434
2082.83401,0.00422
2080.77384,0.00413
2078.71367,0.00408
2076.65349,0.00372
2074.59332,0.00308
2072.53315,0.00287
2070.47298,0.00331
2068.41281,0.00390
2066.35263,0.00412
2064.29246,0.00354
2062.23229,0.00266
2060.17212,0.00250
2058.11194,0.00318
2056.05177,0.00398
2053.99160,0.00432
2051.93143,0.00396
2049.87126,0.00304
2047.81108,0.00235
2045.75091,0.00205
2043.69074,0.00177
2041.63057,0.00218
2039.57040,0.00319
2037.51022,0.00369
2035.45005,0.00312
2033.38988,0.00198
2031.32971,0.00147
2029.26954,0.00161
2027.20936,0.00193
2025.14919,0.00205
2023.08902,0.00139
2021.02885,0.00067
2018.96867,0.00079
2016.90850,0.00146
2014.84833,0.00210
2012.78816,0.00222
2010.72799,0.00177
2008.66781,0.00115
2006.60764,0.00083
2004.54747,0.00073
2002.48730,0.00049
2000.42713,0.00079
1998.36695,0.00185
1996.30678,0.00231
1994.24661,0.00196
1992.18644,0.00180
1990.12626,0.00164
1988.06609,0.00134
1986.00592,0.00147
1983.94575,0.00200
1981.88558,0.00229
1979.82540,0.00178
1977.76523,0.00085
1975.70506,0.00030
1973.64489,0.00035
1971.58472,0.00077
1969.52454,0.00133
1967.46437,0.00183
1965.40420,0.00175
1963.34403,0.00086
1961.28386,0.00000
1959.22368,-0.00001
1957.16351,0.00051
1955.10334,0.00078
1953.04317,0.00055
1950.98299,0.00016
1948.92282,0.00004
1946.86265,0.00011
1944.80248,0.00021
1942.74231,0.00043
1940.68213,0.00061
1938.62196,0.00092
1936.56179,0.00154
1934.50162,0.00190
1932.44145,0.00158
1930.38127,0.00111
1928.32110,0.00117
1926.26093,0.00146
1924.20076,0.00144
1922.14059,0.00125
1920.08041,0.00109
1918.02024,0.00109
1915.96007,0.00121
1913.89990,0.00120
1911.83972,0.00100
1909.77955,0.00078
1907.71938,0.00075
1905.65921,0.00092
1903.59904,0.00093
1901.53886,0.00065
1899.47869,0.00045
1897.41852,0.00053
1895.35835,0.00068
1893.29818,0.00077
1891.23800,0.00103
1889.17783,0.00137
1887.11766,0.00148
1885.05749,0.00139
1882.99731,0.00121
1880.93714,0.00104
1878.87697,0.00095
1876.81680,0.00081
1874.75663,0.00069
1872.69645,0.00075
1870.63628,0.00095
1868.57611,0.00112
1866.51594,0.00106
1864.45577,0.00086
1862.39559,0.00080
1860.33542,0.00084
1858.27525,0.00073
1856.21508,0.00061
1854.15491,0.00063
1852.09473,0.00062
1850.03456,0.00056
1847.97439,0.00063
1845.91422,0.00082
1843.85404,0.00089
1841.79387,0.00072
1839.73370,0.00049
1837.67353,0.00038
1835.61336,0.00042
1833.55318,0.00050
1831.49301,0.00060
1829.43284,0.00071
1827.37267,0.00067
1825.31250,0.00057
1823.25232,0.00055
1821.19215,0.00060
1819.13198,0.00066
1817.07181,0.00061
1815.01163,0.00048
1812.95146,0.00036
1810.89129,0.00031
1808.83112,0.00031
1806.77095,0.00033
1804.71077,0.00027
1802.65060,0.00016
1800.59043,0.00018
1798.53026,0.00032
1796.47009,0.00036
1794.40991,0.00030
1792.34974,0.00031
1790.28957,0.00041
1788.22940,0.00044
1786.16923,0.00032
1784.10905,0.00019
1782.04888,0.00019
1779.98871,0.00023
1777.92854,0.00027
1775.86836,0.00041
1773.80819,0.00076
1771.74802,0.00103
1769.68785,0.00094
1767.62768,0.00070
1765.56750,0.00065
1763.50733,0.00089
1761.44716,0.00132
1759.38699,0.00170
1757.32682,0.00196
1755.26664,0.00221
1753.20647,0.00267
1751.14630,0.00352
1749.08613,0.00440
1747.02596,0.00480
1744.96578,0.00494
1742.90561,0.00516
1740.84544,0.00547
1738.78527,0.00573
1736.72509,0.00585
1734.66492,0.00605
1732.60475,0.00633
1730.54458,0.00642
1728.48441,0.00641
1726.42423,0.00637
1724.36406,0.00620
1722.30389,0.00594
1720.24372,0.00578
1718.18355,0.00565
1716.12337,0.00531
1714.06320,0.00479
1712.00303,0.00429
1709.94286,0.00394
1707.88268,0.00379
1705.82251,0.00366
1703.76234,0.00349
1701.70217,0.00349
1699.64200,0.00365
1697.58182,0.00373
1695.52165,0.00363
1693.46148,0.00342
1691.40131,0.00340
1689.34114,0.00366
1687.28096,0.00400
1685.22079,0.00444
1683.16062,0.00496
1681.10045,0.00524
1679.04028,0.00547
1676.98010,0.00591
1674.91993,0.00662
1672.85976,0.00738
1670.79959,0.00804
1668.73941,0.00847
1666.67924,0.00870
1664.61907,0.00909
1662.55890,0.00980
1660.49873,0.01045
1658.43855,0.01084
1656.37838,0.01128
1654.31821,0.01205
1652.25804,0.01276
1650.19787,0.01287
1648.13769,0.01291
1646.07752,0.01323
1644.01735,0.01342
1641.95718,0.01336
1639.89701,0.01340
1637.83683,0.01380
1635.77666,0.01441
1633.71649,0.01464
1631.65632,0.01455
1629.59614,0.01455
1627.53597,0.01475
1625.47580,0.01502
1623.41563,0.01525
1621.35546,0.01528
1619.29528,0.01522
1617.23511,0.01534
1615.17494,0.01544
1613.11477,0.01522
1611.05460,0.01483
1608.99442,0.01439
1606.93425,0.01392
1604.87408,0.01341
1602.81391,0.01284
1600.75373,0.01217
1598.69356,0.01145
1596.63339,0.01075
1594.57322,0.01005
1592.51305,0.00930
1590.45287,0.00856
1588.39270,0.00782
1586.33253,0.00707
1584.27236,0.00635
1582.21219,0.00569
1580.15201,0.00512
1578.09184,0.00470
1576.03167,0.00445
1573.97150,0.00415
1571.91133,0.00382
1569.85115,0.00358
1567.79098,0.00331
1565.73081,0.00297
1563.67064,0.00270
1561.61046,0.00266
1559.55029,0.00279
1557.49012,0.00264
1555.42995,0.00210
1553.36978,0.00151
1551.30960,0.00112
1549.24943,0.00098
1547.18926,0.00098
1545.12909,0.00100
1543.06892,0.00100
1541.00874,0.00095
1538.94857,0.00077
1536.88840,0.00063
1534.82823,0.00066
1532.76805,0.00066
1530.70788,0.00038
1528.64771,0.00007
1526.58754,0.00000
1524.52737,0.00018
1522.46719,0.00048
1520.40702,0.00075
1518.34685,0.00087
1516.28668,0.00089
1514.22651,0.00080
1512.16633,0.00067
1510.10616,0.00070
1508.04599,0.00087
1505.98582,0.00088
1503.92565,0.00062
1501.86547,0.00039
1499.80530,0.00038
1497.74513,0.00051
1495.68496,0.00052
1493.62478,0.00040
1491.56461,0.00048
1489.50444,0.00095
1487.44427,0.00141
1485.38410,0.00151
1483.32392,0.00147
1481.26375,0.00151
1479.20358,0.00173
1477.14341,0.00218
1475.08324,0.00293
1473.02306,0.00376
1470.96289,0.00421
1468.90272,0.00429
1466.84255,0.00454
1464.78238,0.00508
1462.72220,0.00552
1460.66203,0.00585
1458.60186,0.00652
1456.54169,0.00734
1454.48151,0.00752
1452.42134,0.00728
1450.36117,0.00727
1448.30100,0.00760
1446.24083,0.00793
1444.18065,0.00809
1442.12048,0.00823
1440.06031,0.00843
1438.00014,0.00875
1435.93997,0.00925
1433.87979,0.00977
1431.81962,0.01024
1429.75945,0.01064
1427.69928,0.01091
1425.63910,0.01119
1423.57893,0.01158
1421.51876,0.01195
1419.45859,0.01228
1417.39842,0.01246
1415.33824,0.01238
1413.27807,0.01224
1411.21790,0.01218
1409.15773,0.01205
1407.09756,0.01185
1405.03738,0.01167
1402.97721,0.01146
1400.91704,0.01110
1398.85687,0.01074
1396.79670,0.01053
1394.73652,0.01043
1392.67635,0.01029
1390.61618,0.01018
1388.55601,0.01026
1386.49583,0.01045
1384.43566,0.01053
1382.37549,0.01059
1380.31532,0.01075
1378.25515,0.01100
1376.19497,0.01132
1374.13480,0.01164
1372.07463,0.01180
1370.01446,0.01174
1367.95429,0.01158
1365.89411,0.01143
1363.83394,0.01136
1361.77377,0.01129
1359.71360,0.01110
1357.65343,0.01082
1355.59325,0.01060
1353.53308,0.01041
1351.47291,0.01017
1349.41274,0.00995
1347.35256,0.00979
1345.29239,0.00963
1343.23222,0.00953
1341.17205,0.00957
1339.11188,0.00963
1337.05170,0.00955
1334.99153,0.00944
1332.93136,0.00943
1330.87119,0.00947
1328.81102,0.00947
1326.75084,0.00948
1324.69067,0.00954
1322.63050,0.00965
1320.57033,0.00977
1318.51015,0.00988
1316.44998,0.00995
1314.38981,0.00995
1312.32964,0.00987
1310.26947,0.00974
1308.20929,0.00960
1306.14912,0.00940
1304.08895,0.00917
1302.02878,0.00903
1299.96861,0.00893
1297.90843,0.00874
1295.84826,0.00848
1293.78809,0.00834
1291.72792,0.00829
1289.66775,0.00817
1287.60757,0.00800
1285.54740,0.00790
1283.48723,0.00784
1281.42706,0.00776
1279.36688,0.00776
1277.30671,0.00789
1275.24654,0.00810
1273.18637,0.00838
1271.12620,0.00877
1269.06602,0.00921
1267.00585,0.00966
1264.94568,0.01003
1262.88551,0.01027
1260.82534,0.01055
1258.76516,0.01108
1256.70499,0.01161
1254.64482,0.01185
1252.58465,0.01188
1250.52447,0.01190
1248.46430,0.01195
1246.40413,0.01194
1244.34396,0.01186
1242.28379,0.01176
1240.22361,0.01159
1238.16344,0.01132
1236.10327,0.01101
1234.04310,0.01063
1231.98293,0.01011
1229.92275,0.00961
1227.86258,0.00926
1225.80241,0.00899
1223.74224,0.00870
1221.68207,0.00836
1219.62189,0.00795
1217.56172,0.00749
1215.50155,0.00701
1213.44138,0.00653
1211.38120,0.00602
1209.32103,0.00539
1207.26086,0.00467
1205.20069,0.00395
1203.14052,0.00322
1201.08034,0.00246
1199.02017,0.00177
1196.96000,0.00119
1194.89983,0.00073
1192.83966,0.00039
1190.77948,0.00014
1188.71931,0.00000
1186.65914,-0.00001
1184.59897,0.00015
1182.53880,0.00042
1180.47862,0.00080
1178.41845,0.00127
1176.35828,0.00179
1174.29811,0.00252
1172.23793,0.00346
1170.17776,0.00443
1168.11759,0.00531
1166.05742,0.00618
1163.99725,0.00716
1161.93707,0.00814
1159.87690,0.00893
1157.81673,0.00961
1155.75656,0.01033
1153.69639,0.01104
1151.63621,0.01157
1149.57604,0.01192
1147.51587,0.01225
1145.45570,0.01266
1143.39552,0.01302
1141.33535,0.01323
1139.27518,0.01345
1137.21501,0.01382
1135.15484,0.01416
1133.09466,0.01443
1131.03449,0.01489
1128.97432,0.01554
1126.91415,0.01617
1124.85398,0.01676
1122.79380,0.01746
1120.73363,0.01823
1118.67346,0.01893
1116.61329,0.01950
1114.55312,0.02006
1112.49294,0.02071
1110.43277,0.02136
1108.37260,0.02199
1106.31243,0.02258
1104.25225,0.02313
1102.19208,0.02384
1100.13191,0.02490
1098.07174,0.02612
1096.01157,0.02723
1093.95139,0.02824
1091.89122,0.02928
1089.83105,0.03032
1087.77088,0.03121
1085.71071,0.03210
1083.65053,0.03303
1081.59036,0.03379
1079.53019,0.03446
1077.47002,0.03539
1075.40985,0.03649
1073.34967,0.03739
1071.28950,0.03802
1069.22933,0.03854
1067.16916,0.03902
1065.10898,0.03959
1063.04881,0.04014
1060.98864,0.04053
1058.92847,0.04097
1056.86830,0.04149
1054.80812,0.04192
1052.74795,0.04234
1050.68778,0.04295
1048.62761,0.04366
1046.56744,0.04424
1044.50726,0.04478
1042.44709,0.04550
1040.38692,0.04628
1038.32675,0.04681
1036.26657,0.04702
1034.20640,0.04716
1032.14623,0.04740
1030.08606,0.04759
1028.02589,0.04760
1025.96571,0.04767
1023.90554,0.04788
1021.84537,0.04802
1019.78520,0.04799
1017.72503,0.04788
1015.66485,0.04781
1013.60468,0.04773
1011.54451,0.04772
1009.48434,0.04778
1007.42417,0.04761
1005.36399,0.04710
1003.30382,0.04646
1001.24365,0.04586
999.18348,0.04534
997.12330,0.04469
995.06313,0.04387
993.00296,0.04311
990.94279,0.04248
988.88262,0.04195
986.82244,0.04148
984.76227,0.04085
982.70210,0.04023
980.64193,0.03989
978.58176,0.03956
976.52158,0.03901
974.46141,0.03845
972.40124,0.03799
970.34107,0.03737
968.28089,0.03659
966.22072,0.03585
964.16055,0.03530
962.10038,0.03486
960.04021,0.03423
957.98003,0.03342
955.91986,0.03283
953.85969,0.03248
951.79952,0.03192
949.73935,0.03097
947.67917,0.02989
945.61900,0.02886
943.55883,0.02778
941.49866,0.02623
939.43849,0.02428
937.37831,0.02237
935.31814,0.02064
933.25797,0.01895
931.19780,0.01735
929.13762,0.01592
927.07745,0.01462
925.01728,0.01347
922.95711,0.01244
920.89694,0.01159
918.83676,0.01088
916.77659,0.01013
914.71642,0.00939
912.65625,0.00859
910.59608,0.00782
908.53590,0.00732
906.47573,0.00702
904.41556,0.00673
902.35539,0.00658
900.29522,0.00676
898.23504,0.00707
896.17487,0.00707
894.11470,0.00681
892.05453,0.00658
889.99435,0.00627
887.93418,0.00576
885.87401,0.00532
883.81384,0.00502
881.75367,0.00468
879.69349,0.00443
877.63332,0.00425
875.57315,0.00393
873.51298,0.00352
871.45281,0.00321
869.39263,0.00307
867.33246,0.00300
865.27229,0.00280
863.21212,0.00255
861.15194,0.00257
859.09177,0.00274
857.03160,0.00273
854.97143,0.00251
852.91126,0.00227
850.85108,0.00219
848.79091,0.00206
846.73074,0.00167
844.67057,0.00118
842.61040,0.00071
840.55022,0.00030
838.49005,0.00000
836.42988,-0.00009
834.36971,-0.00008
832.30954,-0.00013
830.24936,-0.00017
828.18919,-0.00024
826.12902,-0.00025
824.06885,0.00003
822.00867,0.00041
819.94850,0.00054
817.88833,0.00044
815.82816,0.00041
813.76799,0.00060
811.70781,0.00103
809.64764,0.00158
807.58747,0.00190
805.52730,0.00194
803.46713,0.00182
801.40695,0.00162
799.34678,0.00156
797.28661,0.00160
795.22644,0.00131
793.16627,0.00060
791.10609,0.00000
789.04592,-0.00000
786.98575,0.00044
784.92558,0.00081
782.86540,0.00075
780.80523,0.00054
778.74506,0.00060
776.68489,0.00075
774.62472,0.00076
772.56454,0.00092
770.50437,0.00108
768.44420,0.00069
766.38403,0.00017
764.32386,0.00020
762.26368,0.00067
760.20351,0.00097
758.14334,0.00086
756.08317,0.00054
754.02299,0.00038
751.96282,0.00040
749.90265,0.00023
747.84248,0.00000
745.78231,-0.00005
743.72213,-0.00005
741.66196,0.00002
739.60179,0.00018
737.54162,0.00012
735.48145,-0.00004
733.42127,0.00013
731.36110,0.00051
729.30093,0.00073
727.24076,0.00088
725.18059,0.00097
723.12041,0.00125
721.06024,0.00114
719.00007,0.00137
716.93990,0.00173
714.87972,0.00220
712.81955,0.00272
710.75938,0.00316
708.69921,0.00339
706.63904,0.00319
704.57886,0.00285
702.51869,0.00285
700.45852,0.00315
698.39835,0.00329
696.33818,0.00324
694.27800,0.00318
692.21783,0.00312
690.15766,0.00326
688.09749,0.00362
686.03731,0.00379
683.97714,0.00364
681.91697,0.00323
679.85680,0.00272
677.79663,0.00264
675.73645,0.00318
673.67628,0.00436
671.61611,0.00599
669.55594,0.00376
667.49577,0.00000
665.43559,0.00466
663.37542,0.00372
661.31525,0.00237
659.25508,0.00200
657.19491,0.00183
655.13473,0.00199
653.07456,0.00222
651.01439,0.00179
648.95422,0.00064
646.89404,0.00008
644.83387,0.00046
642.77370,0.00117
640.71353,0.00161
638.65336,0.00216
636.59318,0.00274
634.53301,0.00265
632.47284,0.00200
630.41267,0.00135
628.35250,0.00079
626.29232,0.00081
624.23215,0.00185
622.17198,0.00177
620.11181,-0.00000
618.05164,-0.00195
615.99146,-0.00238
613.93129,0.00013
611.87112,0.00300
609.81095,0.00319
607.75077,0.00190
605.69060,0.00065
603.63043,-0.00028
601.57026,-0.00024
599.51009,0.00000
