3996.73391	0.00016
3994.67373	0.00026
3992.61356	0.00035
3990.55339	0.00038
3988.49322	0.00041
3986.43305	0.00046
3984.37287	0.00051
3982.31270	0.00051
3980.25253	0.00045
3978.19236	0.00041
3976.13219	0.00042
3974.07201	0.00042
3972.01184	0.00040
3969.95167	0.00039
3967.89150	0.00043
3965.83133	0.00047
3963.77115	0.00045
3961.71098	0.00032
3959.65081	0.00013
3957.59064	0.00000
3955.53046	0.00005
3953.47029	0.00027
3951.41012	0.00055
3949.34995	0.00074
3947.28978	0.00076
3945.22960	0.00066
3943.16943	0.00059
3941.10926	0.00067
3939.04909	0.00081
3936.98892	0.00091
3934.92874	0.00097
3932.86857	0.00104
3930.80840	0.00115
3928.74823	0.00123
3926.68805	0.00121
3924.62788	0.00111
3922.56771	0.00102
3920.50754	0.00104
3918.44737	0.00119
3916.38719	0.00137
3914.32702	0.00140
3912.26685	0.00124
3910.20668	0.00096
3908.14651	0.00066
3906.08633	0.00046
3904.02616	0.00046
3901.96599	0.00057
3899.90582	0.00066
3897.84565	0.00069
3895.78547	0.00064
3893.72530	0.00050
3891.66513	0.00041
3889.60496	0.00048
3887.54478	0.00063
3885.48461	0.00077
3883.42444	0.00081
3881.36427	0.00075
3879.30410	0.00069
3877.24392	0.00068
3875.18375	0.00072
3873.12358	0.00081
3871.06341	0.00090
3869.00324	0.00092
3866.94306	0.00089
3864.88289	0.00085
3862.82272	0.00086
3860.76255	0.00086
3858.70237	0.00074
3856.64220	0.00056
3854.58203	0.00049
3852.52186	0.00064
3850.46169	0.00086
3848.40151	0.00087
3846.34134	0.00073
3844.28117	0.00065
3842.22100	0.00074
3840.16083	0.00093
3838.10065	0.00110
3836.04048	0.00118
3833.98031	0.00113
3831.92014	0.00100
3829.85997	0.00089
3827.79979	0.00080
3825.73962	0.00069
3823.67945	0.00053
3821.61928	0.00036
3819.55910	0.00030
3817.49893	0.00034
3815.43876	0.00051
3813.37859	0.00073
3811.31842	0.00079
3809.25824	0.00065
3807.19807	0.00044
3805.13790	0.00038
3803.07773	0.00054
3801.01756	0.00089
3798.95738	0.00118
3796.89721	0.00124
3794.83704	0.00111
3792.77687	0.00093
3790.71670	0.00078
3788.65652	0.00063
3786.59635	0.00047
3784.53618	0.00034
3782.47601	0.00031
3780.41583	0.00041
3778.35566	0.00064
3776.29549	0.00085
3774.23532	0.00089
3772.17515	0.00079
3770.11497	0.00070
3768.05480	0.00064
3765.99463	0.00054
3763.93446	0.00037
3761.87429	0.00022
3759.81411	0.00019
3757.75394	0.00023
3755.69377	0.00023
3753.63360	0.00025
3751.57342	0.00049
3749.51325	0.00103
3747.45308	0.00166
3745.39291	0.00215
3743.33274	0.00233
3741.27256	0.00208
3739.21239	0.00154
3737.15222	0.00109
3735.09205	0.00103
3733.03188	0.00128
3730.97170	0.00157
3728.91153	0.00175
3726.85136	0.00178
3724.79119	0.00167
3722.73102	0.00145
3720.67084	0.00125
3718.61067	0.00122
3716.55050	0.00132
3714.49033	0.00141
3712.43015	0.00148
3710.36998	0.00155
3708.30981	0.00154
3706.24964	0.00140
3704.18947	0.00123
3702.12929	0.00120
3700.06912	0.00133
3698.00895	0.00147
3695.94878	0.00152
3693.88861	0.00149
3691.82843	0.00148
3689.76826	0.00156
3687.70809	0.00163
3685.64792	0.00151
3683.58775	0.00117
3681.52757	0.00076
3679.46740	0.00043
3677.40723	0.00027
3675.34706	0.00037
3673.28688	0.00075
3671.22671	0.00117
3669.16654	0.00145
3667.10637	0.00157
3665.04620	0.00151
3662.98602	0.00134
3660.92585	0.00112
3658.86568	0.00096
3656.80551	0.00096
3654.74534	0.00114
3652.68516	0.00140
3650.62499	0.00172
3648.56482	0.00208
3646.50465	0.00236
3644.44447	0.00247
3642.38430	0.00246
3640.32413	0.00242
3638.26396	0.00242
3636.20379	0.00247
3634.14361	0.00261
3632.08344	0.00283
3630.02327	0.00311
3627.96310	0.00338
3625.90293	0.00356
3623.84275	0.00360
3621.78258	0.00367
3619.72241	0.00392
3617.66224	0.00433
3615.60207	0.00477
3613.54189	0.00520
3611.48172	0.00568
3609.42155	0.00611
3607.36138	0.00632
3605.30120	0.00625
3603.24103	0.00599
3601.18086	0.00583
3599.12069	0.00592
3597.06052	0.00625
3595.00034	0.00671
3592.94017	0.00719
3590.88000	0.00764
3588.81983	0.00804
3586.75966	0.00840
3584.69948	0.00863
3582.63931	0.00867
3580.57914	0.00863
3578.51897	0.00864
3576.45879	0.00876
3574.39862	0.00893
3572.33845	0.00909
3570.27828	0.00922
3568.21811	0.00943
3566.15793	0.00979
3564.09776	0.01027
3562.03759	0.01072
3559.97742	0.01113
3557.91725	0.01151
3555.85707	0.01187
3553.79690	0.01224
3551.73673	0.01261
3549.67656	0.01293
3547.61639	0.01318
3545.55621	0.01339
3543.49604	0.01360
3541.43587	0.01382
3539.37570	0.01409
3537.31552	0.01442
3535.25535	0.01477
3533.19518	0.01509
3531.13501	0.01540
3529.07484	0.01575
3527.01466	0.01620
3524.95449	0.01672
3522.89432	0.01721
3520.83415	0.01758
3518.77398	0.01780
3516.71380	0.01791
3514.65363	0.01801
3512.59346	0.01817
3510.53329	0.01846
3508.47312	0.01889
3506.41294	0.01941
3504.35277	0.01996
3502.29260	0.02050
3500.23243	0.02101
3498.17225	0.02151
3496.11208	0.02198
3494.05191	0.02233
3491.99174	0.02252
3489.93157	0.02267
3487.87139	0.02289
3485.81122	0.02320
3483.75105	0.02354
3481.69088	0.02385
3479.63071	0.02417
3477.57053	0.02453
3475.51036	0.02497
3473.45019	0.02548
3471.39002	0.02596
3469.32984	0.02634
3467.26967	0.02661
3465.20950	0.02681
3463.14933	0.02695
3461.08916	0.02711
3459.02898	0.02734
3456.96881	0.02765
3454.90864	0.02801
3452.84847	0.02834
3450.78830	0.02865
3448.72812	0.02895
3446.66795	0.02927
3444.60778	0.02955
3442.54761	0.02981
3440.48744	0.03010
3438.42726	0.03042
3436.36709	0.03076
3434.30692	0.03107
3432.24675	0.03134
3430.18657	0.03157
3428.12640	0.03181
3426.06623	0.03212
3424.00606	0.03249
3421.94589	0.03286
3419.88571	0.03320
3417.82554	0.03349
3415.76537	0.03371
3413.70520	0.03387
3411.64503	0.03396
3409.58485	0.03402
3407.52468	0.03409
3405.46451	0.03427
3403.40434	0.03460
3401.34416	0.03499
3399.28399	0.03533
3397.22382	0.03560
3395.16365	0.03582
3393.10348	0.03603
3391.04330	0.03624
3388.98313	0.03645
3386.92296	0.03664
3384.86279	0.03685
3382.80262	0.03710
3380.74244	0.03740
3378.68227	0.03769
3376.62210	0.03794
3374.56193	0.03816
3372.50176	0.03837
3370.44158	0.03853
3368.38141	0.03860
3366.32124	0.03856
3364.26107	0.03844
3362.20089	0.03833
3360.14072	0.03831
3358.08055	0.03842
3356.02038	0.03865
3353.96021	0.03894
3351.90003	0.03925
3349.83986	0.03955
3347.77969	0.03975
3345.71952	0.03981
3343.65935	0.03980
3341.59917	0.03982
3339.53900	0.03993
3337.47883	0.04011
3335.41866	0.04028
3333.35849	0.04034
3331.29831	0.04029
3329.23814	0.04022
3327.17797	0.04023
3325.11780	0.04031
3323.05762	0.04042
3320.99745	0.04051
3318.93728	0.04053
3316.87711	0.04052
3314.81694	0.04049
3312.75676	0.04048
3310.69659	0.04046
3308.63642	0.04042
3306.57625	0.04039
3304.51608	0.04044
3302.45590	0.04059
3300.39573	0.04082
3298.33556	0.04102
3296.27539	0.04109
3294.21521	0.04102
3292.15504	0.04086
3290.09487	0.04070
3288.03470	0.04062
3285.97453	0.04063
3283.91435	0.04072
3281.85418	0.04082
3279.79401	0.04088
3277.73384	0.04091
3275.67367	0.04090
3273.61349	0.04079
3271.55332	0.04060
3269.49315	0.04038
3267.43298	0.04022
3265.37281	0.04013
3263.31263	0.04010
3261.25246	0.04005
3259.19229	0.03995
3257.13212	0.03981
3255.07194	0.03967
3253.01177	0.03960
3250.95160	0.03958
3248.89143	0.03958
3246.83126	0.03954
3244.77108	0.03949
3242.71091	0.03941
3240.65074	0.03927
3238.59057	0.03908
3236.53040	0.03893
3234.47022	0.03888
3232.41005	0.03891
3230.34988	0.03897
3228.28971	0.03901
3226.22954	0.03901
3224.16936	0.03896
3222.10919	0.03881
3220.04902	0.03858
3217.98885	0.03836
3215.92867	0.03817
3213.86850	0.03801
3211.80833	0.03781
3209.74816	0.03759
3207.68799	0.03737
3205.62781	0.03715
3203.56764	0.03694
3201.50747	0.03676
3199.44730	0.03661
3197.38713	0.03648
3195.32695	0.03631
3193.26678	0.03609
3191.20661	0.03585
3189.14644	0.03562
3187.08626	0.03543
3185.02609	0.03530
3182.96592	0.03519
3180.90575	0.03506
3178.84558	0.03488
3176.78540	0.03465
3174.72523	0.03438
3172.66506	0.03412
3170.60489	0.03394
3168.54472	0.03381
3166.48454	0.03364
3164.42437	0.03338
3162.36420	0.03312
3160.30403	0.03291
3158.24386	0.03275
3156.18368	0.03258
3154.12351	0.03237
3152.06334	0.03212
3150.00317	0.03187
3147.94299	0.03162
3145.88282	0.03137
3143.82265	0.03113
3141.76248	0.03094
3139.70231	0.03078
3137.64213	0.03060
3135.58196	0.03034
3133.52179	0.03000
3131.46162	0.02969
3129.40145	0.02943
3127.34127	0.02921
3125.28110	0.02902
3123.22093	0.02885
3121.16076	0.02866
3119.10058	0.02842
3117.04041	0.02810
3114.98024	0.02773
3112.92007	0.02735
3110.85990	0.02699
3108.79972	0.02670
3106.73955	0.02652
3104.67938	0.02643
3102.61921	0.02636
3100.55904	0.02626
3098.49886	0.02609
3096.43869	0.02585
3094.37852	0.02556
3092.31835	0.02529
3090.25818	0.02504
3088.19800	0.02484
3086.13783	0.02472
3084.07766	0.02466
3082.01749	0.02463
3079.95731	0.02453
3077.89714	0.02429
3075.83697	0.02391
3073.77680	0.02347
3071.71663	0.02311
3069.65645	0.02288
3067.59628	0.02279
3065.53611	0.02271
3063.47594	0.02255
3061.41577	0.02231
3059.35559	0.02204
3057.29542	0.02180
3055.23525	0.02159
3053.17508	0.02142
3051.11491	0.02128
3049.05473	0.02115
3046.99456	0.02100
3044.93439	0.02080
3042.87422	0.02056
3040.81404	0.02031
3038.75387	0.02010
3036.69370	0.01994
3034.63353	0.01982
3032.57336	0.01972
3030.51318	0.01962
3028.45301	0.01951
3026.39284	0.01939
3024.33267	0.01928
3022.27250	0.01923
3020.21232	0.01923
3018.15215	0.01925
3016.09198	0.01926
3014.03181	0.01925
3011.97163	0.01920
3009.91146	0.01910
3007.85129	0.01891
3005.79112	0.01870
3003.73095	0.01851
3001.67077	0.01836
2999.61060	0.01819
2997.55043	0.01797
2995.49026	0.01782
2993.43009	0.01785
2991.36991	0.01791
2989.30974	0.01787
2987.24957	0.01782
2985.18940	0.01789
2983.12923	0.01816
2981.06905	0.01858
2979.00888	0.01911
2976.94871	0.01967
2974.88854	0.02010
2972.82836	0.02053
2970.76819	0.02122
2968.70802	0.02211
2966.64785	0.02306
2964.58768	0.02409
2962.52750	0.02525
2960.46733	0.02653
2958.40716	0.02791
2956.34699	0.02935
2954.28682	0.03075
2952.22664	0.03207
2950.16647	0.03337
2948.10630	0.03476
2946.04613	0.03622
2943.98596	0.03772
2941.92578	0.03938
2939.86561	0.04133
2937.80544	0.04355
2935.74527	0.04584
2933.68509	0.04800
2931.62492	0.04987
2929.56475	0.05150
2927.50458	0.05301
2925.44441	0.05437
2923.38423	0.05545
2921.32406	0.05613
2919.26389	0.05621
2917.20372	0.05545
2915.14355	0.05389
2913.08337	0.05187
2911.02320	0.04963
2908.96303	0.04732
2906.90286	0.04516
2904.84268	0.04337
2902.78251	0.04195
2900.72234	0.04069
2898.66217	0.03949
2896.60200	0.03840
2894.54182	0.03744
2892.48165	0.03657
2890.42148	0.03578
2888.36131	0.03508
2886.30114	0.03437
2884.24096	0.03362
2882.18079	0.03297
2880.12062	0.03256
2878.06045	0.03244
2876.00028	0.03251
2873.94010	0.03268
2871.87993	0.03290
2869.81976	0.03322
2867.75959	0.03370
2865.69941	0.03438
2863.63924	0.03534
2861.57907	0.03665
2859.51890	0.03829
2857.45873	0.04009
2855.39855	0.04170
2853.33838	0.04288
2851.27821	0.04336
2849.21804	0.04269
2847.15787	0.04060
2845.09769	0.03749
2843.03752	0.03422
2840.97735	0.03153
2838.91718	0.02964
2836.85700	0.02823
2834.79683	0.02695
2832.73666	0.02577
2830.67649	0.02481
2828.61632	0.02407
2826.55614	0.02347
2824.49597	0.02291
2822.43580	0.02240
2820.37563	0.02205
2818.31546	0.02178
2816.25528	0.02136
2814.19511	0.02086
2812.13494	0.02052
2810.07477	0.02036
2808.01460	0.02016
2805.95442	0.01980
2803.89425	0.01937
2801.83408	0.01910
2799.77391	0.01901
2797.71373	0.01892
2795.65356	0.01875
2793.59339	0.01859
2791.53322	0.01844
2789.47305	0.01822
2787.41287	0.01789
2785.35270	0.01761
2783.29253	0.01748
2781.23236	0.01736
2779.17219	0.01718
2777.11201	0.01701
2775.05184	0.01687
2772.99167	0.01676
2770.93150	0.01672
2768.87133	0.01667
2766.81115	0.01658
2764.75098	0.01649
2762.69081	0.01642
2760.63064	0.01640
2758.57046	0.01642
2756.51029	0.01641
2754.45012	0.01629
2752.38995	0.01617
2750.32978	0.01620
2748.26960	0.01633
2746.20943	0.01638
2744.14926	0.01624
2742.08909	0.01596
2740.02892	0.01577
2737.96874	0.01584
2735.90857	0.01600
2733.84840	0.01601
2731.78823	0.01589
2729.72805	0.01577
2727.66788	0.01566
2725.60771	0.01560
2723.54754	0.01557
2721.48737	0.01549
2719.42719	0.01542
2717.36702	0.01541
2715.30685	0.01540
2713.24668	0.01531
2711.18651	0.01520
2709.12633	0.01516
2707.06616	0.01516
2705.00599	0.01511
2702.94582	0.01503
2700.88565	0.01495
2698.82547	0.01487
2696.76530	0.01481
2694.70513	0.01480
2692.64496	0.01483
2690.58478	0.01490
2688.52461	0.01491
2686.46444	0.01476
2684.40427	0.01460
2682.34410	0.01460
2680.28392	0.01471
2678.22375	0.01477
2676.16358	0.01473
2674.10341	0.01461
2672.04324	0.01445
2669.98306	0.01426
2667.92289	0.01407
2665.86272	0.01396
2663.80255	0.01402
2661.74238	0.01419
2659.68220	0.01429
2657.62203	0.01423
2655.56186	0.01406
2653.50169	0.01388
2651.44151	0.01371
2649.38134	0.01356
2647.32117	0.01349
2645.26100	0.01351
2643.20083	0.01354
2641.14065	0.01356
2639.08048	0.01357
2637.02031	0.01353
2634.96014	0.01344
2632.89997	0.01335
2630.83979	0.01322
2628.77962	0.01301
2626.71945	0.01283
2624.65928	0.01279
2622.59910	0.01275
2620.53893	0.01263
2618.47876	0.01256
2616.41859	0.01260
2614.35842	0.01256
2612.29824	0.01237
2610.23807	0.01216
2608.17790	0.01201
2606.11773	0.01190
2604.05756	0.01174
2601.99738	0.01145
2599.93721	0.01118
2597.87704	0.01112
2595.81687	0.01128
2593.75670	0.01152
2591.69652	0.01168
2589.63635	0.01165
2587.57618	0.01149
2585.51601	0.01129
2583.45583	0.01112
2581.39566	0.01098
2579.33549	0.01079
2577.27532	0.01053
2575.21515	0.01041
2573.15497	0.01051
2571.09480	0.01072
2569.03463	0.01084
2566.97446	0.01081
2564.91429	0.01068
2562.85411	0.01054
2560.79394	0.01043
2558.73377	0.01034
2556.67360	0.01028
2554.61342	0.01017
2552.55325	0.00994
2550.49308	0.00978
2548.43291	0.00981
2546.37274	0.00993
2544.31256	0.01006
2542.25239	0.01020
2540.19222	0.01030
2538.13205	0.01022
2536.07188	0.00994
2534.01170	0.00966
2531.95153	0.00957
2529.89136	0.00970
2527.83119	0.00991
2525.77102	0.00996
2523.71084	0.00980
2521.65067	0.00960
2519.59050	0.00944
2517.53033	0.00931
2515.47015	0.00931
2513.40998	0.00934
2511.34981	0.00924
2509.28964	0.00908
2507.22947	0.00898
2505.16929	0.00894
2503.10912	0.00898
2501.04895	0.00900
2498.98878	0.00887
2496.92861	0.00873
2494.86843	0.00876
2492.80826	0.00890
2490.74809	0.00897
2488.68792	0.00902
2486.62775	0.00909
2484.56757	0.00903
2482.50740	0.00883
2480.44723	0.00868
2478.38706	0.00870
2476.32688	0.00880
2474.26671	0.00885
2472.20654	0.00880
2470.14637	0.00866
2468.08620	0.00860
2466.02602	0.00863
2463.96585	0.00860
2461.90568	0.00855
2459.84551	0.00871
2457.78534	0.00899
2455.72516	0.00910
2453.66499	0.00894
2451.60482	0.00862
2449.54465	0.00844
2447.48447	0.00850
2445.42430	0.00853
2443.36413	0.00835
2441.30396	0.00805
2439.24379	0.00781
2437.18361	0.00784
2435.12344	0.00806
2433.06327	0.00814
2431.00310	0.00794
2428.94293	0.00776
2426.88275	0.00786
2424.82258	0.00807
2422.76241	0.00806
2420.70224	0.00787
2418.64207	0.00777
2416.58189	0.00784
2414.52172	0.00789
2412.46155	0.00781
2410.40138	0.00773
2408.34120	0.00767
2406.28103	0.00758
2404.22086	0.00750
2402.16069	0.00748
2400.10052	0.00752
2398.04034	0.00757
2395.98017	0.00760
2393.92000	0.00761
2391.85983	0.00766
2389.79966	0.00776
2387.73948	0.00790
2385.67931	0.00801
2383.61914	0.00805
2381.55897	0.00801
2379.49880	0.00793
2377.43862	0.00782
2375.37845	0.00770
2373.31828	0.00762
2371.25811	0.00764
2369.19793	0.00772
2367.13776	0.00774
2365.07759	0.00763
2363.01742	0.00745
2360.95725	0.00738
2358.89707	0.00749
2356.83690	0.00775
2354.77673	0.00807
2352.71656	0.00838
2350.65639	0.00862
2348.59621	0.00858
2346.53604	0.00817
2344.47587	0.00764
2342.41570	0.00721
2340.35552	0.00702
2338.29535	0.00709
2336.23518	0.00732
2334.17501	0.00763
2332.11484	0.00803
2330.05466	0.00847
2327.99449	0.00885
2325.93432	0.00915
2323.87415	0.00935
2321.81398	0.00945
2319.75380	0.00945
2317.69363	0.00941
2315.63346	0.00931
2313.57329	0.00916
2311.51312	0.00904
2309.45294	0.00897
2307.39277	0.00894
2305.33260	0.00887
2303.27243	0.00873
2301.21225	0.00854
2299.15208	0.00834
2297.09191	0.00817
2295.03174	0.00806
2292.97157	0.00803
2290.91139	0.00809
2288.85122	0.00810
2286.79105	0.00793
2284.73088	0.00757
2282.67071	0.00712
2280.61053	0.00669
2278.55036	0.00638
2276.49019	0.00623
2274.43002	0.00622
2272.36984	0.00629
2270.30967	0.00641
2268.24950	0.00653
2266.18933	0.00656
2264.12916	0.00642
2262.06898	0.00618
2260.00881	0.00604
2257.94864	0.00607
2255.88847	0.00615
2253.82830	0.00614
2251.76812	0.00611
2249.70795	0.00627
2247.64778	0.00666
2245.58761	0.00675
2243.52744	0.00638
2241.46726	0.00617
2239.40709	0.00633
2237.34692	0.00632
2235.28675	0.00594
2233.22657	0.00560
2231.16640	0.00554
2229.10623	0.00553
2227.04606	0.00539
2224.98589	0.00517
2222.92571	0.00496
2220.86554	0.00476
2218.80537	0.00477
2216.74520	0.00511
2214.68503	0.00524
2212.62485	0.00475
2210.56468	0.00426
2208.50451	0.00422
2206.44434	0.00418
2204.38417	0.00401
2202.32399	0.00427
2200.26382	0.00495
2198.20365	0.00527
2196.14348	0.00504
2194.08330	0.00494
2192.02313	0.00530
2189.96296	0.00558
2187.90279	0.00541
2185.84262	0.00502
2183.78244	0.00464
2181.72227	0.00445
2179.66210	0.00479
2177.60193	0.00538
2175.54176	0.00514
2173.48158	0.00405
2171.42141	0.00361
2169.36124	0.00431
2167.30107	0.00510
2165.24089	0.00538
2163.18072	0.00505
2161.12055	0.00367
2159.06038	0.00203
2157.00021	0.00201
2154.94003	0.00337
2152.87986	0.00428
2150.81969	0.00415
2148.75952	0.00367
2146.69935	0.00336
2144.63917	0.00326
2142.57900	0.00332
2140.51883	0.00360
2138.45866	0.00400
2136.39849	0.00417
2134.33831	0.00414
2132.27814	0.00448
2130.21797	0.00516
2128.15780	0.00552
2126.09762	0.00543
2124.03745	0.00522
2121.97728	0.00493
2119.91711	0.00472
2117.85694	0.00495
2115.79676	0.00542
2113.73659	0.00562
2111.67642	0.00553
2109.61625	0.00555
2107.55608	0.00574
2105.49590	0.00580
2103.43573	0.00568
2101.37556	0.00552
2099.31539	0.00541
2097.25521	0.00540
2095.19504	0.00553
2093.13487	0.00572
2091.07470	0.00584
2089.01453	0.00580
2086.95435	0.00560
2084.89418	0.00539
2082.83401	0.00537
2080.77384	0.00561
2078.71367	0.00601
2076.65349	0.00626
2074.59332	0.00615
2072.53315	0.00566
2070.47298	0.00501
2068.41281	0.00457
2066.35263	0.00453
2064.29246	0.00473
2062.23229	0.00485
2060.17212	0.00474
2058.11194	0.00450
2056.05177	0.00429
2053.99160	0.00424
2051.93143	0.00434
2049.87126	0.00443
2047.81108	0.00437
2045.75091	0.00431
2043.69074	0.00448
2041.63057	0.00479
2039.57040	0.00489
2037.51022	0.00454
2035.45005	0.00395
2033.38988	0.00354
2031.32971	0.00338
2029.26954	0.00330
2027.20936	0.00320
2025.14919	0.00328
2023.08902	0.00368
2021.02885	0.00422
2018.96867	0.00459
2016.90850	0.00467
2014.84833	0.00445
2012.78816	0.00395
2010.72799	0.00335
2008.66781	0.00299
2006.60764	0.00309
2004.54747	0.00352
2002.48730	0.00398
2000.42713	0.00430
1998.36695	0.00432
1996.30678	0.00398
1994.24661	0.00344
1992.18644	0.00297
1990.12626	0.00267
1988.06609	0.00254
1986.00592	0.00266
1983.94575	0.00298
1981.88558	0.00333
1979.82540	0.00349
1977.76523	0.00338
1975.70506	0.00310
1973.64489	0.00276
1971.58472	0.00240
1969.52454	0.00207
1967.46437	0.00190
1965.40420	0.00195
1963.34403	0.00223
1961.28386	0.00263
1959.22368	0.00306
1957.16351	0.00344
1955.10334	0.00365
1953.04317	0.00362
1950.98299	0.00337
1948.92282	0.00307
1946.86265	0.00284
1944.80248	0.00276
1942.74231	0.00283
1940.68213	0.00301
1938.62196	0.00328
1936.56179	0.00362
1934.50162	0.00398
1932.44145	0.00422
1930.38127	0.00430
1928.32110	0.00428
1926.26093	0.00420
1924.20076	0.00404
1922.14059	0.00374
1920.08041	0.00338
1918.02024	0.00315
1915.96007	0.00316
1913.89990	0.00332
1911.83972	0.00349
1909.77955	0.00357
1907.71938	0.00358
1905.65921	0.00360
1903.59904	0.00372
1901.53886	0.00393
1899.47869	0.00410
1897.41852	0.00411
1895.35835	0.00388
1893.29818	0.00350
1891.23800	0.00317
1889.17783	0.00309
1887.11766	0.00327
1885.05749	0.00356
1882.99731	0.00375
1880.93714	0.00370
1878.87697	0.00345
1876.81680	0.00314
1874.75663	0.00293
1872.69645	0.00290
1870.63628	0.00302
1868.57611	0.00317
1866.51594	0.00324
1864.45577	0.00319
1862.39559	0.00307
1860.33542	0.00299
1858.27525	0.00294
1856.21508	0.00289
1854.15491	0.00281
1852.09473	0.00270
1850.03456	0.00257
1847.97439	0.00247
1845.91422	0.00246
1843.85404	0.00257
1841.79387	0.00275
1839.73370	0.00287
1837.67353	0.00282
1835.61336	0.00265
1833.55318	0.00248
1831.49301	0.00242
1829.43284	0.00250
1827.37267	0.00265
1825.31250	0.00269
1823.25232	0.00258
1821.19215	0.00236
1819.13198	0.00215
1817.07181	0.00204
1815.01163	0.00202
1812.95146	0.00206
1810.89129	0.00212
1808.83112	0.00222
1806.77095	0.00234
1804.71077	0.00247
1802.65060	0.00257
1800.59043	0.00257
1798.53026	0.00246
1796.47009	0.00228
1794.40991	0.00209
1792.34974	0.00198
1790.28957	0.00201
1788.22940	0.00211
1786.16923	0.00220
1784.10905	0.00221
1782.04888	0.00214
1779.98871	0.00208
1777.92854	0.00203
1775.86836	0.00202
1773.80819	0.00206
1771.74802	0.00221
1769.68785	0.00253
1767.62768	0.00298
1765.56750	0.00347
1763.50733	0.00402
1761.44716	0.00474
1759.38699	0.00572
1757.32682	0.00695
1755.26664	0.00833
1753.20647	0.00976
1751.14630	0.01119
1749.08613	0.01263
1747.02596	0.01399
1744.96578	0.01509
1742.90561	0.01584
1740.84544	0.01630
1738.78527	0.01656
1736.72509	0.01666
1734.66492	0.01661
1732.60475	0.01655
1730.54458	0.01648
1728.48441	0.01636
1726.42423	0.01618
1724.36406	0.01596
1722.30389	0.01576
1720.24372	0.01562
1718.18355	0.01559
1716.12337	0.01570
1714.06320	0.01583
1712.00303	0.01585
1709.94286	0.01574
1707.88268	0.01561
1705.82251	0.01553
1703.76234	0.01549
1701.70217	0.01541
1699.64200	0.01533
1697.58182	0.01544
1695.52165	0.01579
1693.46148	0.01636
1691.40131	0.01710
1689.34114	0.01804
1687.28096	0.01923
1685.22079	0.02077
1683.16062	0.02262
1681.10045	0.02446
1679.04028	0.02593
1676.98010	0.02696
1674.91993	0.02761
1672.85976	0.02791
1670.79959	0.02785
1668.73941	0.02758
1666.67924	0.02724
1664.61907	0.02683
1662.55890	0.02639
1660.49873	0.02597
1658.43855	0.02556
1656.37838	0.02513
1654.31821	0.02477
1652.25804	0.02458
1650.19787	0.02450
1648.13769	0.02439
1646.07752	0.02433
1644.01735	0.02443
1641.95718	0.02466
1639.89701	0.02497
1637.83683	0.02536
1635.77666	0.02594
1633.71649	0.02668
1631.65632	0.02738
1629.59614	0.02788
1627.53597	0.02822
1625.47580	0.02845
1623.41563	0.02862
1621.35546	0.02878
1619.29528	0.02892
1617.23511	0.02914
1615.17494	0.02963
1613.11477	0.03041
1611.05460	0.03141
1608.99442	0.03244
1606.93425	0.03323
1604.87408	0.03345
1602.81391	0.03301
1600.75373	0.03203
1598.69356	0.03076
1596.63339	0.02943
1594.57322	0.02823
1592.51305	0.02725
1590.45287	0.02646
1588.39270	0.02573
1586.33253	0.02499
1584.27236	0.02421
1582.21219	0.02341
1580.15201	0.02263
1578.09184	0.02191
1576.03167	0.02130
1573.97150	0.02083
1571.91133	0.02034
1569.85115	0.01976
1567.79098	0.01913
1565.73081	0.01843
1563.67064	0.01760
1561.61046	0.01664
1559.55029	0.01568
1557.49012	0.01504
1555.42995	0.01467
1553.36978	0.01431
1551.30960	0.01384
1549.24943	0.01329
1547.18926	0.01270
1545.12909	0.01206
1543.06892	0.01137
1541.00874	0.01067
1538.94857	0.01008
1536.88840	0.00963
1534.82823	0.00917
1532.76805	0.00871
1530.70788	0.00838
1528.64771	0.00823
1526.58754	0.00827
1524.52737	0.00857
1522.46719	0.00919
1520.40702	0.01015
1518.34685	0.01126
1516.28668	0.01216
1514.22651	0.01255
1512.16633	0.01221
1510.10616	0.01120
1508.04599	0.00978
1505.98582	0.00840
1503.92565	0.00732
1501.86547	0.00646
1499.80530	0.00571
1497.74513	0.00506
1495.68496	0.00456
1493.62478	0.00417
1491.56461	0.00380
1489.50444	0.00346
1487.44427	0.00320
1485.38410	0.00305
1483.32392	0.00305
1481.26375	0.00328
1479.20358	0.00382
1477.14341	0.00474
1475.08324	0.00609
1473.02306	0.00782
1470.96289	0.00975
1468.90272	0.01161
1466.84255	0.01323
1464.78238	0.01460
1462.72220	0.01570
1460.66203	0.01654
1458.60186	0.01728
1456.54169	0.01811
1454.48151	0.01894
1452.42134	0.01960
1450.36117	0.02010
1448.30100	0.02059
1446.24083	0.02118
1444.18065	0.02184
1442.12048	0.02252
1440.06031	0.02317
1438.00014	0.02377
1435.93997	0.02427
1433.87979	0.02462
1431.81962	0.02478
1429.75945	0.02483
1427.69928	0.02488
1425.63910	0.02496
1423.57893	0.02511
1421.51876	0.02530
1419.45859	0.02548
1417.39842	0.02553
1415.33824	0.02536
1413.27807	0.02496
1411.21790	0.02441
1409.15773	0.02378
1407.09756	0.02310
1405.03738	0.02241
1402.97721	0.02174
1400.91704	0.02110
1398.85687	0.02048
1396.79670	0.01992
1394.73652	0.01945
1392.67635	0.01916
1390.61618	0.01912
1388.55601	0.01934
1386.49583	0.01975
1384.43566	0.02031
1382.37549	0.02094
1380.31532	0.02158
1378.25515	0.02213
1376.19497	0.02254
1374.13480	0.02283
1372.07463	0.02299
1370.01446	0.02301
1367.95429	0.02287
1365.89411	0.02260
1363.83394	0.02223
1361.77377	0.02180
1359.71360	0.02138
1357.65343	0.02101
1355.59325	0.02076
1353.53308	0.02062
1351.47291	0.02055
1349.41274	0.02051
1347.35256	0.02046
1345.29239	0.02041
1343.23222	0.02038
1341.17205	0.02036
1339.11188	0.02030
1337.05170	0.02020
1334.99153	0.02009
1332.93136	0.02006
1330.87119	0.02012
1328.81102	0.02026
1326.75084	0.02042
1324.69067	0.02058
1322.63050	0.02071
1320.57033	0.02076
1318.51015	0.02070
1316.44998	0.02053
1314.38981	0.02027
1312.32964	0.01995
1310.26947	0.01959
1308.20929	0.01915
1306.14912	0.01862
1304.08895	0.01803
1302.02878	0.01746
1299.96861	0.01698
1297.90843	0.01665
1295.84826	0.01651
1293.78809	0.01654
1291.72792	0.01670
1289.66775	0.01694
1287.60757	0.01719
1285.54740	0.01743
1283.48723	0.01766
1281.42706	0.01791
1279.36688	0.01815
1277.30671	0.01836
1275.24654	0.01855
1273.18637	0.01877
1271.12620	0.01906
1269.06602	0.01945
1267.00585	0.01993
1264.94568	0.02047
1262.88551	0.02105
1260.82534	0.02164
1258.76516	0.02219
1256.70499	0.02266
1254.64482	0.02307
1252.58465	0.02343
1250.52447	0.02375
1248.46430	0.02404
1246.40413	0.02430
1244.34396	0.02451
1242.28379	0.02462
1240.22361	0.02461
1238.16344	0.02448
1236.10327	0.02420
1234.04310	0.02376
1231.98293	0.02317
1229.92275	0.02248
1227.86258	0.02171
1225.80241	0.02087
1223.74224	0.01993
1221.68207	0.01890
1219.62189	0.01779
1217.56172	0.01664
1215.50155	0.01549
1213.44138	0.01439
1211.38120	0.01334
1209.32103	0.01235
1207.26086	0.01138
1205.20069	0.01038
1203.14052	0.00929
1201.08034	0.00809
1199.02017	0.00684
1196.96000	0.00563
1194.89983	0.00456
1192.83966	0.00376
1190.77948	0.00322
1188.71931	0.00284
1186.65914	0.00264
1184.59897	0.00263
1182.53880	0.00286
1180.47862	0.00334
1178.41845	0.00412
1176.35828	0.00534
1174.29811	0.00706
1172.23793	0.00914
1170.17776	0.01116
1168.11759	0.01268
1166.05742	0.01363
1163.99725	0.01424
1161.93707	0.01472
1159.87690	0.01515
1157.81673	0.01557
1155.75656	0.01601
1153.69639	0.01659
1151.63621	0.01736
1149.57604	0.01832
1147.51587	0.01937
1145.45570	0.02030
1143.39552	0.02105
1141.33535	0.02171
1139.27518	0.02228
1137.21501	0.02278
1135.15484	0.02331
1133.09466	0.02391
1131.03449	0.02462
1128.97432	0.02546
1126.91415	0.02641
1124.85398	0.02743
1122.79380	0.02849
1120.73363	0.02949
1118.67346	0.03045
1116.61329	0.03143
1114.55312	0.03233
1112.49294	0.03311
1110.43277	0.03387
1108.37260	0.03476
1106.31243	0.03581
1104.25225	0.03696
1102.19208	0.03814
1100.13191	0.03937
1098.07174	0.04076
1096.01157	0.04236
1093.95139	0.04408
1091.89122	0.04577
1089.83105	0.04736
1087.77088	0.04885
1085.71071	0.05030
1083.65053	0.05171
1081.59036	0.05305
1079.53019	0.05448
1077.47002	0.05622
1075.40985	0.05822
1073.34967	0.06017
1071.28950	0.06188
1069.22933	0.06331
1067.16916	0.06447
1065.10898	0.06545
1063.04881	0.06645
1060.98864	0.06754
1058.92847	0.06862
1056.86830	0.06976
1054.80812	0.07109
1052.74795	0.07259
1050.68778	0.07418
1048.62761	0.07595
1046.56744	0.07791
1044.50726	0.07987
1042.44709	0.08173
1040.38692	0.08344
1038.32675	0.08493
1036.26657	0.08602
1034.20640	0.08668
1032.14623	0.08706
1030.08606	0.08722
1028.02589	0.08715
1025.96571	0.08685
1023.90554	0.08642
1021.84537	0.08597
1019.78520	0.08564
1017.72503	0.08541
1015.66485	0.08532
1013.60468	0.08537
1011.54451	0.08543
1009.48434	0.08544
1007.42417	0.08542
1005.36399	0.08523
1003.30382	0.08470
1001.24365	0.08388
999.18348	0.08287
997.12330	0.08177
995.06313	0.08066
993.00296	0.07948
990.94279	0.07808
988.88262	0.07660
986.82244	0.07527
984.76227	0.07410
982.70210	0.07297
980.64193	0.07178
978.58176	0.07042
976.52158	0.06899
974.46141	0.06773
972.40124	0.06664
970.34107	0.06542
968.28089	0.06392
966.22072	0.06230
964.16055	0.06079
962.10038	0.05935
960.04021	0.05796
957.98003	0.05664
955.91986	0.05543
953.85969	0.05424
951.79952	0.05297
949.73935	0.05167
947.67917	0.05037
945.61900	0.04896
943.55883	0.04736
941.49866	0.04551
939.43849	0.04332
937.37831	0.04080
935.31814	0.03812
933.25797	0.03545
931.19780	0.03289
929.13762	0.03062
927.07745	0.02871
925.01728	0.02704
922.95711	0.02554
920.89694	0.02420
918.83676	0.02289
916.77659	0.02146
914.71642	0.02003
912.65625	0.01871
910.59608	0.01752
908.53590	0.01640
906.47573	0.01544
904.41556	0.01481
902.35539	0.01448
900.29522	0.01435
898.23504	0.01438
896.17487	0.01448
894.11470	0.01459
892.05453	0.01475
889.99435	0.01483
887.93418	0.01454
885.87401	0.01382
883.81384	0.01292
881.75367	0.01206
879.69349	0.01127
877.63332	0.01043
875.57315	0.00955
873.51298	0.00882
871.45281	0.00834
869.39263	0.00804
867.33246	0.00781
865.27229	0.00759
863.21212	0.00738
861.15194	0.00725
859.09177	0.00727
857.03160	0.00730
854.97143	0.00724
852.91126	0.00730
850.85108	0.00750
848.79091	0.00751
846.73074	0.00725
844.67057	0.00700
842.61040	0.00692
840.55022	0.00698
838.49005	0.00710
836.42988	0.00720
834.36971	0.00716
832.30954	0.00682
830.24936	0.00619
828.18919	0.00559
826.12902	0.00529
824.06885	0.00525
822.00867	0.00534
819.94850	0.00538
817.88833	0.00517
815.82816	0.00478
813.76799	0.00446
811.70781	0.00438
809.64764	0.00456
807.58747	0.00489
805.52730	0.00506
803.46713	0.00483
801.40695	0.00419
799.34678	0.00345
797.28661	0.00301
795.22644	0.00289
793.16627	0.00289
791.10609	0.00278
789.04592	0.00257
786.98575	0.00254
784.92558	0.00284
782.86540	0.00326
780.80523	0.00358
778.74506	0.00381
776.68489	0.00395
774.62472	0.00390
772.56454	0.00374
770.50437	0.00367
768.44420	0.00362
766.38403	0.00349
764.32386	0.00335
762.26368	0.00334
760.20351	0.00342
758.14334	0.00351
756.08317	0.00350
754.02299	0.00330
751.96282	0.00306
749.90265	0.00266
747.84248	0.00244
745.78231	0.00227
743.72213	0.00199
741.66196	0.00158
739.60179	0.00117
737.54162	0.00098
735.48145	0.00104
733.42127	0.00114
731.36110	0.00125
729.30093	0.00157
727.24076	0.00203
725.18059	0.00236
723.12041	0.00254
721.06024	0.00261
719.00007	0.00263
716.93990	0.00272
714.87972	0.00298
712.81955	0.00341
710.75938	0.00389
708.69921	0.00436
706.63904	0.00486
704.57886	0.00535
702.51869	0.00572
700.45852	0.00592
698.39835	0.00595
696.33818	0.00588
694.27800	0.00572
692.21783	0.00539
690.15766	0.00484
688.09749	0.00416
686.03731	0.00353
683.97714	0.00301
681.91697	0.00250
679.85680	0.00198
677.79663	0.00156
675.73645	0.00136
673.67628	0.00117
671.61611	0.00073
669.55594	0.00014
667.49577	0.00000
665.43559	0.00052
663.37542	0.00123
661.31525	0.00180
659.25508	0.00227
657.19491	0.00271
655.13473	0.00309
653.07456	0.00326
651.01439	0.00318
648.95422	0.00298
646.89404	0.00276
644.83387	0.00276
642.77370	0.00295
640.71353	0.00311
638.65336	0.00303
636.59318	0.00282
634.53301	0.00278
632.47284	0.00312
630.41267	0.00370
628.35250	0.00425
626.29232	0.00442
624.23215	0.00374
622.17198	0.00239
620.11181	0.00132
618.05164	0.00096
615.99146	0.00072
613.93129	0.00016
611.87112	0.00000
609.81095	0.00059
607.75077	0.00171
605.69060	0.00198
603.63043	0.00128
601.57026	0.00056
599.51009	0.00000
