3996.73391,0.00035
3994.67373,0.00013
3992.61356,0.00000
3990.55339,0.00005
3988.49322,0.00028
3986.43305,0.00058
3984.37287,0.00084
3982.31270,0.00097
3980.25253,0.00094
3978.19236,0.00083
3976.13219,0.00078
3974.07201,0.00084
3972.01184,0.00093
3969.95167,0.00098
3967.89150,0.00097
3965.83133,0.00097
3963.77115,0.00099
3961.71098,0.00105
3959.65081,0.00117
3957.59064,0.00131
3955.53046,0.00139
3953.47029,0.00136
3951.41012,0.00129
3949.34995,0.00124
3947.28978,0.00123
3945.22960,0.00126
3943.16943,0.00134
3941.10926,0.00149
3939.04909,0.00167
3936.98892,0.00179
3934.92874,0.00178
3932.86857,0.00165
3930.80840,0.00145
3928.74823,0.00119
3926.68805,0.00092
3924.62788,0.00075
3922.56771,0.00082
3920.50754,0.00111
3918.44737,0.00148
3916.38719,0.00166
3914.32702,0.00153
3912.26685,0.00123
3910.20668,0.00094
3908.14651,0.00072
3906.08633,0.00059
3904.02616,0.00067
3901.96599,0.00094
3899.90582,0.00126
3897.84565,0.00145
3895.78547,0.00145
3893.72530,0.00131
3891.66513,0.00117
3889.60496,0.00110
3887.54478,0.00101
3885.48461,0.00092
3883.42444,0.00089
3881.36427,0.00097
3879.30410,0.00112
3877.24392,0.00127
3875.18375,0.00144
3873.12358,0.00165
3871.06341,0.00183
3869.00324,0.00185
3866.94306,0.00170
3864.88289,0.00142
3862.82272,0.00110
3860.76255,0.00077
3858.70237,0.00041
3856.64220,0.00010
3854.58203,0.00000
3852.52186,0.00019
3850.46169,0.00052
3848.40151,0.00076
3846.34134,0.00086
3844.28117,0.00089
3842.22100,0.00099
3840.16083,0.00122
3838.10065,0.00151
3836.04048,0.00174
3833.98031,0.00179
3831.92014,0.00164
3829.85997,0.00137
3827.79979,0.00114
3825.73962,0.00113
3823.67945,0.00137
3821.61928,0.00177
3819.55910,0.00209
3817.49893,0.00217
3815.43876,0.00208
3813.37859,0.00196
3811.31842,0.00183
3809.25824,0.00172
3807.19807,0.00165
3805.13790,0.00156
3803.07773,0.00141
3801.01756,0.00124
3798.95738,0.00110
3796.89721,0.00104
3794.83704,0.00104
3792.77687,0.00104
3790.71670,0.00099
3788.65652,0.00094
3786.59635,0.00093
3784.53618,0.00099
3782.47601,0.00112
3780.41583,0.00128
3778.35566,0.00148
3776.29549,0.00163
3774.23532,0.00166
3772.17515,0.00157
3770.11497,0.00147
3768.05480,0.00150
3765.99463,0.00160
3763.93446,0.00162
3761.87429,0.00148
3759.81411,0.00126
3757.75394,0.00105
3755.69377,0.00081
3753.63360,0.00051
3751.57342,0.00026
3749.51325,0.00022
3747.45308,0.00045
3745.39291,0.00093
3743.33274,0.00149
3741.27256,0.00180
3739.21239,0.00179
3737.15222,0.00168
3735.09205,0.00170
3733.03188,0.00182
3730.97170,0.00186
3728.91153,0.00175
3726.85136,0.00158
3724.79119,0.00153
3722.73102,0.00159
3720.67084,0.00160
3718.61067,0.00141
3716.55050,0.00103
3714.49033,0.00062
3712.43015,0.00043
3710.36998,0.00059
3708.30981,0.00094
3706.24964,0.00125
3704.18947,0.00143
3702.12929,0.00148
3700.06912,0.00146
3698.00895,0.00143
3695.94878,0.00138
3693.88861,0.00127
3691.82843,0.00112
3689.76826,0.00115
3687.70809,0.00142
3685.64792,0.00168
3683.58775,0.00168
3681.52757,0.00140
3679.46740,0.00092
3677.40723,0.00043
3675.34706,0.00014
3673.28688,0.00018
3671.22671,0.00053
3669.16654,0.00104
3667.10637,0.00149
3665.04620,0.00176
3662.98602,0.00185
3660.92585,0.00183
3658.86568,0.00176
3656.80551,0.00163
3654.74534,0.00148
3652.68516,0.00139
3650.62499,0.00151
3648.56482,0.00178
3646.50465,0.00197
3644.44447,0.00200
3642.38430,0.00201
3640.32413,0.00214
3638.26396,0.00237
3636.20379,0.00266
3634.14361,0.00293
3632.08344,0.00315
3630.02327,0.00331
3627.96310,0.00349
3625.90293,0.00364
3623.84275,0.00367
3621.78258,0.00358
3619.72241,0.00352
3617.66224,0.00356
3615.60207,0.00368
3613.54189,0.00385
3611.48172,0.00410
3609.42155,0.00441
3607.36138,0.00469
3605.30120,0.00490
3603.24103,0.00500
3601.18086,0.00507
3599.12069,0.00520
3597.06052,0.00547
3595.00034,0.00579
3592.94017,0.00596
3590.88000,0.00583
3588.81983,0.00554
3586.75966,0.00545
3584.69948,0.00575
3582.63931,0.00626
3580.57914,0.00667
3578.51897,0.00687
3576.45879,0.00696
3574.39862,0.00701
3572.33845,0.00707
3570.27828,0.00717
3568.21811,0.00737
3566.15793,0.00768
3564.09776,0.00800
3562.03759,0.00820
3559.97742,0.00829
3557.91725,0.00836
3555.85707,0.00848
3553.79690,0.00867
3551.73673,0.00889
3549.67656,0.00909
3547.61639,0.00927
3545.55621,0.00946
3543.49604,0.00966
3541.43587,0.00984
3539.37570,0.01000
3537.31552,0.01014
3535.25535,0.01029
3533.19518,0.01046
3531.13501,0.01063
3529.07484,0.01076
3527.01466,0.01082
3524.95449,0.01087
3522.89432,0.01091
3520.83415,0.01096
3518.77398,0.01109
3516.71380,0.01133
3514.65363,0.01155
3512.59346,0.01164
3510.53329,0.01162
3508.47312,0.01166
3506.41294,0.01187
3504.35277,0.01219
3502.29260,0.01253
3500.23243,0.01282
3498.17225,0.01306
3496.11208,0.01328
3494.05191,0.01346
3491.99174,0.01353
3489.93157,0.01353
3487.87139,0.01356
3485.81122,0.01369
3483.75105,0.01393
3481.69088,0.01425
3479.63071,0.01459
3477.57053,0.01483
3475.51036,0.01494
3473.45019,0.01498
3471.39002,0.01500
3469.32984,0.01505
3467.26967,0.01518
3465.20950,0.01546
3463.14933,0.01583
3461.08916,0.01614
3459.02898,0.01629
3456.96881,0.01631
3454.90864,0.01634
3452.84847,0.01649
3450.78830,0.01669
3448.72812,0.01683
3446.66795,0.01685
3444.60778,0.01687
3442.54761,0.01701
3440.48744,0.01729
3438.42726,0.01758
3436.36709,0.01778
3434.30692,0.01793
3432.24675,0.01804
3430.18657,0.01813
3428.12640,0.01825
3426.06623,0.01841
3424.00606,0.01858
3421.94589,0.01864
3419.88571,0.01858
3417.82554,0.01848
3415.76537,0.01849
3413.70520,0.01866
3411.64503,0.01887
3409.58485,0.01910
3407.52468,0.01934
3405.46451,0.01951
3403.40434,0.01951
3401.34416,0.01937
3399.28399,0.01922
3397.22382,0.01916
3395.16365,0.01920
3393.10348,0.01929
3391.04330,0.01941
3388.98313,0.01958
3386.92296,0.01986
3384.86279,0.02023
3382.80262,0.02058
3380.74244,0.02080
3378.68227,0.02084
3376.62210,0.02077
3374.56193,0.02071
3372.50176,0.02074
3370.44158,0.02088
3368.38141,0.02106
3366.32124,0.02117
3364.26107,0.02122
3362.20089,0.02126
3360.14072,0.02130
3358.08055,0.02133
3356.02038,0.02137
3353.96021,0.02146
3351.90003,0.02157
3349.83986,0.02164
3347.77969,0.02166
3345.71952,0.02166
3343.65935,0.02168
3341.59917,0.02171
3339.53900,0.02176
3337.47883,0.02181
3335.41866,0.02187
3333.35849,0.02194
3331.29831,0.02197
3329.23814,0.02194
3327.17797,0.02192
3325.11780,0.02195
3323.05762,0.02203
3320.99745,0.02209
3318.93728,0.02210
3316.87711,0.02208
3314.81694,0.02203
3312.75676,0.02199
3310.69659,0.02198
3308.63642,0.02208
3306.57625,0.02228
3304.51608,0.02251
3302.45590,0.02272
3300.39573,0.02284
3298.33556,0.02282
3296.27539,0.02271
3294.21521,0.02255
3292.15504,0.02233
3290.09487,0.02209
3288.03470,0.02191
3285.97453,0.02184
3283.91435,0.02189
3281.85418,0.02203
3279.79401,0.02222
3277.73384,0.02242
3275.67367,0.02259
3273.61349,0.02266
3271.55332,0.02265
3269.49315,0.02260
3267.43298,0.02254
3265.37281,0.02249
3263.31263,0.02245
3261.25246,0.02242
3259.19229,0.02241
3257.13212,0.02241
3255.07194,0.02241
3253.01177,0.02242
3250.95160,0.02246
3248.89143,0.02255
3246.83126,0.02261
3244.77108,0.02257
3242.71091,0.02242
3240.65074,0.02222
3238.59057,0.02204
3236.53040,0.02193
3234.47022,0.02188
3232.41005,0.02183
3230.34988,0.02175
3228.28971,0.02163
3226.22954,0.02149
3224.16936,0.02133
3222.10919,0.02117
3220.04902,0.02101
3217.98885,0.02085
3215.92867,0.02074
3213.86850,0.02071
3211.80833,0.02075
3209.74816,0.02075
3207.68799,0.02065
3205.62781,0.02049
3203.56764,0.02032
3201.50747,0.02015
3199.44730,0.02000
3197.38713,0.01984
3195.32695,0.01970
3193.26678,0.01961
3191.20661,0.01959
3189.14644,0.01958
3187.08626,0.01958
3185.02609,0.01955
3182.96592,0.01945
3180.90575,0.01924
3178.84558,0.01895
3176.78540,0.01873
3174.72523,0.01864
3172.66506,0.01863
3170.60489,0.01859
3168.54472,0.01848
3166.48454,0.01831
3164.42437,0.01813
3162.36420,0.01793
3160.30403,0.01772
3158.24386,0.01751
3156.18368,0.01733
3154.12351,0.01717
3152.06334,0.01700
3150.00317,0.01680
3147.94299,0.01659
3145.88282,0.01640
3143.82265,0.01619
3141.76248,0.01596
3139.70231,0.01572
3137.64213,0.01548
3135.58196,0.01524
3133.52179,0.01505
3131.46162,0.01496
3129.40145,0.01499
3127.34127,0.01509
3125.28110,0.01514
3123.22093,0.01507
3121.16076,0.01491
3119.10058,0.01474
3117.04041,0.01462
3114.98024,0.01458
3112.92007,0.01458
3110.85990,0.01454
3108.79972,0.01434
3106.73955,0.01401
3104.67938,0.01367
3102.61921,0.01345
3100.55904,0.01330
3098.49886,0.01315
3096.43869,0.01299
3094.37852,0.01286
3092.31835,0.01280
3090.25818,0.01278
3088.19800,0.01275
3086.13783,0.01273
3084.07766,0.01268
3082.01749,0.01252
3079.95731,0.01226
3077.89714,0.01196
3075.83697,0.01171
3073.77680,0.01152
3071.71663,0.01141
3069.65645,0.01136
3067.59628,0.01132
3065.53611,0.01122
3063.47594,0.01105
3061.41577,0.01089
3059.35559,0.01078
3057.29542,0.01069
3055.23525,0.01058
3053.17508,0.01046
3051.11491,0.01038
3049.05473,0.01042
3046.99456,0.01052
3044.93439,0.01059
3042.87422,0.01056
3040.81404,0.01044
3038.75387,0.01022
3036.69370,0.00998
3034.63353,0.00978
3032.57336,0.00960
3030.51318,0.00945
3028.45301,0.00936
3026.39284,0.00935
3024.33267,0.00937
3022.27250,0.00939
3020.21232,0.00937
3018.15215,0.00933
3016.09198,0.00925
3014.03181,0.00914
3011.97163,0.00900
3009.91146,0.00886
3007.85129,0.00875
3005.79112,0.00865
3003.73095,0.00855
3001.67077,0.00847
2999.61060,0.00847
2997.55043,0.00861
2995.49026,0.00877
2993.43009,0.00890
2991.36991,0.00899
2989.30974,0.00906
2987.24957,0.00914
2985.18940,0.00913
2983.12923,0.00901
2981.06905,0.00892
2979.00888,0.00899
2976.94871,0.00920
2974.88854,0.00934
2972.82836,0.00933
2970.76819,0.00929
2968.70802,0.00943
2966.64785,0.00969
2964.58768,0.00986
2962.52750,0.00991
2960.46733,0.01000
2958.40716,0.01025
2956.34699,0.01056
2954.28682,0.01077
2952.22664,0.01090
2950.16647,0.01097
2948.10630,0.01100
2946.04613,0.01110
2943.98596,0.01131
2941.92578,0.01153
2939.86561,0.01168
2937.80544,0.01181
2935.74527,0.01195
2933.68509,0.01203
2931.62492,0.01201
2929.56475,0.01194
2927.50458,0.01186
2925.44441,0.01180
2923.38423,0.01177
2921.32406,0.01169
2919.26389,0.01149
2917.20372,0.01122
2915.14355,0.01103
2913.08337,0.01099
2911.02320,0.01099
2908.96303,0.01098
2906.90286,0.01102
2904.84268,0.01103
2902.78251,0.01092
2900.72234,0.01079
2898.66217,0.01073
2896.60200,0.01077
2894.54182,0.01089
2892.48165,0.01090
2890.42148,0.01073
2888.36131,0.01052
2886.30114,0.01044
2884.24096,0.01050
2882.18079,0.01063
2880.12062,0.01074
2878.06045,0.01072
2876.00028,0.01061
2873.94010,0.01049
2871.87993,0.01031
2869.81976,0.01007
2867.75959,0.00981
2865.69941,0.00964
2863.63924,0.00965
2861.57907,0.00972
2859.51890,0.00961
2857.45873,0.00928
2855.39855,0.00895
2853.33838,0.00879
2851.27821,0.00879
2849.21804,0.00881
2847.15787,0.00878
2845.09769,0.00867
2843.03752,0.00855
2840.97735,0.00853
2838.91718,0.00859
2836.85700,0.00856
2834.79683,0.00847
2832.73666,0.00843
2830.67649,0.00843
2828.61632,0.00840
2826.55614,0.00842
2824.49597,0.00848
2822.43580,0.00849
2820.37563,0.00839
2818.31546,0.00823
2816.25528,0.00808
2814.19511,0.00795
2812.13494,0.00783
2810.07477,0.00775
2808.01460,0.00776
2805.95442,0.00777
2803.89425,0.00781
2801.83408,0.00790
2799.77391,0.00795
2797.71373,0.00789
2795.65356,0.00778
2793.59339,0.00771
2791.53322,0.00771
2789.47305,0.00770
2787.41287,0.00763
2785.35270,0.00754
2783.29253,0.00743
2781.23236,0.00727
2779.17219,0.00714
2777.11201,0.00719
2775.05184,0.00732
2772.99167,0.00736
2770.93150,0.00734
2768.87133,0.00737
2766.81115,0.00743
2764.75098,0.00736
2762.69081,0.00717
2760.63064,0.00696
2758.57046,0.00682
2756.51029,0.00680
2754.45012,0.00687
2752.38995,0.00693
2750.32978,0.00695
2748.26960,0.00694
2746.20943,0.00694
2744.14926,0.00695
2742.08909,0.00697
2740.02892,0.00706
2737.96874,0.00720
2735.90857,0.00728
2733.84840,0.00723
2731.78823,0.00717
2729.72805,0.00718
2727.66788,0.00717
2725.60771,0.00705
2723.54754,0.00682
2721.48737,0.00666
2719.42719,0.00669
2717.36702,0.00681
2715.30685,0.00685
2713.24668,0.00682
2711.18651,0.00677
2709.12633,0.00674
2707.06616,0.00682
2705.00599,0.00694
2702.94582,0.00694
2700.88565,0.00681
2698.82547,0.00663
2696.76530,0.00641
2694.70513,0.00629
2692.64496,0.00641
2690.58478,0.00666
2688.52461,0.00688
2686.46444,0.00703
2684.40427,0.00706
2682.34410,0.00692
2680.28392,0.00679
2678.22375,0.00670
2676.16358,0.00657
2674.10341,0.00642
2672.04324,0.00640
2669.98306,0.00651
2667.92289,0.00662
2665.86272,0.00667
2663.80255,0.00666
2661.74238,0.00664
2659.68220,0.00658
2657.62203,0.00644
2655.56186,0.00629
2653.50169,0.00619
2651.44151,0.00610
2649.38134,0.00610
2647.32117,0.00621
2645.26100,0.00624
2643.20083,0.00610
2641.14065,0.00599
2639.08048,0.00605
2637.02031,0.00620
2634.96014,0.00629
2632.89997,0.00624
2630.83979,0.00609
2628.77962,0.00593
2626.71945,0.00584
2624.65928,0.00595
2622.59910,0.00624
2620.53893,0.00646
2618.47876,0.00644
2616.41859,0.00625
2614.35842,0.00603
2612.29824,0.00581
2610.23807,0.00551
2608.17790,0.00523
2606.11773,0.00514
2604.05756,0.00524
2601.99738,0.00537
2599.93721,0.00544
2597.87704,0.00549
2595.81687,0.00553
2593.75670,0.00542
2591.69652,0.00527
2589.63635,0.00530
2587.57618,0.00538
2585.51601,0.00530
2583.45583,0.00515
2581.39566,0.00516
2579.33549,0.00532
2577.27532,0.00547
2575.21515,0.00552
2573.15497,0.00554
2571.09480,0.00553
2569.03463,0.00549
2566.97446,0.00543
2564.91429,0.00531
2562.85411,0.00513
2560.79394,0.00505
2558.73377,0.00509
2556.67360,0.00503
2554.61342,0.00481
2552.55325,0.00464
2550.49308,0.00471
2548.43291,0.00503
2546.37274,0.00534
2544.31256,0.00546
2542.25239,0.00541
2540.19222,0.00524
2538.13205,0.00505
2536.07188,0.00497
2534.01170,0.00505
2531.95153,0.00520
2529.89136,0.00527
2527.83119,0.00518
2525.77102,0.00497
2523.71084,0.00476
2521.65067,0.00458
2519.59050,0.00441
2517.53033,0.00431
2515.47015,0.00435
2513.40998,0.00440
2511.34981,0.00432
2509.28964,0.00424
2507.22947,0.00440
2505.16929,0.00478
2503.10912,0.00506
2501.04895,0.00509
2498.98878,0.00495
2496.92861,0.00483
2494.86843,0.00475
2492.80826,0.00466
2490.74809,0.00466
2488.68792,0.00477
2486.62775,0.00479
2484.56757,0.00463
2482.50740,0.00451
2480.44723,0.00462
2478.38706,0.00485
2476.32688,0.00493
2474.26671,0.00473
2472.20654,0.00445
2470.14637,0.00448
2468.08620,0.00486
2466.02602,0.00521
2463.96585,0.00523
2461.90568,0.00503
2459.84551,0.00499
2457.78534,0.00516
2455.72516,0.00517
2453.66499,0.00480
2451.60482,0.00435
2449.54465,0.00424
2447.48447,0.00441
2445.42430,0.00453
2443.36413,0.00464
2441.30396,0.00491
2439.24379,0.00512
2437.18361,0.00505
2435.12344,0.00484
2433.06327,0.00470
2431.00310,0.00467
2428.94293,0.00465
2426.88275,0.00451
2424.82258,0.00432
2422.76241,0.00428
2420.70224,0.00434
2418.64207,0.00431
2416.58189,0.00424
2414.52172,0.00430
2412.46155,0.00455
2410.40138,0.00477
2408.34120,0.00470
2406.28103,0.00439
2404.22086,0.00419
2402.16069,0.00431
2400.10052,0.00453
2398.04034,0.00458
2395.98017,0.00447
2393.92000,0.00431
2391.85983,0.00419
2389.79966,0.00416
2387.73948,0.00420
2385.67931,0.00430
2383.61914,0.00444
2381.55897,0.00461
2379.49880,0.00478
2377.43862,0.00493
2375.37845,0.00494
2373.31828,0.00476
2371.25811,0.00446
2369.19793,0.00417
2367.13776,0.00398
2365.07759,0.00419
2363.01742,0.00507
2360.95725,0.00626
2358.89707,0.00706
2356.83690,0.00725
2354.77673,0.00687
2352.71656,0.00603
2350.65639,0.00489
2348.59621,0.00368
2346.53604,0.00273
2344.47587,0.00233
2342.41570,0.00246
2340.35552,0.00284
2338.29535,0.00326
2336.23518,0.00361
2334.17501,0.00382
2332.11484,0.00381
2330.05466,0.00370
2327.99449,0.00369
2325.93432,0.00388
2323.87415,0.00427
2321.81398,0.00473
2319.75380,0.00503
2317.69363,0.00507
2315.63346,0.00493
2313.57329,0.00471
2311.51312,0.00447
2309.45294,0.00430
2307.39277,0.00423
2305.33260,0.00430
2303.27243,0.00447
2301.21225,0.00464
2299.15208,0.00475
2297.09191,0.00487
2295.03174,0.00505
2292.97157,0.00523
2290.91139,0.00532
2288.85122,0.00535
2286.79105,0.00544
2284.73088,0.00561
2282.67071,0.00578
2280.61053,0.00586
2278.55036,0.00584
2276.49019,0.00565
2274.43002,0.00530
2272.36984,0.00488
2270.30967,0.00450
2268.24950,0.00428
2266.18933,0.00431
2264.12916,0.00455
2262.06898,0.00482
2260.00881,0.00494
2257.94864,0.00488
2255.88847,0.00470
2253.82830,0.00445
2251.76812,0.00424
2249.70795,0.00428
2247.64778,0.00463
2245.58761,0.00495
2243.52744,0.00494
2241.46726,0.00461
2239.40709,0.00416
2237.34692,0.00385
2235.28675,0.00359
2233.22657,0.00321
2231.16640,0.00292
2229.10623,0.00305
2227.04606,0.00357
2224.98589,0.00385
2222.92571,0.00345
2220.86554,0.00301
2218.80537,0.00305
2216.74520,0.00333
2214.68503,0.00370
2212.62485,0.00401
2210.56468,0.00414
2208.50451,0.00437
2206.44434,0.00475
2204.38417,0.00489
2202.32399,0.00479
2200.26382,0.00453
2198.20365,0.00401
2196.14348,0.00337
2194.08330,0.00311
2192.02313,0.00352
2189.96296,0.00426
2187.90279,0.00469
2185.84262,0.00463
2183.78244,0.00432
2181.72227,0.00413
2179.66210,0.00431
2177.60193,0.00456
2175.54176,0.00479
2173.48158,0.00530
2171.42141,0.00595
2169.36124,0.00649
2167.30107,0.00643
2165.24089,0.00521
2163.18072,0.00305
2161.12055,0.00097
2159.06038,0.00000
2157.00021,0.00043
2154.94003,0.00175
2152.87986,0.00307
2150.81969,0.00384
2148.75952,0.00426
2146.69935,0.00469
2144.63917,0.00484
2142.57900,0.00431
2140.51883,0.00327
2138.45866,0.00217
2136.39849,0.00146
2134.33831,0.00179
2132.27814,0.00329
2130.21797,0.00495
2128.15780,0.00567
2126.09762,0.00521
2124.03745,0.00411
2121.97728,0.00340
2119.91711,0.00351
2117.85694,0.00388
2115.79676,0.00395
2113.73659,0.00375
2111.67642,0.00371
2109.61625,0.00417
2107.55608,0.00495
2105.49590,0.00525
2103.43573,0.00452
2101.37556,0.00342
2099.31539,0.00284
2097.25521,0.00277
2095.19504,0.00292
2093.13487,0.00316
2091.07470,0.00339
2089.01453,0.00355
2086.95435,0.00363
2084.89418,0.00359
2082.83401,0.00345
2080.77384,0.00333
2078.71367,0.00330
2076.65349,0.00334
2074.59332,0.00343
2072.53315,0.00357
2070.47298,0.00366
2068.41281,0.00366
2066.35263,0.00365
2064.29246,0.00372
2062.23229,0.00382
2060.17212,0.00382
2058.11194,0.00366
2056.05177,0.00340
2053.99160,0.00317
2051.93143,0.00298
2049.87126,0.00279
2047.81108,0.00265
2045.75091,0.00273
2043.69074,0.00306
2041.63057,0.00345
2039.57040,0.00371
2037.51022,0.00371
2035.45005,0.00337
2033.38988,0.00268
2031.32971,0.00181
2029.26954,0.00116
2027.20936,0.00108
2025.14919,0.00156
2023.08902,0.00215
2021.02885,0.00237
2018.96867,0.00215
2016.90850,0.00176
2014.84833,0.00142
2012.78816,0.00130
2010.72799,0.00155
2008.66781,0.00209
2006.60764,0.00263
2004.54747,0.00285
2002.48730,0.00265
2000.42713,0.00233
1998.36695,0.00232
1996.30678,0.00269
1994.24661,0.00315
1992.18644,0.00322
1990.12626,0.00278
1988.06609,0.00213
1986.00592,0.00165
1983.94575,0.00144
1981.88558,0.00142
1979.82540,0.00170
1977.76523,0.00235
1975.70506,0.00302
1973.64489,0.00327
1971.58472,0.00298
1969.52454,0.00238
1967.46437,0.00184
1965.40420,0.00162
1963.34403,0.00171
1961.28386,0.00177
1959.22368,0.00146
1957.16351,0.00080
1955.10334,0.00018
1953.04317,0.00000
1950.98299,0.00028
1948.92282,0.00075
1946.86265,0.00113
1944.80248,0.00133
1942.74231,0.00130
1940.68213,0.00113
1938.62196,0.00108
1936.56179,0.00133
1934.50162,0.00168
1932.44145,0.00184
1930.38127,0.00172
1928.32110,0.00153
1926.26093,0.00148
1924.20076,0.00163
1922.14059,0.00186
1920.08041,0.00202
1918.02024,0.00208
1915.96007,0.00212
1913.89990,0.00220
1911.83972,0.00229
1909.77955,0.00229
1907.71938,0.00223
1905.65921,0.00224
1903.59904,0.00237
1901.53886,0.00249
1899.47869,0.00248
1897.41852,0.00235
1895.35835,0.00219
1893.29818,0.00211
1891.23800,0.00212
1889.17783,0.00216
1887.11766,0.00216
1885.05749,0.00213
1882.99731,0.00212
1880.93714,0.00213
1878.87697,0.00217
1876.81680,0.00222
1874.75663,0.00226
1872.69645,0.00221
1870.63628,0.00213
1868.57611,0.00204
1866.51594,0.00191
1864.45577,0.00173
1862.39559,0.00160
1860.33542,0.00161
1858.27525,0.00168
1856.21508,0.00172
1854.15491,0.00170
1852.09473,0.00165
1850.03456,0.00153
1847.97439,0.00136
1845.91422,0.00120
1843.85404,0.00118
1841.79387,0.00129
1839.73370,0.00146
1837.67353,0.00161
1835.61336,0.00173
1833.55318,0.00181
1831.49301,0.00182
1829.43284,0.00175
1827.37267,0.00159
1825.31250,0.00138
1823.25232,0.00125
1821.19215,0.00126
1819.13198,0.00142
1817.07181,0.00165
1815.01163,0.00180
1812.95146,0.00177
1810.89129,0.00163
1808.83112,0.00151
1806.77095,0.00147
1804.71077,0.00147
1802.65060,0.00145
1800.59043,0.00138
1798.53026,0.00123
1796.47009,0.00103
1794.40991,0.00084
1792.34974,0.00078
1790.28957,0.00087
1788.22940,0.00102
1786.16923,0.00110
1784.10905,0.00111
1782.04888,0.00111
1779.98871,0.00114
1777.92854,0.00118
1775.86836,0.00117
1773.80819,0.00112
1771.74802,0.00111
1769.68785,0.00119
1767.62768,0.00133
1765.56750,0.00149
1763.50733,0.00169
1761.44716,0.00196
1759.38699,0.00226
1757.32682,0.00256
1755.26664,0.00287
1753.20647,0.00316
1751.14630,0.00345
1749.08613,0.00374
1747.02596,0.00403
1744.96578,0.00429
1742.90561,0.00446
1740.84544,0.00452
1738.78527,0.00444
1736.72509,0.00429
1734.66492,0.00420
1732.60475,0.00430
1730.54458,0.00458
1728.48441,0.00486
1726.42423,0.00499
1724.36406,0.00497
1722.30389,0.00481
1720.24372,0.00453
1718.18355,0.00419
1716.12337,0.00389
1714.06320,0.00366
1712.00303,0.00348
1709.94286,0.00333
1707.88268,0.00320
1705.82251,0.00307
1703.76234,0.00292
1701.70217,0.00275
1699.64200,0.00261
1697.58182,0.00254
1695.52165,0.00256
1693.46148,0.00261
1691.40131,0.00264
1689.34114,0.00264
1687.28096,0.00263
1685.22079,0.00270
1683.16062,0.00290
1681.10045,0.00318
1679.04028,0.00346
1676.98010,0.00377
1674.91993,0.00422
1672.85976,0.00478
1670.79959,0.00530
1668.73941,0.00572
1666.67924,0.00602
1664.61907,0.00625
1662.55890,0.00650
1660.49873,0.00675
1658.43855,0.00695
1656.37838,0.00716
1654.31821,0.00750
1652.25804,0.00801
1650.19787,0.00849
1648.13769,0.00877
1646.07752,0.00890
1644.01735,0.00895
1641.95718,0.00894
1639.89701,0.00892
1637.83683,0.00897
1635.77666,0.00916
1633.71649,0.00946
1631.65632,0.00970
1629.59614,0.00980
1627.53597,0.00983
1625.47580,0.00988
1623.41563,0.00999
1621.35546,0.01013
1619.29528,0.01020
1617.23511,0.01019
1615.17494,0.01012
1613.11477,0.00998
1611.05460,0.00974
1608.99442,0.00941
1606.93425,0.00904
1604.87408,0.00870
1602.81391,0.00837
1600.75373,0.00799
1598.69356,0.00753
1596.63339,0.00699
1594.57322,0.00641
1592.51305,0.00584
1590.45287,0.00530
1588.39270,0.00480
1586.33253,0.00436
1584.27236,0.00394
1582.21219,0.00356
1580.15201,0.00323
1578.09184,0.00294
1576.03167,0.00268
1573.97150,0.00245
1571.91133,0.00224
1569.85115,0.00210
1567.79098,0.00202
1565.73081,0.00192
1563.67064,0.00169
1561.61046,0.00132
1559.55029,0.00103
1557.49012,0.00105
1555.42995,0.00127
1553.36978,0.00141
1551.30960,0.00134
1549.24943,0.00110
1547.18926,0.00079
1545.12909,0.00046
1543.06892,0.00019
1541.00874,0.00014
1538.94857,0.00031
1536.88840,0.00048
1534.82823,0.00054
1532.76805,0.00054
1530.70788,0.00054
1528.64771,0.00051
1526.58754,0.00044
1524.52737,0.00035
1522.46719,0.00030
1520.40702,0.00031
1518.34685,0.00033
1516.28668,0.00033
1514.22651,0.00026
1512.16633,0.00012
1510.10616,0.00000
1508.04599,0.00004
1505.98582,0.00027
1503.92565,0.00050
1501.86547,0.00063
1499.80530,0.00068
1497.74513,0.00072
1495.68496,0.00071
1493.62478,0.00063
1491.56461,0.00055
1489.50444,0.00059
1487.44427,0.00082
1485.38410,0.00109
1483.32392,0.00130
1481.26375,0.00143
1479.20358,0.00157
1477.14341,0.00177
1475.08324,0.00208
1473.02306,0.00249
1470.96289,0.00292
1468.90272,0.00326
1466.84255,0.00349
1464.78238,0.00366
1462.72220,0.00379
1460.66203,0.00386
1458.60186,0.00395
1456.54169,0.00415
1454.48151,0.00444
1452.42134,0.00472
1450.36117,0.00497
1448.30100,0.00522
1446.24083,0.00551
1444.18065,0.00578
1442.12048,0.00597
1440.06031,0.00609
1438.00014,0.00621
1435.93997,0.00642
1433.87979,0.00671
1431.81962,0.00701
1429.75945,0.00730
1427.69928,0.00757
1425.63910,0.00778
1423.57893,0.00790
1421.51876,0.00797
1419.45859,0.00805
1417.39842,0.00822
1415.33824,0.00843
1413.27807,0.00863
1411.21790,0.00874
1409.15773,0.00870
1407.09756,0.00851
1405.03738,0.00824
1402.97721,0.00796
1400.91704,0.00768
1398.85687,0.00742
1396.79670,0.00720
1394.73652,0.00707
1392.67635,0.00702
1390.61618,0.00704
1388.55601,0.00709
1386.49583,0.00719
1384.43566,0.00734
1382.37549,0.00752
1380.31532,0.00771
1378.25515,0.00786
1376.19497,0.00798
1374.13480,0.00809
1372.07463,0.00817
1370.01446,0.00816
1367.95429,0.00807
1365.89411,0.00799
1363.83394,0.00796
1361.77377,0.00794
1359.71360,0.00788
1357.65343,0.00777
1355.59325,0.00764
1353.53308,0.00749
1351.47291,0.00734
1349.41274,0.00718
1347.35256,0.00703
1345.29239,0.00692
1343.23222,0.00685
1341.17205,0.00681
1339.11188,0.00682
1337.05170,0.00684
1334.99153,0.00683
1332.93136,0.00679
1330.87119,0.00676
1328.81102,0.00675
1326.75084,0.00676
1324.69067,0.00679
1322.63050,0.00683
1320.57033,0.00686
1318.51015,0.00690
1316.44998,0.00696
1314.38981,0.00700
1312.32964,0.00703
1310.26947,0.00704
1308.20929,0.00698
1306.14912,0.00683
1304.08895,0.00660
1302.02878,0.00632
1299.96861,0.00609
1297.90843,0.00593
1295.84826,0.00585
1293.78809,0.00581
1291.72792,0.00575
1289.66775,0.00565
1287.60757,0.00550
1285.54740,0.00536
1283.48723,0.00527
1281.42706,0.00524
1279.36688,0.00527
1277.30671,0.00536
1275.24654,0.00552
1273.18637,0.00572
1271.12620,0.00593
1269.06602,0.00617
1267.00585,0.00646
1264.94568,0.00679
1262.88551,0.00715
1260.82534,0.00749
1258.76516,0.00778
1256.70499,0.00801
1254.64482,0.00820
1252.58465,0.00834
1250.52447,0.00846
1248.46430,0.00856
1246.40413,0.00861
1244.34396,0.00861
1242.28379,0.00857
1240.22361,0.00848
1238.16344,0.00830
1236.10327,0.00802
1234.04310,0.00766
1231.98293,0.00729
1229.92275,0.00697
1227.86258,0.00670
1225.80241,0.00648
1223.74224,0.00626
1221.68207,0.00603
1219.62189,0.00573
1217.56172,0.00533
1215.50155,0.00485
1213.44138,0.00435
1211.38120,0.00389
1209.32103,0.00348
1207.26086,0.00310
1205.20069,0.00272
1203.14052,0.00232
1201.08034,0.00192
1199.02017,0.00153
1196.96000,0.00113
1194.89983,0.00076
1192.83966,0.00043
1190.77948,0.00015
1188.71931,0.00000
1186.65914,-0.00001
1184.59897,0.00009
1182.53880,0.00021
1180.47862,0.00044
1178.41845,0.00088
1176.35828,0.00141
1174.29811,0.00198
1172.23793,0.00264
1170.17776,0.00336
1168.11759,0.00404
1166.05742,0.00474
1163.99725,0.00548
1161.93707,0.00616
1159.87690,0.00672
1157.81673,0.00726
1155.75656,0.00781
1153.69639,0.00833
1151.63621,0.00876
1149.57604,0.00910
1147.51587,0.00938
1145.45570,0.00966
1143.39552,0.01001
1141.33535,0.01042
1139.27518,0.01083
1137.21501,0.01111
1135.15484,0.01133
1133.09466,0.01162
1131.03449,0.01201
1128.97432,0.01243
1126.91415,0.01294
1124.85398,0.01357
1122.79380,0.01428
1120.73363,0.01498
1118.67346,0.01564
1116.61329,0.01636
1114.55312,0.01716
1112.49294,0.01799
1110.43277,0.01878
1108.37260,0.01955
1106.31243,0.02025
1104.25225,0.02084
1102.19208,0.02145
1100.13191,0.02239
1098.07174,0.02369
1096.01157,0.02504
1093.95139,0.02612
1091.89122,0.02685
1089.83105,0.02744
1087.77088,0.02813
1085.71071,0.02901
1083.65053,0.03006
1081.59036,0.03120
1079.53019,0.03224
1077.47002,0.03304
1075.40985,0.03368
1073.34967,0.03437
1071.28950,0.03519
1069.22933,0.03594
1067.16916,0.03641
1065.10898,0.03671
1063.04881,0.03709
1060.98864,0.03763
1058.92847,0.03813
1056.86830,0.03855
1054.80812,0.03896
1052.74795,0.03938
1050.68778,0.03975
1048.62761,0.04024
1046.56744,0.04101
1044.50726,0.04182
1042.44709,0.04240
1040.38692,0.04278
1038.32675,0.04310
1036.26657,0.04335
1034.20640,0.04345
1032.14623,0.04344
1030.08606,0.04343
1028.02589,0.04341
1025.96571,0.04332
1023.90554,0.04324
1021.84537,0.04319
1019.78520,0.04305
1017.72503,0.04273
1015.66485,0.04235
1013.60468,0.04205
1011.54451,0.04181
1009.48434,0.04146
1007.42417,0.04091
1005.36399,0.04029
1003.30382,0.03971
1001.24365,0.03907
999.18348,0.03820
997.12330,0.03715
995.06313,0.03627
993.00296,0.03586
990.94279,0.03571
988.88262,0.03540
986.82244,0.03476
984.76227,0.03391
982.70210,0.03319
980.64193,0.03276
978.58176,0.03237
976.52158,0.03169
974.46141,0.03083
972.40124,0.03017
970.34107,0.02980
968.28089,0.02944
966.22072,0.02898
964.16055,0.02846
962.10038,0.02778
960.04021,0.02703
957.98003,0.02633
955.91986,0.02560
953.85969,0.02489
951.79952,0.02448
949.73935,0.02422
947.67917,0.02360
945.61900,0.02249
943.55883,0.02121
941.49866,0.02006
939.43849,0.01906
937.37831,0.01803
935.31814,0.01688
933.25797,0.01572
931.19780,0.01468
929.13762,0.01380
927.07745,0.01307
925.01728,0.01238
922.95711,0.01181
920.89694,0.01146
918.83676,0.01112
916.77659,0.01067
914.71642,0.01034
912.65625,0.01019
910.59608,0.01007
908.53590,0.01003
906.47573,0.01015
904.41556,0.01030
902.35539,0.01033
900.29522,0.01031
898.23504,0.01041
896.17487,0.01075
894.11470,0.01115
892.05453,0.01140
889.99435,0.01150
887.93418,0.01157
885.87401,0.01154
883.81384,0.01136
881.75367,0.01126
879.69349,0.01134
877.63332,0.01120
875.57315,0.01066
873.51298,0.01027
871.45281,0.01037
869.39263,0.01066
867.33246,0.01067
865.27229,0.01053
863.21212,0.01047
861.15194,0.01027
859.09177,0.00982
857.03160,0.00956
854.97143,0.00974
852.91126,0.00992
850.85108,0.00957
848.79091,0.00865
846.73074,0.00763
844.67057,0.00698
842.61040,0.00648
840.55022,0.00571
838.49005,0.00486
836.42988,0.00425
834.36971,0.00368
832.30954,0.00282
830.24936,0.00170
828.18919,0.00064
826.12902,0.00000
824.06885,-0.00013
822.00867,0.00010
819.94850,0.00034
817.88833,0.00045
815.82816,0.00050
813.76799,0.00058
811.70781,0.00070
809.64764,0.00075
807.58747,0.00069
805.52730,0.00055
803.46713,0.00027
801.40695,0.00006
799.34678,0.00022
797.28661,0.00052
795.22644,0.00065
793.16627,0.00071
791.10609,0.00092
789.04592,0.00121
786.98575,0.00120
784.92558,0.00075
782.86540,0.00040
780.80523,0.00068
778.74506,0.00131
776.68489,0.00156
774.62472,0.00121
772.56454,0.00096
770.50437,0.00131
768.44420,0.00190
766.38403,0.00228
764.32386,0.00242
762.26368,0.00258
760.20351,0.00276
758.14334,0.00282
756.08317,0.00276
754.02299,0.00258
751.96282,0.00212
749.90265,0.00154
747.84248,0.00133
745.78231,0.00166
743.72213,0.00224
741.66196,0.00270
739.60179,0.00279
737.54162,0.00255
735.48145,0.00239
733.42127,0.00257
731.36110,0.00276
729.30093,0.00265
727.24076,0.00243
725.18059,0.00238
723.12041,0.00255
721.06024,0.00299
719.00007,0.00364
716.93990,0.00422
714.87972,0.00442
712.81955,0.00412
710.75938,0.00367
708.69921,0.00353
706.63904,0.00385
704.57886,0.00434
702.51869,0.00459
700.45852,0.00439
698.39835,0.00382
696.33818,0.00308
694.27800,0.00251
692.21783,0.00239
690.15766,0.00263
688.09749,0.00283
686.03731,0.00285
683.97714,0.00286
681.91697,0.00292
679.85680,0.00294
677.79663,0.00297
675.73645,0.00319
673.67628,0.00357
671.61611,0.00405
669.55594,0.00460
667.49577,0.00505
665.43559,0.00508
663.37542,0.00454
661.31525,0.00366
659.25508,0.00292
657.19491,0.00264
655.13473,0.00273
653.07456,0.00286
651.01439,0.00289
648.95422,0.00286
646.89404,0.00280
644.83387,0.00266
642.77370,0.00246
640.71353,0.00244
638.65336,0.00285
636.59318,0.00336
634.53301,0.00321
632.47284,0.00208
630.41267,0.00066
628.35250,0.00000
626.29232,0.00031
624.23215,0.00081
622.17198,0.00108
620.11181,0.00183
618.05164,0.00273
615.99146,0.00237
613.93129,0.00105
611.87112,0.00094
609.81095,0.00248
607.75077,0.00318
605.69060,0.00187
603.63043,0.00043
601.57026,0.00006
599.51009,0.00000
