3996.73391,0.00060
3994.67373,0.00048
3992.61356,0.00012
3990.55339,-0.00009
3988.49322,-0.00008
3986.43305,0.00013
3984.37287,0.00039
3982.31270,0.00056
3980.25253,0.00060
3978.19236,0.00061
3976.13219,0.00067
3974.07201,0.00065
3972.01184,0.00046
3969.95167,0.00032
3967.89150,0.00048
3965.83133,0.00086
3963.77115,0.00118
3961.71098,0.00103
3959.65081,0.00061
3957.59064,0.00049
3955.53046,0.00045
3953.47029,0.00026
3951.41012,0.00012
3949.34995,0.00009
3947.28978,0.00000
3945.22960,0.00031
3943.16943,0.00092
3941.10926,0.00088
3939.04909,0.00050
3936.98892,0.00029
3934.92874,0.00048
3932.86857,0.00100
3930.80840,0.00107
3928.74823,0.00060
3926.68805,0.00048
3924.62788,0.00052
3922.56771,0.00020
3920.50754,0.00040
3918.44737,0.00109
3916.38719,0.00125
3914.32702,0.00085
3912.26685,0.00054
3910.20668,0.00022
3908.14651,0.00007
3906.08633,0.00065
3904.02616,0.00119
3901.96599,0.00122
3899.90582,0.00146
3897.84565,0.00108
3895.78547,0.00050
3893.72530,0.00110
3891.66513,0.00176
3889.60496,0.00095
3887.54478,0.00068
3885.48461,0.00097
3883.42444,0.00050
3881.36427,0.00095
3879.30410,0.00092
3877.24392,0.00016
3875.18375,0.00025
3873.12358,0.00030
3871.06341,0.00075
3869.00324,0.00055
3866.94306,0.00001
3864.88289,0.00083
3862.82272,0.00115
3860.76255,0.00067
3858.70237,0.00034
3856.64220,0.00126
3854.58203,0.00329
3852.52186,0.00290
3850.46169,0.00064
3848.40151,0.00000
3846.34134,0.00051
3844.28117,0.00080
3842.22100,0.00044
3840.16083,0.00069
3838.10065,0.00124
3836.04048,0.00059
3833.98031,0.00014
3831.92014,0.00058
3829.85997,0.00098
3827.79979,0.00130
3825.73962,0.00083
3823.67945,0.00054
3821.61928,0.00107
3819.55910,0.00032
3817.49893,0.00077
3815.43876,0.00179
3813.37859,0.00114
3811.31842,0.00071
3809.25824,0.00128
3807.19807,0.00164
3805.13790,0.00088
3803.07773,0.00165
3801.01756,0.00245
3798.95738,0.00147
3796.89721,0.00147
3794.83704,0.00157
3792.77687,0.00145
3790.71670,0.00146
3788.65652,0.00131
3786.59635,0.00131
3784.53618,0.00129
3782.47601,0.00136
3780.41583,0.00216
3778.35566,0.00225
3776.29549,0.00137
3774.23532,0.00095
3772.17515,0.00143
3770.11497,0.00205
3768.05480,0.00182
3765.99463,0.00144
3763.93446,0.00081
3761.87429,0.00086
3759.81411,0.00160
3757.75394,0.00114
3755.69377,0.00018
3753.63360,0.00068
3751.57342,0.00182
3749.51325,0.00097
3747.45308,0.00020
3745.39291,0.00207
3743.33274,0.00221
3741.27256,0.00043
3739.21239,0.00020
3737.15222,0.00109
3735.09205,0.00155
3733.03188,0.00127
3730.97170,0.00057
3728.91153,0.00022
3726.85136,0.00078
3724.79119,0.00114
3722.73102,0.00128
3720.67084,0.00135
3718.61067,0.00105
3716.55050,0.00071
3714.49033,0.00132
3712.43015,0.00259
3710.36998,0.00268
3708.30981,0.00163
3706.24964,0.00097
3704.18947,0.00133
3702.12929,0.00205
3700.06912,0.00192
3698.00895,0.00153
3695.94878,0.00131
3693.88861,0.00109
3691.82843,0.00149
3689.76826,0.00222
3687.70809,0.00197
3685.64792,0.00121
3683.58775,0.00110
3681.52757,0.00108
3679.46740,0.00100
3677.40723,0.00182
3675.34706,0.00200
3673.28688,0.00000
3671.22671,0.00029
3669.16654,0.00134
3667.10637,0.00087
3665.04620,0.00106
3662.98602,0.00167
3660.92585,0.00170
3658.86568,0.00170
3656.80551,0.00195
3654.74534,0.00137
3652.68516,0.00139
3650.62499,0.00253
3648.56482,0.00263
3646.50465,0.00191
3644.44447,0.00163
3642.38430,0.00212
3640.32413,0.00253
3638.26396,0.00255
3636.20379,0.00246
3634.14361,0.00217
3632.08344,0.00199
3630.02327,0.00307
3627.96310,0.00317
3625.90293,0.00185
3623.84275,0.00185
3621.78258,0.00298
3619.72241,0.00361
3617.66224,0.00264
3615.60207,0.00195
3613.54189,0.00252
3611.48172,0.00295
3609.42155,0.00352
3607.36138,0.00387
3605.30120,0.00365
3603.24103,0.00394
3601.18086,0.00455
3599.12069,0.00480
3597.06052,0.00503
3595.00034,0.00508
3592.94017,0.00443
3590.88000,0.00415
3588.81983,0.00488
3586.75966,0.00503
3584.69948,0.00443
3582.63931,0.00464
3580.57914,0.00523
3578.51897,0.00539
3576.45879,0.00538
3574.39862,0.00533
3572.33845,0.00514
3570.27828,0.00540
3568.21811,0.00621
3566.15793,0.00620
3564.09776,0.00556
3562.03759,0.00566
3559.97742,0.00603
3557.91725,0.00609
3555.85707,0.00609
3553.79690,0.00628
3551.73673,0.00642
3549.67656,0.00658
3547.61639,0.00723
3545.55621,0.00773
3543.49604,0.00755
3541.43587,0.00733
3539.37570,0.00761
3537.31552,0.00821
3535.25535,0.00847
3533.19518,0.00835
3531.13501,0.00828
3529.07484,0.00826
3527.01466,0.00831
3524.95449,0.00850
3522.89432,0.00860
3520.83415,0.00865
3518.77398,0.00903
3516.71380,0.00941
3514.65363,0.00946
3512.59346,0.00949
3510.53329,0.00973
3508.47312,0.00970
3506.41294,0.00956
3504.35277,0.00992
3502.29260,0.01017
3500.23243,0.01011
3498.17225,0.01036
3496.11208,0.01078
3494.05191,0.01091
3491.99174,0.01085
3489.93157,0.01092
3487.87139,0.01107
3485.81122,0.01104
3483.75105,0.01114
3481.69088,0.01138
3479.63071,0.01143
3477.57053,0.01160
3475.51036,0.01184
3473.45019,0.01189
3471.39002,0.01192
3469.32984,0.01205
3467.26967,0.01224
3465.20950,0.01226
3463.14933,0.01209
3461.08916,0.01195
3459.02898,0.01210
3456.96881,0.01259
3454.90864,0.01319
3452.84847,0.01340
3450.78830,0.01308
3448.72812,0.01295
3446.66795,0.01309
3444.60778,0.01309
3442.54761,0.01322
3440.48744,0.01342
3438.42726,0.01363
3436.36709,0.01384
3434.30692,0.01404
3432.24675,0.01413
3430.18657,0.01412
3428.12640,0.01418
3426.06623,0.01424
3424.00606,0.01426
3421.94589,0.01428
3419.88571,0.01429
3417.82554,0.01448
3415.76537,0.01485
3413.70520,0.01509
3411.64503,0.01503
3409.58485,0.01478
3407.52468,0.01478
3405.46451,0.01504
3403.40434,0.01519
3401.34416,0.01518
3399.28399,0.01525
3397.22382,0.01546
3395.16365,0.01570
3393.10348,0.01581
3391.04330,0.01575
3388.98313,0.01572
3386.92296,0.01578
3384.86279,0.01584
3382.80262,0.01596
3380.74244,0.01614
3378.68227,0.01623
3376.62210,0.01622
3374.56193,0.01623
3372.50176,0.01623
3370.44158,0.01627
3368.38141,0.01636
3366.32124,0.01651
3364.26107,0.01659
3362.20089,0.01652
3360.14072,0.01639
3358.08055,0.01634
3356.02038,0.01642
3353.96021,0.01640
3351.90003,0.01640
3349.83986,0.01658
3347.77969,0.01686
3345.71952,0.01709
3343.65935,0.01718
3341.59917,0.01717
3339.53900,0.01716
3337.47883,0.01716
3335.41866,0.01701
3333.35849,0.01676
3331.29831,0.01673
3329.23814,0.01694
3327.17797,0.01714
3325.11780,0.01723
3323.05762,0.01719
3320.99745,0.01694
3318.93728,0.01676
3316.87711,0.01691
3314.81694,0.01727
3312.75676,0.01744
3310.69659,0.01726
3308.63642,0.01699
3306.57625,0.01698
3304.51608,0.01705
3302.45590,0.01693
3300.39573,0.01687
3298.33556,0.01700
3296.27539,0.01709
3294.21521,0.01705
3292.15504,0.01706
3290.09487,0.01731
3288.03470,0.01751
3285.97453,0.01753
3283.91435,0.01756
3281.85418,0.01748
3279.79401,0.01730
3277.73384,0.01727
3275.67367,0.01725
3273.61349,0.01704
3271.55332,0.01685
3269.49315,0.01684
3267.43298,0.01686
3265.37281,0.01690
3263.31263,0.01707
3261.25246,0.01714
3259.19229,0.01702
3257.13212,0.01697
3255.07194,0.01703
3253.01177,0.01698
3250.95160,0.01682
3248.89143,0.01680
3246.83126,0.01700
3244.77108,0.01707
3242.71091,0.01681
3240.65074,0.01651
3238.59057,0.01639
3236.53040,0.01640
3234.47022,0.01652
3232.41005,0.01671
3230.34988,0.01682
3228.28971,0.01681
3226.22954,0.01672
3224.16936,0.01654
3222.10919,0.01629
3220.04902,0.01604
3217.98885,0.01580
3215.92867,0.01582
3213.86850,0.01599
3211.80833,0.01595
3209.74816,0.01574
3207.68799,0.01549
3205.62781,0.01536
3203.56764,0.01536
3201.50747,0.01531
3199.44730,0.01519
3197.38713,0.01503
3195.32695,0.01491
3193.26678,0.01495
3191.20661,0.01498
3189.14644,0.01482
3187.08626,0.01461
3185.02609,0.01465
3182.96592,0.01488
3180.90575,0.01493
3178.84558,0.01472
3176.78540,0.01442
3174.72523,0.01429
3172.66506,0.01424
3170.60489,0.01413
3168.54472,0.01416
3166.48454,0.01426
3164.42437,0.01410
3162.36420,0.01377
3160.30403,0.01355
3158.24386,0.01346
3156.18368,0.01347
3154.12351,0.01352
3152.06334,0.01351
3150.00317,0.01341
3147.94299,0.01328
3145.88282,0.01314
3143.82265,0.01300
3141.76248,0.01289
3139.70231,0.01276
3137.64213,0.01257
3135.58196,0.01235
3133.52179,0.01221
3131.46162,0.01209
3129.40145,0.01199
3127.34127,0.01204
3125.28110,0.01210
3123.22093,0.01196
3121.16076,0.01175
3119.10058,0.01179
3117.04041,0.01199
3114.98024,0.01191
3112.92007,0.01164
3110.85990,0.01164
3108.79972,0.01178
3106.73955,0.01161
3104.67938,0.01124
3102.61921,0.01111
3100.55904,0.01111
3098.49886,0.01101
3096.43869,0.01079
3094.37852,0.01064
3092.31835,0.01071
3090.25818,0.01088
3088.19800,0.01093
3086.13783,0.01082
3084.07766,0.01067
3082.01749,0.01054
3079.95731,0.01035
3077.89714,0.01023
3075.83697,0.01024
3073.77680,0.01020
3071.71663,0.01011
3069.65645,0.01021
3067.59628,0.01034
3065.53611,0.01027
3063.47594,0.01014
3061.41577,0.00999
3059.35559,0.00975
3057.29542,0.00959
3055.23525,0.00959
3053.17508,0.00963
3051.11491,0.00965
3049.05473,0.00952
3046.99456,0.00931
3044.93439,0.00916
3042.87422,0.00907
3040.81404,0.00912
3038.75387,0.00920
3036.69370,0.00907
3034.63353,0.00883
3032.57336,0.00877
3030.51318,0.00885
3028.45301,0.00888
3026.39284,0.00891
3024.33267,0.00884
3022.27250,0.00869
3020.21232,0.00865
3018.15215,0.00874
3016.09198,0.00875
3014.03181,0.00853
3011.97163,0.00821
3009.91146,0.00805
3007.85129,0.00805
3005.79112,0.00814
3003.73095,0.00826
3001.67077,0.00830
2999.61060,0.00830
2997.55043,0.00833
2995.49026,0.00829
2993.43009,0.00821
2991.36991,0.00814
2989.30974,0.00812
2987.24957,0.00816
2985.18940,0.00823
2983.12923,0.00829
2981.06905,0.00831
2979.00888,0.00836
2976.94871,0.00843
2974.88854,0.00849
2972.82836,0.00855
2970.76819,0.00854
2968.70802,0.00846
2966.64785,0.00842
2964.58768,0.00852
2962.52750,0.00881
2960.46733,0.00904
2958.40716,0.00902
2956.34699,0.00891
2954.28682,0.00882
2952.22664,0.00894
2950.16647,0.00941
2948.10630,0.00990
2946.04613,0.01008
2943.98596,0.01003
2941.92578,0.00991
2939.86561,0.00978
2937.80544,0.00981
2935.74527,0.01001
2933.68509,0.01011
2931.62492,0.01022
2929.56475,0.01049
2927.50458,0.01061
2925.44441,0.01050
2923.38423,0.01037
2921.32406,0.01025
2919.26389,0.01016
2917.20372,0.01011
2915.14355,0.01003
2913.08337,0.00994
2911.02320,0.00978
2908.96303,0.00971
2906.90286,0.00983
2904.84268,0.00991
2902.78251,0.00986
2900.72234,0.00980
2898.66217,0.00976
2896.60200,0.00963
2894.54182,0.00959
2892.48165,0.00962
2890.42148,0.00948
2888.36131,0.00923
2886.30114,0.00911
2884.24096,0.00930
2882.18079,0.00965
2880.12062,0.00975
2878.06045,0.00950
2876.00028,0.00932
2873.94010,0.00931
2871.87993,0.00919
2869.81976,0.00894
2867.75959,0.00871
2865.69941,0.00859
2863.63924,0.00852
2861.57907,0.00852
2859.51890,0.00865
2857.45873,0.00882
2855.39855,0.00884
2853.33838,0.00869
2851.27821,0.00853
2849.21804,0.00848
2847.15787,0.00850
2845.09769,0.00845
2843.03752,0.00835
2840.97735,0.00829
2838.91718,0.00813
2836.85700,0.00791
2834.79683,0.00783
2832.73666,0.00787
2830.67649,0.00786
2828.61632,0.00771
2826.55614,0.00764
2824.49597,0.00775
2822.43580,0.00778
2820.37563,0.00766
2818.31546,0.00757
2816.25528,0.00747
2814.19511,0.00726
2812.13494,0.00727
2810.07477,0.00753
2808.01460,0.00761
2805.95442,0.00739
2803.89425,0.00716
2801.83408,0.00717
2799.77391,0.00733
2797.71373,0.00739
2795.65356,0.00732
2793.59339,0.00719
2791.53322,0.00704
2789.47305,0.00700
2787.41287,0.00717
2785.35270,0.00719
2783.29253,0.00690
2781.23236,0.00672
2779.17219,0.00680
2777.11201,0.00685
2775.05184,0.00677
2772.99167,0.00679
2770.93150,0.00687
2768.87133,0.00680
2766.81115,0.00682
2764.75098,0.00699
2762.69081,0.00696
2760.63064,0.00673
2758.57046,0.00660
2756.51029,0.00660
2754.45012,0.00665
2752.38995,0.00672
2750.32978,0.00673
2748.26960,0.00664
2746.20943,0.00661
2744.14926,0.00665
2742.08909,0.00663
2740.02892,0.00663
2737.96874,0.00671
2735.90857,0.00675
2733.84840,0.00672
2731.78823,0.00668
2729.72805,0.00663
2727.66788,0.00653
2725.60771,0.00649
2723.54754,0.00654
2721.48737,0.00658
2719.42719,0.00659
2717.36702,0.00650
2715.30685,0.00635
2713.24668,0.00627
2711.18651,0.00624
2709.12633,0.00629
2707.06616,0.00637
2705.00599,0.00642
2702.94582,0.00648
2700.88565,0.00649
2698.82547,0.00638
2696.76530,0.00634
2694.70513,0.00637
2692.64496,0.00636
2690.58478,0.00637
2688.52461,0.00635
2686.46444,0.00622
2684.40427,0.00606
2682.34410,0.00595
2680.28392,0.00599
2678.22375,0.00616
2676.16358,0.00627
2674.10341,0.00626
2672.04324,0.00625
2669.98306,0.00629
2667.92289,0.00633
2665.86272,0.00624
2663.80255,0.00602
2661.74238,0.00590
2659.68220,0.00598
2657.62203,0.00618
2655.56186,0.00627
2653.50169,0.00620
2651.44151,0.00616
2649.38134,0.00617
2647.32117,0.00624
2645.26100,0.00632
2643.20083,0.00631
2641.14065,0.00615
2639.08048,0.00599
2637.02031,0.00594
2634.96014,0.00593
2632.89997,0.00595
2630.83979,0.00592
2628.77962,0.00578
2626.71945,0.00572
2624.65928,0.00576
2622.59910,0.00571
2620.53893,0.00559
2618.47876,0.00548
2616.41859,0.00544
2614.35842,0.00559
2612.29824,0.00582
2610.23807,0.00583
2608.17790,0.00551
2606.11773,0.00515
2604.05756,0.00516
2601.99738,0.00540
2599.93721,0.00537
2597.87704,0.00509
2595.81687,0.00484
2593.75670,0.00482
2591.69652,0.00512
2589.63635,0.00538
2587.57618,0.00526
2585.51601,0.00488
2583.45583,0.00460
2581.39566,0.00468
2579.33549,0.00499
2577.27532,0.00515
2575.21515,0.00498
2573.15497,0.00467
2571.09480,0.00448
2569.03463,0.00454
2566.97446,0.00475
2564.91429,0.00490
2562.85411,0.00491
2560.79394,0.00501
2558.73377,0.00515
2556.67360,0.00518
2554.61342,0.00523
2552.55325,0.00514
2550.49308,0.00488
2548.43291,0.00483
2546.37274,0.00488
2544.31256,0.00472
2542.25239,0.00455
2540.19222,0.00453
2538.13205,0.00458
2536.07188,0.00478
2534.01170,0.00490
2531.95153,0.00464
2529.89136,0.00435
2527.83119,0.00419
2525.77102,0.00414
2523.71084,0.00430
2521.65067,0.00432
2519.59050,0.00414
2517.53033,0.00411
2515.47015,0.00420
2513.40998,0.00424
2511.34981,0.00431
2509.28964,0.00445
2507.22947,0.00460
2505.16929,0.00455
2503.10912,0.00434
2501.04895,0.00415
2498.98878,0.00403
2496.92861,0.00419
2494.86843,0.00443
2492.80826,0.00443
2490.74809,0.00432
2488.68792,0.00427
2486.62775,0.00417
2484.56757,0.00403
2482.50740,0.00405
2480.44723,0.00431
2478.38706,0.00453
2476.32688,0.00449
2474.26671,0.00439
2472.20654,0.00432
2470.14637,0.00418
2468.08620,0.00421
2466.02602,0.00455
2463.96585,0.00502
2461.90568,0.00516
2459.84551,0.00476
2457.78534,0.00425
2455.72516,0.00393
2453.66499,0.00392
2451.60482,0.00417
2449.54465,0.00423
2447.48447,0.00395
2445.42430,0.00380
2443.36413,0.00406
2441.30396,0.00445
2439.24379,0.00449
2437.18361,0.00423
2435.12344,0.00410
2433.06327,0.00406
2431.00310,0.00400
2428.94293,0.00405
2426.88275,0.00403
2424.82258,0.00379
2422.76241,0.00361
2420.70224,0.00372
2418.64207,0.00398
2416.58189,0.00418
2414.52172,0.00429
2412.46155,0.00419
2410.40138,0.00392
2408.34120,0.00369
2406.28103,0.00361
2404.22086,0.00354
2402.16069,0.00340
2400.10052,0.00337
2398.04034,0.00342
2395.98017,0.00363
2393.92000,0.00388
2391.85983,0.00391
2389.79966,0.00376
2387.73948,0.00371
2385.67931,0.00386
2383.61914,0.00405
2381.55897,0.00412
2379.49880,0.00404
2377.43862,0.00400
2375.37845,0.00394
2373.31828,0.00382
2371.25811,0.00332
2369.19793,0.00246
2367.13776,0.00263
2365.07759,0.00388
2363.01742,0.00363
2360.95725,0.00314
2358.89707,0.00262
2356.83690,0.00281
2354.77673,0.00316
2352.71656,0.00355
2350.65639,0.00554
2348.59621,0.00689
2346.53604,0.00441
2344.47587,0.00356
2342.41570,0.00375
2340.35552,0.00411
2338.29535,0.00471
2336.23518,0.00496
2334.17501,0.00509
2332.11484,0.00515
2330.05466,0.00525
2327.99449,0.00500
2325.93432,0.00519
2323.87415,0.00490
2321.81398,0.00467
2319.75380,0.00429
2317.69363,0.00437
2315.63346,0.00427
2313.57329,0.00427
2311.51312,0.00457
2309.45294,0.00479
2307.39277,0.00496
2305.33260,0.00512
2303.27243,0.00522
2301.21225,0.00512
2299.15208,0.00498
2297.09191,0.00465
2295.03174,0.00427
2292.97157,0.00416
2290.91139,0.00428
2288.85122,0.00455
2286.79105,0.00489
2284.73088,0.00507
2282.67071,0.00502
2280.61053,0.00462
2278.55036,0.00380
2276.49019,0.00297
2274.43002,0.00271
2272.36984,0.00299
2270.30967,0.00338
2268.24950,0.00334
2266.18933,0.00293
2264.12916,0.00285
2262.06898,0.00333
2260.00881,0.00362
2257.94864,0.00348
2255.88847,0.00332
2253.82830,0.00332
2251.76812,0.00346
2249.70795,0.00377
2247.64778,0.00406
2245.58761,0.00398
2243.52744,0.00377
2241.46726,0.00348
2239.40709,0.00316
2237.34692,0.00301
2235.28675,0.00305
2233.22657,0.00313
2231.16640,0.00305
2229.10623,0.00312
2227.04606,0.00320
2224.98589,0.00297
2222.92571,0.00295
2220.86554,0.00292
2218.80537,0.00230
2216.74520,0.00215
2214.68503,0.00283
2212.62485,0.00307
2210.56468,0.00293
2208.50451,0.00313
2206.44434,0.00334
2204.38417,0.00321
2202.32399,0.00340
2200.26382,0.00428
2198.20365,0.00449
2196.14348,0.00362
2194.08330,0.00316
2192.02313,0.00326
2189.96296,0.00303
2187.90279,0.00256
2185.84262,0.00240
2183.78244,0.00239
2181.72227,0.00207
2179.66210,0.00191
2177.60193,0.00236
2175.54176,0.00279
2173.48158,0.00275
2171.42141,0.00319
2169.36124,0.00415
2167.30107,0.00444
2165.24089,0.00451
2163.18072,0.00499
2161.12055,0.00448
2159.06038,0.00301
2157.00021,0.00271
2154.94003,0.00304
2152.87986,0.00305
2150.81969,0.00279
2148.75952,0.00189
2146.69935,0.00099
2144.63917,0.00142
2142.57900,0.00261
2140.51883,0.00306
2138.45866,0.00286
2136.39849,0.00234
2134.33831,0.00160
2132.27814,0.00137
2130.21797,0.00183
2128.15780,0.00232
2126.09762,0.00232
2124.03745,0.00205
2121.97728,0.00204
2119.91711,0.00231
2117.85694,0.00264
2115.79676,0.00296
2113.73659,0.00308
2111.67642,0.00285
2109.61625,0.00238
2107.55608,0.00205
2105.49590,0.00218
2103.43573,0.00247
2101.37556,0.00254
2099.31539,0.00268
2097.25521,0.00313
2095.19504,0.00340
2093.13487,0.00329
2091.07470,0.00317
2089.01453,0.00316
2086.95435,0.00309
2084.89418,0.00283
2082.83401,0.00252
2080.77384,0.00266
2078.71367,0.00320
2076.65349,0.00348
2074.59332,0.00317
2072.53315,0.00252
2070.47298,0.00219
2068.41281,0.00222
2066.35263,0.00186
2064.29246,0.00152
2062.23229,0.00214
2060.17212,0.00289
2058.11194,0.00260
2056.05177,0.00197
2053.99160,0.00184
2051.93143,0.00165
2049.87126,0.00115
2047.81108,0.00131
2045.75091,0.00228
2043.69074,0.00321
2041.63057,0.00402
2039.57040,0.00434
2037.51022,0.00312
2035.45005,0.00127
2033.38988,0.00127
2031.32971,0.00297
2029.26954,0.00392
2027.20936,0.00331
2025.14919,0.00201
2023.08902,0.00098
2021.02885,0.00098
2018.96867,0.00187
2016.90850,0.00229
2014.84833,0.00217
2012.78816,0.00285
2010.72799,0.00345
2008.66781,0.00282
2006.60764,0.00188
2004.54747,0.00120
2002.48730,0.00095
2000.42713,0.00143
1998.36695,0.00162
1996.30678,0.00110
1994.24661,0.00117
1992.18644,0.00200
1990.12626,0.00256
1988.06609,0.00285
1986.00592,0.00292
1983.94575,0.00331
1981.88558,0.00416
1979.82540,0.00393
1977.76523,0.00200
1975.70506,0.00008
1973.64489,0.00000
1971.58472,0.00138
1969.52454,0.00287
1967.46437,0.00350
1965.40420,0.00285
1963.34403,0.00206
1961.28386,0.00170
1959.22368,0.00139
1957.16351,0.00118
1955.10334,0.00118
1953.04317,0.00142
1950.98299,0.00177
1948.92282,0.00175
1946.86265,0.00119
1944.80248,0.00080
1942.74231,0.00096
1940.68213,0.00089
1938.62196,0.00088
1936.56179,0.00142
1934.50162,0.00214
1932.44145,0.00251
1930.38127,0.00252
1928.32110,0.00227
1926.26093,0.00180
1924.20076,0.00171
1922.14059,0.00169
1920.08041,0.00191
1918.02024,0.00266
1915.96007,0.00257
1913.89990,0.00188
1911.83972,0.00148
1909.77955,0.00142
1907.71938,0.00128
1905.65921,0.00137
1903.59904,0.00192
1901.53886,0.00232
1899.47869,0.00232
1897.41852,0.00227
1895.35835,0.00205
1893.29818,0.00153
1891.23800,0.00159
1889.17783,0.00194
1887.11766,0.00189
1885.05749,0.00189
1882.99731,0.00193
1880.93714,0.00197
1878.87697,0.00189
1876.81680,0.00166
1874.75663,0.00157
1872.69645,0.00164
1870.63628,0.00195
1868.57611,0.00200
1866.51594,0.00140
1864.45577,0.00114
1862.39559,0.00134
1860.33542,0.00144
1858.27525,0.00153
1856.21508,0.00178
1854.15491,0.00196
1852.09473,0.00187
1850.03456,0.00165
1847.97439,0.00151
1845.91422,0.00189
1843.85404,0.00229
1841.79387,0.00169
1839.73370,0.00146
1837.67353,0.00180
1835.61336,0.00175
1833.55318,0.00146
1831.49301,0.00173
1829.43284,0.00179
1827.37267,0.00142
1825.31250,0.00167
1823.25232,0.00163
1821.19215,0.00143
1819.13198,0.00174
1817.07181,0.00199
1815.01163,0.00175
1812.95146,0.00161
1810.89129,0.00179
1808.83112,0.00177
1806.77095,0.00170
1804.71077,0.00176
1802.65060,0.00190
1800.59043,0.00177
1798.53026,0.00117
1796.47009,0.00069
1794.40991,0.00107
1792.34974,0.00176
1790.28957,0.00129
1788.22940,0.00082
1786.16923,0.00116
1784.10905,0.00130
1782.04888,0.00140
1779.98871,0.00149
1777.92854,0.00096
1775.86836,0.00063
1773.80819,0.00124
1771.74802,0.00169
1769.68785,0.00139
1767.62768,0.00137
1765.56750,0.00139
1763.50733,0.00205
1761.44716,0.00259
1759.38699,0.00238
1757.32682,0.00254
1755.26664,0.00228
1753.20647,0.00229
1751.14630,0.00315
1749.08613,0.00341
1747.02596,0.00324
1744.96578,0.00343
1742.90561,0.00396
1740.84544,0.00449
1738.78527,0.00410
1736.72509,0.00406
1734.66492,0.00563
1732.60475,0.00555
1730.54458,0.00481
1728.48441,0.00493
1726.42423,0.00515
1724.36406,0.00525
1722.30389,0.00468
1720.24372,0.00466
1718.18355,0.00557
1716.12337,0.00505
1714.06320,0.00386
1712.00303,0.00332
1709.94286,0.00333
1707.88268,0.00363
1705.82251,0.00338
1703.76234,0.00221
1701.70217,0.00247
1699.64200,0.00264
1697.58182,0.00212
1695.52165,0.00275
1693.46148,0.00231
1691.40131,0.00229
1689.34114,0.00250
1687.28096,0.00257
1685.22079,0.00411
1683.16062,0.00423
1681.10045,0.00276
1679.04028,0.00253
1676.98010,0.00357
1674.91993,0.00412
1672.85976,0.00356
1670.79959,0.00437
1668.73941,0.00486
1666.67924,0.00392
1664.61907,0.00436
1662.55890,0.00544
1660.49873,0.00496
1658.43855,0.00416
1656.37838,0.00491
1654.31821,0.00747
1652.25804,0.00685
1650.19787,0.00419
1648.13769,0.00555
1646.07752,0.00732
1644.01735,0.00670
1641.95718,0.00632
1639.89701,0.00652
1637.83683,0.00767
1635.77666,0.00907
1633.71649,0.00811
1631.65632,0.00730
1629.59614,0.00791
1627.53597,0.00809
1625.47580,0.00813
1623.41563,0.00870
1621.35546,0.00825
1619.29528,0.00851
1617.23511,0.01003
1615.17494,0.00966
1613.11477,0.00874
1611.05460,0.00911
1608.99442,0.00955
1606.93425,0.00935
1604.87408,0.00904
1602.81391,0.00890
1600.75373,0.00865
1598.69356,0.00840
1596.63339,0.00830
1594.57322,0.00805
1592.51305,0.00754
1590.45287,0.00706
1588.39270,0.00670
1586.33253,0.00644
1584.27236,0.00613
1582.21219,0.00549
1580.15201,0.00474
1578.09184,0.00507
1576.03167,0.00527
1573.97150,0.00358
1571.91133,0.00339
1569.85115,0.00461
1567.79098,0.00403
1565.73081,0.00299
1563.67064,0.00215
1561.61046,0.00287
1559.55029,0.00513
1557.49012,0.00314
1555.42995,0.00113
1553.36978,0.00152
1551.30960,0.00231
1549.24943,0.00245
1547.18926,0.00191
1545.12909,0.00174
1543.06892,0.00195
1541.00874,0.00306
1538.94857,0.00248
1536.88840,0.00042
1534.82823,0.00115
1532.76805,0.00210
1530.70788,0.00125
1528.64771,0.00125
1526.58754,0.00145
1524.52737,0.00104
1522.46719,0.00152
1520.40702,0.00136
1518.34685,0.00092
1516.28668,0.00125
1514.22651,0.00072
1512.16633,0.00000
1510.10616,0.00031
1508.04599,0.00248
1505.98582,0.00288
1503.92565,0.00063
1501.86547,0.00011
1499.80530,0.00132
1497.74513,0.00239
1495.68496,0.00193
1493.62478,0.00091
1491.56461,0.00148
1489.50444,0.00232
1487.44427,0.00192
1485.38410,0.00153
1483.32392,0.00188
1481.26375,0.00230
1479.20358,0.00215
1477.14341,0.00210
1475.08324,0.00259
1473.02306,0.00338
1470.96289,0.00288
1468.90272,0.00224
1466.84255,0.00326
1464.78238,0.00406
1462.72220,0.00305
1460.66203,0.00288
1458.60186,0.00479
1456.54169,0.00548
1454.48151,0.00401
1452.42134,0.00376
1450.36117,0.00465
1448.30100,0.00542
1446.24083,0.00547
1444.18065,0.00538
1442.12048,0.00532
1440.06031,0.00520
1438.00014,0.00600
1435.93997,0.00629
1433.87979,0.00533
1431.81962,0.00554
1429.75945,0.00633
1427.69928,0.00644
1425.63910,0.00665
1423.57893,0.00670
1421.51876,0.00690
1419.45859,0.00788
1417.39842,0.00774
1415.33824,0.00726
1413.27807,0.00765
1411.21790,0.00803
1409.15773,0.00789
1407.09756,0.00781
1405.03738,0.00774
1402.97721,0.00713
1400.91704,0.00697
1398.85687,0.00714
1396.79670,0.00703
1394.73652,0.00702
1392.67635,0.00643
1390.61618,0.00610
1388.55601,0.00673
1386.49583,0.00705
1384.43566,0.00686
1382.37549,0.00705
1380.31532,0.00730
1378.25515,0.00729
1376.19497,0.00753
1374.13480,0.00792
1372.07463,0.00781
1370.01446,0.00784
1367.95429,0.00785
1365.89411,0.00763
1363.83394,0.00779
1361.77377,0.00760
1359.71360,0.00694
1357.65343,0.00679
1355.59325,0.00698
1353.53308,0.00697
1351.47291,0.00684
1349.41274,0.00679
1347.35256,0.00667
1345.29239,0.00640
1343.23222,0.00611
1341.17205,0.00617
1339.11188,0.00631
1337.05170,0.00610
1334.99153,0.00599
1332.93136,0.00613
1330.87119,0.00633
1328.81102,0.00648
1326.75084,0.00653
1324.69067,0.00645
1322.63050,0.00629
1320.57033,0.00623
1318.51015,0.00613
1316.44998,0.00599
1314.38981,0.00610
1312.32964,0.00621
1310.26947,0.00614
1308.20929,0.00609
1306.14912,0.00596
1304.08895,0.00578
1302.02878,0.00569
1299.96861,0.00565
1297.90843,0.00556
1295.84826,0.00537
1293.78809,0.00523
1291.72792,0.00518
1289.66775,0.00513
1287.60757,0.00498
1285.54740,0.00480
1283.48723,0.00476
1281.42706,0.00480
1279.36688,0.00482
1277.30671,0.00482
1275.24654,0.00484
1273.18637,0.00495
1271.12620,0.00518
1269.06602,0.00555
1267.00585,0.00603
1264.94568,0.00639
1262.88551,0.00662
1260.82534,0.00689
1258.76516,0.00721
1256.70499,0.00750
1254.64482,0.00767
1252.58465,0.00778
1250.52447,0.00797
1248.46430,0.00819
1246.40413,0.00838
1244.34396,0.00848
1242.28379,0.00837
1240.22361,0.00813
1238.16344,0.00786
1236.10327,0.00776
1234.04310,0.00769
1231.98293,0.00744
1229.92275,0.00717
1227.86258,0.00690
1225.80241,0.00652
1223.74224,0.00615
1221.68207,0.00586
1219.62189,0.00556
1217.56172,0.00524
1215.50155,0.00490
1213.44138,0.00449
1211.38120,0.00407
1209.32103,0.00368
1207.26086,0.00318
1205.20069,0.00257
1203.14052,0.00206
1201.08034,0.00168
1199.02017,0.00139
1196.96000,0.00115
1194.89983,0.00091
1192.83966,0.00057
1190.77948,0.00023
1188.71931,0.00004
1186.65914,0.00000
1184.59897,0.00005
1182.53880,0.00024
1180.47862,0.00043
1178.41845,0.00048
1176.35828,0.00052
1174.29811,0.00082
1172.23793,0.00138
1170.17776,0.00214
1168.11759,0.00298
1166.05742,0.00365
1163.99725,0.00414
1161.93707,0.00459
1159.87690,0.00507
1157.81673,0.00546
1155.75656,0.00576
1153.69639,0.00618
1151.63621,0.00673
1149.57604,0.00722
1147.51587,0.00758
1145.45570,0.00790
1143.39552,0.00821
1141.33535,0.00842
1139.27518,0.00846
1137.21501,0.00841
1135.15484,0.00851
1133.09466,0.00889
1131.03449,0.00938
1128.97432,0.00980
1126.91415,0.01016
1124.85398,0.01058
1122.79380,0.01109
1120.73363,0.01164
1118.67346,0.01213
1116.61329,0.01248
1114.55312,0.01284
1112.49294,0.01336
1110.43277,0.01385
1108.37260,0.01427
1106.31243,0.01478
1104.25225,0.01538
1102.19208,0.01610
1100.13191,0.01706
1098.07174,0.01819
1096.01157,0.01924
1093.95139,0.02010
1091.89122,0.02096
1089.83105,0.02206
1087.77088,0.02310
1085.71071,0.02365
1083.65053,0.02398
1081.59036,0.02467
1079.53019,0.02563
1077.47002,0.02641
1075.40985,0.02717
1073.34967,0.02812
1071.28950,0.02893
1069.22933,0.02946
1067.16916,0.02983
1065.10898,0.03005
1063.04881,0.03030
1060.98864,0.03081
1058.92847,0.03146
1056.86830,0.03203
1054.80812,0.03256
1052.74795,0.03322
1050.68778,0.03394
1048.62761,0.03459
1046.56744,0.03532
1044.50726,0.03606
1042.44709,0.03653
1040.38692,0.03678
1038.32675,0.03699
1036.26657,0.03713
1034.20640,0.03717
1032.14623,0.03712
1030.08606,0.03683
1028.02589,0.03624
1025.96571,0.03563
1023.90554,0.03523
1021.84537,0.03492
1019.78520,0.03466
1017.72503,0.03461
1015.66485,0.03465
1013.60468,0.03460
1011.54451,0.03424
1009.48434,0.03357
1007.42417,0.03295
1005.36399,0.03241
1003.30382,0.03170
1001.24365,0.03085
999.18348,0.02998
997.12330,0.02915
995.06313,0.02853
993.00296,0.02802
990.94279,0.02741
988.88262,0.02690
986.82244,0.02655
984.76227,0.02613
982.70210,0.02567
980.64193,0.02529
978.58176,0.02503
976.52158,0.02481
974.46141,0.02446
972.40124,0.02384
970.34107,0.02301
968.28089,0.02222
966.22072,0.02144
964.16055,0.02066
962.10038,0.02002
960.04021,0.01950
957.98003,0.01901
955.91986,0.01842
953.85969,0.01765
951.79952,0.01693
949.73935,0.01653
947.67917,0.01626
945.61900,0.01566
943.55883,0.01464
941.49866,0.01354
939.43849,0.01267
937.37831,0.01181
935.31814,0.01064
933.25797,0.00929
931.19780,0.00835
929.13762,0.00791
927.07745,0.00751
925.01728,0.00706
922.95711,0.00669
920.89694,0.00648
918.83676,0.00629
916.77659,0.00584
914.71642,0.00511
912.65625,0.00456
910.59608,0.00451
908.53590,0.00466
906.47573,0.00465
904.41556,0.00454
902.35539,0.00464
900.29522,0.00483
898.23504,0.00478
896.17487,0.00461
894.11470,0.00465
892.05453,0.00483
889.99435,0.00487
887.93418,0.00464
885.87401,0.00416
883.81384,0.00368
881.75367,0.00354
879.69349,0.00358
877.63332,0.00343
875.57315,0.00328
873.51298,0.00327
871.45281,0.00313
869.39263,0.00301
867.33246,0.00295
865.27229,0.00264
863.21212,0.00222
861.15194,0.00198
859.09177,0.00178
857.03160,0.00166
854.97143,0.00170
852.91126,0.00179
850.85108,0.00186
848.79091,0.00184
846.73074,0.00172
844.67057,0.00158
842.61040,0.00157
840.55022,0.00145
838.49005,0.00097
836.42988,0.00059
834.36971,0.00079
832.30954,0.00106
830.24936,0.00089
828.18919,0.00062
826.12902,0.00048
824.06885,0.00027
822.00867,0.00004
819.94850,0.00014
817.88833,0.00046
815.82816,0.00052
813.76799,0.00045
811.70781,0.00065
809.64764,0.00108
807.58747,0.00146
805.52730,0.00160
803.46713,0.00132
801.40695,0.00083
799.34678,0.00066
797.28661,0.00079
795.22644,0.00086
793.16627,0.00063
791.10609,0.00033
789.04592,0.00047
786.98575,0.00084
784.92558,0.00079
782.86540,0.00056
780.80523,0.00061
778.74506,0.00067
776.68489,0.00051
774.62472,0.00047
772.56454,0.00068
770.50437,0.00079
768.44420,0.00077
766.38403,0.00096
764.32386,0.00151
762.26368,0.00193
760.20351,0.00176
758.14334,0.00136
756.08317,0.00128
754.02299,0.00139
751.96282,0.00126
749.90265,0.00118
747.84248,0.00112
745.78231,0.00059
743.72213,0.00000
741.66196,0.00009
739.60179,0.00044
737.54162,0.00029
735.48145,0.00027
733.42127,0.00074
731.36110,0.00082
729.30093,0.00044
727.24076,0.00041
725.18059,0.00042
723.12041,0.00024
721.06024,-0.00002
719.00007,0.00067
716.93990,0.00121
714.87972,0.00126
712.81955,0.00136
710.75938,0.00159
708.69921,0.00172
706.63904,0.00169
704.57886,0.00178
702.51869,0.00218
700.45852,0.00288
698.39835,0.00361
696.33818,0.00365
694.27800,0.00268
692.21783,0.00154
690.15766,0.00103
688.09749,0.00113
686.03731,0.00184
683.97714,0.00293
681.91697,0.00350
679.85680,0.00310
677.79663,0.00227
675.73645,0.00164
673.67628,0.00199
671.61611,0.00339
669.55594,0.00147
667.49577,-0.00067
665.43559,0.00515
663.37542,0.00401
661.31525,0.00194
659.25508,0.00163
657.19491,0.00216
655.13473,0.00265
653.07456,0.00253
651.01439,0.00177
648.95422,0.00062
646.89404,0.00000
644.83387,-0.00008
642.77370,0.00038
640.71353,0.00091
638.65336,0.00097
636.59318,0.00025
634.53301,-0.00085
632.47284,-0.00162
630.41267,-0.00205
628.35250,-0.00259
626.29232,-0.00253
624.23215,-0.00131
622.17198,-0.00081
620.11181,-0.00156
618.05164,-0.00192
615.99146,-0.00063
613.93129,0.00037
611.87112,-0.00109
609.81095,-0.00311
607.75077,-0.00371
605.69060,-0.00319
603.63043,-0.00159
601.57026,0.00004
599.51009,0.00000
