3996.73391,-0.00061
3994.67373,-0.00033
3992.61356,-0.00013
3990.55339,-0.00010
3988.49322,-0.00026
3986.43305,-0.00054
3984.37287,-0.00071
3982.31270,-0.00062
3980.25253,-0.00029
3978.19236,0.00011
3976.13219,0.00037
3974.07201,0.00043
3972.01184,0.00039
3969.95167,0.00032
3967.89150,0.00029
3965.83133,0.00037
3963.77115,0.00053
3961.71098,0.00064
3959.65081,0.00059
3957.59064,0.00037
3955.53046,0.00011
3953.47029,0.00000
3951.41012,0.00018
3949.34995,0.00060
3947.28978,0.00107
3945.22960,0.00143
3943.16943,0.00162
3941.10926,0.00163
3939.04909,0.00152
3936.98892,0.00140
3934.92874,0.00139
3932.86857,0.00151
3930.80840,0.00167
3928.74823,0.00181
3926.68805,0.00192
3924.62788,0.00201
3922.56771,0.00208
3920.50754,0.00216
3918.44737,0.00230
3916.38719,0.00242
3914.32702,0.00235
3912.26685,0.00212
3910.20668,0.00198
3908.14651,0.00219
3906.08633,0.00281
3904.02616,0.00361
3901.96599,0.00418
3899.90582,0.00424
3897.84565,0.00388
3895.78547,0.00347
3893.72530,0.00331
3891.66513,0.00340
3889.60496,0.00349
3887.54478,0.00352
3885.48461,0.00363
3883.42444,0.00378
3881.36427,0.00371
3879.30410,0.00336
3877.24392,0.00300
3875.18375,0.00297
3873.12358,0.00331
3871.06341,0.00379
3869.00324,0.00416
3866.94306,0.00432
3864.88289,0.00437
3862.82272,0.00439
3860.76255,0.00444
3858.70237,0.00462
3856.64220,0.00500
3854.58203,0.00543
3852.52186,0.00556
3850.46169,0.00524
3848.40151,0.00487
3846.34134,0.00482
3844.28117,0.00516
3842.22100,0.00563
3840.16083,0.00590
3838.10065,0.00590
3836.04048,0.00573
3833.98031,0.00552
3831.92014,0.00531
3829.85997,0.00513
3827.79979,0.00502
3825.73962,0.00507
3823.67945,0.00533
3821.61928,0.00565
3819.55910,0.00572
3817.49893,0.00544
3815.43876,0.00504
3813.37859,0.00468
3811.31842,0.00444
3809.25824,0.00447
3807.19807,0.00475
3805.13790,0.00511
3803.07773,0.00545
3801.01756,0.00569
3798.95738,0.00568
3796.89721,0.00540
3794.83704,0.00502
3792.77687,0.00473
3790.71670,0.00463
3788.65652,0.00473
3786.59635,0.00500
3784.53618,0.00531
3782.47601,0.00554
3780.41583,0.00563
3778.35566,0.00560
3776.29549,0.00556
3774.23532,0.00567
3772.17515,0.00605
3770.11497,0.00663
3768.05480,0.00710
3765.99463,0.00723
3763.93446,0.00704
3761.87429,0.00678
3759.81411,0.00670
3757.75394,0.00696
3755.69377,0.00768
3753.63360,0.00880
3751.57342,0.00988
3749.51325,0.01037
3747.45308,0.01035
3745.39291,0.01025
3743.33274,0.01011
3741.27256,0.00985
3739.21239,0.00968
3737.15222,0.00984
3735.09205,0.01022
3733.03188,0.01032
3730.97170,0.00986
3728.91153,0.00921
3726.85136,0.00884
3724.79119,0.00873
3722.73102,0.00859
3720.67084,0.00830
3718.61067,0.00802
3716.55050,0.00800
3714.49033,0.00831
3712.43015,0.00872
3710.36998,0.00883
3708.30981,0.00850
3706.24964,0.00804
3704.18947,0.00782
3702.12929,0.00789
3700.06912,0.00800
3698.00895,0.00795
3695.94878,0.00785
3693.88861,0.00798
3691.82843,0.00849
3689.76826,0.00912
3687.70809,0.00940
3685.64792,0.00919
3683.58775,0.00878
3681.52757,0.00858
3679.46740,0.00880
3677.40723,0.00942
3675.34706,0.01018
3673.28688,0.01066
3671.22671,0.01066
3669.16654,0.01014
3667.10637,0.00927
3665.04620,0.00848
3662.98602,0.00811
3660.92585,0.00820
3658.86568,0.00862
3656.80551,0.00914
3654.74534,0.00959
3652.68516,0.00996
3650.62499,0.01027
3648.56482,0.01032
3646.50465,0.00987
3644.44447,0.00905
3642.38430,0.00827
3640.32413,0.00778
3638.26396,0.00760
3636.20379,0.00769
3634.14361,0.00807
3632.08344,0.00866
3630.02327,0.00924
3627.96310,0.00940
3625.90293,0.00898
3623.84275,0.00826
3621.78258,0.00767
3619.72241,0.00735
3617.66224,0.00721
3615.60207,0.00718
3613.54189,0.00720
3611.48172,0.00724
3609.42155,0.00731
3607.36138,0.00741
3605.30120,0.00756
3603.24103,0.00775
3601.18086,0.00789
3599.12069,0.00778
3597.06052,0.00739
3595.00034,0.00685
3592.94017,0.00632
3590.88000,0.00607
3588.81983,0.00628
3586.75966,0.00676
3584.69948,0.00705
3582.63931,0.00699
3580.57914,0.00671
3578.51897,0.00630
3576.45879,0.00582
3574.39862,0.00545
3572.33845,0.00531
3570.27828,0.00547
3568.21811,0.00586
3566.15793,0.00613
3564.09776,0.00600
3562.03759,0.00561
3559.97742,0.00527
3557.91725,0.00507
3555.85707,0.00489
3553.79690,0.00470
3551.73673,0.00455
3549.67656,0.00458
3547.61639,0.00481
3545.55621,0.00508
3543.49604,0.00520
3541.43587,0.00512
3539.37570,0.00496
3537.31552,0.00476
3535.25535,0.00458
3533.19518,0.00449
3531.13501,0.00455
3529.07484,0.00470
3527.01466,0.00472
3524.95449,0.00449
3522.89432,0.00412
3520.83415,0.00377
3518.77398,0.00355
3516.71380,0.00346
3514.65363,0.00339
3512.59346,0.00323
3510.53329,0.00294
3508.47312,0.00268
3506.41294,0.00267
3504.35277,0.00293
3502.29260,0.00321
3500.23243,0.00334
3498.17225,0.00330
3496.11208,0.00320
3494.05191,0.00305
3491.99174,0.00287
3489.93157,0.00271
3487.87139,0.00258
3485.81122,0.00245
3483.75105,0.00227
3481.69088,0.00206
3479.63071,0.00188
3477.57053,0.00184
3475.51036,0.00200
3473.45019,0.00223
3471.39002,0.00235
3469.32984,0.00230
3467.26967,0.00219
3465.20950,0.00210
3463.14933,0.00200
3461.08916,0.00187
3459.02898,0.00168
3456.96881,0.00148
3454.90864,0.00128
3452.84847,0.00115
3450.78830,0.00116
3448.72812,0.00132
3446.66795,0.00151
3444.60778,0.00160
3442.54761,0.00157
3440.48744,0.00151
3438.42726,0.00148
3436.36709,0.00148
3434.30692,0.00148
3432.24675,0.00140
3430.18657,0.00120
3428.12640,0.00090
3426.06623,0.00058
3424.00606,0.00040
3421.94589,0.00039
3419.88571,0.00047
3417.82554,0.00046
3415.76537,0.00034
3413.70520,0.00019
3411.64503,0.00006
3409.58485,0.00001
3407.52468,0.00012
3405.46451,0.00041
3403.40434,0.00082
3401.34416,0.00123
3399.28399,0.00148
3397.22382,0.00146
3395.16365,0.00120
3393.10348,0.00083
3391.04330,0.00047
3388.98313,0.00021
3386.92296,0.00007
3384.86279,0.00000
3382.80262,0.00000
3380.74244,0.00010
3378.68227,0.00039
3376.62210,0.00078
3374.56193,0.00111
3372.50176,0.00132
3370.44158,0.00139
3368.38141,0.00132
3366.32124,0.00109
3364.26107,0.00078
3362.20089,0.00050
3360.14072,0.00033
3358.08055,0.00023
3356.02038,0.00014
3353.96021,0.00005
3351.90003,-0.00004
3349.83986,-0.00005
3347.77969,0.00006
3345.71952,0.00023
3343.65935,0.00037
3341.59917,0.00042
3339.53900,0.00040
3337.47883,0.00032
3335.41866,0.00021
3333.35849,0.00009
3331.29831,0.00002
3329.23814,0.00000
3327.17797,0.00000
3325.11780,0.00002
3323.05762,0.00004
3320.99745,0.00006
3318.93728,0.00011
3316.87711,0.00020
3314.81694,0.00032
3312.75676,0.00040
3310.69659,0.00039
3308.63642,0.00031
3306.57625,0.00022
3304.51608,0.00017
3302.45590,0.00019
3300.39573,0.00032
3298.33556,0.00055
3296.27539,0.00073
3294.21521,0.00074
3292.15504,0.00057
3290.09487,0.00037
3288.03470,0.00026
3285.97453,0.00025
3283.91435,0.00023
3281.85418,0.00012
3279.79401,-0.00001
3277.73384,0.00000
3275.67367,0.00015
3273.61349,0.00034
3271.55332,0.00048
3269.49315,0.00048
3267.43298,0.00038
3265.37281,0.00030
3263.31263,0.00034
3261.25246,0.00042
3259.19229,0.00051
3257.13212,0.00064
3255.07194,0.00080
3253.01177,0.00094
3250.95160,0.00103
3248.89143,0.00100
3246.83126,0.00089
3244.77108,0.00081
3242.71091,0.00087
3240.65074,0.00106
3238.59057,0.00127
3236.53040,0.00134
3234.47022,0.00126
3232.41005,0.00119
3230.34988,0.00129
3228.28971,0.00151
3226.22954,0.00175
3224.16936,0.00192
3222.10919,0.00202
3220.04902,0.00204
3217.98885,0.00201
3215.92867,0.00198
3213.86850,0.00198
3211.80833,0.00196
3209.74816,0.00190
3207.68799,0.00184
3205.62781,0.00179
3203.56764,0.00181
3201.50747,0.00194
3199.44730,0.00218
3197.38713,0.00242
3195.32695,0.00257
3193.26678,0.00260
3191.20661,0.00262
3189.14644,0.00264
3187.08626,0.00261
3185.02609,0.00255
3182.96592,0.00253
3180.90575,0.00262
3178.84558,0.00275
3176.78540,0.00285
3174.72523,0.00296
3172.66506,0.00313
3170.60489,0.00338
3168.54472,0.00360
3166.48454,0.00376
3164.42437,0.00385
3162.36420,0.00387
3160.30403,0.00383
3158.24386,0.00375
3156.18368,0.00371
3154.12351,0.00382
3152.06334,0.00407
3150.00317,0.00440
3147.94299,0.00469
3145.88282,0.00489
3143.82265,0.00499
3141.76248,0.00503
3139.70231,0.00500
3137.64213,0.00495
3135.58196,0.00492
3133.52179,0.00495
3131.46162,0.00506
3129.40145,0.00525
3127.34127,0.00545
3125.28110,0.00558
3123.22093,0.00560
3121.16076,0.00555
3119.10058,0.00553
3117.04041,0.00563
3114.98024,0.00587
3112.92007,0.00616
3110.85990,0.00635
3108.79972,0.00642
3106.73955,0.00650
3104.67938,0.00663
3102.61921,0.00673
3100.55904,0.00676
3098.49886,0.00677
3096.43869,0.00684
3094.37852,0.00699
3092.31835,0.00715
3090.25818,0.00727
3088.19800,0.00729
3086.13783,0.00721
3084.07766,0.00707
3082.01749,0.00704
3079.95731,0.00717
3077.89714,0.00736
3075.83697,0.00747
3073.77680,0.00749
3071.71663,0.00755
3069.65645,0.00772
3067.59628,0.00791
3065.53611,0.00800
3063.47594,0.00798
3061.41577,0.00790
3059.35559,0.00784
3057.29542,0.00785
3055.23525,0.00793
3053.17508,0.00805
3051.11491,0.00820
3049.05473,0.00839
3046.99456,0.00857
3044.93439,0.00868
3042.87422,0.00879
3040.81404,0.00895
3038.75387,0.00916
3036.69370,0.00933
3034.63353,0.00941
3032.57336,0.00938
3030.51318,0.00928
3028.45301,0.00919
3026.39284,0.00920
3024.33267,0.00929
3022.27250,0.00940
3020.21232,0.00950
3018.15215,0.00955
3016.09198,0.00952
3014.03181,0.00945
3011.97163,0.00943
3009.91146,0.00949
3007.85129,0.00953
3005.79112,0.00944
3003.73095,0.00928
3001.67077,0.00914
2999.61060,0.00915
2997.55043,0.00936
2995.49026,0.00973
2993.43009,0.00992
2991.36991,0.00975
2989.30974,0.00953
2987.24957,0.00960
2985.18940,0.00973
2983.12923,0.00965
2981.06905,0.00943
2979.00888,0.00925
2976.94871,0.00907
2974.88854,0.00886
2972.82836,0.00866
2970.76819,0.00856
2968.70802,0.00856
2966.64785,0.00868
2964.58768,0.00886
2962.52750,0.00896
2960.46733,0.00901
2958.40716,0.00910
2956.34699,0.00917
2954.28682,0.00915
2952.22664,0.00905
2950.16647,0.00894
2948.10630,0.00888
2946.04613,0.00887
2943.98596,0.00893
2941.92578,0.00904
2939.86561,0.00913
2937.80544,0.00915
2935.74527,0.00909
2933.68509,0.00887
2931.62492,0.00849
2929.56475,0.00821
2927.50458,0.00824
2925.44441,0.00851
2923.38423,0.00882
2921.32406,0.00900
2919.26389,0.00905
2917.20372,0.00909
2915.14355,0.00911
2913.08337,0.00902
2911.02320,0.00888
2908.96303,0.00888
2906.90286,0.00906
2904.84268,0.00929
2902.78251,0.00934
2900.72234,0.00921
2898.66217,0.00909
2896.60200,0.00909
2894.54182,0.00912
2892.48165,0.00909
2890.42148,0.00905
2888.36131,0.00898
2886.30114,0.00885
2884.24096,0.00882
2882.18079,0.00896
2880.12062,0.00920
2878.06045,0.00943
2876.00028,0.00963
2873.94010,0.00974
2871.87993,0.00973
2869.81976,0.00967
2867.75959,0.00975
2865.69941,0.00993
2863.63924,0.01007
2861.57907,0.01023
2859.51890,0.01044
2857.45873,0.01056
2855.39855,0.01055
2853.33838,0.01052
2851.27821,0.01060
2849.21804,0.01072
2847.15787,0.01079
2845.09769,0.01082
2843.03752,0.01080
2840.97735,0.01070
2838.91718,0.01065
2836.85700,0.01078
2834.79683,0.01102
2832.73666,0.01114
2830.67649,0.01110
2828.61632,0.01099
2826.55614,0.01092
2824.49597,0.01097
2822.43580,0.01108
2820.37563,0.01112
2818.31546,0.01117
2816.25528,0.01131
2814.19511,0.01140
2812.13494,0.01138
2810.07477,0.01135
2808.01460,0.01135
2805.95442,0.01143
2803.89425,0.01166
2801.83408,0.01189
2799.77391,0.01191
2797.71373,0.01183
2795.65356,0.01180
2793.59339,0.01177
2791.53322,0.01170
2789.47305,0.01174
2787.41287,0.01194
2785.35270,0.01212
2783.29253,0.01220
2781.23236,0.01225
2779.17219,0.01221
2777.11201,0.01210
2775.05184,0.01202
2772.99167,0.01193
2770.93150,0.01179
2768.87133,0.01168
2766.81115,0.01161
2764.75098,0.01163
2762.69081,0.01183
2760.63064,0.01210
2758.57046,0.01211
2756.51029,0.01196
2754.45012,0.01193
2752.38995,0.01194
2750.32978,0.01179
2748.26960,0.01164
2746.20943,0.01179
2744.14926,0.01215
2742.08909,0.01236
2740.02892,0.01230
2737.96874,0.01219
2735.90857,0.01213
2733.84840,0.01202
2731.78823,0.01190
2729.72805,0.01188
2727.66788,0.01189
2725.60771,0.01184
2723.54754,0.01185
2721.48737,0.01203
2719.42719,0.01226
2717.36702,0.01240
2715.30685,0.01245
2713.24668,0.01244
2711.18651,0.01239
2709.12633,0.01240
2707.06616,0.01251
2705.00599,0.01264
2702.94582,0.01265
2700.88565,0.01250
2698.82547,0.01229
2696.76530,0.01220
2694.70513,0.01230
2692.64496,0.01245
2690.58478,0.01253
2688.52461,0.01259
2686.46444,0.01272
2684.40427,0.01286
2682.34410,0.01293
2680.28392,0.01294
2678.22375,0.01291
2676.16358,0.01280
2674.10341,0.01271
2672.04324,0.01273
2669.98306,0.01274
2667.92289,0.01264
2665.86272,0.01264
2663.80255,0.01279
2661.74238,0.01292
2659.68220,0.01289
2657.62203,0.01280
2655.56186,0.01276
2653.50169,0.01279
2651.44151,0.01287
2649.38134,0.01296
2647.32117,0.01298
2645.26100,0.01292
2643.20083,0.01284
2641.14065,0.01284
2639.08048,0.01295
2637.02031,0.01314
2634.96014,0.01333
2632.89997,0.01343
2630.83979,0.01345
2628.77962,0.01349
2626.71945,0.01352
2624.65928,0.01353
2622.59910,0.01356
2620.53893,0.01360
2618.47876,0.01354
2616.41859,0.01334
2614.35842,0.01311
2612.29824,0.01288
2610.23807,0.01267
2608.17790,0.01266
2606.11773,0.01294
2604.05756,0.01324
2601.99738,0.01332
2599.93721,0.01322
2597.87704,0.01314
2595.81687,0.01321
2593.75670,0.01338
2591.69652,0.01351
2589.63635,0.01354
2587.57618,0.01350
2585.51601,0.01338
2583.45583,0.01320
2581.39566,0.01311
2579.33549,0.01316
2577.27532,0.01321
2575.21515,0.01311
2573.15497,0.01297
2571.09480,0.01300
2569.03463,0.01320
2566.97446,0.01338
2564.91429,0.01340
2562.85411,0.01314
2560.79394,0.01268
2558.73377,0.01232
2556.67360,0.01230
2554.61342,0.01258
2552.55325,0.01293
2550.49308,0.01321
2548.43291,0.01340
2546.37274,0.01341
2544.31256,0.01328
2542.25239,0.01329
2540.19222,0.01344
2538.13205,0.01341
2536.07188,0.01318
2534.01170,0.01298
2531.95153,0.01294
2529.89136,0.01314
2527.83119,0.01355
2525.77102,0.01388
2523.71084,0.01380
2521.65067,0.01338
2519.59050,0.01302
2517.53033,0.01284
2515.47015,0.01271
2513.40998,0.01273
2511.34981,0.01297
2509.28964,0.01315
2507.22947,0.01315
2505.16929,0.01322
2503.10912,0.01330
2501.04895,0.01312
2498.98878,0.01277
2496.92861,0.01253
2494.86843,0.01252
2492.80826,0.01279
2490.74809,0.01329
2488.68792,0.01381
2486.62775,0.01403
2484.56757,0.01381
2482.50740,0.01344
2480.44723,0.01339
2478.38706,0.01374
2476.32688,0.01403
2474.26671,0.01389
2472.20654,0.01347
2470.14637,0.01307
2468.08620,0.01274
2466.02602,0.01256
2463.96585,0.01270
2461.90568,0.01306
2459.84551,0.01332
2457.78534,0.01342
2455.72516,0.01343
2453.66499,0.01333
2451.60482,0.01318
2449.54465,0.01321
2447.48447,0.01336
2445.42430,0.01327
2443.36413,0.01299
2441.30396,0.01284
2439.24379,0.01293
2437.18361,0.01304
2435.12344,0.01304
2433.06327,0.01309
2431.00310,0.01326
2428.94293,0.01339
2426.88275,0.01338
2424.82258,0.01322
2422.76241,0.01297
2420.70224,0.01283
2418.64207,0.01293
2416.58189,0.01318
2414.52172,0.01346
2412.46155,0.01357
2410.40138,0.01344
2408.34120,0.01319
2406.28103,0.01307
2404.22086,0.01319
2402.16069,0.01341
2400.10052,0.01360
2398.04034,0.01369
2395.98017,0.01367
2393.92000,0.01355
2391.85983,0.01337
2389.79966,0.01318
2387.73948,0.01301
2385.67931,0.01290
2383.61914,0.01281
2381.55897,0.01278
2379.49880,0.01290
2377.43862,0.01321
2375.37845,0.01349
2373.31828,0.01334
2371.25811,0.01255
2369.19793,0.01139
2367.13776,0.01037
2365.07759,0.01011
2363.01742,0.01108
2360.95725,0.01287
2358.89707,0.01434
2356.83690,0.01481
2354.77673,0.01454
2352.71656,0.01417
2350.65639,0.01391
2348.59621,0.01346
2346.53604,0.01284
2344.47587,0.01256
2342.41570,0.01291
2340.35552,0.01373
2338.29535,0.01451
2336.23518,0.01470
2334.17501,0.01424
2332.11484,0.01354
2330.05466,0.01318
2327.99449,0.01330
2325.93432,0.01350
2323.87415,0.01341
2321.81398,0.01319
2319.75380,0.01331
2317.69363,0.01396
2315.63346,0.01492
2313.57329,0.01567
2311.51312,0.01582
2309.45294,0.01541
2307.39277,0.01478
2305.33260,0.01421
2303.27243,0.01378
2301.21225,0.01350
2299.15208,0.01342
2297.09191,0.01353
2295.03174,0.01376
2292.97157,0.01399
2290.91139,0.01413
2288.85122,0.01422
2286.79105,0.01424
2284.73088,0.01419
2282.67071,0.01412
2280.61053,0.01406
2278.55036,0.01397
2276.49019,0.01373
2274.43002,0.01330
2272.36984,0.01276
2270.30967,0.01231
2268.24950,0.01216
2266.18933,0.01231
2264.12916,0.01252
2262.06898,0.01252
2260.00881,0.01241
2257.94864,0.01249
2255.88847,0.01283
2253.82830,0.01327
2251.76812,0.01354
2249.70795,0.01344
2247.64778,0.01311
2245.58761,0.01308
2243.52744,0.01332
2241.46726,0.01346
2239.40709,0.01330
2237.34692,0.01303
2235.28675,0.01288
2233.22657,0.01274
2231.16640,0.01236
2229.10623,0.01211
2227.04606,0.01238
2224.98589,0.01251
2222.92571,0.01221
2220.86554,0.01233
2218.80537,0.01300
2216.74520,0.01340
2214.68503,0.01320
2212.62485,0.01295
2210.56468,0.01339
2208.50451,0.01420
2206.44434,0.01445
2204.38417,0.01423
2202.32399,0.01451
2200.26382,0.01536
2198.20365,0.01590
2196.14348,0.01567
2194.08330,0.01489
2192.02313,0.01383
2189.96296,0.01306
2187.90279,0.01321
2185.84262,0.01358
2183.78244,0.01309
2181.72227,0.01209
2179.66210,0.01182
2177.60193,0.01296
2175.54176,0.01521
2173.48158,0.01704
2171.42141,0.01660
2169.36124,0.01432
2167.30107,0.01269
2165.24089,0.01268
2163.18072,0.01281
2161.12055,0.01196
2159.06038,0.01081
2157.00021,0.01034
2154.94003,0.01074
2152.87986,0.01160
2150.81969,0.01212
2148.75952,0.01201
2146.69935,0.01189
2144.63917,0.01208
2142.57900,0.01205
2140.51883,0.01161
2138.45866,0.01126
2136.39849,0.01143
2134.33831,0.01189
2132.27814,0.01236
2130.21797,0.01280
2128.15780,0.01300
2126.09762,0.01277
2124.03745,0.01246
2121.97728,0.01247
2119.91711,0.01262
2117.85694,0.01255
2115.79676,0.01243
2113.73659,0.01256
2111.67642,0.01294
2109.61625,0.01339
2107.55608,0.01367
2105.49590,0.01376
2103.43573,0.01377
2101.37556,0.01358
2099.31539,0.01316
2097.25521,0.01279
2095.19504,0.01269
2093.13487,0.01286
2091.07470,0.01315
2089.01453,0.01348
2086.95435,0.01382
2084.89418,0.01415
2082.83401,0.01444
2080.77384,0.01461
2078.71367,0.01459
2076.65349,0.01445
2074.59332,0.01424
2072.53315,0.01405
2070.47298,0.01396
2068.41281,0.01392
2066.35263,0.01377
2064.29246,0.01338
2062.23229,0.01291
2060.17212,0.01269
2058.11194,0.01275
2056.05177,0.01277
2053.99160,0.01265
2051.93143,0.01261
2049.87126,0.01283
2047.81108,0.01317
2045.75091,0.01333
2043.69074,0.01317
2041.63057,0.01276
2039.57040,0.01240
2037.51022,0.01236
2035.45005,0.01266
2033.38988,0.01323
2031.32971,0.01406
2029.26954,0.01489
2027.20936,0.01534
2025.14919,0.01532
2023.08902,0.01521
2021.02885,0.01530
2018.96867,0.01533
2016.90850,0.01484
2014.84833,0.01385
2012.78816,0.01282
2010.72799,0.01219
2008.66781,0.01217
2006.60764,0.01259
2004.54747,0.01302
2002.48730,0.01309
2000.42713,0.01275
1998.36695,0.01237
1996.30678,0.01239
1994.24661,0.01283
1992.18644,0.01328
1990.12626,0.01345
1988.06609,0.01354
1986.00592,0.01370
1983.94575,0.01376
1981.88558,0.01345
1979.82540,0.01282
1977.76523,0.01225
1975.70506,0.01211
1973.64489,0.01240
1971.58472,0.01290
1969.52454,0.01335
1967.46437,0.01358
1965.40420,0.01363
1963.34403,0.01372
1961.28386,0.01393
1959.22368,0.01396
1957.16351,0.01357
1955.10334,0.01294
1953.04317,0.01249
1950.98299,0.01255
1948.92282,0.01306
1946.86265,0.01369
1944.80248,0.01411
1942.74231,0.01424
1940.68213,0.01411
1938.62196,0.01382
1936.56179,0.01357
1934.50162,0.01345
1932.44145,0.01341
1930.38127,0.01341
1928.32110,0.01350
1926.26093,0.01367
1924.20076,0.01391
1922.14059,0.01420
1920.08041,0.01447
1918.02024,0.01461
1915.96007,0.01448
1913.89990,0.01412
1911.83972,0.01379
1909.77955,0.01371
1907.71938,0.01385
1905.65921,0.01394
1903.59904,0.01381
1901.53886,0.01351
1899.47869,0.01324
1897.41852,0.01320
1895.35835,0.01344
1893.29818,0.01384
1891.23800,0.01414
1889.17783,0.01420
1887.11766,0.01409
1885.05749,0.01393
1882.99731,0.01379
1880.93714,0.01373
1878.87697,0.01369
1876.81680,0.01359
1874.75663,0.01343
1872.69645,0.01329
1870.63628,0.01326
1868.57611,0.01340
1866.51594,0.01363
1864.45577,0.01391
1862.39559,0.01417
1860.33542,0.01432
1858.27525,0.01429
1856.21508,0.01409
1854.15491,0.01383
1852.09473,0.01360
1850.03456,0.01347
1847.97439,0.01347
1845.91422,0.01361
1843.85404,0.01378
1841.79387,0.01390
1839.73370,0.01391
1837.67353,0.01387
1835.61336,0.01384
1833.55318,0.01385
1831.49301,0.01392
1829.43284,0.01399
1827.37267,0.01400
1825.31250,0.01398
1823.25232,0.01394
1821.19215,0.01395
1819.13198,0.01401
1817.07181,0.01405
1815.01163,0.01396
1812.95146,0.01372
1810.89129,0.01342
1808.83112,0.01320
1806.77095,0.01316
1804.71077,0.01332
1802.65060,0.01360
1800.59043,0.01388
1798.53026,0.01410
1796.47009,0.01429
1794.40991,0.01449
1792.34974,0.01461
1790.28957,0.01452
1788.22940,0.01428
1786.16923,0.01406
1784.10905,0.01393
1782.04888,0.01388
1779.98871,0.01389
1777.92854,0.01398
1775.86836,0.01417
1773.80819,0.01441
1771.74802,0.01454
1769.68785,0.01442
1767.62768,0.01415
1765.56750,0.01394
1763.50733,0.01385
1761.44716,0.01379
1759.38699,0.01369
1757.32682,0.01362
1755.26664,0.01364
1753.20647,0.01383
1751.14630,0.01416
1749.08613,0.01445
1747.02596,0.01448
1744.96578,0.01423
1742.90561,0.01384
1740.84544,0.01354
1738.78527,0.01342
1736.72509,0.01345
1734.66492,0.01348
1732.60475,0.01333
1730.54458,0.01297
1728.48441,0.01263
1726.42423,0.01249
1724.36406,0.01261
1722.30389,0.01293
1720.24372,0.01335
1718.18355,0.01369
1716.12337,0.01366
1714.06320,0.01323
1712.00303,0.01270
1709.94286,0.01240
1707.88268,0.01249
1705.82251,0.01288
1703.76234,0.01345
1701.70217,0.01403
1699.64200,0.01436
1697.58182,0.01416
1695.52165,0.01345
1693.46148,0.01257
1691.40131,0.01200
1689.34114,0.01195
1687.28096,0.01233
1685.22079,0.01278
1683.16062,0.01287
1681.10045,0.01247
1679.04028,0.01189
1676.98010,0.01147
1674.91993,0.01127
1672.85976,0.01110
1670.79959,0.01082
1668.73941,0.01040
1666.67924,0.00992
1664.61907,0.00951
1662.55890,0.00920
1660.49873,0.00898
1658.43855,0.00898
1656.37838,0.00935
1654.31821,0.00999
1652.25804,0.01054
1650.19787,0.01075
1648.13769,0.01065
1646.07752,0.01023
1644.01735,0.00962
1641.95718,0.00920
1639.89701,0.00922
1637.83683,0.00958
1635.77666,0.00987
1633.71649,0.00982
1631.65632,0.00961
1629.59614,0.00955
1627.53597,0.00964
1625.47580,0.00976
1623.41563,0.00981
1621.35546,0.00980
1619.29528,0.00986
1617.23511,0.00999
1615.17494,0.01007
1613.11477,0.01004
1611.05460,0.01002
1608.99442,0.01007
1606.93425,0.01014
1604.87408,0.01017
1602.81391,0.01012
1600.75373,0.01001
1598.69356,0.00996
1596.63339,0.01006
1594.57322,0.01028
1592.51305,0.01051
1590.45287,0.01071
1588.39270,0.01087
1586.33253,0.01099
1584.27236,0.01107
1582.21219,0.01114
1580.15201,0.01128
1578.09184,0.01151
1576.03167,0.01172
1573.97150,0.01184
1571.91133,0.01198
1569.85115,0.01218
1567.79098,0.01236
1565.73081,0.01254
1563.67064,0.01290
1561.61046,0.01358
1559.55029,0.01431
1557.49012,0.01458
1555.42995,0.01420
1553.36978,0.01355
1551.30960,0.01310
1549.24943,0.01306
1547.18926,0.01351
1545.12909,0.01430
1543.06892,0.01508
1541.00874,0.01541
1538.94857,0.01507
1536.88840,0.01437
1534.82823,0.01383
1532.76805,0.01362
1530.70788,0.01365
1528.64771,0.01385
1526.58754,0.01418
1524.52737,0.01458
1522.46719,0.01490
1520.40702,0.01498
1518.34685,0.01481
1516.28668,0.01451
1514.22651,0.01426
1512.16633,0.01429
1510.10616,0.01458
1508.04599,0.01478
1505.98582,0.01454
1503.92565,0.01393
1501.86547,0.01341
1499.80530,0.01323
1497.74513,0.01330
1495.68496,0.01345
1493.62478,0.01360
1491.56461,0.01380
1489.50444,0.01389
1487.44427,0.01366
1485.38410,0.01315
1483.32392,0.01266
1481.26375,0.01245
1479.20358,0.01256
1477.14341,0.01287
1475.08324,0.01317
1473.02306,0.01322
1470.96289,0.01293
1468.90272,0.01247
1466.84255,0.01212
1464.78238,0.01202
1462.72220,0.01216
1460.66203,0.01253
1458.60186,0.01288
1456.54169,0.01282
1454.48151,0.01229
1452.42134,0.01167
1450.36117,0.01130
1448.30100,0.01116
1446.24083,0.01112
1444.18065,0.01109
1442.12048,0.01113
1440.06031,0.01125
1438.00014,0.01141
1435.93997,0.01146
1433.87979,0.01131
1431.81962,0.01105
1429.75945,0.01085
1427.69928,0.01084
1425.63910,0.01100
1423.57893,0.01126
1421.51876,0.01148
1419.45859,0.01150
1417.39842,0.01122
1415.33824,0.01070
1413.27807,0.01026
1411.21790,0.01010
1409.15773,0.01021
1407.09756,0.01042
1405.03738,0.01059
1402.97721,0.01070
1400.91704,0.01085
1398.85687,0.01110
1396.79670,0.01132
1394.73652,0.01138
1392.67635,0.01128
1390.61618,0.01113
1388.55601,0.01101
1386.49583,0.01083
1384.43566,0.01060
1382.37549,0.01042
1380.31532,0.01039
1378.25515,0.01051
1376.19497,0.01067
1374.13480,0.01073
1372.07463,0.01064
1370.01446,0.01052
1367.95429,0.01054
1365.89411,0.01076
1363.83394,0.01105
1361.77377,0.01119
1359.71360,0.01109
1357.65343,0.01087
1355.59325,0.01065
1353.53308,0.01046
1351.47291,0.01033
1349.41274,0.01026
1347.35256,0.01025
1345.29239,0.01035
1343.23222,0.01056
1341.17205,0.01086
1339.11188,0.01108
1337.05170,0.01108
1334.99153,0.01090
1332.93136,0.01067
1330.87119,0.01047
1328.81102,0.01031
1326.75084,0.01019
1324.69067,0.01014
1322.63050,0.01017
1320.57033,0.01024
1318.51015,0.01030
1316.44998,0.01036
1314.38981,0.01037
1312.32964,0.01031
1310.26947,0.01023
1308.20929,0.01022
1306.14912,0.01028
1304.08895,0.01037
1302.02878,0.01047
1299.96861,0.01057
1297.90843,0.01061
1295.84826,0.01060
1293.78809,0.01057
1291.72792,0.01057
1289.66775,0.01061
1287.60757,0.01064
1285.54740,0.01061
1283.48723,0.01054
1281.42706,0.01049
1279.36688,0.01048
1277.30671,0.01051
1275.24654,0.01057
1273.18637,0.01066
1271.12620,0.01072
1269.06602,0.01073
1267.00585,0.01074
1264.94568,0.01073
1262.88551,0.01066
1260.82534,0.01049
1258.76516,0.01025
1256.70499,0.01001
1254.64482,0.00984
1252.58465,0.00978
1250.52447,0.00980
1248.46430,0.00988
1246.40413,0.00997
1244.34396,0.01006
1242.28379,0.01016
1240.22361,0.01026
1238.16344,0.01031
1236.10327,0.01030
1234.04310,0.01027
1231.98293,0.01027
1229.92275,0.01034
1227.86258,0.01050
1225.80241,0.01071
1223.74224,0.01090
1221.68207,0.01105
1219.62189,0.01115
1217.56172,0.01122
1215.50155,0.01126
1213.44138,0.01126
1211.38120,0.01123
1209.32103,0.01122
1207.26086,0.01126
1205.20069,0.01132
1203.14052,0.01137
1201.08034,0.01145
1199.02017,0.01161
1196.96000,0.01186
1194.89983,0.01200
1192.83966,0.01199
1190.77948,0.01195
1188.71931,0.01190
1186.65914,0.01189
1184.59897,0.01199
1182.53880,0.01218
1180.47862,0.01229
1178.41845,0.01228
1176.35828,0.01215
1174.29811,0.01194
1172.23793,0.01178
1170.17776,0.01174
1168.11759,0.01173
1166.05742,0.01167
1163.99725,0.01147
1161.93707,0.01111
1159.87690,0.01070
1157.81673,0.01044
1155.75656,0.01036
1153.69639,0.01034
1151.63621,0.01028
1149.57604,0.01015
1147.51587,0.00994
1145.45570,0.00974
1143.39552,0.00964
1141.33535,0.00965
1139.27518,0.00967
1137.21501,0.00957
1135.15484,0.00933
1133.09466,0.00911
1131.03449,0.00905
1128.97432,0.00902
1126.91415,0.00877
1124.85398,0.00830
1122.79380,0.00788
1120.73363,0.00768
1118.67346,0.00757
1116.61329,0.00739
1114.55312,0.00707
1112.49294,0.00672
1110.43277,0.00657
1108.37260,0.00660
1106.31243,0.00651
1104.25225,0.00625
1102.19208,0.00601
1100.13191,0.00582
1098.07174,0.00552
1096.01157,0.00509
1093.95139,0.00466
1091.89122,0.00437
1089.83105,0.00418
1087.77088,0.00393
1085.71071,0.00359
1083.65053,0.00329
1081.59036,0.00324
1079.53019,0.00338
1077.47002,0.00341
1075.40985,0.00322
1073.34967,0.00298
1071.28950,0.00266
1069.22933,0.00226
1067.16916,0.00200
1065.10898,0.00209
1063.04881,0.00234
1060.98864,0.00246
1058.92847,0.00239
1056.86830,0.00221
1054.80812,0.00193
1052.74795,0.00150
1050.68778,0.00103
1048.62761,0.00065
1046.56744,0.00035
1044.50726,0.00017
1042.44709,0.00020
1040.38692,0.00032
1038.32675,0.00048
1036.26657,0.00078
1034.20640,0.00115
1032.14623,0.00135
1030.08606,0.00146
1028.02589,0.00172
1025.96571,0.00203
1023.90554,0.00210
1021.84537,0.00209
1019.78520,0.00233
1017.72503,0.00273
1015.66485,0.00301
1013.60468,0.00317
1011.54451,0.00329
1009.48434,0.00346
1007.42417,0.00373
1005.36399,0.00398
1003.30382,0.00403
1001.24365,0.00402
999.18348,0.00413
997.12330,0.00429
995.06313,0.00423
993.00296,0.00400
990.94279,0.00400
988.88262,0.00434
986.82244,0.00474
984.76227,0.00492
982.70210,0.00481
980.64193,0.00459
978.58176,0.00462
976.52158,0.00495
974.46141,0.00524
972.40124,0.00540
970.34107,0.00554
968.28089,0.00569
966.22072,0.00585
964.16055,0.00601
962.10038,0.00619
960.04021,0.00642
957.98003,0.00663
955.91986,0.00676
953.85969,0.00681
951.79952,0.00681
949.73935,0.00679
947.67917,0.00691
945.61900,0.00734
943.55883,0.00787
941.49866,0.00812
939.43849,0.00807
937.37831,0.00807
935.31814,0.00842
933.25797,0.00884
931.19780,0.00897
929.13762,0.00904
927.07745,0.00933
925.01728,0.00957
922.95711,0.00957
920.89694,0.00946
918.83676,0.00932
916.77659,0.00900
914.71642,0.00872
912.65625,0.00894
910.59608,0.00940
908.53590,0.00956
906.47573,0.00933
904.41556,0.00897
902.35539,0.00882
900.29522,0.00899
898.23504,0.00914
896.17487,0.00907
894.11470,0.00897
892.05453,0.00889
889.99435,0.00857
887.93418,0.00820
885.87401,0.00814
883.81384,0.00834
881.75367,0.00847
879.69349,0.00832
877.63332,0.00798
875.57315,0.00783
873.51298,0.00807
871.45281,0.00854
869.39263,0.00904
867.33246,0.00935
865.27229,0.00920
863.21212,0.00872
861.15194,0.00848
859.09177,0.00876
857.03160,0.00924
854.97143,0.00925
852.91126,0.00880
850.85108,0.00862
848.79091,0.00892
846.73074,0.00923
844.67057,0.00939
842.61040,0.00959
840.55022,0.00968
838.49005,0.00945
836.42988,0.00903
834.36971,0.00882
832.30954,0.00885
830.24936,0.00875
828.18919,0.00840
826.12902,0.00817
824.06885,0.00831
822.00867,0.00859
819.94850,0.00878
817.88833,0.00882
815.82816,0.00873
813.76799,0.00861
811.70781,0.00847
809.64764,0.00812
807.58747,0.00775
805.52730,0.00768
803.46713,0.00793
801.40695,0.00840
799.34678,0.00903
797.28661,0.00960
795.22644,0.00971
793.16627,0.00924
791.10609,0.00852
789.04592,0.00779
786.98575,0.00730
784.92558,0.00735
782.86540,0.00780
780.80523,0.00822
778.74506,0.00835
776.68489,0.00823
774.62472,0.00821
772.56454,0.00852
770.50437,0.00891
768.44420,0.00895
766.38403,0.00854
764.32386,0.00788
762.26368,0.00716
760.20351,0.00663
758.14334,0.00671
756.08317,0.00739
754.02299,0.00795
751.96282,0.00793
749.90265,0.00779
747.84248,0.00797
745.78231,0.00810
743.72213,0.00766
741.66196,0.00688
739.60179,0.00650
737.54162,0.00660
735.48145,0.00691
733.42127,0.00735
731.36110,0.00766
729.30093,0.00759
727.24076,0.00724
725.18059,0.00680
723.12041,0.00652
721.06024,0.00650
719.00007,0.00674
716.93990,0.00707
714.87972,0.00721
712.81955,0.00704
710.75938,0.00668
708.69921,0.00644
706.63904,0.00650
704.57886,0.00676
702.51869,0.00693
700.45852,0.00682
698.39835,0.00646
696.33818,0.00605
694.27800,0.00576
692.21783,0.00568
690.15766,0.00581
688.09749,0.00599
686.03731,0.00588
683.97714,0.00536
681.91697,0.00467
679.85680,0.00426
677.79663,0.00437
675.73645,0.00484
673.67628,0.00529
671.61611,0.00559
669.55594,0.00590
667.49577,0.00639
665.43559,0.00679
663.37542,0.00689
661.31525,0.00673
659.25508,0.00627
657.19491,0.00549
655.13473,0.00473
653.07456,0.00461
651.01439,0.00549
648.95422,0.00702
646.89404,0.00816
644.83387,0.00804
642.77370,0.00670
640.71353,0.00502
638.65336,0.00393
636.59318,0.00378
634.53301,0.00437
632.47284,0.00534
630.41267,0.00627
628.35250,0.00661
626.29232,0.00603
624.23215,0.00514
622.17198,0.00509
620.11181,0.00612
618.05164,0.00751
615.99146,0.00852
613.93129,0.00875
611.87112,0.00818
609.81095,0.00727
607.75077,0.00603
605.69060,0.00384
603.63043,0.00121
601.57026,0.00000
599.51009,0.00000
