3996.73391,0.00066
3994.67373,0.00071
3992.61356,0.00070
3990.55339,0.00057
3988.49322,0.00033
3986.43305,0.00010
3984.37287,0.00000
3982.31270,0.00010
3980.25253,0.00036
3978.19236,0.00068
3976.13219,0.00092
3974.07201,0.00106
3972.01184,0.00108
3969.95167,0.00105
3967.89150,0.00104
3965.83133,0.00112
3963.77115,0.00127
3961.71098,0.00141
3959.65081,0.00144
3957.59064,0.00137
3955.53046,0.00125
3953.47029,0.00118
3951.41012,0.00122
3949.34995,0.00139
3947.28978,0.00161
3945.22960,0.00175
3943.16943,0.00179
3941.10926,0.00174
3939.04909,0.00168
3936.98892,0.00165
3934.92874,0.00168
3932.86857,0.00172
3930.80840,0.00172
3928.74823,0.00165
3926.68805,0.00160
3924.62788,0.00166
3922.56771,0.00182
3920.50754,0.00200
3918.44737,0.00221
3916.38719,0.00242
3914.32702,0.00247
3912.26685,0.00230
3910.20668,0.00209
3908.14651,0.00212
3906.08633,0.00255
3904.02616,0.00321
3901.96599,0.00369
3899.90582,0.00371
3897.84565,0.00335
3895.78547,0.00292
3893.72530,0.00270
3891.66513,0.00277
3889.60496,0.00296
3887.54478,0.00311
3885.48461,0.00322
3883.42444,0.00329
3881.36427,0.00325
3879.30410,0.00300
3877.24392,0.00259
3875.18375,0.00225
3873.12358,0.00209
3871.06341,0.00209
3869.00324,0.00218
3866.94306,0.00238
3864.88289,0.00270
3862.82272,0.00303
3860.76255,0.00323
3858.70237,0.00331
3856.64220,0.00347
3854.58203,0.00374
3852.52186,0.00386
3850.46169,0.00363
3848.40151,0.00327
3846.34134,0.00309
3844.28117,0.00318
3842.22100,0.00340
3840.16083,0.00363
3838.10065,0.00379
3836.04048,0.00393
3833.98031,0.00409
3831.92014,0.00420
3829.85997,0.00416
3827.79979,0.00405
3825.73962,0.00402
3823.67945,0.00420
3821.61928,0.00445
3819.55910,0.00444
3817.49893,0.00407
3815.43876,0.00356
3813.37859,0.00313
3811.31842,0.00290
3809.25824,0.00294
3807.19807,0.00318
3805.13790,0.00352
3803.07773,0.00389
3801.01756,0.00420
3798.95738,0.00432
3796.89721,0.00422
3794.83704,0.00404
3792.77687,0.00386
3790.71670,0.00373
3788.65652,0.00364
3786.59635,0.00362
3784.53618,0.00365
3782.47601,0.00368
3780.41583,0.00372
3778.35566,0.00376
3776.29549,0.00376
3774.23532,0.00381
3772.17515,0.00400
3770.11497,0.00431
3768.05480,0.00459
3765.99463,0.00471
3763.93446,0.00467
3761.87429,0.00457
3759.81411,0.00455
3757.75394,0.00473
3755.69377,0.00525
3753.63360,0.00609
3751.57342,0.00688
3749.51325,0.00713
3747.45308,0.00697
3745.39291,0.00686
3743.33274,0.00691
3741.27256,0.00685
3739.21239,0.00661
3737.15222,0.00637
3735.09205,0.00630
3733.03188,0.00633
3730.97170,0.00639
3728.91153,0.00654
3726.85136,0.00683
3724.79119,0.00706
3722.73102,0.00688
3720.67084,0.00624
3718.61067,0.00548
3716.55050,0.00501
3714.49033,0.00499
3712.43015,0.00519
3710.36998,0.00519
3708.30981,0.00491
3706.24964,0.00468
3704.18947,0.00464
3702.12929,0.00467
3700.06912,0.00463
3698.00895,0.00456
3695.94878,0.00465
3693.88861,0.00505
3691.82843,0.00572
3689.76826,0.00633
3687.70809,0.00649
3685.64792,0.00616
3683.58775,0.00564
3681.52757,0.00534
3679.46740,0.00550
3677.40723,0.00596
3675.34706,0.00628
3673.28688,0.00614
3671.22671,0.00570
3669.16654,0.00524
3667.10637,0.00493
3665.04620,0.00483
3662.98602,0.00489
3660.92585,0.00504
3658.86568,0.00523
3656.80551,0.00546
3654.74534,0.00569
3652.68516,0.00587
3650.62499,0.00596
3648.56482,0.00590
3646.50465,0.00564
3644.44447,0.00522
3642.38430,0.00479
3640.32413,0.00448
3638.26396,0.00430
3636.20379,0.00429
3634.14361,0.00448
3632.08344,0.00479
3630.02327,0.00508
3627.96310,0.00522
3625.90293,0.00506
3623.84275,0.00456
3621.78258,0.00401
3619.72241,0.00376
3617.66224,0.00386
3615.60207,0.00403
3613.54189,0.00413
3611.48172,0.00423
3609.42155,0.00444
3607.36138,0.00472
3605.30120,0.00496
3603.24103,0.00506
3601.18086,0.00497
3599.12069,0.00461
3597.06052,0.00408
3595.00034,0.00364
3592.94017,0.00347
3590.88000,0.00356
3588.81983,0.00381
3586.75966,0.00406
3584.69948,0.00420
3582.63931,0.00419
3580.57914,0.00407
3578.51897,0.00387
3576.45879,0.00365
3574.39862,0.00345
3572.33845,0.00331
3570.27828,0.00328
3568.21811,0.00339
3566.15793,0.00353
3564.09776,0.00345
3562.03759,0.00312
3559.97742,0.00273
3557.91725,0.00238
3555.85707,0.00206
3553.79690,0.00174
3551.73673,0.00152
3549.67656,0.00154
3547.61639,0.00185
3545.55621,0.00227
3543.49604,0.00255
3541.43587,0.00265
3539.37570,0.00272
3537.31552,0.00281
3535.25535,0.00285
3533.19518,0.00279
3531.13501,0.00266
3529.07484,0.00257
3527.01466,0.00254
3524.95449,0.00251
3522.89432,0.00239
3520.83415,0.00218
3518.77398,0.00193
3516.71380,0.00175
3514.65363,0.00169
3512.59346,0.00171
3510.53329,0.00174
3508.47312,0.00171
3506.41294,0.00165
3504.35277,0.00159
3502.29260,0.00155
3500.23243,0.00151
3498.17225,0.00147
3496.11208,0.00143
3494.05191,0.00139
3491.99174,0.00141
3489.93157,0.00153
3487.87139,0.00173
3485.81122,0.00191
3483.75105,0.00197
3481.69088,0.00185
3479.63071,0.00163
3477.57053,0.00142
3475.51036,0.00133
3473.45019,0.00131
3471.39002,0.00128
3469.32984,0.00124
3467.26967,0.00126
3465.20950,0.00131
3463.14933,0.00128
3461.08916,0.00114
3459.02898,0.00096
3456.96881,0.00082
3454.90864,0.00073
3452.84847,0.00068
3450.78830,0.00065
3448.72812,0.00069
3446.66795,0.00083
3444.60778,0.00103
3442.54761,0.00123
3440.48744,0.00134
3438.42726,0.00130
3436.36709,0.00114
3434.30692,0.00094
3432.24675,0.00072
3430.18657,0.00049
3428.12640,0.00031
3426.06623,0.00021
3424.00606,0.00018
3421.94589,0.00017
3419.88571,0.00014
3417.82554,0.00005
3415.76537,-0.00003
3413.70520,-0.00000
3411.64503,0.00010
3409.58485,0.00022
3407.52468,0.00037
3405.46451,0.00059
3403.40434,0.00086
3401.34416,0.00110
3399.28399,0.00124
3397.22382,0.00121
3395.16365,0.00099
3393.10348,0.00065
3391.04330,0.00032
3388.98313,0.00010
3386.92296,0.00003
3384.86279,0.00000
3382.80262,0.00000
3380.74244,0.00009
3378.68227,0.00032
3376.62210,0.00064
3374.56193,0.00092
3372.50176,0.00107
3370.44158,0.00102
3368.38141,0.00082
3366.32124,0.00056
3364.26107,0.00039
3362.20089,0.00038
3360.14072,0.00047
3358.08055,0.00051
3356.02038,0.00045
3353.96021,0.00037
3351.90003,0.00028
3349.83986,0.00022
3347.77969,0.00024
3345.71952,0.00040
3343.65935,0.00059
3341.59917,0.00067
3339.53900,0.00066
3337.47883,0.00062
3335.41866,0.00054
3333.35849,0.00038
3331.29831,0.00019
3329.23814,0.00004
3327.17797,0.00000
3325.11780,0.00002
3323.05762,0.00007
3320.99745,0.00017
3318.93728,0.00034
3316.87711,0.00055
3314.81694,0.00078
3312.75676,0.00094
3310.69659,0.00096
3308.63642,0.00085
3306.57625,0.00077
3304.51608,0.00079
3302.45590,0.00082
3300.39573,0.00081
3298.33556,0.00074
3296.27539,0.00062
3294.21521,0.00050
3292.15504,0.00043
3290.09487,0.00042
3288.03470,0.00043
3285.97453,0.00038
3283.91435,0.00028
3281.85418,0.00023
3279.79401,0.00029
3277.73384,0.00042
3275.67367,0.00047
3273.61349,0.00039
3271.55332,0.00023
3269.49315,0.00012
3267.43298,0.00013
3265.37281,0.00026
3263.31263,0.00038
3261.25246,0.00037
3259.19229,0.00025
3257.13212,0.00016
3255.07194,0.00017
3253.01177,0.00025
3250.95160,0.00029
3248.89143,0.00027
3246.83126,0.00029
3244.77108,0.00043
3242.71091,0.00065
3240.65074,0.00082
3238.59057,0.00087
3236.53040,0.00080
3234.47022,0.00067
3232.41005,0.00057
3230.34988,0.00059
3228.28971,0.00072
3226.22954,0.00094
3224.16936,0.00114
3222.10919,0.00119
3220.04902,0.00106
3217.98885,0.00087
3215.92867,0.00078
3213.86850,0.00081
3211.80833,0.00090
3209.74816,0.00097
3207.68799,0.00101
3205.62781,0.00101
3203.56764,0.00101
3201.50747,0.00102
3199.44730,0.00104
3197.38713,0.00115
3195.32695,0.00144
3193.26678,0.00187
3191.20661,0.00226
3189.14644,0.00242
3187.08626,0.00229
3185.02609,0.00200
3182.96592,0.00182
3180.90575,0.00186
3178.84558,0.00204
3176.78540,0.00215
3174.72523,0.00213
3172.66506,0.00205
3170.60489,0.00201
3168.54472,0.00204
3166.48454,0.00214
3164.42437,0.00230
3162.36420,0.00248
3160.30403,0.00269
3158.24386,0.00290
3156.18368,0.00301
3154.12351,0.00299
3152.06334,0.00292
3150.00317,0.00285
3147.94299,0.00284
3145.88282,0.00288
3143.82265,0.00291
3141.76248,0.00285
3139.70231,0.00274
3137.64213,0.00272
3135.58196,0.00287
3133.52179,0.00311
3131.46162,0.00328
3129.40145,0.00331
3127.34127,0.00326
3125.28110,0.00325
3123.22093,0.00329
3121.16076,0.00335
3119.10058,0.00342
3117.04041,0.00351
3114.98024,0.00362
3112.92007,0.00374
3110.85990,0.00385
3108.79972,0.00395
3106.73955,0.00407
3104.67938,0.00418
3102.61921,0.00426
3100.55904,0.00431
3098.49886,0.00437
3096.43869,0.00445
3094.37852,0.00449
3092.31835,0.00448
3090.25818,0.00446
3088.19800,0.00450
3086.13783,0.00459
3084.07766,0.00467
3082.01749,0.00469
3079.95731,0.00467
3077.89714,0.00462
3075.83697,0.00459
3073.77680,0.00460
3071.71663,0.00470
3069.65645,0.00485
3067.59628,0.00501
3065.53611,0.00512
3063.47594,0.00513
3061.41577,0.00494
3059.35559,0.00461
3057.29542,0.00435
3055.23525,0.00432
3053.17508,0.00450
3051.11491,0.00478
3049.05473,0.00502
3046.99456,0.00515
3044.93439,0.00519
3042.87422,0.00520
3040.81404,0.00530
3038.75387,0.00552
3036.69370,0.00579
3034.63353,0.00595
3032.57336,0.00589
3030.51318,0.00570
3028.45301,0.00550
3026.39284,0.00536
3024.33267,0.00529
3022.27250,0.00528
3020.21232,0.00535
3018.15215,0.00549
3016.09198,0.00564
3014.03181,0.00576
3011.97163,0.00584
3009.91146,0.00586
3007.85129,0.00581
3005.79112,0.00569
3003.73095,0.00554
3001.67077,0.00544
2999.61060,0.00548
2997.55043,0.00576
2995.49026,0.00607
2993.43009,0.00603
2991.36991,0.00561
2989.30974,0.00522
2987.24957,0.00527
2985.18940,0.00560
2983.12923,0.00580
2981.06905,0.00573
2979.00888,0.00556
2976.94871,0.00545
2974.88854,0.00536
2972.82836,0.00528
2970.76819,0.00525
2968.70802,0.00528
2966.64785,0.00537
2964.58768,0.00541
2962.52750,0.00538
2960.46733,0.00548
2958.40716,0.00579
2956.34699,0.00608
2954.28682,0.00615
2952.22664,0.00604
2950.16647,0.00591
2948.10630,0.00584
2946.04613,0.00583
2943.98596,0.00589
2941.92578,0.00603
2939.86561,0.00611
2937.80544,0.00612
2935.74527,0.00613
2933.68509,0.00604
2931.62492,0.00581
2929.56475,0.00571
2927.50458,0.00591
2925.44441,0.00609
2923.38423,0.00605
2921.32406,0.00603
2919.26389,0.00620
2917.20372,0.00640
2915.14355,0.00635
2913.08337,0.00607
2911.02320,0.00594
2908.96303,0.00610
2906.90286,0.00634
2904.84268,0.00652
2902.78251,0.00667
2900.72234,0.00672
2898.66217,0.00665
2896.60200,0.00648
2894.54182,0.00629
2892.48165,0.00621
2890.42148,0.00630
2888.36131,0.00637
2886.30114,0.00628
2884.24096,0.00622
2882.18079,0.00631
2880.12062,0.00642
2878.06045,0.00654
2876.00028,0.00675
2873.94010,0.00687
2871.87993,0.00677
2869.81976,0.00660
2867.75959,0.00661
2865.69941,0.00677
2863.63924,0.00691
2861.57907,0.00698
2859.51890,0.00704
2857.45873,0.00705
2855.39855,0.00698
2853.33838,0.00686
2851.27821,0.00676
2849.21804,0.00675
2847.15787,0.00688
2845.09769,0.00715
2843.03752,0.00741
2840.97735,0.00746
2838.91718,0.00728
2836.85700,0.00710
2834.79683,0.00711
2832.73666,0.00723
2830.67649,0.00731
2828.61632,0.00730
2826.55614,0.00730
2824.49597,0.00737
2822.43580,0.00740
2820.37563,0.00741
2818.31546,0.00747
2816.25528,0.00749
2814.19511,0.00744
2812.13494,0.00742
2810.07477,0.00748
2808.01460,0.00750
2805.95442,0.00748
2803.89425,0.00754
2801.83408,0.00765
2799.77391,0.00775
2797.71373,0.00783
2795.65356,0.00788
2793.59339,0.00785
2791.53322,0.00779
2789.47305,0.00785
2787.41287,0.00796
2785.35270,0.00795
2783.29253,0.00782
2781.23236,0.00769
2779.17219,0.00756
2777.11201,0.00745
2775.05184,0.00750
2772.99167,0.00765
2770.93150,0.00767
2768.87133,0.00765
2766.81115,0.00774
2764.75098,0.00789
2762.69081,0.00796
2760.63064,0.00790
2758.57046,0.00778
2756.51029,0.00768
2754.45012,0.00765
2752.38995,0.00769
2750.32978,0.00771
2748.26960,0.00765
2746.20943,0.00762
2744.14926,0.00773
2742.08909,0.00787
2740.02892,0.00790
2737.96874,0.00782
2735.90857,0.00779
2733.84840,0.00782
2731.78823,0.00782
2729.72805,0.00777
2727.66788,0.00775
2725.60771,0.00777
2723.54754,0.00780
2721.48737,0.00786
2719.42719,0.00797
2717.36702,0.00815
2715.30685,0.00835
2713.24668,0.00848
2711.18651,0.00846
2709.12633,0.00830
2707.06616,0.00819
2705.00599,0.00832
2702.94582,0.00850
2700.88565,0.00847
2698.82547,0.00828
2696.76530,0.00815
2694.70513,0.00818
2692.64496,0.00831
2690.58478,0.00835
2688.52461,0.00819
2686.46444,0.00800
2684.40427,0.00801
2682.34410,0.00815
2680.28392,0.00821
2678.22375,0.00816
2676.16358,0.00819
2674.10341,0.00834
2672.04324,0.00854
2669.98306,0.00864
2667.92289,0.00861
2665.86272,0.00860
2663.80255,0.00869
2661.74238,0.00881
2659.68220,0.00890
2657.62203,0.00886
2655.56186,0.00872
2653.50169,0.00862
2651.44151,0.00865
2649.38134,0.00872
2647.32117,0.00871
2645.26100,0.00860
2643.20083,0.00848
2641.14065,0.00846
2639.08048,0.00859
2637.02031,0.00883
2634.96014,0.00896
2632.89997,0.00885
2630.83979,0.00865
2628.77962,0.00861
2626.71945,0.00872
2624.65928,0.00882
2622.59910,0.00892
2620.53893,0.00898
2618.47876,0.00898
2616.41859,0.00901
2614.35842,0.00909
2612.29824,0.00910
2610.23807,0.00888
2608.17790,0.00853
2606.11773,0.00831
2604.05756,0.00832
2601.99738,0.00849
2599.93721,0.00862
2597.87704,0.00857
2595.81687,0.00838
2593.75670,0.00824
2591.69652,0.00835
2589.63635,0.00869
2587.57618,0.00901
2585.51601,0.00907
2583.45583,0.00876
2581.39566,0.00826
2579.33549,0.00805
2577.27532,0.00835
2575.21515,0.00885
2573.15497,0.00916
2571.09480,0.00923
2569.03463,0.00916
2566.97446,0.00900
2564.91429,0.00880
2562.85411,0.00859
2560.79394,0.00844
2558.73377,0.00847
2556.67360,0.00866
2554.61342,0.00890
2552.55325,0.00892
2550.49308,0.00869
2548.43291,0.00851
2546.37274,0.00846
2544.31256,0.00839
2542.25239,0.00827
2540.19222,0.00825
2538.13205,0.00846
2536.07188,0.00889
2534.01170,0.00922
2531.95153,0.00919
2529.89136,0.00889
2527.83119,0.00873
2525.77102,0.00881
2523.71084,0.00885
2521.65067,0.00869
2519.59050,0.00850
2517.53033,0.00832
2515.47015,0.00823
2513.40998,0.00844
2511.34981,0.00882
2509.28964,0.00900
2507.22947,0.00898
2505.16929,0.00903
2503.10912,0.00904
2501.04895,0.00862
2498.98878,0.00795
2496.92861,0.00759
2494.86843,0.00781
2492.80826,0.00846
2490.74809,0.00913
2488.68792,0.00944
2486.62775,0.00936
2484.56757,0.00900
2482.50740,0.00854
2480.44723,0.00844
2478.38706,0.00896
2476.32688,0.00969
2474.26671,0.00997
2472.20654,0.00955
2470.14637,0.00876
2468.08620,0.00811
2466.02602,0.00801
2463.96585,0.00838
2461.90568,0.00875
2459.84551,0.00890
2457.78534,0.00897
2455.72516,0.00900
2453.66499,0.00893
2451.60482,0.00893
2449.54465,0.00916
2447.48447,0.00919
2445.42430,0.00877
2443.36413,0.00838
2441.30396,0.00844
2439.24379,0.00878
2437.18361,0.00899
2435.12344,0.00902
2433.06327,0.00905
2431.00310,0.00899
2428.94293,0.00879
2426.88275,0.00867
2424.82258,0.00865
2422.76241,0.00853
2420.70224,0.00838
2418.64207,0.00844
2416.58189,0.00872
2414.52172,0.00905
2412.46155,0.00918
2410.40138,0.00898
2408.34120,0.00858
2406.28103,0.00831
2404.22086,0.00839
2402.16069,0.00869
2400.10052,0.00907
2398.04034,0.00936
2395.98017,0.00945
2393.92000,0.00936
2391.85983,0.00920
2389.79966,0.00900
2387.73948,0.00881
2385.67931,0.00869
2383.61914,0.00868
2381.55897,0.00877
2379.49880,0.00889
2377.43862,0.00893
2375.37845,0.00871
2373.31828,0.00800
2371.25811,0.00677
2369.19793,0.00537
2367.13776,0.00446
2365.07759,0.00467
2363.01742,0.00617
2360.95725,0.00832
2358.89707,0.01003
2356.83690,0.01076
2354.77673,0.01071
2352.71656,0.01027
2350.65639,0.00985
2348.59621,0.00963
2346.53604,0.00964
2344.47587,0.00994
2342.41570,0.01045
2340.35552,0.01102
2338.29535,0.01145
2336.23518,0.01155
2334.17501,0.01136
2332.11484,0.01102
2330.05466,0.01062
2327.99449,0.01013
2325.93432,0.00947
2323.87415,0.00871
2321.81398,0.00820
2319.75380,0.00823
2317.69363,0.00878
2315.63346,0.00961
2313.57329,0.01039
2311.51312,0.01080
2309.45294,0.01074
2307.39277,0.01039
2305.33260,0.01005
2303.27243,0.00983
2301.21225,0.00971
2299.15208,0.00966
2297.09191,0.00966
2295.03174,0.00970
2292.97157,0.00980
2290.91139,0.00998
2288.85122,0.01020
2286.79105,0.01033
2284.73088,0.01029
2282.67071,0.01010
2280.61053,0.00981
2278.55036,0.00941
2276.49019,0.00892
2274.43002,0.00842
2272.36984,0.00805
2270.30967,0.00795
2268.24950,0.00816
2266.18933,0.00865
2264.12916,0.00919
2262.06898,0.00942
2260.00881,0.00919
2257.94864,0.00875
2255.88847,0.00858
2253.82830,0.00883
2251.76812,0.00924
2249.70795,0.00951
2247.64778,0.00960
2245.58761,0.00956
2243.52744,0.00917
2241.46726,0.00859
2239.40709,0.00826
2237.34692,0.00824
2235.28675,0.00825
2233.22657,0.00820
2231.16640,0.00832
2229.10623,0.00858
2227.04606,0.00855
2224.98589,0.00804
2222.92571,0.00773
2220.86554,0.00820
2218.80537,0.00870
2216.74520,0.00851
2214.68503,0.00822
2212.62485,0.00857
2210.56468,0.00934
2208.50451,0.00985
2206.44434,0.00973
2204.38417,0.00940
2202.32399,0.00957
2200.26382,0.01032
2198.20365,0.01091
2196.14348,0.01081
2194.08330,0.01041
2192.02313,0.01015
2189.96296,0.00997
2187.90279,0.00967
2185.84262,0.00922
2183.78244,0.00861
2181.72227,0.00802
2179.66210,0.00789
2177.60193,0.00834
2175.54176,0.00897
2173.48158,0.00906
2171.42141,0.00831
2169.36124,0.00730
2167.30107,0.00735
2165.24089,0.00892
2163.18072,0.01047
2161.12055,0.01031
2159.06038,0.00897
2157.00021,0.00840
2154.94003,0.00939
2152.87986,0.01099
2150.81969,0.01136
2148.75952,0.01000
2146.69935,0.00850
2144.63917,0.00767
2142.57900,0.00707
2140.51883,0.00677
2138.45866,0.00711
2136.39849,0.00782
2134.33831,0.00829
2132.27814,0.00842
2130.21797,0.00847
2128.15780,0.00846
2126.09762,0.00841
2124.03745,0.00846
2121.97728,0.00864
2119.91711,0.00858
2117.85694,0.00803
2115.79676,0.00759
2113.73659,0.00779
2111.67642,0.00818
2109.61625,0.00845
2107.55608,0.00887
2105.49590,0.00944
2103.43573,0.00975
2101.37556,0.00971
2099.31539,0.00960
2097.25521,0.00946
2095.19504,0.00929
2093.13487,0.00914
2091.07470,0.00909
2089.01453,0.00921
2086.95435,0.00948
2084.89418,0.00978
2082.83401,0.00998
2080.77384,0.01003
2078.71367,0.00992
2076.65349,0.00968
2074.59332,0.00944
2072.53315,0.00941
2070.47298,0.00957
2068.41281,0.00970
2066.35263,0.00956
2064.29246,0.00914
2062.23229,0.00875
2060.17212,0.00875
2058.11194,0.00904
2056.05177,0.00922
2053.99160,0.00924
2051.93143,0.00939
2049.87126,0.00981
2047.81108,0.01033
2045.75091,0.01070
2043.69074,0.01082
2041.63057,0.01066
2039.57040,0.01018
2037.51022,0.00937
2035.45005,0.00835
2033.38988,0.00761
2031.32971,0.00776
2029.26954,0.00876
2027.20936,0.01002
2025.14919,0.01101
2023.08902,0.01151
2021.02885,0.01151
2018.96867,0.01089
2016.90850,0.00969
2014.84833,0.00843
2012.78816,0.00785
2010.72799,0.00830
2008.66781,0.00940
2006.60764,0.01035
2004.54747,0.01062
2002.48730,0.01034
2000.42713,0.00990
1998.36695,0.00968
1996.30678,0.00986
1994.24661,0.01016
1992.18644,0.01004
1990.12626,0.00935
1988.06609,0.00857
1986.00592,0.00825
1983.94575,0.00847
1981.88558,0.00885
1979.82540,0.00906
1977.76523,0.00912
1975.70506,0.00919
1973.64489,0.00917
1971.58472,0.00880
1969.52454,0.00809
1967.46437,0.00753
1965.40420,0.00759
1963.34403,0.00829
1961.28386,0.00919
1959.22368,0.00977
1957.16351,0.00979
1955.10334,0.00946
1953.04317,0.00923
1950.98299,0.00928
1948.92282,0.00943
1946.86265,0.00951
1944.80248,0.00957
1942.74231,0.00980
1940.68213,0.01017
1938.62196,0.01052
1936.56179,0.01076
1934.50162,0.01082
1932.44145,0.01066
1930.38127,0.01039
1928.32110,0.01010
1926.26093,0.00975
1924.20076,0.00947
1922.14059,0.00947
1920.08041,0.00982
1918.02024,0.01029
1915.96007,0.01053
1913.89990,0.01040
1911.83972,0.00998
1909.77955,0.00951
1907.71938,0.00925
1905.65921,0.00931
1903.59904,0.00957
1901.53886,0.00983
1899.47869,0.00996
1897.41852,0.01000
1895.35835,0.01004
1893.29818,0.01009
1891.23800,0.01007
1889.17783,0.00996
1887.11766,0.00977
1885.05749,0.00957
1882.99731,0.00939
1880.93714,0.00927
1878.87697,0.00918
1876.81680,0.00914
1874.75663,0.00918
1872.69645,0.00933
1870.63628,0.00956
1868.57611,0.00978
1866.51594,0.00987
1864.45577,0.00981
1862.39559,0.00973
1860.33542,0.00979
1858.27525,0.01004
1856.21508,0.01038
1854.15491,0.01062
1852.09473,0.01066
1850.03456,0.01053
1847.97439,0.01035
1845.91422,0.01022
1843.85404,0.01016
1841.79387,0.01013
1839.73370,0.01010
1837.67353,0.01007
1835.61336,0.01003
1833.55318,0.00995
1831.49301,0.00987
1829.43284,0.00983
1827.37267,0.00990
1825.31250,0.01004
1823.25232,0.01014
1821.19215,0.01017
1819.13198,0.01018
1817.07181,0.01018
1815.01163,0.01010
1812.95146,0.00993
1810.89129,0.00973
1808.83112,0.00958
1806.77095,0.00957
1804.71077,0.00974
1802.65060,0.01004
1800.59043,0.01031
1798.53026,0.01044
1796.47009,0.01048
1794.40991,0.01048
1792.34974,0.01044
1790.28957,0.01034
1788.22940,0.01019
1786.16923,0.01006
1784.10905,0.01000
1782.04888,0.01005
1779.98871,0.01012
1777.92854,0.01012
1775.86836,0.01010
1773.80819,0.01015
1771.74802,0.01023
1769.68785,0.01024
1767.62768,0.01021
1765.56750,0.01022
1763.50733,0.01028
1761.44716,0.01031
1759.38699,0.01030
1757.32682,0.01030
1755.26664,0.01039
1753.20647,0.01061
1751.14630,0.01091
1749.08613,0.01115
1747.02596,0.01119
1744.96578,0.01104
1742.90561,0.01081
1740.84544,0.01065
1738.78527,0.01062
1736.72509,0.01067
1734.66492,0.01073
1732.60475,0.01069
1730.54458,0.01048
1728.48441,0.01019
1726.42423,0.01002
1724.36406,0.01011
1722.30389,0.01040
1720.24372,0.01076
1718.18355,0.01099
1716.12337,0.01093
1714.06320,0.01061
1712.00303,0.01024
1709.94286,0.01002
1707.88268,0.01003
1705.82251,0.01018
1703.76234,0.01043
1701.70217,0.01070
1699.64200,0.01082
1697.58182,0.01057
1695.52165,0.01001
1693.46148,0.00943
1691.40131,0.00914
1689.34114,0.00923
1687.28096,0.00956
1685.22079,0.00986
1683.16062,0.00989
1681.10045,0.00965
1679.04028,0.00935
1676.98010,0.00912
1674.91993,0.00896
1672.85976,0.00877
1670.79959,0.00853
1668.73941,0.00822
1666.67924,0.00790
1664.61907,0.00763
1662.55890,0.00742
1660.49873,0.00723
1658.43855,0.00717
1656.37838,0.00737
1654.31821,0.00784
1652.25804,0.00830
1650.19787,0.00853
1648.13769,0.00856
1646.07752,0.00836
1644.01735,0.00798
1641.95718,0.00768
1639.89701,0.00770
1637.83683,0.00800
1635.77666,0.00829
1633.71649,0.00830
1631.65632,0.00815
1629.59614,0.00806
1627.53597,0.00811
1625.47580,0.00823
1623.41563,0.00837
1621.35546,0.00850
1619.29528,0.00866
1617.23511,0.00881
1615.17494,0.00885
1613.11477,0.00878
1611.05460,0.00872
1608.99442,0.00870
1606.93425,0.00871
1604.87408,0.00871
1602.81391,0.00870
1600.75373,0.00869
1598.69356,0.00870
1596.63339,0.00875
1594.57322,0.00881
1592.51305,0.00887
1590.45287,0.00892
1588.39270,0.00900
1586.33253,0.00912
1584.27236,0.00925
1582.21219,0.00936
1580.15201,0.00947
1578.09184,0.00961
1576.03167,0.00970
1573.97150,0.00971
1571.91133,0.00973
1569.85115,0.00982
1567.79098,0.00989
1565.73081,0.00994
1563.67064,0.01006
1561.61046,0.01035
1559.55029,0.01074
1557.49012,0.01097
1555.42995,0.01093
1553.36978,0.01075
1551.30960,0.01058
1549.24943,0.01056
1547.18926,0.01078
1545.12909,0.01126
1543.06892,0.01178
1541.00874,0.01204
1538.94857,0.01185
1536.88840,0.01142
1534.82823,0.01110
1532.76805,0.01097
1530.70788,0.01096
1528.64771,0.01105
1526.58754,0.01125
1524.52737,0.01148
1522.46719,0.01162
1520.40702,0.01162
1518.34685,0.01152
1516.28668,0.01145
1514.22651,0.01151
1512.16633,0.01177
1510.10616,0.01217
1508.04599,0.01241
1505.98582,0.01217
1503.92565,0.01158
1501.86547,0.01104
1499.80530,0.01074
1497.74513,0.01066
1495.68496,0.01067
1493.62478,0.01072
1491.56461,0.01082
1489.50444,0.01089
1487.44427,0.01080
1485.38410,0.01059
1483.32392,0.01040
1481.26375,0.01036
1479.20358,0.01048
1477.14341,0.01067
1475.08324,0.01084
1473.02306,0.01091
1470.96289,0.01082
1468.90272,0.01063
1466.84255,0.01049
1464.78238,0.01049
1462.72220,0.01062
1460.66203,0.01085
1458.60186,0.01101
1456.54169,0.01091
1454.48151,0.01053
1452.42134,0.01015
1450.36117,0.00996
1448.30100,0.00992
1446.24083,0.00992
1444.18065,0.00996
1442.12048,0.01005
1440.06031,0.01022
1438.00014,0.01042
1435.93997,0.01050
1433.87979,0.01042
1431.81962,0.01031
1429.75945,0.01028
1427.69928,0.01032
1425.63910,0.01039
1423.57893,0.01045
1421.51876,0.01046
1419.45859,0.01041
1417.39842,0.01020
1415.33824,0.00985
1413.27807,0.00957
1411.21790,0.00952
1409.15773,0.00967
1407.09756,0.00990
1405.03738,0.01009
1402.97721,0.01020
1400.91704,0.01027
1398.85687,0.01035
1396.79670,0.01039
1394.73652,0.01034
1392.67635,0.01020
1390.61618,0.01005
1388.55601,0.00996
1386.49583,0.00991
1384.43566,0.00989
1382.37549,0.00990
1380.31532,0.00998
1378.25515,0.01010
1376.19497,0.01016
1374.13480,0.01006
1372.07463,0.00985
1370.01446,0.00973
1367.95429,0.00982
1365.89411,0.01010
1363.83394,0.01040
1361.77377,0.01054
1359.71360,0.01049
1357.65343,0.01035
1355.59325,0.01020
1353.53308,0.01003
1351.47291,0.00983
1349.41274,0.00964
1347.35256,0.00953
1345.29239,0.00955
1343.23222,0.00974
1341.17205,0.01002
1339.11188,0.01021
1337.05170,0.01018
1334.99153,0.01000
1332.93136,0.00980
1330.87119,0.00966
1328.81102,0.00958
1326.75084,0.00957
1324.69067,0.00962
1322.63050,0.00970
1320.57033,0.00975
1318.51015,0.00975
1316.44998,0.00974
1314.38981,0.00975
1312.32964,0.00976
1310.26947,0.00974
1308.20929,0.00972
1306.14912,0.00970
1304.08895,0.00967
1302.02878,0.00964
1299.96861,0.00961
1297.90843,0.00961
1295.84826,0.00964
1293.78809,0.00967
1291.72792,0.00971
1289.66775,0.00982
1287.60757,0.00996
1285.54740,0.01005
1283.48723,0.01004
1281.42706,0.00997
1279.36688,0.00992
1277.30671,0.00994
1275.24654,0.01003
1273.18637,0.01016
1271.12620,0.01022
1269.06602,0.01017
1267.00585,0.01008
1264.94568,0.01000
1262.88551,0.00995
1260.82534,0.00991
1258.76516,0.00986
1256.70499,0.00983
1254.64482,0.00983
1252.58465,0.00986
1250.52447,0.00991
1248.46430,0.00994
1246.40413,0.00996
1244.34396,0.01002
1242.28379,0.01011
1240.22361,0.01016
1238.16344,0.01013
1236.10327,0.01005
1234.04310,0.00998
1231.98293,0.00996
1229.92275,0.01001
1227.86258,0.01010
1225.80241,0.01021
1223.74224,0.01030
1221.68207,0.01034
1219.62189,0.01038
1217.56172,0.01044
1215.50155,0.01052
1213.44138,0.01055
1211.38120,0.01050
1209.32103,0.01038
1207.26086,0.01025
1205.20069,0.01017
1203.14052,0.01018
1201.08034,0.01023
1199.02017,0.01029
1196.96000,0.01039
1194.89983,0.01057
1192.83966,0.01075
1190.77948,0.01081
1188.71931,0.01073
1186.65914,0.01068
1184.59897,0.01086
1182.53880,0.01114
1180.47862,0.01127
1178.41845,0.01131
1176.35828,0.01137
1174.29811,0.01145
1172.23793,0.01156
1170.17776,0.01156
1168.11759,0.01140
1166.05742,0.01120
1163.99725,0.01099
1161.93707,0.01083
1159.87690,0.01073
1157.81673,0.01071
1155.75656,0.01079
1153.69639,0.01089
1151.63621,0.01091
1149.57604,0.01083
1147.51587,0.01064
1145.45570,0.01040
1143.39552,0.01024
1141.33535,0.01031
1139.27518,0.01059
1137.21501,0.01078
1135.15484,0.01071
1133.09466,0.01055
1131.03449,0.01043
1128.97432,0.01037
1126.91415,0.01028
1124.85398,0.01003
1122.79380,0.00968
1120.73363,0.00946
1118.67346,0.00940
1116.61329,0.00938
1114.55312,0.00931
1112.49294,0.00918
1110.43277,0.00904
1108.37260,0.00894
1106.31243,0.00879
1104.25225,0.00864
1102.19208,0.00868
1100.13191,0.00876
1098.07174,0.00866
1096.01157,0.00836
1093.95139,0.00800
1091.89122,0.00771
1089.83105,0.00760
1087.77088,0.00760
1085.71071,0.00756
1083.65053,0.00748
1081.59036,0.00750
1079.53019,0.00759
1077.47002,0.00759
1075.40985,0.00744
1073.34967,0.00729
1071.28950,0.00711
1069.22933,0.00683
1067.16916,0.00666
1065.10898,0.00674
1063.04881,0.00694
1060.98864,0.00705
1058.92847,0.00705
1056.86830,0.00700
1054.80812,0.00687
1052.74795,0.00655
1050.68778,0.00612
1048.62761,0.00576
1046.56744,0.00547
1044.50726,0.00526
1042.44709,0.00526
1040.38692,0.00541
1038.32675,0.00550
1036.26657,0.00558
1034.20640,0.00572
1032.14623,0.00585
1030.08606,0.00599
1028.02589,0.00621
1025.96571,0.00649
1023.90554,0.00681
1021.84537,0.00717
1019.78520,0.00744
1017.72503,0.00747
1015.66485,0.00731
1013.60468,0.00713
1011.54451,0.00708
1009.48434,0.00724
1007.42417,0.00757
1005.36399,0.00791
1003.30382,0.00806
1001.24365,0.00796
999.18348,0.00775
997.12330,0.00757
995.06313,0.00749
993.00296,0.00752
990.94279,0.00771
988.88262,0.00795
986.82244,0.00810
984.76227,0.00810
982.70210,0.00796
980.64193,0.00779
978.58176,0.00782
976.52158,0.00793
974.46141,0.00788
972.40124,0.00779
970.34107,0.00790
968.28089,0.00818
966.22072,0.00846
964.16055,0.00864
962.10038,0.00869
960.04021,0.00868
957.98003,0.00868
955.91986,0.00873
953.85969,0.00885
951.79952,0.00904
949.73935,0.00928
947.67917,0.00946
945.61900,0.00942
943.55883,0.00925
941.49866,0.00909
939.43849,0.00904
937.37831,0.00919
935.31814,0.00959
933.25797,0.01001
931.19780,0.01013
929.13762,0.01008
927.07745,0.01003
925.01728,0.00992
922.95711,0.00978
920.89694,0.00975
918.83676,0.00969
916.77659,0.00942
914.71642,0.00910
912.65625,0.00905
910.59608,0.00923
908.53590,0.00939
906.47573,0.00928
904.41556,0.00889
902.35539,0.00863
900.29522,0.00874
898.23504,0.00893
896.17487,0.00895
894.11470,0.00891
892.05453,0.00884
889.99435,0.00865
887.93418,0.00839
885.87401,0.00824
883.81384,0.00820
881.75367,0.00818
879.69349,0.00812
877.63332,0.00806
875.57315,0.00820
873.51298,0.00857
871.45281,0.00890
869.39263,0.00901
867.33246,0.00884
865.27229,0.00856
863.21212,0.00845
861.15194,0.00862
859.09177,0.00899
857.03160,0.00935
854.97143,0.00949
852.91126,0.00942
850.85108,0.00937
848.79091,0.00939
846.73074,0.00925
844.67057,0.00895
842.61040,0.00870
840.55022,0.00852
838.49005,0.00832
836.42988,0.00826
834.36971,0.00845
832.30954,0.00861
830.24936,0.00845
828.18919,0.00814
826.12902,0.00816
824.06885,0.00849
822.00867,0.00849
819.94850,0.00793
817.88833,0.00737
815.82816,0.00713
813.76799,0.00710
811.70781,0.00712
809.64764,0.00725
807.58747,0.00757
805.52730,0.00799
803.46713,0.00830
801.40695,0.00837
799.34678,0.00827
797.28661,0.00823
795.22644,0.00824
793.16627,0.00803
791.10609,0.00747
789.04592,0.00679
786.98575,0.00642
784.92558,0.00665
782.86540,0.00730
780.80523,0.00786
778.74506,0.00795
776.68489,0.00767
774.62472,0.00765
772.56454,0.00827
770.50437,0.00899
768.44420,0.00887
766.38403,0.00795
764.32386,0.00702
762.26368,0.00642
760.20351,0.00604
758.14334,0.00609
756.08317,0.00662
754.02299,0.00708
751.96282,0.00712
749.90265,0.00702
747.84248,0.00705
745.78231,0.00712
743.72213,0.00699
741.66196,0.00659
739.60179,0.00625
737.54162,0.00617
735.48145,0.00634
733.42127,0.00688
731.36110,0.00757
729.30093,0.00778
727.24076,0.00740
725.18059,0.00692
723.12041,0.00670
721.06024,0.00669
719.00007,0.00684
716.93990,0.00708
714.87972,0.00720
712.81955,0.00706
710.75938,0.00675
708.69921,0.00653
706.63904,0.00648
704.57886,0.00644
702.51869,0.00624
700.45852,0.00585
698.39835,0.00542
696.33818,0.00520
694.27800,0.00524
692.21783,0.00549
690.15766,0.00592
688.09749,0.00642
686.03731,0.00673
683.97714,0.00668
681.91697,0.00630
679.85680,0.00565
677.79663,0.00488
675.73645,0.00424
673.67628,0.00398
671.61611,0.00419
669.55594,0.00475
667.49577,0.00555
665.43559,0.00625
663.37542,0.00662
661.31525,0.00674
659.25508,0.00666
657.19491,0.00640
655.13473,0.00602
653.07456,0.00557
651.01439,0.00520
648.95422,0.00517
646.89404,0.00556
644.83387,0.00596
642.77370,0.00580
640.71353,0.00498
638.65336,0.00409
636.59318,0.00388
634.53301,0.00460
632.47284,0.00588
630.41267,0.00693
628.35250,0.00708
626.29232,0.00630
624.23215,0.00556
622.17198,0.00555
620.11181,0.00626
618.05164,0.00655
615.99146,0.00561
613.93129,0.00442
611.87112,0.00442
609.81095,0.00583
607.75077,0.00684
605.69060,0.00532
603.63043,0.00218
601.57026,0.00015
599.51009,0.00000
