3996.73391	0.00007
3994.67373	0.00006
3992.61356	0.00008
3990.55339	0.00015
3988.49322	0.00030
3986.43305	0.00048
3984.37287	0.00059
3982.31270	0.00053
3980.25253	0.00032
3978.19236	0.00013
3976.13219	0.00010
3974.07201	0.00021
3972.01184	0.00034
3969.95167	0.00044
3967.89150	0.00050
3965.83133	0.00048
3963.77115	0.00035
3961.71098	0.00016
3959.65081	0.00000
3957.59064	0.00000
3955.53046	0.00014
3953.47029	0.00034
3951.41012	0.00058
3949.34995	0.00089
3947.28978	0.00119
3945.22960	0.00133
3943.16943	0.00128
3941.10926	0.00112
3939.04909	0.00097
3936.98892	0.00080
3934.92874	0.00059
3932.86857	0.00045
3930.80840	0.00047
3928.74823	0.00065
3926.68805	0.00085
3924.62788	0.00098
3922.56771	0.00096
3920.50754	0.00077
3918.44737	0.00049
3916.38719	0.00030
3914.32702	0.00037
3912.26685	0.00065
3910.20668	0.00093
3908.14651	0.00110
3906.08633	0.00118
3904.02616	0.00123
3901.96599	0.00129
3899.90582	0.00133
3897.84565	0.00134
3895.78547	0.00133
3893.72530	0.00128
3891.66513	0.00119
3889.60496	0.00106
3887.54478	0.00092
3885.48461	0.00087
3883.42444	0.00095
3881.36427	0.00110
3879.30410	0.00122
3877.24392	0.00123
3875.18375	0.00108
3873.12358	0.00089
3871.06341	0.00082
3869.00324	0.00090
3866.94306	0.00100
3864.88289	0.00101
3862.82272	0.00092
3860.76255	0.00078
3858.70237	0.00069
3856.64220	0.00073
3854.58203	0.00085
3852.52186	0.00098
3850.46169	0.00105
3848.40151	0.00103
3846.34134	0.00105
3844.28117	0.00122
3842.22100	0.00147
3840.16083	0.00164
3838.10065	0.00161
3836.04048	0.00138
3833.98031	0.00109
3831.92014	0.00088
3829.85997	0.00081
3827.79979	0.00085
3825.73962	0.00097
3823.67945	0.00111
3821.61928	0.00110
3819.55910	0.00083
3817.49893	0.00047
3815.43876	0.00028
3813.37859	0.00035
3811.31842	0.00059
3809.25824	0.00087
3807.19807	0.00109
3805.13790	0.00114
3803.07773	0.00100
3801.01756	0.00076
3798.95738	0.00057
3796.89721	0.00052
3794.83704	0.00058
3792.77687	0.00062
3790.71670	0.00054
3788.65652	0.00039
3786.59635	0.00031
3784.53618	0.00043
3782.47601	0.00074
3780.41583	0.00111
3778.35566	0.00141
3776.29549	0.00156
3774.23532	0.00157
3772.17515	0.00142
3770.11497	0.00113
3768.05480	0.00078
3765.99463	0.00049
3763.93446	0.00033
3761.87429	0.00030
3759.81411	0.00035
3757.75394	0.00044
3755.69377	0.00065
3753.63360	0.00108
3751.57342	0.00170
3749.51325	0.00227
3747.45308	0.00251
3745.39291	0.00234
3743.33274	0.00193
3741.27256	0.00158
3739.21239	0.00146
3737.15222	0.00148
3735.09205	0.00147
3733.03188	0.00130
3730.97170	0.00101
3728.91153	0.00079
3726.85136	0.00081
3724.79119	0.00104
3722.73102	0.00134
3720.67084	0.00161
3718.61067	0.00177
3716.55050	0.00171
3714.49033	0.00144
3712.43015	0.00111
3710.36998	0.00093
3708.30981	0.00095
3706.24964	0.00106
3704.18947	0.00120
3702.12929	0.00131
3700.06912	0.00138
3698.00895	0.00141
3695.94878	0.00145
3693.88861	0.00147
3691.82843	0.00139
3689.76826	0.00119
3687.70809	0.00091
3685.64792	0.00061
3683.58775	0.00038
3681.52757	0.00033
3679.46740	0.00054
3677.40723	0.00098
3675.34706	0.00141
3673.28688	0.00161
3671.22671	0.00153
3669.16654	0.00126
3667.10637	0.00096
3665.04620	0.00077
3662.98602	0.00071
3660.92585	0.00077
3658.86568	0.00093
3656.80551	0.00111
3654.74534	0.00124
3652.68516	0.00138
3650.62499	0.00153
3648.56482	0.00170
3646.50465	0.00184
3644.44447	0.00196
3642.38430	0.00210
3640.32413	0.00232
3638.26396	0.00263
3636.20379	0.00298
3634.14361	0.00329
3632.08344	0.00350
3630.02327	0.00358
3627.96310	0.00361
3625.90293	0.00372
3623.84275	0.00395
3621.78258	0.00422
3619.72241	0.00447
3617.66224	0.00469
3615.60207	0.00491
3613.54189	0.00510
3611.48172	0.00528
3609.42155	0.00548
3607.36138	0.00570
3605.30120	0.00592
3603.24103	0.00609
3601.18086	0.00622
3599.12069	0.00634
3597.06052	0.00654
3595.00034	0.00682
3592.94017	0.00717
3590.88000	0.00755
3588.81983	0.00799
3586.75966	0.00842
3584.69948	0.00873
3582.63931	0.00891
3580.57914	0.00908
3578.51897	0.00935
3576.45879	0.00971
3574.39862	0.01007
3572.33845	0.01038
3570.27828	0.01067
3568.21811	0.01103
3566.15793	0.01153
3564.09776	0.01211
3562.03759	0.01262
3559.97742	0.01298
3557.91725	0.01324
3555.85707	0.01351
3553.79690	0.01387
3551.73673	0.01423
3549.67656	0.01453
3547.61639	0.01478
3545.55621	0.01499
3543.49604	0.01522
3541.43587	0.01556
3539.37570	0.01606
3537.31552	0.01665
3535.25535	0.01726
3533.19518	0.01782
3531.13501	0.01833
3529.07484	0.01873
3527.01466	0.01898
3524.95449	0.01912
3522.89432	0.01926
3520.83415	0.01946
3518.77398	0.01973
3516.71380	0.02008
3514.65363	0.02053
3512.59346	0.02099
3510.53329	0.02140
3508.47312	0.02177
3506.41294	0.02222
3504.35277	0.02286
3502.29260	0.02360
3500.23243	0.02427
3498.17225	0.02482
3496.11208	0.02527
3494.05191	0.02565
3491.99174	0.02593
3489.93157	0.02609
3487.87139	0.02620
3485.81122	0.02631
3483.75105	0.02643
3481.69088	0.02663
3479.63071	0.02694
3477.57053	0.02734
3475.51036	0.02781
3473.45019	0.02838
3471.39002	0.02912
3469.32984	0.02995
3467.26967	0.03063
3465.20950	0.03099
3463.14933	0.03110
3461.08916	0.03115
3459.02898	0.03132
3456.96881	0.03166
3454.90864	0.03209
3452.84847	0.03255
3450.78830	0.03300
3448.72812	0.03342
3446.66795	0.03383
3444.60778	0.03423
3442.54761	0.03458
3440.48744	0.03481
3438.42726	0.03494
3436.36709	0.03510
3434.30692	0.03538
3432.24675	0.03577
3430.18657	0.03622
3428.12640	0.03667
3426.06623	0.03709
3424.00606	0.03747
3421.94589	0.03781
3419.88571	0.03812
3417.82554	0.03847
3415.76537	0.03886
3413.70520	0.03928
3411.64503	0.03968
3409.58485	0.04003
3407.52468	0.04033
3405.46451	0.04060
3403.40434	0.04083
3401.34416	0.04105
3399.28399	0.04127
3397.22382	0.04149
3395.16365	0.04167
3393.10348	0.04178
3391.04330	0.04186
3388.98313	0.04197
3386.92296	0.04215
3384.86279	0.04238
3382.80262	0.04267
3380.74244	0.04301
3378.68227	0.04338
3376.62210	0.04369
3374.56193	0.04393
3372.50176	0.04414
3370.44158	0.04438
3368.38141	0.04465
3366.32124	0.04489
3364.26107	0.04502
3362.20089	0.04501
3360.14072	0.04493
3358.08055	0.04492
3356.02038	0.04510
3353.96021	0.04549
3351.90003	0.04601
3349.83986	0.04647
3347.77969	0.04668
3345.71952	0.04665
3343.65935	0.04652
3341.59917	0.04643
3339.53900	0.04640
3337.47883	0.04639
3335.41866	0.04640
3333.35849	0.04645
3331.29831	0.04654
3329.23814	0.04662
3327.17797	0.04665
3325.11780	0.04663
3323.05762	0.04658
3320.99745	0.04656
3318.93728	0.04662
3316.87711	0.04676
3314.81694	0.04694
3312.75676	0.04707
3310.69659	0.04713
3308.63642	0.04717
3306.57625	0.04722
3304.51608	0.04733
3302.45590	0.04750
3300.39573	0.04770
3298.33556	0.04787
3296.27539	0.04795
3294.21521	0.04796
3292.15504	0.04791
3290.09487	0.04779
3288.03470	0.04761
3285.97453	0.04746
3283.91435	0.04740
3281.85418	0.04746
3279.79401	0.04758
3277.73384	0.04769
3275.67367	0.04772
3273.61349	0.04763
3271.55332	0.04744
3269.49315	0.04724
3267.43298	0.04707
3265.37281	0.04695
3263.31263	0.04680
3261.25246	0.04657
3259.19229	0.04630
3257.13212	0.04611
3255.07194	0.04603
3253.01177	0.04604
3250.95160	0.04610
3248.89143	0.04623
3246.83126	0.04639
3244.77108	0.04651
3242.71091	0.04649
3240.65074	0.04629
3238.59057	0.04597
3236.53040	0.04563
3234.47022	0.04532
3232.41005	0.04504
3230.34988	0.04483
3228.28971	0.04475
3226.22954	0.04481
3224.16936	0.04486
3222.10919	0.04474
3220.04902	0.04450
3217.98885	0.04426
3215.92867	0.04407
3213.86850	0.04393
3211.80833	0.04384
3209.74816	0.04377
3207.68799	0.04369
3205.62781	0.04360
3203.56764	0.04345
3201.50747	0.04318
3199.44730	0.04282
3197.38713	0.04252
3195.32695	0.04235
3193.26678	0.04225
3191.20661	0.04209
3189.14644	0.04182
3187.08626	0.04146
3185.02609	0.04109
3182.96592	0.04078
3180.90575	0.04055
3178.84558	0.04032
3176.78540	0.04001
3174.72523	0.03961
3172.66506	0.03920
3170.60489	0.03887
3168.54472	0.03870
3166.48454	0.03866
3164.42437	0.03866
3162.36420	0.03858
3160.30403	0.03840
3158.24386	0.03816
3156.18368	0.03793
3154.12351	0.03771
3152.06334	0.03744
3150.00317	0.03712
3147.94299	0.03675
3145.88282	0.03639
3143.82265	0.03607
3141.76248	0.03577
3139.70231	0.03545
3137.64213	0.03512
3135.58196	0.03485
3133.52179	0.03468
3131.46162	0.03456
3129.40145	0.03446
3127.34127	0.03433
3125.28110	0.03412
3123.22093	0.03384
3121.16076	0.03351
3119.10058	0.03316
3117.04041	0.03279
3114.98024	0.03246
3112.92007	0.03223
3110.85990	0.03206
3108.79972	0.03187
3106.73955	0.03164
3104.67938	0.03142
3102.61921	0.03123
3100.55904	0.03099
3098.49886	0.03069
3096.43869	0.03038
3094.37852	0.03014
3092.31835	0.02994
3090.25818	0.02971
3088.19800	0.02941
3086.13783	0.02911
3084.07766	0.02885
3082.01749	0.02864
3079.95731	0.02841
3077.89714	0.02813
3075.83697	0.02781
3073.77680	0.02746
3071.71663	0.02715
3069.65645	0.02689
3067.59628	0.02669
3065.53611	0.02647
3063.47594	0.02628
3061.41577	0.02615
3059.35559	0.02604
3057.29542	0.02583
3055.23525	0.02548
3053.17508	0.02509
3051.11491	0.02474
3049.05473	0.02449
3046.99456	0.02433
3044.93439	0.02423
3042.87422	0.02412
3040.81404	0.02398
3038.75387	0.02380
3036.69370	0.02362
3034.63353	0.02341
3032.57336	0.02318
3030.51318	0.02299
3028.45301	0.02286
3026.39284	0.02276
3024.33267	0.02267
3022.27250	0.02261
3020.21232	0.02257
3018.15215	0.02253
3016.09198	0.02251
3014.03181	0.02250
3011.97163	0.02247
3009.91146	0.02239
3007.85129	0.02225
3005.79112	0.02208
3003.73095	0.02193
3001.67077	0.02185
2999.61060	0.02176
2997.55043	0.02160
2995.49026	0.02136
2993.43009	0.02120
2991.36991	0.02114
2989.30974	0.02112
2987.24957	0.02114
2985.18940	0.02116
2983.12923	0.02121
2981.06905	0.02143
2979.00888	0.02192
2976.94871	0.02262
2974.88854	0.02342
2972.82836	0.02421
2970.76819	0.02492
2968.70802	0.02564
2966.64785	0.02666
2964.58768	0.02797
2962.52750	0.02935
2960.46733	0.03067
2958.40716	0.03203
2956.34699	0.03354
2954.28682	0.03516
2952.22664	0.03673
2950.16647	0.03814
2948.10630	0.03959
2946.04613	0.04139
2943.98596	0.04359
2941.92578	0.04589
2939.86561	0.04799
2937.80544	0.05008
2935.74527	0.05238
2933.68509	0.05477
2931.62492	0.05702
2929.56475	0.05900
2927.50458	0.06067
2925.44441	0.06199
2923.38423	0.06301
2921.32406	0.06382
2919.26389	0.06414
2917.20372	0.06351
2915.14355	0.06182
2913.08337	0.05945
2911.02320	0.05690
2908.96303	0.05448
2906.90286	0.05236
2904.84268	0.05057
2902.78251	0.04894
2900.72234	0.04734
2898.66217	0.04589
2896.60200	0.04464
2894.54182	0.04344
2892.48165	0.04225
2890.42148	0.04119
2888.36131	0.04029
2886.30114	0.03954
2884.24096	0.03895
2882.18079	0.03855
2880.12062	0.03831
2878.06045	0.03820
2876.00028	0.03818
2873.94010	0.03828
2871.87993	0.03853
2869.81976	0.03894
2867.75959	0.03953
2865.69941	0.04037
2863.63924	0.04149
2861.57907	0.04286
2859.51890	0.04443
2857.45873	0.04616
2855.39855	0.04789
2853.33838	0.04924
2851.27821	0.04977
2849.21804	0.04894
2847.15787	0.04655
2845.09769	0.04319
2843.03752	0.03985
2840.97735	0.03709
2838.91718	0.03495
2836.85700	0.03331
2834.79683	0.03201
2832.73666	0.03091
2830.67649	0.02993
2828.61632	0.02901
2826.55614	0.02824
2824.49597	0.02763
2822.43580	0.02709
2820.37563	0.02656
2818.31546	0.02607
2816.25528	0.02568
2814.19511	0.02536
2812.13494	0.02506
2810.07477	0.02471
2808.01460	0.02434
2805.95442	0.02397
2803.89425	0.02352
2801.83408	0.02307
2799.77391	0.02285
2797.71373	0.02282
2795.65356	0.02275
2793.59339	0.02246
2791.53322	0.02211
2789.47305	0.02184
2787.41287	0.02162
2785.35270	0.02142
2783.29253	0.02128
2781.23236	0.02123
2779.17219	0.02113
2777.11201	0.02094
2775.05184	0.02073
2772.99167	0.02061
2770.93150	0.02052
2768.87133	0.02031
2766.81115	0.02011
2764.75098	0.02010
2762.69081	0.02015
2760.63064	0.02005
2758.57046	0.01982
2756.51029	0.01956
2754.45012	0.01941
2752.38995	0.01949
2750.32978	0.01972
2748.26960	0.01987
2746.20943	0.01982
2744.14926	0.01959
2742.08909	0.01928
2740.02892	0.01903
2737.96874	0.01895
2735.90857	0.01903
2733.84840	0.01918
2731.78823	0.01930
2729.72805	0.01927
2727.66788	0.01905
2725.60771	0.01879
2723.54754	0.01868
2721.48737	0.01869
2719.42719	0.01871
2717.36702	0.01872
2715.30685	0.01873
2713.24668	0.01871
2711.18651	0.01865
2709.12633	0.01852
2707.06616	0.01836
2705.00599	0.01828
2702.94582	0.01826
2700.88565	0.01824
2698.82547	0.01826
2696.76530	0.01823
2694.70513	0.01804
2692.64496	0.01778
2690.58478	0.01766
2688.52461	0.01776
2686.46444	0.01794
2684.40427	0.01804
2682.34410	0.01800
2680.28392	0.01784
2678.22375	0.01768
2676.16358	0.01760
2674.10341	0.01760
2672.04324	0.01760
2669.98306	0.01757
2667.92289	0.01755
2665.86272	0.01751
2663.80255	0.01738
2661.74238	0.01721
2659.68220	0.01716
2657.62203	0.01723
2655.56186	0.01727
2653.50169	0.01725
2651.44151	0.01714
2649.38134	0.01689
2647.32117	0.01661
2645.26100	0.01654
2643.20083	0.01667
2641.14065	0.01679
2639.08048	0.01670
2637.02031	0.01644
2634.96014	0.01618
2632.89997	0.01595
2630.83979	0.01579
2628.77962	0.01581
2626.71945	0.01588
2624.65928	0.01583
2622.59910	0.01568
2620.53893	0.01551
2618.47876	0.01530
2616.41859	0.01505
2614.35842	0.01483
2612.29824	0.01472
2610.23807	0.01480
2608.17790	0.01502
2606.11773	0.01525
2604.05756	0.01534
2601.99738	0.01521
2599.93721	0.01495
2597.87704	0.01469
2595.81687	0.01445
2593.75670	0.01426
2591.69652	0.01428
2589.63635	0.01437
2587.57618	0.01420
2585.51601	0.01388
2583.45583	0.01375
2581.39566	0.01378
2579.33549	0.01376
2577.27532	0.01361
2575.21515	0.01344
2573.15497	0.01335
2571.09480	0.01332
2569.03463	0.01324
2566.97446	0.01308
2564.91429	0.01303
2562.85411	0.01323
2560.79394	0.01354
2558.73377	0.01362
2556.67360	0.01338
2554.61342	0.01301
2552.55325	0.01264
2550.49308	0.01233
2548.43291	0.01222
2546.37274	0.01237
2544.31256	0.01254
2542.25239	0.01252
2540.19222	0.01238
2538.13205	0.01225
2536.07188	0.01221
2534.01170	0.01234
2531.95153	0.01254
2529.89136	0.01269
2527.83119	0.01273
2525.77102	0.01264
2523.71084	0.01248
2521.65067	0.01231
2519.59050	0.01221
2517.53033	0.01224
2515.47015	0.01229
2513.40998	0.01208
2511.34981	0.01169
2509.28964	0.01148
2507.22947	0.01153
2505.16929	0.01162
2503.10912	0.01160
2501.04895	0.01145
2498.98878	0.01134
2496.92861	0.01136
2494.86843	0.01144
2492.80826	0.01149
2490.74809	0.01146
2488.68792	0.01135
2486.62775	0.01125
2484.56757	0.01120
2482.50740	0.01118
2480.44723	0.01111
2478.38706	0.01095
2476.32688	0.01079
2474.26671	0.01078
2472.20654	0.01089
2470.14637	0.01088
2468.08620	0.01064
2466.02602	0.01032
2463.96585	0.01016
2461.90568	0.01023
2459.84551	0.01052
2457.78534	0.01089
2455.72516	0.01111
2453.66499	0.01103
2451.60482	0.01081
2449.54465	0.01074
2447.48447	0.01081
2445.42430	0.01071
2443.36413	0.01033
2441.30396	0.01000
2439.24379	0.01001
2437.18361	0.01011
2435.12344	0.01004
2433.06327	0.01000
2431.00310	0.01012
2428.94293	0.01010
2426.88275	0.00983
2424.82258	0.00958
2422.76241	0.00952
2420.70224	0.00951
2418.64207	0.00940
2416.58189	0.00937
2414.52172	0.00960
2412.46155	0.00986
2410.40138	0.01000
2408.34120	0.01009
2406.28103	0.01017
2404.22086	0.01016
2402.16069	0.01003
2400.10052	0.00981
2398.04034	0.00962
2395.98017	0.00950
2393.92000	0.00936
2391.85983	0.00917
2389.79966	0.00899
2387.73948	0.00891
2385.67931	0.00897
2383.61914	0.00909
2381.55897	0.00917
2379.49880	0.00916
2377.43862	0.00909
2375.37845	0.00901
2373.31828	0.00891
2371.25811	0.00873
2369.19793	0.00851
2367.13776	0.00836
2365.07759	0.00824
2363.01742	0.00815
2360.95725	0.00826
2358.89707	0.00871
2356.83690	0.00939
2354.77673	0.01003
2352.71656	0.01041
2350.65639	0.01045
2348.59621	0.01015
2346.53604	0.00965
2344.47587	0.00927
2342.41570	0.00910
2340.35552	0.00901
2338.29535	0.00896
2336.23518	0.00907
2334.17501	0.00948
2332.11484	0.01010
2330.05466	0.01071
2327.99449	0.01110
2325.93432	0.01118
2323.87415	0.01092
2321.81398	0.01046
2319.75380	0.01006
2317.69363	0.00986
2315.63346	0.00985
2313.57329	0.00984
2311.51312	0.00968
2309.45294	0.00938
2307.39277	0.00909
2305.33260	0.00890
2303.27243	0.00881
2301.21225	0.00877
2299.15208	0.00881
2297.09191	0.00895
2295.03174	0.00916
2292.97157	0.00934
2290.91139	0.00939
2288.85122	0.00935
2286.79105	0.00934
2284.73088	0.00936
2282.67071	0.00933
2280.61053	0.00929
2278.55036	0.00934
2276.49019	0.00944
2274.43002	0.00939
2272.36984	0.00907
2270.30967	0.00852
2268.24950	0.00793
2266.18933	0.00747
2264.12916	0.00721
2262.06898	0.00713
2260.00881	0.00716
2257.94864	0.00718
2255.88847	0.00709
2253.82830	0.00684
2251.76812	0.00655
2249.70795	0.00644
2247.64778	0.00674
2245.58761	0.00738
2243.52744	0.00786
2241.46726	0.00795
2239.40709	0.00788
2237.34692	0.00776
2235.28675	0.00760
2233.22657	0.00732
2231.16640	0.00700
2229.10623	0.00698
2227.04606	0.00730
2224.98589	0.00751
2222.92571	0.00723
2220.86554	0.00667
2218.80537	0.00655
2216.74520	0.00701
2214.68503	0.00739
2212.62485	0.00712
2210.56468	0.00645
2208.50451	0.00602
2206.44434	0.00601
2204.38417	0.00601
2202.32399	0.00590
2200.26382	0.00583
2198.20365	0.00569
2196.14348	0.00559
2194.08330	0.00587
2192.02313	0.00637
2189.96296	0.00682
2187.90279	0.00725
2185.84262	0.00763
2183.78244	0.00795
2181.72227	0.00810
2179.66210	0.00767
2177.60193	0.00663
2175.54176	0.00544
2173.48158	0.00463
2171.42141	0.00450
2169.36124	0.00486
2167.30107	0.00527
2165.24089	0.00554
2163.18072	0.00524
2161.12055	0.00401
2159.06038	0.00274
2157.00021	0.00247
2154.94003	0.00272
2152.87986	0.00284
2150.81969	0.00309
2148.75952	0.00376
2146.69935	0.00443
2144.63917	0.00476
2142.57900	0.00497
2140.51883	0.00521
2138.45866	0.00531
2136.39849	0.00522
2134.33831	0.00516
2132.27814	0.00533
2130.21797	0.00549
2128.15780	0.00552
2126.09762	0.00567
2124.03745	0.00603
2121.97728	0.00646
2119.91711	0.00683
2117.85694	0.00693
2115.79676	0.00664
2113.73659	0.00643
2111.67642	0.00670
2109.61625	0.00711
2107.55608	0.00742
2105.49590	0.00773
2103.43573	0.00762
2101.37556	0.00693
2099.31539	0.00635
2097.25521	0.00603
2095.19504	0.00580
2093.13487	0.00556
2091.07470	0.00541
2089.01453	0.00542
2086.95435	0.00553
2084.89418	0.00567
2082.83401	0.00586
2080.77384	0.00612
2078.71367	0.00643
2076.65349	0.00670
2074.59332	0.00683
2072.53315	0.00688
2070.47298	0.00689
2068.41281	0.00683
2066.35263	0.00653
2064.29246	0.00595
2062.23229	0.00534
2060.17212	0.00498
2058.11194	0.00490
2056.05177	0.00499
2053.99160	0.00516
2051.93143	0.00534
2049.87126	0.00560
2047.81108	0.00608
2045.75091	0.00673
2043.69074	0.00726
2041.63057	0.00730
2039.57040	0.00665
2037.51022	0.00540
2035.45005	0.00402
2033.38988	0.00299
2031.32971	0.00259
2029.26954	0.00289
2027.20936	0.00366
2025.14919	0.00452
2023.08902	0.00518
2021.02885	0.00547
2018.96867	0.00530
2016.90850	0.00480
2014.84833	0.00436
2012.78816	0.00421
2010.72799	0.00406
2008.66781	0.00372
2006.60764	0.00350
2004.54747	0.00371
2002.48730	0.00431
2000.42713	0.00497
1998.36695	0.00539
1996.30678	0.00539
1994.24661	0.00498
1992.18644	0.00434
1990.12626	0.00377
1988.06609	0.00342
1986.00592	0.00331
1983.94575	0.00338
1981.88558	0.00362
1979.82540	0.00385
1977.76523	0.00381
1975.70506	0.00337
1973.64489	0.00274
1971.58472	0.00237
1969.52454	0.00263
1967.46437	0.00337
1965.40420	0.00415
1963.34403	0.00454
1961.28386	0.00436
1959.22368	0.00381
1957.16351	0.00338
1955.10334	0.00345
1953.04317	0.00394
1950.98299	0.00445
1948.92282	0.00460
1946.86265	0.00429
1944.80248	0.00369
1942.74231	0.00309
1940.68213	0.00277
1938.62196	0.00295
1936.56179	0.00360
1934.50162	0.00434
1932.44145	0.00483
1930.38127	0.00500
1928.32110	0.00499
1926.26093	0.00491
1924.20076	0.00483
1922.14059	0.00473
1920.08041	0.00457
1918.02024	0.00429
1915.96007	0.00397
1913.89990	0.00375
1911.83972	0.00372
1909.77955	0.00380
1907.71938	0.00389
1905.65921	0.00398
1903.59904	0.00407
1901.53886	0.00414
1899.47869	0.00418
1897.41852	0.00416
1895.35835	0.00405
1893.29818	0.00392
1891.23800	0.00389
1889.17783	0.00404
1887.11766	0.00431
1885.05749	0.00458
1882.99731	0.00472
1880.93714	0.00463
1878.87697	0.00435
1876.81680	0.00402
1874.75663	0.00382
1872.69645	0.00380
1870.63628	0.00383
1868.57611	0.00374
1866.51594	0.00352
1864.45577	0.00332
1862.39559	0.00331
1860.33542	0.00348
1858.27525	0.00368
1856.21508	0.00377
1854.15491	0.00370
1852.09473	0.00351
1850.03456	0.00324
1847.97439	0.00297
1845.91422	0.00282
1843.85404	0.00289
1841.79387	0.00319
1839.73370	0.00359
1837.67353	0.00395
1835.61336	0.00417
1833.55318	0.00421
1831.49301	0.00406
1829.43284	0.00381
1827.37267	0.00358
1825.31250	0.00339
1823.25232	0.00315
1821.19215	0.00285
1819.13198	0.00261
1817.07181	0.00256
1815.01163	0.00270
1812.95146	0.00296
1810.89129	0.00321
1808.83112	0.00337
1806.77095	0.00337
1804.71077	0.00326
1802.65060	0.00310
1800.59043	0.00297
1798.53026	0.00291
1796.47009	0.00290
1794.40991	0.00291
1792.34974	0.00289
1790.28957	0.00280
1788.22940	0.00267
1786.16923	0.00257
1784.10905	0.00256
1782.04888	0.00260
1779.98871	0.00255
1777.92854	0.00243
1775.86836	0.00234
1773.80819	0.00235
1771.74802	0.00251
1769.68785	0.00282
1767.62768	0.00327
1765.56750	0.00388
1763.50733	0.00462
1761.44716	0.00550
1759.38699	0.00655
1757.32682	0.00781
1755.26664	0.00928
1753.20647	0.01093
1751.14630	0.01269
1749.08613	0.01442
1747.02596	0.01596
1744.96578	0.01717
1742.90561	0.01800
1740.84544	0.01848
1738.78527	0.01872
1736.72509	0.01884
1734.66492	0.01885
1732.60475	0.01872
1730.54458	0.01849
1728.48441	0.01827
1726.42423	0.01818
1724.36406	0.01825
1722.30389	0.01838
1720.24372	0.01852
1718.18355	0.01867
1716.12337	0.01882
1714.06320	0.01894
1712.00303	0.01900
1709.94286	0.01894
1707.88268	0.01870
1705.82251	0.01832
1703.76234	0.01794
1701.70217	0.01771
1699.64200	0.01774
1697.58182	0.01801
1695.52165	0.01847
1693.46148	0.01910
1691.40131	0.01991
1689.34114	0.02092
1687.28096	0.02223
1685.22079	0.02392
1683.16062	0.02592
1681.10045	0.02790
1679.04028	0.02958
1676.98010	0.03089
1674.91993	0.03181
1672.85976	0.03233
1670.79959	0.03243
1668.73941	0.03215
1666.67924	0.03159
1664.61907	0.03090
1662.55890	0.03020
1660.49873	0.02961
1658.43855	0.02921
1656.37838	0.02898
1654.31821	0.02882
1652.25804	0.02862
1650.19787	0.02844
1648.13769	0.02833
1646.07752	0.02828
1644.01735	0.02830
1641.95718	0.02846
1639.89701	0.02882
1637.83683	0.02941
1635.77666	0.03019
1633.71649	0.03102
1631.65632	0.03175
1629.59614	0.03233
1627.53597	0.03274
1625.47580	0.03301
1623.41563	0.03316
1621.35546	0.03325
1619.29528	0.03338
1617.23511	0.03369
1615.17494	0.03429
1613.11477	0.03524
1611.05460	0.03646
1608.99442	0.03774
1606.93425	0.03871
1604.87408	0.03903
1602.81391	0.03855
1600.75373	0.03743
1598.69356	0.03598
1596.63339	0.03450
1594.57322	0.03316
1592.51305	0.03200
1590.45287	0.03099
1588.39270	0.03006
1586.33253	0.02919
1584.27236	0.02834
1582.21219	0.02750
1580.15201	0.02669
1578.09184	0.02593
1576.03167	0.02524
1573.97150	0.02461
1571.91133	0.02397
1569.85115	0.02325
1567.79098	0.02246
1565.73081	0.02166
1563.67064	0.02089
1561.61046	0.02008
1559.55029	0.01913
1557.49012	0.01806
1555.42995	0.01706
1553.36978	0.01620
1551.30960	0.01547
1549.24943	0.01480
1547.18926	0.01412
1545.12909	0.01340
1543.06892	0.01262
1541.00874	0.01183
1538.94857	0.01112
1536.88840	0.01055
1534.82823	0.01009
1532.76805	0.00967
1530.70788	0.00928
1528.64771	0.00903
1526.58754	0.00903
1524.52737	0.00942
1522.46719	0.01030
1520.40702	0.01155
1518.34685	0.01285
1516.28668	0.01382
1514.22651	0.01414
1512.16633	0.01375
1510.10616	0.01274
1508.04599	0.01130
1505.98582	0.00974
1503.92565	0.00840
1501.86547	0.00739
1499.80530	0.00655
1497.74513	0.00579
1495.68496	0.00509
1493.62478	0.00449
1491.56461	0.00399
1489.50444	0.00354
1487.44427	0.00316
1485.38410	0.00295
1483.32392	0.00305
1481.26375	0.00346
1479.20358	0.00417
1477.14341	0.00522
1475.08324	0.00669
1473.02306	0.00860
1470.96289	0.01078
1468.90272	0.01298
1466.84255	0.01501
1464.78238	0.01672
1462.72220	0.01802
1460.66203	0.01901
1458.60186	0.01989
1456.54169	0.02075
1454.48151	0.02152
1452.42134	0.02221
1450.36117	0.02293
1448.30100	0.02377
1446.24083	0.02471
1444.18065	0.02565
1442.12048	0.02652
1440.06031	0.02728
1438.00014	0.02792
1435.93997	0.02841
1433.87979	0.02872
1431.81962	0.02885
1429.75945	0.02889
1427.69928	0.02893
1425.63910	0.02905
1423.57893	0.02926
1421.51876	0.02950
1419.45859	0.02968
1417.39842	0.02970
1415.33824	0.02956
1413.27807	0.02925
1411.21790	0.02880
1409.15773	0.02820
1407.09756	0.02749
1405.03738	0.02670
1402.97721	0.02589
1400.91704	0.02509
1398.85687	0.02434
1396.79670	0.02364
1394.73652	0.02304
1392.67635	0.02268
1390.61618	0.02265
1388.55601	0.02293
1386.49583	0.02345
1384.43566	0.02410
1382.37549	0.02483
1380.31532	0.02557
1378.25515	0.02622
1376.19497	0.02673
1374.13480	0.02705
1372.07463	0.02718
1370.01446	0.02716
1367.95429	0.02701
1365.89411	0.02670
1363.83394	0.02626
1361.77377	0.02573
1359.71360	0.02523
1357.65343	0.02486
1355.59325	0.02467
1353.53308	0.02457
1351.47291	0.02450
1349.41274	0.02440
1347.35256	0.02429
1345.29239	0.02417
1343.23222	0.02405
1341.17205	0.02395
1339.11188	0.02388
1337.05170	0.02382
1334.99153	0.02376
1332.93136	0.02373
1330.87119	0.02375
1328.81102	0.02383
1326.75084	0.02397
1324.69067	0.02413
1322.63050	0.02424
1320.57033	0.02428
1318.51015	0.02421
1316.44998	0.02404
1314.38981	0.02379
1312.32964	0.02348
1310.26947	0.02313
1308.20929	0.02271
1306.14912	0.02217
1304.08895	0.02153
1302.02878	0.02088
1299.96861	0.02033
1297.90843	0.01997
1295.84826	0.01983
1293.78809	0.01987
1291.72792	0.02001
1289.66775	0.02019
1287.60757	0.02038
1285.54740	0.02060
1283.48723	0.02085
1281.42706	0.02111
1279.36688	0.02132
1277.30671	0.02147
1275.24654	0.02162
1273.18637	0.02183
1271.12620	0.02216
1269.06602	0.02263
1267.00585	0.02325
1264.94568	0.02401
1262.88551	0.02485
1260.82534	0.02565
1258.76516	0.02635
1256.70499	0.02694
1254.64482	0.02746
1252.58465	0.02796
1250.52447	0.02845
1248.46430	0.02890
1246.40413	0.02924
1244.34396	0.02943
1242.28379	0.02947
1240.22361	0.02938
1238.16344	0.02918
1236.10327	0.02888
1234.04310	0.02843
1231.98293	0.02781
1229.92275	0.02700
1227.86258	0.02602
1225.80241	0.02492
1223.74224	0.02375
1221.68207	0.02251
1219.62189	0.02120
1217.56172	0.01987
1215.50155	0.01856
1213.44138	0.01728
1211.38120	0.01606
1209.32103	0.01486
1207.26086	0.01368
1205.20069	0.01246
1203.14052	0.01115
1201.08034	0.00970
1199.02017	0.00815
1196.96000	0.00662
1194.89983	0.00531
1192.83966	0.00438
1190.77948	0.00384
1188.71931	0.00354
1186.65914	0.00331
1184.59897	0.00314
1182.53880	0.00326
1180.47862	0.00375
1178.41845	0.00463
1176.35828	0.00595
1174.29811	0.00784
1172.23793	0.01013
1170.17776	0.01239
1168.11759	0.01419
1166.05742	0.01548
1163.99725	0.01640
1161.93707	0.01706
1159.87690	0.01753
1157.81673	0.01797
1155.75656	0.01852
1153.69639	0.01920
1151.63621	0.02005
1149.57604	0.02108
1147.51587	0.02225
1145.45570	0.02341
1143.39552	0.02437
1141.33535	0.02509
1139.27518	0.02571
1137.21501	0.02644
1135.15484	0.02726
1133.09466	0.02810
1131.03449	0.02898
1128.97432	0.02994
1126.91415	0.03099
1124.85398	0.03209
1122.79380	0.03327
1120.73363	0.03450
1118.67346	0.03576
1116.61329	0.03705
1114.55312	0.03837
1112.49294	0.03966
1110.43277	0.04086
1108.37260	0.04198
1106.31243	0.04306
1104.25225	0.04419
1102.19208	0.04548
1100.13191	0.04705
1098.07174	0.04894
1096.01157	0.05107
1093.95139	0.05322
1091.89122	0.05522
1089.83105	0.05712
1087.77088	0.05897
1085.71071	0.06084
1083.65053	0.06276
1081.59036	0.06472
1079.53019	0.06670
1077.47002	0.06878
1075.40985	0.07095
1073.34967	0.07307
1071.28950	0.07509
1069.22933	0.07696
1067.16916	0.07859
1065.10898	0.07987
1063.04881	0.08092
1060.98864	0.08200
1058.92847	0.08330
1056.86830	0.08487
1054.80812	0.08667
1052.74795	0.08867
1050.68778	0.09078
1048.62761	0.09304
1046.56744	0.09546
1044.50726	0.09788
1042.44709	0.10013
1040.38692	0.10211
1038.32675	0.10390
1036.26657	0.10546
1034.20640	0.10657
1032.14623	0.10712
1030.08606	0.10725
1028.02589	0.10715
1025.96571	0.10688
1023.90554	0.10645
1021.84537	0.10591
1019.78520	0.10538
1017.72503	0.10506
1015.66485	0.10500
1013.60468	0.10510
1011.54451	0.10519
1009.48434	0.10517
1007.42417	0.10509
1005.36399	0.10492
1003.30382	0.10440
1001.24365	0.10347
999.18348	0.10234
997.12330	0.10108
995.06313	0.09960
993.00296	0.09787
990.94279	0.09605
988.88262	0.09433
986.82244	0.09280
984.76227	0.09139
982.70210	0.08999
980.64193	0.08856
978.58176	0.08707
976.52158	0.08556
974.46141	0.08402
972.40124	0.08241
970.34107	0.08065
968.28089	0.07879
966.22072	0.07693
964.16055	0.07515
962.10038	0.07342
960.04021	0.07168
957.98003	0.07005
955.91986	0.06866
953.85969	0.06734
951.79952	0.06587
949.73935	0.06424
947.67917	0.06262
945.61900	0.06104
943.55883	0.05927
941.49866	0.05703
939.43849	0.05424
937.37831	0.05101
935.31814	0.04760
933.25797	0.04427
931.19780	0.04120
929.13762	0.03856
927.07745	0.03632
925.01728	0.03432
922.95711	0.03251
920.89694	0.03098
918.83676	0.02962
916.77659	0.02801
914.71642	0.02598
912.65625	0.02392
910.59608	0.02225
908.53590	0.02098
906.47573	0.02005
904.41556	0.01946
902.35539	0.01915
900.29522	0.01900
898.23504	0.01903
896.17487	0.01932
894.11470	0.01969
892.05453	0.01980
889.99435	0.01943
887.93418	0.01859
885.87401	0.01753
883.81384	0.01659
881.75367	0.01586
879.69349	0.01508
877.63332	0.01416
875.57315	0.01324
873.51298	0.01239
871.45281	0.01167
869.39263	0.01120
867.33246	0.01092
865.27229	0.01065
863.21212	0.01034
861.15194	0.01009
859.09177	0.00993
857.03160	0.00980
854.97143	0.00972
852.91126	0.00977
850.85108	0.00989
848.79091	0.01002
846.73074	0.01015
844.67057	0.01008
842.61040	0.00966
840.55022	0.00913
838.49005	0.00890
836.42988	0.00896
834.36971	0.00890
832.30954	0.00852
830.24936	0.00790
828.18919	0.00711
826.12902	0.00634
824.06885	0.00599
822.00867	0.00606
819.94850	0.00606
817.88833	0.00587
815.82816	0.00575
813.76799	0.00587
811.70781	0.00606
809.64764	0.00616
807.58747	0.00625
805.52730	0.00631
803.46713	0.00610
801.40695	0.00569
799.34678	0.00528
797.28661	0.00490
795.22644	0.00436
793.16627	0.00378
791.10609	0.00353
789.04592	0.00378
786.98575	0.00415
784.92558	0.00443
782.86540	0.00467
780.80523	0.00487
778.74506	0.00493
776.68489	0.00486
774.62472	0.00473
772.56454	0.00449
770.50437	0.00408
768.44420	0.00371
766.38403	0.00365
764.32386	0.00378
762.26368	0.00390
760.20351	0.00407
758.14334	0.00425
756.08317	0.00421
754.02299	0.00397
751.96282	0.00383
749.90265	0.00353
747.84248	0.00314
745.78231	0.00265
743.72213	0.00233
741.66196	0.00215
739.60179	0.00180
737.54162	0.00141
735.48145	0.00129
733.42127	0.00134
731.36110	0.00145
729.30093	0.00154
727.24076	0.00156
725.18059	0.00175
723.12041	0.00223
721.06024	0.00281
719.00007	0.00328
716.93990	0.00353
714.87972	0.00365
712.81955	0.00373
710.75938	0.00390
708.69921	0.00423
706.63904	0.00477
704.57886	0.00542
702.51869	0.00600
700.45852	0.00632
698.39835	0.00637
696.33818	0.00627
694.27800	0.00612
692.21783	0.00587
690.15766	0.00550
688.09749	0.00512
686.03731	0.00475
683.97714	0.00429
681.91697	0.00376
679.85680	0.00336
677.79663	0.00314
675.73645	0.00285
673.67628	0.00220
671.61611	0.00119
669.55594	0.00032
667.49577	0.00015
665.43559	0.00051
663.37542	0.00102
661.31525	0.00152
659.25508	0.00199
657.19491	0.00233
655.13473	0.00256
653.07456	0.00274
651.01439	0.00295
648.95422	0.00319
646.89404	0.00352
644.83387	0.00390
642.77370	0.00419
640.71353	0.00421
638.65336	0.00394
636.59318	0.00343
634.53301	0.00277
632.47284	0.00217
630.41267	0.00191
628.35250	0.00212
626.29232	0.00254
624.23215	0.00265
622.17198	0.00269
620.11181	0.00323
618.05164	0.00435
615.99146	0.00488
613.93129	0.00407
611.87112	0.00297
609.81095	0.00222
607.75077	0.00132
605.69060	0.00042
603.63043	0.00015
601.57026	0.00000
599.51009	0.00000
