3996.73391	0.00004
3994.67373	0.00005
3992.61356	0.00005
3990.55339	0.00001
3988.49322	0.00000
3986.43305	0.00006
3984.37287	0.00018
3982.31270	0.00032
3980.25253	0.00041
3978.19236	0.00039
3976.13219	0.00029
3974.07201	0.00016
3972.01184	0.00005
3969.95167	0.00007
3967.89150	0.00022
3965.83133	0.00044
3963.77115	0.00057
3961.71098	0.00054
3959.65081	0.00042
3957.59064	0.00031
3955.53046	0.00027
3953.47029	0.00026
3951.41012	0.00033
3949.34995	0.00050
3947.28978	0.00072
3945.22960	0.00090
3943.16943	0.00096
3941.10926	0.00093
3939.04909	0.00085
3936.98892	0.00071
3934.92874	0.00055
3932.86857	0.00045
3930.80840	0.00052
3928.74823	0.00074
3926.68805	0.00099
3924.62788	0.00106
3922.56771	0.00086
3920.50754	0.00051
3918.44737	0.00021
3916.38719	0.00011
3914.32702	0.00024
3912.26685	0.00047
3910.20668	0.00069
3908.14651	0.00083
3906.08633	0.00089
3904.02616	0.00087
3901.96599	0.00079
3899.90582	0.00073
3897.84565	0.00077
3895.78547	0.00091
3893.72530	0.00109
3891.66513	0.00118
3889.60496	0.00114
3887.54478	0.00099
3885.48461	0.00076
3883.42444	0.00050
3881.36427	0.00034
3879.30410	0.00033
3877.24392	0.00042
3875.18375	0.00050
3873.12358	0.00052
3871.06341	0.00058
3869.00324	0.00075
3866.94306	0.00095
3864.88289	0.00106
3862.82272	0.00104
3860.76255	0.00093
3858.70237	0.00085
3856.64220	0.00085
3854.58203	0.00086
3852.52186	0.00075
3850.46169	0.00049
3848.40151	0.00024
3846.34134	0.00024
3844.28117	0.00058
3842.22100	0.00104
3840.16083	0.00133
3838.10065	0.00129
3836.04048	0.00100
3833.98031	0.00068
3831.92014	0.00046
3829.85997	0.00039
3827.79979	0.00048
3825.73962	0.00077
3823.67945	0.00116
3821.61928	0.00146
3819.55910	0.00143
3817.49893	0.00114
3815.43876	0.00079
3813.37859	0.00048
3811.31842	0.00030
3809.25824	0.00023
3807.19807	0.00025
3805.13790	0.00033
3803.07773	0.00045
3801.01756	0.00054
3798.95738	0.00051
3796.89721	0.00041
3794.83704	0.00034
3792.77687	0.00034
3790.71670	0.00037
3788.65652	0.00034
3786.59635	0.00029
3784.53618	0.00029
3782.47601	0.00037
3780.41583	0.00054
3778.35566	0.00077
3776.29549	0.00100
3774.23532	0.00116
3772.17515	0.00113
3770.11497	0.00090
3768.05480	0.00058
3765.99463	0.00037
3763.93446	0.00038
3761.87429	0.00057
3759.81411	0.00080
3757.75394	0.00099
3755.69377	0.00120
3753.63360	0.00154
3751.57342	0.00200
3749.51325	0.00238
3747.45308	0.00251
3745.39291	0.00230
3743.33274	0.00186
3741.27256	0.00144
3739.21239	0.00124
3737.15222	0.00114
3735.09205	0.00099
3733.03188	0.00082
3730.97170	0.00079
3728.91153	0.00085
3726.85136	0.00088
3724.79119	0.00080
3722.73102	0.00065
3720.67084	0.00058
3718.61067	0.00069
3716.55050	0.00097
3714.49033	0.00131
3712.43015	0.00154
3710.36998	0.00153
3708.30981	0.00130
3706.24964	0.00104
3704.18947	0.00091
3702.12929	0.00086
3700.06912	0.00076
3698.00895	0.00061
3695.94878	0.00054
3693.88861	0.00059
3691.82843	0.00064
3689.76826	0.00058
3687.70809	0.00042
3685.64792	0.00031
3683.58775	0.00037
3681.52757	0.00063
3679.46740	0.00110
3677.40723	0.00163
3675.34706	0.00194
3673.28688	0.00183
3671.22671	0.00145
3669.16654	0.00106
3667.10637	0.00084
3665.04620	0.00084
3662.98602	0.00099
3660.92585	0.00120
3658.86568	0.00137
3656.80551	0.00149
3654.74534	0.00163
3652.68516	0.00192
3650.62499	0.00233
3648.56482	0.00267
3646.50465	0.00279
3644.44447	0.00275
3642.38430	0.00266
3640.32413	0.00263
3638.26396	0.00271
3636.20379	0.00292
3634.14361	0.00325
3632.08344	0.00356
3630.02327	0.00366
3627.96310	0.00358
3625.90293	0.00358
3623.84275	0.00383
3621.78258	0.00428
3619.72241	0.00474
3617.66224	0.00506
3615.60207	0.00523
3613.54189	0.00536
3611.48172	0.00553
3609.42155	0.00571
3607.36138	0.00587
3605.30120	0.00606
3603.24103	0.00631
3601.18086	0.00656
3599.12069	0.00674
3597.06052	0.00685
3595.00034	0.00701
3592.94017	0.00738
3590.88000	0.00806
3588.81983	0.00885
3586.75966	0.00938
3584.69948	0.00943
3582.63931	0.00921
3580.57914	0.00913
3578.51897	0.00939
3576.45879	0.00986
3574.39862	0.01030
3572.33845	0.01061
3570.27828	0.01085
3568.21811	0.01110
3566.15793	0.01140
3564.09776	0.01177
3562.03759	0.01222
3559.97742	0.01269
3557.91725	0.01309
3555.85707	0.01344
3553.79690	0.01380
3551.73673	0.01420
3549.67656	0.01458
3547.61639	0.01489
3545.55621	0.01514
3543.49604	0.01544
3541.43587	0.01589
3539.37570	0.01647
3537.31552	0.01705
3535.25535	0.01755
3533.19518	0.01793
3531.13501	0.01822
3529.07484	0.01844
3527.01466	0.01867
3524.95449	0.01897
3522.89432	0.01935
3520.83415	0.01979
3518.77398	0.02022
3516.71380	0.02057
3514.65363	0.02079
3512.59346	0.02097
3510.53329	0.02126
3508.47312	0.02172
3506.41294	0.02229
3504.35277	0.02291
3502.29260	0.02346
3500.23243	0.02389
3498.17225	0.02424
3496.11208	0.02459
3494.05191	0.02498
3491.99174	0.02540
3489.93157	0.02578
3487.87139	0.02606
3485.81122	0.02627
3483.75105	0.02646
3481.69088	0.02669
3479.63071	0.02697
3477.57053	0.02735
3475.51036	0.02787
3473.45019	0.02848
3471.39002	0.02910
3469.32984	0.02967
3467.26967	0.03012
3465.20950	0.03043
3463.14933	0.03062
3461.08916	0.03076
3459.02898	0.03091
3456.96881	0.03115
3454.90864	0.03153
3452.84847	0.03200
3450.78830	0.03250
3448.72812	0.03293
3446.66795	0.03329
3444.60778	0.03361
3442.54761	0.03388
3440.48744	0.03409
3438.42726	0.03424
3436.36709	0.03442
3434.30692	0.03468
3432.24675	0.03504
3430.18657	0.03546
3428.12640	0.03587
3426.06623	0.03626
3424.00606	0.03664
3421.94589	0.03701
3419.88571	0.03736
3417.82554	0.03769
3415.76537	0.03799
3413.70520	0.03826
3411.64503	0.03853
3409.58485	0.03886
3407.52468	0.03927
3405.46451	0.03969
3403.40434	0.04001
3401.34416	0.04017
3399.28399	0.04020
3397.22382	0.04017
3395.16365	0.04016
3393.10348	0.04024
3391.04330	0.04045
3388.98313	0.04075
3386.92296	0.04110
3384.86279	0.04145
3382.80262	0.04180
3380.74244	0.04212
3378.68227	0.04239
3376.62210	0.04255
3374.56193	0.04265
3372.50176	0.04275
3370.44158	0.04291
3368.38141	0.04312
3366.32124	0.04330
3364.26107	0.04344
3362.20089	0.04354
3360.14072	0.04362
3358.08055	0.04368
3356.02038	0.04377
3353.96021	0.04393
3351.90003	0.04420
3349.83986	0.04452
3347.77969	0.04483
3345.71952	0.04506
3343.65935	0.04528
3341.59917	0.04546
3339.53900	0.04554
3337.47883	0.04547
3335.41866	0.04528
3333.35849	0.04510
3331.29831	0.04500
3329.23814	0.04501
3327.17797	0.04511
3325.11780	0.04529
3323.05762	0.04547
3320.99745	0.04561
3318.93728	0.04568
3316.87711	0.04571
3314.81694	0.04574
3312.75676	0.04578
3310.69659	0.04585
3308.63642	0.04590
3306.57625	0.04592
3304.51608	0.04592
3302.45590	0.04592
3300.39573	0.04596
3298.33556	0.04603
3296.27539	0.04613
3294.21521	0.04615
3292.15504	0.04604
3290.09487	0.04584
3288.03470	0.04567
3285.97453	0.04563
3283.91435	0.04573
3281.85418	0.04591
3279.79401	0.04609
3277.73384	0.04620
3275.67367	0.04622
3273.61349	0.04608
3271.55332	0.04579
3269.49315	0.04548
3267.43298	0.04528
3265.37281	0.04518
3263.31263	0.04506
3261.25246	0.04488
3259.19229	0.04471
3257.13212	0.04464
3255.07194	0.04468
3253.01177	0.04475
3250.95160	0.04478
3248.89143	0.04478
3246.83126	0.04478
3244.77108	0.04473
3242.71091	0.04451
3240.65074	0.04411
3238.59057	0.04368
3236.53040	0.04339
3234.47022	0.04327
3232.41005	0.04330
3230.34988	0.04341
3228.28971	0.04353
3226.22954	0.04359
3224.16936	0.04353
3222.10919	0.04331
3220.04902	0.04293
3217.98885	0.04252
3215.92867	0.04216
3213.86850	0.04188
3211.80833	0.04172
3209.74816	0.04167
3207.68799	0.04170
3205.62781	0.04175
3203.56764	0.04174
3201.50747	0.04161
3199.44730	0.04133
3197.38713	0.04094
3195.32695	0.04052
3193.26678	0.04015
3191.20661	0.03988
3189.14644	0.03970
3187.08626	0.03952
3185.02609	0.03925
3182.96592	0.03895
3180.90575	0.03867
3178.84558	0.03845
3176.78540	0.03827
3174.72523	0.03810
3172.66506	0.03791
3170.60489	0.03772
3168.54472	0.03757
3166.48454	0.03743
3164.42437	0.03730
3162.36420	0.03715
3160.30403	0.03694
3158.24386	0.03665
3156.18368	0.03629
3154.12351	0.03585
3152.06334	0.03536
3150.00317	0.03490
3147.94299	0.03455
3145.88282	0.03436
3143.82265	0.03428
3141.76248	0.03422
3139.70231	0.03405
3137.64213	0.03375
3135.58196	0.03340
3133.52179	0.03305
3131.46162	0.03271
3129.40145	0.03244
3127.34127	0.03228
3125.28110	0.03218
3123.22093	0.03202
3121.16076	0.03176
3119.10058	0.03140
3117.04041	0.03100
3114.98024	0.03064
3112.92007	0.03040
3110.85990	0.03027
3108.79972	0.03017
3106.73955	0.03000
3104.67938	0.02975
3102.61921	0.02946
3100.55904	0.02917
3098.49886	0.02891
3096.43869	0.02869
3094.37852	0.02848
3092.31835	0.02824
3090.25818	0.02796
3088.19800	0.02769
3086.13783	0.02747
3084.07766	0.02727
3082.01749	0.02704
3079.95731	0.02678
3077.89714	0.02652
3075.83697	0.02625
3073.77680	0.02597
3071.71663	0.02567
3069.65645	0.02535
3067.59628	0.02504
3065.53611	0.02478
3063.47594	0.02462
3061.41577	0.02452
3059.35559	0.02438
3057.29542	0.02412
3055.23525	0.02378
3053.17508	0.02349
3051.11491	0.02333
3049.05473	0.02329
3046.99456	0.02327
3044.93439	0.02318
3042.87422	0.02296
3040.81404	0.02263
3038.75387	0.02226
3036.69370	0.02195
3034.63353	0.02174
3032.57336	0.02163
3030.51318	0.02159
3028.45301	0.02161
3026.39284	0.02163
3024.33267	0.02161
3022.27250	0.02155
3020.21232	0.02147
3018.15215	0.02140
3016.09198	0.02135
3014.03181	0.02129
3011.97163	0.02116
3009.91146	0.02101
3007.85129	0.02088
3005.79112	0.02079
3003.73095	0.02073
3001.67077	0.02064
2999.61060	0.02046
2997.55043	0.02018
2995.49026	0.01988
2993.43009	0.01966
2991.36991	0.01959
2989.30974	0.01966
2987.24957	0.01978
2985.18940	0.01995
2983.12923	0.02022
2981.06905	0.02058
2979.00888	0.02099
2976.94871	0.02151
2974.88854	0.02228
2972.82836	0.02328
2970.76819	0.02424
2968.70802	0.02509
2966.64785	0.02610
2964.58768	0.02734
2962.52750	0.02865
2960.46733	0.03004
2958.40716	0.03158
2956.34699	0.03323
2954.28682	0.03487
2952.22664	0.03638
2950.16647	0.03776
2948.10630	0.03920
2946.04613	0.04088
2943.98596	0.04282
2941.92578	0.04486
2939.86561	0.04696
2937.80544	0.04927
2935.74527	0.05175
2933.68509	0.05406
2931.62492	0.05605
2929.56475	0.05778
2927.50458	0.05931
2925.44441	0.06066
2923.38423	0.06176
2921.32406	0.06242
2919.26389	0.06235
2917.20372	0.06137
2915.14355	0.05953
2913.08337	0.05719
2911.02320	0.05466
2908.96303	0.05220
2906.90286	0.05003
2904.84268	0.04825
2902.78251	0.04669
2900.72234	0.04515
2898.66217	0.04374
2896.60200	0.04262
2894.54182	0.04161
2892.48165	0.04052
2890.42148	0.03945
2888.36131	0.03853
2886.30114	0.03772
2884.24096	0.03701
2882.18079	0.03641
2880.12062	0.03597
2878.06045	0.03576
2876.00028	0.03580
2873.94010	0.03608
2871.87993	0.03653
2869.81976	0.03707
2867.75959	0.03778
2865.69941	0.03871
2863.63924	0.03987
2861.57907	0.04126
2859.51890	0.04289
2857.45873	0.04466
2855.39855	0.04627
2853.33838	0.04747
2851.27821	0.04781
2849.21804	0.04677
2847.15787	0.04428
2845.09769	0.04095
2843.03752	0.03762
2840.97735	0.03472
2838.91718	0.03239
2836.85700	0.03069
2834.79683	0.02944
2832.73666	0.02840
2830.67649	0.02750
2828.61632	0.02673
2826.55614	0.02607
2824.49597	0.02543
2822.43580	0.02480
2820.37563	0.02426
2818.31546	0.02385
2816.25528	0.02348
2814.19511	0.02314
2812.13494	0.02281
2810.07477	0.02240
2808.01460	0.02196
2805.95442	0.02155
2803.89425	0.02116
2801.83408	0.02086
2799.77391	0.02075
2797.71373	0.02073
2795.65356	0.02061
2793.59339	0.02034
2791.53322	0.02012
2789.47305	0.02000
2787.41287	0.01980
2785.35270	0.01945
2783.29253	0.01911
2781.23236	0.01890
2779.17219	0.01880
2777.11201	0.01872
2775.05184	0.01857
2772.99167	0.01842
2770.93150	0.01834
2768.87133	0.01825
2766.81115	0.01806
2764.75098	0.01783
2762.69081	0.01764
2760.63064	0.01757
2758.57046	0.01762
2756.51029	0.01771
2754.45012	0.01780
2752.38995	0.01793
2750.32978	0.01801
2748.26960	0.01795
2746.20943	0.01779
2744.14926	0.01762
2742.08909	0.01745
2740.02892	0.01732
2737.96874	0.01728
2735.90857	0.01732
2733.84840	0.01727
2731.78823	0.01707
2729.72805	0.01689
2727.66788	0.01680
2725.60771	0.01674
2723.54754	0.01668
2721.48737	0.01658
2719.42719	0.01645
2717.36702	0.01642
2715.30685	0.01648
2713.24668	0.01654
2711.18651	0.01655
2709.12633	0.01655
2707.06616	0.01652
2705.00599	0.01647
2702.94582	0.01645
2700.88565	0.01647
2698.82547	0.01646
2696.76530	0.01631
2694.70513	0.01605
2692.64496	0.01588
2690.58478	0.01588
2688.52461	0.01598
2686.46444	0.01603
2684.40427	0.01600
2682.34410	0.01595
2680.28392	0.01590
2678.22375	0.01586
2676.16358	0.01581
2674.10341	0.01574
2672.04324	0.01563
2669.98306	0.01552
2667.92289	0.01548
2665.86272	0.01554
2663.80255	0.01558
2661.74238	0.01551
2659.68220	0.01541
2657.62203	0.01536
2655.56186	0.01529
2653.50169	0.01515
2651.44151	0.01503
2649.38134	0.01491
2647.32117	0.01480
2645.26100	0.01477
2643.20083	0.01483
2641.14065	0.01488
2639.08048	0.01487
2637.02031	0.01479
2634.96014	0.01461
2632.89997	0.01428
2630.83979	0.01400
2628.77962	0.01400
2626.71945	0.01410
2624.65928	0.01407
2622.59910	0.01401
2620.53893	0.01407
2618.47876	0.01411
2616.41859	0.01396
2614.35842	0.01370
2612.29824	0.01340
2610.23807	0.01315
2608.17790	0.01309
2606.11773	0.01315
2604.05756	0.01307
2601.99738	0.01279
2599.93721	0.01258
2597.87704	0.01256
2595.81687	0.01256
2593.75670	0.01249
2591.69652	0.01249
2589.63635	0.01248
2587.57618	0.01230
2585.51601	0.01202
2583.45583	0.01180
2581.39566	0.01170
2579.33549	0.01164
2577.27532	0.01150
2575.21515	0.01128
2573.15497	0.01122
2571.09480	0.01144
2569.03463	0.01160
2566.97446	0.01132
2564.91429	0.01094
2562.85411	0.01100
2560.79394	0.01143
2558.73377	0.01178
2556.67360	0.01185
2554.61342	0.01170
2552.55325	0.01133
2550.49308	0.01088
2548.43291	0.01065
2546.37274	0.01073
2544.31256	0.01090
2542.25239	0.01096
2540.19222	0.01085
2538.13205	0.01059
2536.07188	0.01036
2534.01170	0.01034
2531.95153	0.01041
2529.89136	0.01046
2527.83119	0.01053
2525.77102	0.01056
2523.71084	0.01045
2521.65067	0.01026
2519.59050	0.01009
2517.53033	0.01007
2515.47015	0.01020
2513.40998	0.01026
2511.34981	0.01003
2509.28964	0.00965
2507.22947	0.00951
2505.16929	0.00970
2503.10912	0.00994
2501.04895	0.00991
2498.98878	0.00964
2496.92861	0.00948
2494.86843	0.00955
2492.80826	0.00966
2490.74809	0.00965
2488.68792	0.00956
2486.62775	0.00947
2484.56757	0.00944
2482.50740	0.00940
2480.44723	0.00918
2478.38706	0.00882
2476.32688	0.00871
2474.26671	0.00890
2472.20654	0.00911
2470.14637	0.00917
2468.08620	0.00912
2466.02602	0.00902
2463.96585	0.00896
2461.90568	0.00903
2459.84551	0.00917
2457.78534	0.00929
2455.72516	0.00934
2453.66499	0.00929
2451.60482	0.00917
2449.54465	0.00899
2447.48447	0.00882
2445.42430	0.00880
2443.36413	0.00895
2441.30396	0.00908
2439.24379	0.00919
2437.18361	0.00931
2435.12344	0.00933
2433.06327	0.00925
2431.00310	0.00913
2428.94293	0.00892
2426.88275	0.00861
2424.82258	0.00828
2422.76241	0.00802
2420.70224	0.00794
2418.64207	0.00802
2416.58189	0.00822
2414.52172	0.00849
2412.46155	0.00863
2410.40138	0.00861
2408.34120	0.00864
2406.28103	0.00867
2404.22086	0.00855
2402.16069	0.00830
2400.10052	0.00812
2398.04034	0.00805
2395.98017	0.00804
2393.92000	0.00799
2391.85983	0.00790
2389.79966	0.00782
2387.73948	0.00778
2385.67931	0.00777
2383.61914	0.00777
2381.55897	0.00773
2379.49880	0.00766
2377.43862	0.00760
2375.37845	0.00760
2373.31828	0.00766
2371.25811	0.00772
2369.19793	0.00773
2367.13776	0.00747
2365.07759	0.00682
2363.01742	0.00616
2360.95725	0.00613
2358.89707	0.00692
2356.83690	0.00794
2354.77673	0.00861
2352.71656	0.00876
2350.65639	0.00850
2348.59621	0.00805
2346.53604	0.00758
2344.47587	0.00733
2342.41570	0.00736
2340.35552	0.00759
2338.29535	0.00782
2336.23518	0.00804
2334.17501	0.00834
2332.11484	0.00875
2330.05466	0.00912
2327.99449	0.00932
2325.93432	0.00930
2323.87415	0.00904
2321.81398	0.00862
2319.75380	0.00825
2317.69363	0.00808
2315.63346	0.00806
2313.57329	0.00806
2311.51312	0.00798
2309.45294	0.00786
2307.39277	0.00775
2305.33260	0.00769
2303.27243	0.00767
2301.21225	0.00768
2299.15208	0.00772
2297.09191	0.00777
2295.03174	0.00788
2292.97157	0.00809
2290.91139	0.00829
2288.85122	0.00842
2286.79105	0.00846
2284.73088	0.00840
2282.67071	0.00823
2280.61053	0.00806
2278.55036	0.00798
2276.49019	0.00795
2274.43002	0.00781
2272.36984	0.00746
2270.30967	0.00695
2268.24950	0.00647
2266.18933	0.00616
2264.12916	0.00606
2262.06898	0.00616
2260.00881	0.00640
2257.94864	0.00660
2255.88847	0.00659
2253.82830	0.00625
2251.76812	0.00563
2249.70795	0.00502
2247.64778	0.00491
2245.58761	0.00549
2243.52744	0.00610
2241.46726	0.00621
2239.40709	0.00593
2237.34692	0.00587
2235.28675	0.00630
2233.22657	0.00657
2231.16640	0.00629
2229.10623	0.00603
2227.04606	0.00619
2224.98589	0.00648
2222.92571	0.00644
2220.86554	0.00621
2218.80537	0.00644
2216.74520	0.00711
2214.68503	0.00735
2212.62485	0.00684
2210.56468	0.00612
2208.50451	0.00557
2206.44434	0.00500
2204.38417	0.00415
2202.32399	0.00344
2200.26382	0.00360
2198.20365	0.00433
2196.14348	0.00474
2194.08330	0.00480
2192.02313	0.00498
2189.96296	0.00536
2187.90279	0.00566
2185.84262	0.00573
2183.78244	0.00586
2181.72227	0.00625
2179.66210	0.00631
2177.60193	0.00556
2175.54176	0.00471
2173.48158	0.00464
2171.42141	0.00500
2169.36124	0.00482
2167.30107	0.00421
2165.24089	0.00412
2163.18072	0.00456
2161.12055	0.00468
2159.06038	0.00422
2157.00021	0.00355
2154.94003	0.00313
2152.87986	0.00322
2150.81969	0.00367
2148.75952	0.00389
2146.69935	0.00354
2144.63917	0.00304
2142.57900	0.00295
2140.51883	0.00331
2138.45866	0.00385
2136.39849	0.00422
2134.33831	0.00430
2132.27814	0.00451
2130.21797	0.00490
2128.15780	0.00513
2126.09762	0.00514
2124.03745	0.00513
2121.97728	0.00522
2119.91711	0.00541
2117.85694	0.00559
2115.79676	0.00581
2113.73659	0.00631
2111.67642	0.00686
2109.61625	0.00687
2107.55608	0.00638
2105.49590	0.00620
2103.43573	0.00644
2101.37556	0.00646
2099.31539	0.00614
2097.25521	0.00563
2095.19504	0.00503
2093.13487	0.00444
2091.07470	0.00404
2089.01453	0.00393
2086.95435	0.00408
2084.89418	0.00437
2082.83401	0.00467
2080.77384	0.00480
2078.71367	0.00478
2076.65349	0.00482
2074.59332	0.00513
2072.53315	0.00562
2070.47298	0.00605
2068.41281	0.00619
2066.35263	0.00590
2064.29246	0.00519
2062.23229	0.00431
2060.17212	0.00368
2058.11194	0.00358
2056.05177	0.00393
2053.99160	0.00442
2051.93143	0.00481
2049.87126	0.00511
2047.81108	0.00548
2045.75091	0.00592
2043.69074	0.00617
2041.63057	0.00591
2039.57040	0.00507
2037.51022	0.00394
2035.45005	0.00300
2033.38988	0.00255
2031.32971	0.00255
2029.26954	0.00281
2027.20936	0.00319
2025.14919	0.00368
2023.08902	0.00421
2021.02885	0.00458
2018.96867	0.00459
2016.90850	0.00429
2014.84833	0.00395
2012.78816	0.00377
2010.72799	0.00356
2008.66781	0.00311
2006.60764	0.00265
2004.54747	0.00266
2002.48730	0.00330
2000.42713	0.00433
1998.36695	0.00527
1996.30678	0.00578
1994.24661	0.00569
1992.18644	0.00505
1990.12626	0.00419
1988.06609	0.00361
1986.00592	0.00360
1983.94575	0.00406
1981.88558	0.00453
1979.82540	0.00464
1977.76523	0.00436
1975.70506	0.00378
1973.64489	0.00299
1971.58472	0.00222
1969.52454	0.00180
1967.46437	0.00189
1965.40420	0.00247
1963.34403	0.00319
1961.28386	0.00366
1959.22368	0.00371
1957.16351	0.00350
1955.10334	0.00324
1953.04317	0.00303
1950.98299	0.00283
1948.92282	0.00260
1946.86265	0.00236
1944.80248	0.00221
1942.74231	0.00217
1940.68213	0.00224
1938.62196	0.00249
1936.56179	0.00295
1934.50162	0.00336
1932.44145	0.00349
1930.38127	0.00341
1928.32110	0.00329
1926.26093	0.00329
1924.20076	0.00342
1922.14059	0.00360
1920.08041	0.00366
1918.02024	0.00352
1915.96007	0.00323
1913.89990	0.00296
1911.83972	0.00281
1909.77955	0.00282
1907.71938	0.00292
1905.65921	0.00307
1903.59904	0.00319
1901.53886	0.00323
1899.47869	0.00318
1897.41852	0.00307
1895.35835	0.00290
1893.29818	0.00276
1891.23800	0.00278
1889.17783	0.00298
1887.11766	0.00327
1885.05749	0.00351
1882.99731	0.00366
1880.93714	0.00371
1878.87697	0.00366
1876.81680	0.00353
1874.75663	0.00337
1872.69645	0.00318
1870.63628	0.00292
1868.57611	0.00262
1866.51594	0.00239
1864.45577	0.00235
1862.39559	0.00247
1860.33542	0.00267
1858.27525	0.00284
1856.21508	0.00287
1854.15491	0.00274
1852.09473	0.00254
1850.03456	0.00237
1847.97439	0.00229
1845.91422	0.00229
1843.85404	0.00240
1841.79387	0.00259
1839.73370	0.00279
1837.67353	0.00294
1835.61336	0.00305
1833.55318	0.00310
1831.49301	0.00307
1829.43284	0.00297
1827.37267	0.00283
1825.31250	0.00265
1823.25232	0.00239
1821.19215	0.00210
1819.13198	0.00193
1817.07181	0.00195
1815.01163	0.00215
1812.95146	0.00238
1810.89129	0.00253
1808.83112	0.00256
1806.77095	0.00250
1804.71077	0.00244
1802.65060	0.00244
1800.59043	0.00245
1798.53026	0.00243
1796.47009	0.00234
1794.40991	0.00224
1792.34974	0.00214
1790.28957	0.00201
1788.22940	0.00186
1786.16923	0.00178
1784.10905	0.00183
1782.04888	0.00196
1779.98871	0.00203
1777.92854	0.00201
1775.86836	0.00197
1773.80819	0.00201
1771.74802	0.00214
1769.68785	0.00234
1767.62768	0.00263
1765.56750	0.00309
1763.50733	0.00376
1761.44716	0.00469
1759.38699	0.00586
1757.32682	0.00727
1755.26664	0.00889
1753.20647	0.01068
1751.14630	0.01257
1749.08613	0.01442
1747.02596	0.01602
1744.96578	0.01723
1742.90561	0.01805
1740.84544	0.01853
1738.78527	0.01872
1736.72509	0.01868
1734.66492	0.01847
1732.60475	0.01810
1730.54458	0.01767
1728.48441	0.01733
1726.42423	0.01716
1724.36406	0.01715
1722.30389	0.01725
1720.24372	0.01745
1718.18355	0.01772
1716.12337	0.01793
1714.06320	0.01798
1712.00303	0.01786
1709.94286	0.01765
1707.88268	0.01742
1705.82251	0.01719
1703.76234	0.01698
1701.70217	0.01687
1699.64200	0.01691
1697.58182	0.01714
1695.52165	0.01752
1693.46148	0.01804
1691.40131	0.01874
1689.34114	0.01966
1687.28096	0.02082
1685.22079	0.02235
1683.16062	0.02422
1681.10045	0.02616
1679.04028	0.02784
1676.98010	0.02914
1674.91993	0.03007
1672.85976	0.03063
1670.79959	0.03081
1668.73941	0.03058
1666.67924	0.03002
1664.61907	0.02928
1662.55890	0.02850
1660.49873	0.02777
1658.43855	0.02720
1656.37838	0.02683
1654.31821	0.02663
1652.25804	0.02656
1650.19787	0.02659
1648.13769	0.02666
1646.07752	0.02671
1644.01735	0.02676
1641.95718	0.02694
1639.89701	0.02736
1637.83683	0.02797
1635.77666	0.02865
1633.71649	0.02924
1631.65632	0.02967
1629.59614	0.02998
1627.53597	0.03019
1625.47580	0.03034
1623.41563	0.03044
1621.35546	0.03055
1619.29528	0.03074
1617.23511	0.03108
1615.17494	0.03168
1613.11477	0.03256
1611.05460	0.03365
1608.99442	0.03475
1606.93425	0.03556
1604.87408	0.03580
1602.81391	0.03533
1600.75373	0.03425
1598.69356	0.03283
1596.63339	0.03136
1594.57322	0.03002
1592.51305	0.02891
1590.45287	0.02799
1588.39270	0.02715
1586.33253	0.02633
1584.27236	0.02551
1582.21219	0.02471
1580.15201	0.02395
1578.09184	0.02324
1576.03167	0.02262
1573.97150	0.02207
1571.91133	0.02157
1569.85115	0.02100
1567.79098	0.02030
1565.73081	0.01948
1563.67064	0.01864
1561.61046	0.01779
1559.55029	0.01689
1557.49012	0.01595
1555.42995	0.01505
1553.36978	0.01420
1551.30960	0.01341
1549.24943	0.01270
1547.18926	0.01215
1545.12909	0.01176
1543.06892	0.01142
1541.00874	0.01096
1538.94857	0.01031
1536.88840	0.00960
1534.82823	0.00898
1532.76805	0.00847
1530.70788	0.00808
1528.64771	0.00784
1526.58754	0.00782
1524.52737	0.00814
1522.46719	0.00889
1520.40702	0.01000
1518.34685	0.01118
1516.28668	0.01210
1514.22651	0.01247
1512.16633	0.01215
1510.10616	0.01122
1508.04599	0.00984
1505.98582	0.00826
1503.92565	0.00688
1501.86547	0.00590
1499.80530	0.00524
1497.74513	0.00472
1495.68496	0.00418
1493.62478	0.00365
1491.56461	0.00318
1489.50444	0.00277
1487.44427	0.00246
1485.38410	0.00233
1483.32392	0.00245
1481.26375	0.00286
1479.20358	0.00357
1477.14341	0.00461
1475.08324	0.00603
1473.02306	0.00783
1470.96289	0.00990
1468.90272	0.01203
1466.84255	0.01404
1464.78238	0.01573
1462.72220	0.01702
1460.66203	0.01801
1458.60186	0.01889
1456.54169	0.01972
1454.48151	0.02043
1452.42134	0.02099
1450.36117	0.02152
1448.30100	0.02211
1446.24083	0.02280
1444.18065	0.02357
1442.12048	0.02436
1440.06031	0.02511
1438.00014	0.02575
1435.93997	0.02622
1433.87979	0.02649
1431.81962	0.02663
1429.75945	0.02668
1427.69928	0.02671
1425.63910	0.02679
1423.57893	0.02696
1421.51876	0.02719
1419.45859	0.02738
1417.39842	0.02742
1415.33824	0.02728
1413.27807	0.02697
1411.21790	0.02650
1409.15773	0.02588
1407.09756	0.02516
1405.03738	0.02437
1402.97721	0.02356
1400.91704	0.02282
1398.85687	0.02218
1396.79670	0.02162
1394.73652	0.02115
1392.67635	0.02081
1390.61618	0.02070
1388.55601	0.02089
1386.49583	0.02133
1384.43566	0.02193
1382.37549	0.02259
1380.31532	0.02325
1378.25515	0.02387
1376.19497	0.02438
1374.13480	0.02471
1372.07463	0.02486
1370.01446	0.02486
1367.95429	0.02474
1365.89411	0.02447
1363.83394	0.02401
1361.77377	0.02341
1359.71360	0.02285
1357.65343	0.02248
1355.59325	0.02232
1353.53308	0.02226
1351.47291	0.02223
1349.41274	0.02215
1347.35256	0.02199
1345.29239	0.02180
1343.23222	0.02165
1341.17205	0.02160
1339.11188	0.02163
1337.05170	0.02163
1334.99153	0.02158
1332.93136	0.02151
1330.87119	0.02149
1328.81102	0.02155
1326.75084	0.02167
1324.69067	0.02177
1322.63050	0.02183
1320.57033	0.02183
1318.51015	0.02178
1316.44998	0.02163
1314.38981	0.02137
1312.32964	0.02103
1310.26947	0.02063
1308.20929	0.02019
1306.14912	0.01966
1304.08895	0.01905
1302.02878	0.01842
1299.96861	0.01792
1297.90843	0.01767
1295.84826	0.01767
1293.78809	0.01784
1291.72792	0.01807
1289.66775	0.01827
1287.60757	0.01844
1285.54740	0.01859
1283.48723	0.01877
1281.42706	0.01897
1279.36688	0.01918
1277.30671	0.01936
1275.24654	0.01956
1273.18637	0.01982
1271.12620	0.02019
1269.06602	0.02067
1267.00585	0.02126
1264.94568	0.02196
1262.88551	0.02271
1260.82534	0.02344
1258.76516	0.02406
1256.70499	0.02459
1254.64482	0.02508
1252.58465	0.02554
1250.52447	0.02596
1248.46430	0.02631
1246.40413	0.02655
1244.34396	0.02669
1242.28379	0.02672
1240.22361	0.02667
1238.16344	0.02653
1236.10327	0.02626
1234.04310	0.02583
1231.98293	0.02524
1229.92275	0.02447
1227.86258	0.02352
1225.80241	0.02242
1223.74224	0.02124
1221.68207	0.02000
1219.62189	0.01876
1217.56172	0.01757
1215.50155	0.01646
1213.44138	0.01544
1211.38120	0.01444
1209.32103	0.01341
1207.26086	0.01232
1205.20069	0.01115
1203.14052	0.00988
1201.08034	0.00853
1199.02017	0.00715
1196.96000	0.00579
1194.89983	0.00459
1192.83966	0.00365
1190.77948	0.00301
1188.71931	0.00263
1186.65914	0.00248
1184.59897	0.00252
1182.53880	0.00280
1180.47862	0.00336
1178.41845	0.00428
1176.35828	0.00565
1174.29811	0.00749
1172.23793	0.00967
1170.17776	0.01186
1168.11759	0.01364
1166.05742	0.01482
1163.99725	0.01556
1161.93707	0.01607
1159.87690	0.01646
1157.81673	0.01686
1155.75656	0.01741
1153.69639	0.01813
1151.63621	0.01896
1149.57604	0.01989
1147.51587	0.02095
1145.45570	0.02205
1143.39552	0.02304
1141.33535	0.02387
1139.27518	0.02456
1137.21501	0.02517
1135.15484	0.02572
1133.09466	0.02626
1131.03449	0.02692
1128.97432	0.02773
1126.91415	0.02865
1124.85398	0.02968
1122.79380	0.03078
1120.73363	0.03190
1118.67346	0.03304
1116.61329	0.03416
1114.55312	0.03517
1112.49294	0.03615
1110.43277	0.03720
1108.37260	0.03831
1106.31243	0.03943
1104.25225	0.04055
1102.19208	0.04177
1100.13191	0.04322
1098.07174	0.04497
1096.01157	0.04697
1093.95139	0.04893
1091.89122	0.05065
1089.83105	0.05223
1087.77088	0.05381
1085.71071	0.05550
1083.65053	0.05736
1081.59036	0.05926
1079.53019	0.06100
1077.47002	0.06275
1075.40985	0.06466
1073.34967	0.06661
1071.28950	0.06840
1069.22933	0.06993
1067.16916	0.07124
1065.10898	0.07239
1063.04881	0.07344
1060.98864	0.07446
1058.92847	0.07563
1056.86830	0.07706
1054.80812	0.07863
1052.74795	0.08027
1050.68778	0.08207
1048.62761	0.08414
1046.56744	0.08634
1044.50726	0.08844
1042.44709	0.09035
1040.38692	0.09209
1038.32675	0.09362
1036.26657	0.09486
1034.20640	0.09567
1032.14623	0.09601
1030.08606	0.09607
1028.02589	0.09605
1025.96571	0.09591
1023.90554	0.09557
1021.84537	0.09510
1019.78520	0.09462
1017.72503	0.09434
1015.66485	0.09434
1013.60468	0.09445
1011.54451	0.09451
1009.48434	0.09459
1007.42417	0.09470
1005.36399	0.09457
1003.30382	0.09399
1001.24365	0.09312
999.18348	0.09216
997.12330	0.09105
995.06313	0.08969
993.00296	0.08823
990.94279	0.08678
988.88262	0.08540
986.82244	0.08401
984.76227	0.08247
982.70210	0.08082
980.64193	0.07934
978.58176	0.07814
976.52158	0.07707
974.46141	0.07587
972.40124	0.07442
970.34107	0.07287
968.28089	0.07125
966.22072	0.06949
964.16055	0.06770
962.10038	0.06606
960.04021	0.06468
957.98003	0.06349
955.91986	0.06223
953.85969	0.06081
951.79952	0.05934
949.73935	0.05796
947.67917	0.05658
945.61900	0.05504
943.55883	0.05328
941.49866	0.05121
939.43849	0.04875
937.37831	0.04598
935.31814	0.04300
933.25797	0.03988
931.19780	0.03691
929.13762	0.03440
927.07745	0.03234
925.01728	0.03051
922.95711	0.02874
920.89694	0.02708
918.83676	0.02559
916.77659	0.02412
914.71642	0.02248
912.65625	0.02080
910.59608	0.01930
908.53590	0.01810
906.47573	0.01727
904.41556	0.01676
902.35539	0.01641
900.29522	0.01622
898.23504	0.01625
896.17487	0.01652
894.11470	0.01697
892.05453	0.01730
889.99435	0.01710
887.93418	0.01643
885.87401	0.01562
883.81384	0.01480
881.75367	0.01386
879.69349	0.01273
877.63332	0.01173
875.57315	0.01113
873.51298	0.01067
871.45281	0.01010
869.39263	0.00957
867.33246	0.00927
865.27229	0.00915
863.21212	0.00907
861.15194	0.00886
859.09177	0.00850
857.03160	0.00822
854.97143	0.00813
852.91126	0.00818
850.85108	0.00827
848.79091	0.00837
846.73074	0.00836
844.67057	0.00815
842.61040	0.00785
840.55022	0.00762
838.49005	0.00755
836.42988	0.00761
834.36971	0.00754
832.30954	0.00730
830.24936	0.00708
828.18919	0.00673
826.12902	0.00612
824.06885	0.00561
822.00867	0.00543
819.94850	0.00524
817.88833	0.00469
815.82816	0.00407
813.76799	0.00392
811.70781	0.00416
809.64764	0.00448
807.58747	0.00474
805.52730	0.00486
803.46713	0.00484
801.40695	0.00472
799.34678	0.00447
797.28661	0.00405
795.22644	0.00350
793.16627	0.00300
791.10609	0.00282
789.04592	0.00291
786.98575	0.00318
784.92558	0.00333
782.86540	0.00329
780.80523	0.00319
778.74506	0.00312
776.68489	0.00303
774.62472	0.00296
772.56454	0.00303
770.50437	0.00311
768.44420	0.00309
766.38403	0.00312
764.32386	0.00337
762.26368	0.00369
760.20351	0.00385
758.14334	0.00384
756.08317	0.00369
754.02299	0.00332
751.96282	0.00286
749.90265	0.00236
747.84248	0.00210
745.78231	0.00174
743.72213	0.00125
741.66196	0.00084
739.60179	0.00059
737.54162	0.00062
735.48145	0.00081
733.42127	0.00085
731.36110	0.00081
729.30093	0.00091
727.24076	0.00119
725.18059	0.00164
723.12041	0.00222
721.06024	0.00270
719.00007	0.00297
716.93990	0.00311
714.87972	0.00332
712.81955	0.00365
710.75938	0.00401
708.69921	0.00428
706.63904	0.00443
704.57886	0.00457
702.51869	0.00475
700.45852	0.00497
698.39835	0.00512
696.33818	0.00517
694.27800	0.00511
692.21783	0.00493
690.15766	0.00465
688.09749	0.00439
686.03731	0.00416
683.97714	0.00385
681.91697	0.00346
679.85680	0.00317
677.79663	0.00296
675.73645	0.00268
673.67628	0.00227
671.61611	0.00179
669.55594	0.00142
667.49577	0.00132
665.43559	0.00139
663.37542	0.00155
661.31525	0.00184
659.25508	0.00229
657.19491	0.00281
655.13473	0.00322
653.07456	0.00331
651.01439	0.00305
648.95422	0.00268
646.89404	0.00242
644.83387	0.00234
642.77370	0.00238
640.71353	0.00244
638.65336	0.00238
636.59318	0.00214
634.53301	0.00173
632.47284	0.00127
630.41267	0.00098
628.35250	0.00099
626.29232	0.00105
624.23215	0.00069
622.17198	0.00061
620.11181	0.00120
618.05164	0.00217
615.99146	0.00303
613.93129	0.00369
611.87112	0.00392
609.81095	0.00337
607.75077	0.00202
605.69060	0.00057
603.63043	0.00002
601.57026	0.00000
599.51009	0.00000
