3996.73391	0.00066
3994.67373	0.00062
3992.61356	0.00057
3990.55339	0.00052
3988.49322	0.00049
3986.43305	0.00042
3984.37287	0.00029
3982.31270	0.00014
3980.25253	0.00005
3978.19236	0.00005
3976.13219	0.00006
3974.07201	0.00010
3972.01184	0.00023
3969.95167	0.00048
3967.89150	0.00070
3965.83133	0.00080
3963.77115	0.00072
3961.71098	0.00048
3959.65081	0.00022
3957.59064	0.00005
3955.53046	0.00000
3953.47029	0.00001
3951.41012	0.00006
3949.34995	0.00020
3947.28978	0.00042
3945.22960	0.00062
3943.16943	0.00070
3941.10926	0.00067
3939.04909	0.00062
3936.98892	0.00059
3934.92874	0.00055
3932.86857	0.00044
3930.80840	0.00036
3928.74823	0.00040
3926.68805	0.00054
3924.62788	0.00065
3922.56771	0.00063
3920.50754	0.00051
3918.44737	0.00038
3916.38719	0.00029
3914.32702	0.00029
3912.26685	0.00032
3910.20668	0.00036
3908.14651	0.00036
3906.08633	0.00032
3904.02616	0.00031
3901.96599	0.00042
3899.90582	0.00065
3897.84565	0.00090
3895.78547	0.00107
3893.72530	0.00116
3891.66513	0.00119
3889.60496	0.00114
3887.54478	0.00095
3885.48461	0.00068
3883.42444	0.00046
3881.36427	0.00039
3879.30410	0.00041
3877.24392	0.00040
3875.18375	0.00035
3873.12358	0.00037
3871.06341	0.00047
3869.00324	0.00059
3866.94306	0.00071
3864.88289	0.00086
3862.82272	0.00103
3860.76255	0.00118
3858.70237	0.00128
3856.64220	0.00133
3854.58203	0.00139
3852.52186	0.00142
3850.46169	0.00132
3848.40151	0.00109
3846.34134	0.00087
3844.28117	0.00082
3842.22100	0.00093
3840.16083	0.00113
3838.10065	0.00139
3836.04048	0.00163
3833.98031	0.00180
3831.92014	0.00186
3829.85997	0.00179
3827.79979	0.00163
3825.73962	0.00145
3823.67945	0.00132
3821.61928	0.00116
3819.55910	0.00092
3817.49893	0.00067
3815.43876	0.00049
3813.37859	0.00034
3811.31842	0.00021
3809.25824	0.00017
3807.19807	0.00026
3805.13790	0.00046
3803.07773	0.00063
3801.01756	0.00069
3798.95738	0.00067
3796.89721	0.00067
3794.83704	0.00077
3792.77687	0.00088
3790.71670	0.00088
3788.65652	0.00073
3786.59635	0.00052
3784.53618	0.00042
3782.47601	0.00057
3780.41583	0.00094
3778.35566	0.00136
3776.29549	0.00164
3774.23532	0.00178
3772.17515	0.00183
3770.11497	0.00178
3768.05480	0.00159
3765.99463	0.00132
3763.93446	0.00112
3761.87429	0.00110
3759.81411	0.00118
3757.75394	0.00121
3755.69377	0.00112
3753.63360	0.00102
3751.57342	0.00109
3749.51325	0.00136
3747.45308	0.00170
3745.39291	0.00194
3743.33274	0.00198
3741.27256	0.00185
3739.21239	0.00171
3737.15222	0.00163
3735.09205	0.00158
3733.03188	0.00145
3730.97170	0.00118
3728.91153	0.00079
3726.85136	0.00040
3724.79119	0.00021
3722.73102	0.00030
3720.67084	0.00061
3718.61067	0.00099
3716.55050	0.00126
3714.49033	0.00136
3712.43015	0.00127
3710.36998	0.00107
3708.30981	0.00089
3706.24964	0.00083
3704.18947	0.00092
3702.12929	0.00111
3700.06912	0.00129
3698.00895	0.00132
3695.94878	0.00123
3693.88861	0.00107
3691.82843	0.00084
3689.76826	0.00059
3687.70809	0.00045
3685.64792	0.00049
3683.58775	0.00064
3681.52757	0.00082
3679.46740	0.00108
3677.40723	0.00146
3675.34706	0.00183
3673.28688	0.00203
3671.22671	0.00201
3669.16654	0.00189
3667.10637	0.00179
3665.04620	0.00176
3662.98602	0.00177
3660.92585	0.00178
3658.86568	0.00179
3656.80551	0.00185
3654.74534	0.00202
3652.68516	0.00228
3650.62499	0.00252
3648.56482	0.00262
3646.50465	0.00261
3644.44447	0.00262
3642.38430	0.00270
3640.32413	0.00282
3638.26396	0.00292
3636.20379	0.00300
3634.14361	0.00310
3632.08344	0.00324
3630.02327	0.00339
3627.96310	0.00349
3625.90293	0.00351
3623.84275	0.00353
3621.78258	0.00365
3619.72241	0.00392
3617.66224	0.00432
3615.60207	0.00475
3613.54189	0.00510
3611.48172	0.00530
3609.42155	0.00532
3607.36138	0.00529
3605.30120	0.00535
3603.24103	0.00552
3601.18086	0.00571
3599.12069	0.00585
3597.06052	0.00599
3595.00034	0.00624
3592.94017	0.00663
3590.88000	0.00713
3588.81983	0.00765
3586.75966	0.00811
3584.69948	0.00843
3582.63931	0.00862
3580.57914	0.00876
3578.51897	0.00891
3576.45879	0.00907
3574.39862	0.00926
3572.33845	0.00945
3570.27828	0.00973
3568.21811	0.01020
3566.15793	0.01087
3564.09776	0.01155
3562.03759	0.01206
3559.97742	0.01241
3557.91725	0.01268
3555.85707	0.01292
3553.79690	0.01317
3551.73673	0.01346
3549.67656	0.01379
3547.61639	0.01416
3545.55621	0.01451
3543.49604	0.01487
3541.43587	0.01527
3539.37570	0.01573
3537.31552	0.01620
3535.25535	0.01661
3533.19518	0.01691
3531.13501	0.01712
3529.07484	0.01733
3527.01466	0.01762
3524.95449	0.01800
3522.89432	0.01844
3520.83415	0.01887
3518.77398	0.01921
3516.71380	0.01948
3514.65363	0.01977
3512.59346	0.02013
3510.53329	0.02050
3508.47312	0.02084
3506.41294	0.02117
3504.35277	0.02158
3502.29260	0.02208
3500.23243	0.02261
3498.17225	0.02308
3496.11208	0.02345
3494.05191	0.02378
3491.99174	0.02412
3489.93157	0.02447
3487.87139	0.02478
3485.81122	0.02507
3483.75105	0.02540
3481.69088	0.02577
3479.63071	0.02613
3477.57053	0.02647
3475.51036	0.02686
3473.45019	0.02733
3471.39002	0.02787
3469.32984	0.02842
3467.26967	0.02888
3465.20950	0.02918
3463.14933	0.02935
3461.08916	0.02948
3459.02898	0.02965
3456.96881	0.02992
3454.90864	0.03026
3452.84847	0.03062
3450.78830	0.03090
3448.72812	0.03114
3446.66795	0.03146
3444.60778	0.03194
3442.54761	0.03244
3440.48744	0.03279
3438.42726	0.03298
3436.36709	0.03314
3434.30692	0.03343
3432.24675	0.03389
3430.18657	0.03445
3428.12640	0.03499
3426.06623	0.03547
3424.00606	0.03582
3421.94589	0.03600
3419.88571	0.03601
3417.82554	0.03598
3415.76537	0.03608
3413.70520	0.03638
3411.64503	0.03684
3409.58485	0.03733
3407.52468	0.03774
3405.46451	0.03804
3403.40434	0.03819
3401.34416	0.03824
3399.28399	0.03834
3397.22382	0.03862
3395.16365	0.03903
3393.10348	0.03945
3391.04330	0.03974
3388.98313	0.03993
3386.92296	0.04008
3384.86279	0.04020
3382.80262	0.04030
3380.74244	0.04041
3378.68227	0.04061
3376.62210	0.04086
3374.56193	0.04109
3372.50176	0.04134
3370.44158	0.04164
3368.38141	0.04201
3366.32124	0.04233
3364.26107	0.04252
3362.20089	0.04258
3360.14072	0.04259
3358.08055	0.04260
3356.02038	0.04265
3353.96021	0.04279
3351.90003	0.04301
3349.83986	0.04326
3347.77969	0.04345
3345.71952	0.04355
3343.65935	0.04358
3341.59917	0.04355
3339.53900	0.04345
3337.47883	0.04328
3335.41866	0.04313
3333.35849	0.04304
3331.29831	0.04303
3329.23814	0.04310
3327.17797	0.04328
3325.11780	0.04351
3323.05762	0.04370
3320.99745	0.04382
3318.93728	0.04391
3316.87711	0.04397
3314.81694	0.04400
3312.75676	0.04402
3310.69659	0.04405
3308.63642	0.04407
3306.57625	0.04410
3304.51608	0.04419
3302.45590	0.04433
3300.39573	0.04450
3298.33556	0.04461
3296.27539	0.04464
3294.21521	0.04459
3292.15504	0.04447
3290.09487	0.04430
3288.03470	0.04415
3285.97453	0.04408
3283.91435	0.04412
3281.85418	0.04425
3279.79401	0.04443
3277.73384	0.04460
3275.67367	0.04468
3273.61349	0.04460
3271.55332	0.04437
3269.49315	0.04408
3267.43298	0.04380
3265.37281	0.04355
3263.31263	0.04332
3261.25246	0.04314
3259.19229	0.04305
3257.13212	0.04305
3255.07194	0.04311
3253.01177	0.04319
3250.95160	0.04326
3248.89143	0.04333
3246.83126	0.04337
3244.77108	0.04337
3242.71091	0.04328
3240.65074	0.04309
3238.59057	0.04282
3236.53040	0.04258
3234.47022	0.04239
3232.41005	0.04227
3230.34988	0.04216
3228.28971	0.04205
3226.22954	0.04197
3224.16936	0.04189
3222.10919	0.04174
3220.04902	0.04153
3217.98885	0.04134
3215.92867	0.04123
3213.86850	0.04121
3211.80833	0.04120
3209.74816	0.04107
3207.68799	0.04076
3205.62781	0.04037
3203.56764	0.04005
3201.50747	0.03981
3199.44730	0.03956
3197.38713	0.03931
3195.32695	0.03912
3193.26678	0.03901
3191.20661	0.03893
3189.14644	0.03882
3187.08626	0.03863
3185.02609	0.03838
3182.96592	0.03809
3180.90575	0.03780
3178.84558	0.03754
3176.78540	0.03728
3174.72523	0.03702
3172.66506	0.03677
3170.60489	0.03652
3168.54472	0.03631
3166.48454	0.03614
3164.42437	0.03595
3162.36420	0.03570
3160.30403	0.03541
3158.24386	0.03514
3156.18368	0.03495
3154.12351	0.03485
3152.06334	0.03474
3150.00317	0.03452
3147.94299	0.03416
3145.88282	0.03377
3143.82265	0.03350
3141.76248	0.03332
3139.70231	0.03314
3137.64213	0.03293
3135.58196	0.03270
3133.52179	0.03241
3131.46162	0.03208
3129.40145	0.03179
3127.34127	0.03158
3125.28110	0.03137
3123.22093	0.03113
3121.16076	0.03091
3119.10058	0.03076
3117.04041	0.03061
3114.98024	0.03038
3112.92007	0.03009
3110.85990	0.02979
3108.79972	0.02953
3106.73955	0.02933
3104.67938	0.02915
3102.61921	0.02895
3100.55904	0.02867
3098.49886	0.02834
3096.43869	0.02807
3094.37852	0.02793
3092.31835	0.02787
3090.25818	0.02776
3088.19800	0.02756
3086.13783	0.02730
3084.07766	0.02702
3082.01749	0.02670
3079.95731	0.02635
3077.89714	0.02602
3075.83697	0.02574
3073.77680	0.02550
3071.71663	0.02525
3069.65645	0.02496
3067.59628	0.02469
3065.53611	0.02446
3063.47594	0.02428
3061.41577	0.02415
3059.35559	0.02402
3057.29542	0.02381
3055.23525	0.02351
3053.17508	0.02322
3051.11491	0.02302
3049.05473	0.02293
3046.99456	0.02287
3044.93439	0.02278
3042.87422	0.02263
3040.81404	0.02238
3038.75387	0.02207
3036.69370	0.02177
3034.63353	0.02155
3032.57336	0.02144
3030.51318	0.02142
3028.45301	0.02144
3026.39284	0.02143
3024.33267	0.02137
3022.27250	0.02124
3020.21232	0.02110
3018.15215	0.02104
3016.09198	0.02108
3014.03181	0.02108
3011.97163	0.02094
3009.91146	0.02068
3007.85129	0.02039
3005.79112	0.02017
3003.73095	0.02007
3001.67077	0.02003
2999.61060	0.01994
2997.55043	0.01978
2995.49026	0.01970
2993.43009	0.01968
2991.36991	0.01966
2989.30974	0.01964
2987.24957	0.01977
2985.18940	0.02002
2983.12923	0.02022
2981.06905	0.02037
2979.00888	0.02069
2976.94871	0.02120
2974.88854	0.02182
2972.82836	0.02255
2970.76819	0.02328
2968.70802	0.02402
2966.64785	0.02499
2964.58768	0.02624
2962.52750	0.02764
2960.46733	0.02910
2958.40716	0.03057
2956.34699	0.03195
2954.28682	0.03321
2952.22664	0.03447
2950.16647	0.03583
2948.10630	0.03731
2946.04613	0.03897
2943.98596	0.04090
2941.92578	0.04299
2939.86561	0.04509
2937.80544	0.04725
2935.74527	0.04939
2933.68509	0.05127
2931.62492	0.05292
2929.56475	0.05455
2927.50458	0.05613
2925.44441	0.05743
2923.38423	0.05841
2921.32406	0.05914
2919.26389	0.05936
2917.20372	0.05873
2915.14355	0.05720
2913.08337	0.05504
2911.02320	0.05257
2908.96303	0.05014
2906.90286	0.04812
2904.84268	0.04659
2902.78251	0.04529
2900.72234	0.04398
2898.66217	0.04261
2896.60200	0.04129
2894.54182	0.04012
2892.48165	0.03905
2890.42148	0.03806
2888.36131	0.03711
2886.30114	0.03624
2884.24096	0.03558
2882.18079	0.03519
2880.12062	0.03503
2878.06045	0.03503
2876.00028	0.03516
2873.94010	0.03537
2871.87993	0.03562
2869.81976	0.03593
2867.75959	0.03640
2865.69941	0.03718
2863.63924	0.03830
2861.57907	0.03965
2859.51890	0.04115
2857.45873	0.04279
2855.39855	0.04442
2853.33838	0.04574
2851.27821	0.04630
2849.21804	0.04543
2847.15787	0.04296
2845.09769	0.03965
2843.03752	0.03647
2840.97735	0.03379
2838.91718	0.03160
2836.85700	0.02997
2834.79683	0.02879
2832.73666	0.02786
2830.67649	0.02706
2828.61632	0.02631
2826.55614	0.02560
2824.49597	0.02494
2822.43580	0.02437
2820.37563	0.02387
2818.31546	0.02339
2816.25528	0.02297
2814.19511	0.02266
2812.13494	0.02243
2810.07477	0.02214
2808.01460	0.02180
2805.95442	0.02149
2803.89425	0.02115
2801.83408	0.02079
2799.77391	0.02051
2797.71373	0.02033
2795.65356	0.02014
2793.59339	0.01993
2791.53322	0.01975
2789.47305	0.01957
2787.41287	0.01933
2785.35270	0.01907
2783.29253	0.01886
2781.23236	0.01867
2779.17219	0.01854
2777.11201	0.01846
2775.05184	0.01837
2772.99167	0.01830
2770.93150	0.01827
2768.87133	0.01818
2766.81115	0.01806
2764.75098	0.01796
2762.69081	0.01782
2760.63064	0.01769
2758.57046	0.01767
2756.51029	0.01769
2754.45012	0.01766
2752.38995	0.01761
2750.32978	0.01757
2748.26960	0.01753
2746.20943	0.01746
2744.14926	0.01734
2742.08909	0.01718
2740.02892	0.01707
2737.96874	0.01709
2735.90857	0.01718
2733.84840	0.01722
2731.78823	0.01719
2729.72805	0.01710
2727.66788	0.01689
2725.60771	0.01665
2723.54754	0.01654
2721.48737	0.01655
2719.42719	0.01660
2717.36702	0.01665
2715.30685	0.01670
2713.24668	0.01673
2711.18651	0.01673
2709.12633	0.01664
2707.06616	0.01651
2705.00599	0.01648
2702.94582	0.01655
2700.88565	0.01664
2698.82547	0.01662
2696.76530	0.01639
2694.70513	0.01601
2692.64496	0.01575
2690.58478	0.01575
2688.52461	0.01594
2686.46444	0.01606
2684.40427	0.01597
2682.34410	0.01580
2680.28392	0.01574
2678.22375	0.01580
2676.16358	0.01587
2674.10341	0.01583
2672.04324	0.01572
2669.98306	0.01565
2667.92289	0.01562
2665.86272	0.01561
2663.80255	0.01559
2661.74238	0.01549
2659.68220	0.01537
2657.62203	0.01533
2655.56186	0.01533
2653.50169	0.01524
2651.44151	0.01505
2649.38134	0.01487
2647.32117	0.01476
2645.26100	0.01474
2643.20083	0.01480
2641.14065	0.01486
2639.08048	0.01482
2637.02031	0.01468
2634.96014	0.01452
2632.89997	0.01437
2630.83979	0.01433
2628.77962	0.01444
2626.71945	0.01446
2624.65928	0.01418
2622.59910	0.01382
2620.53893	0.01363
2618.47876	0.01359
2616.41859	0.01356
2614.35842	0.01351
2612.29824	0.01340
2610.23807	0.01323
2608.17790	0.01310
2606.11773	0.01305
2604.05756	0.01305
2601.99738	0.01298
2599.93721	0.01286
2597.87704	0.01274
2595.81687	0.01257
2593.75670	0.01244
2591.69652	0.01254
2589.63635	0.01279
2587.57618	0.01289
2585.51601	0.01274
2583.45583	0.01248
2581.39566	0.01218
2579.33549	0.01183
2577.27532	0.01156
2575.21515	0.01153
2573.15497	0.01170
2571.09480	0.01179
2569.03463	0.01166
2566.97446	0.01136
2564.91429	0.01110
2562.85411	0.01104
2560.79394	0.01118
2558.73377	0.01150
2556.67360	0.01191
2554.61342	0.01211
2552.55325	0.01186
2550.49308	0.01132
2548.43291	0.01091
2546.37274	0.01091
2544.31256	0.01125
2542.25239	0.01152
2540.19222	0.01144
2538.13205	0.01111
2536.07188	0.01088
2534.01170	0.01085
2531.95153	0.01082
2529.89136	0.01073
2527.83119	0.01084
2525.77102	0.01102
2523.71084	0.01086
2521.65067	0.01035
2519.59050	0.00989
2517.53033	0.00979
2515.47015	0.01001
2513.40998	0.01016
2511.34981	0.01002
2509.28964	0.00981
2507.22947	0.00976
2505.16929	0.00987
2503.10912	0.01000
2501.04895	0.01004
2498.98878	0.00997
2496.92861	0.00995
2494.86843	0.01002
2492.80826	0.01008
2490.74809	0.01007
2488.68792	0.00998
2486.62775	0.00991
2484.56757	0.01000
2482.50740	0.01021
2480.44723	0.01018
2478.38706	0.00971
2476.32688	0.00918
2474.26671	0.00898
2472.20654	0.00899
2470.14637	0.00895
2468.08620	0.00887
2466.02602	0.00887
2463.96585	0.00898
2461.90568	0.00917
2459.84551	0.00928
2457.78534	0.00921
2455.72516	0.00914
2453.66499	0.00922
2451.60482	0.00934
2449.54465	0.00933
2447.48447	0.00927
2445.42430	0.00918
2443.36413	0.00897
2441.30396	0.00889
2439.24379	0.00912
2437.18361	0.00934
2435.12344	0.00931
2433.06327	0.00918
2431.00310	0.00905
2428.94293	0.00881
2426.88275	0.00849
2424.82258	0.00828
2422.76241	0.00827
2420.70224	0.00841
2418.64207	0.00856
2416.58189	0.00867
2414.52172	0.00879
2412.46155	0.00880
2410.40138	0.00867
2408.34120	0.00858
2406.28103	0.00857
2404.22086	0.00849
2402.16069	0.00826
2400.10052	0.00801
2398.04034	0.00789
2395.98017	0.00791
2393.92000	0.00798
2391.85983	0.00798
2389.79966	0.00796
2387.73948	0.00799
2385.67931	0.00811
2383.61914	0.00825
2381.55897	0.00833
2379.49880	0.00827
2377.43862	0.00805
2375.37845	0.00771
2373.31828	0.00734
2371.25811	0.00702
2369.19793	0.00681
2367.13776	0.00673
2365.07759	0.00683
2363.01742	0.00717
2360.95725	0.00769
2358.89707	0.00815
2356.83690	0.00841
2354.77673	0.00860
2352.71656	0.00870
2350.65639	0.00859
2348.59621	0.00822
2346.53604	0.00776
2344.47587	0.00741
2342.41570	0.00729
2340.35552	0.00733
2338.29535	0.00745
2336.23518	0.00760
2334.17501	0.00777
2332.11484	0.00800
2330.05466	0.00825
2327.99449	0.00851
2325.93432	0.00867
2323.87415	0.00868
2321.81398	0.00860
2319.75380	0.00853
2317.69363	0.00844
2315.63346	0.00829
2313.57329	0.00810
2311.51312	0.00790
2309.45294	0.00772
2307.39277	0.00760
2305.33260	0.00758
2303.27243	0.00767
2301.21225	0.00781
2299.15208	0.00792
2297.09191	0.00792
2295.03174	0.00786
2292.97157	0.00783
2290.91139	0.00789
2288.85122	0.00800
2286.79105	0.00812
2284.73088	0.00812
2282.67071	0.00799
2280.61053	0.00779
2278.55036	0.00761
2276.49019	0.00748
2274.43002	0.00733
2272.36984	0.00711
2270.30967	0.00683
2268.24950	0.00658
2266.18933	0.00643
2264.12916	0.00636
2262.06898	0.00636
2260.00881	0.00643
2257.94864	0.00653
2255.88847	0.00656
2253.82830	0.00640
2251.76812	0.00598
2249.70795	0.00546
2247.64778	0.00526
2245.58761	0.00574
2243.52744	0.00628
2241.46726	0.00631
2239.40709	0.00605
2237.34692	0.00599
2235.28675	0.00620
2233.22657	0.00617
2231.16640	0.00570
2229.10623	0.00529
2227.04606	0.00523
2224.98589	0.00529
2222.92571	0.00536
2220.86554	0.00561
2218.80537	0.00609
2216.74520	0.00659
2214.68503	0.00685
2212.62485	0.00684
2210.56468	0.00684
2208.50451	0.00684
2206.44434	0.00640
2204.38417	0.00526
2202.32399	0.00401
2200.26382	0.00348
2198.20365	0.00386
2196.14348	0.00437
2194.08330	0.00432
2192.02313	0.00412
2189.96296	0.00452
2187.90279	0.00546
2185.84262	0.00639
2183.78244	0.00702
2181.72227	0.00740
2179.66210	0.00759
2177.60193	0.00722
2175.54176	0.00620
2173.48158	0.00544
2171.42141	0.00550
2169.36124	0.00566
2167.30107	0.00521
2165.24089	0.00450
2163.18072	0.00392
2161.12055	0.00336
2159.06038	0.00295
2157.00021	0.00279
2154.94003	0.00260
2152.87986	0.00245
2150.81969	0.00289
2148.75952	0.00365
2146.69935	0.00354
2144.63917	0.00245
2142.57900	0.00165
2140.51883	0.00180
2138.45866	0.00245
2136.39849	0.00300
2134.33831	0.00315
2132.27814	0.00316
2130.21797	0.00342
2128.15780	0.00397
2126.09762	0.00470
2124.03745	0.00547
2121.97728	0.00606
2119.91711	0.00622
2117.85694	0.00604
2115.79676	0.00594
2113.73659	0.00613
2111.67642	0.00633
2109.61625	0.00629
2107.55608	0.00611
2105.49590	0.00604
2103.43573	0.00605
2101.37556	0.00594
2099.31539	0.00568
2097.25521	0.00529
2095.19504	0.00481
2093.13487	0.00436
2091.07470	0.00416
2089.01453	0.00421
2086.95435	0.00442
2084.89418	0.00474
2082.83401	0.00516
2080.77384	0.00552
2078.71367	0.00568
2076.65349	0.00566
2074.59332	0.00559
2072.53315	0.00560
2070.47298	0.00566
2068.41281	0.00564
2066.35263	0.00542
2064.29246	0.00504
2062.23229	0.00471
2060.17212	0.00458
2058.11194	0.00461
2056.05177	0.00474
2053.99160	0.00503
2051.93143	0.00543
2049.87126	0.00569
2047.81108	0.00568
2045.75091	0.00549
2043.69074	0.00526
2041.63057	0.00501
2039.57040	0.00453
2037.51022	0.00376
2035.45005	0.00308
2033.38988	0.00289
2031.32971	0.00318
2029.26954	0.00356
2027.20936	0.00381
2025.14919	0.00394
2023.08902	0.00398
2021.02885	0.00374
2018.96867	0.00318
2016.90850	0.00252
2014.84833	0.00211
2012.78816	0.00199
2010.72799	0.00195
2008.66781	0.00188
2006.60764	0.00199
2004.54747	0.00243
2002.48730	0.00305
2000.42713	0.00361
1998.36695	0.00409
1996.30678	0.00457
1994.24661	0.00497
1992.18644	0.00524
1990.12626	0.00534
1988.06609	0.00518
1986.00592	0.00468
1983.94575	0.00391
1981.88558	0.00310
1979.82540	0.00255
1977.76523	0.00240
1975.70506	0.00252
1973.64489	0.00267
1971.58472	0.00276
1969.52454	0.00282
1967.46437	0.00288
1965.40420	0.00298
1963.34403	0.00310
1961.28386	0.00318
1959.22368	0.00320
1957.16351	0.00321
1955.10334	0.00332
1953.04317	0.00351
1950.98299	0.00362
1948.92282	0.00344
1946.86265	0.00294
1944.80248	0.00229
1942.74231	0.00183
1940.68213	0.00182
1938.62196	0.00237
1936.56179	0.00324
1934.50162	0.00400
1932.44145	0.00436
1930.38127	0.00430
1928.32110	0.00404
1926.26093	0.00384
1924.20076	0.00385
1922.14059	0.00399
1920.08041	0.00410
1918.02024	0.00400
1915.96007	0.00367
1913.89990	0.00332
1911.83972	0.00316
1909.77955	0.00328
1907.71938	0.00357
1905.65921	0.00386
1903.59904	0.00405
1901.53886	0.00409
1899.47869	0.00400
1897.41852	0.00382
1895.35835	0.00361
1893.29818	0.00343
1891.23800	0.00333
1889.17783	0.00331
1887.11766	0.00333
1885.05749	0.00345
1882.99731	0.00364
1880.93714	0.00376
1878.87697	0.00365
1876.81680	0.00335
1874.75663	0.00304
1872.69645	0.00284
1870.63628	0.00274
1868.57611	0.00270
1866.51594	0.00274
1864.45577	0.00286
1862.39559	0.00301
1860.33542	0.00311
1858.27525	0.00310
1856.21508	0.00297
1854.15491	0.00277
1852.09473	0.00262
1850.03456	0.00257
1847.97439	0.00257
1845.91422	0.00260
1843.85404	0.00265
1841.79387	0.00277
1839.73370	0.00297
1837.67353	0.00317
1835.61336	0.00331
1833.55318	0.00331
1831.49301	0.00320
1829.43284	0.00304
1827.37267	0.00288
1825.31250	0.00271
1823.25232	0.00246
1821.19215	0.00216
1819.13198	0.00194
1817.07181	0.00193
1815.01163	0.00215
1812.95146	0.00244
1810.89129	0.00264
1808.83112	0.00269
1806.77095	0.00261
1804.71077	0.00245
1802.65060	0.00231
1800.59043	0.00224
1798.53026	0.00225
1796.47009	0.00230
1794.40991	0.00233
1792.34974	0.00229
1790.28957	0.00217
1788.22940	0.00202
1786.16923	0.00194
1784.10905	0.00195
1782.04888	0.00198
1779.98871	0.00195
1777.92854	0.00192
1775.86836	0.00194
1773.80819	0.00202
1771.74802	0.00221
1769.68785	0.00252
1767.62768	0.00295
1765.56750	0.00346
1763.50733	0.00406
1761.44716	0.00481
1759.38699	0.00578
1757.32682	0.00702
1755.26664	0.00849
1753.20647	0.01014
1751.14630	0.01185
1749.08613	0.01348
1747.02596	0.01485
1744.96578	0.01589
1742.90561	0.01661
1740.84544	0.01709
1738.78527	0.01735
1736.72509	0.01739
1734.66492	0.01721
1732.60475	0.01690
1730.54458	0.01664
1728.48441	0.01651
1726.42423	0.01650
1724.36406	0.01652
1722.30389	0.01653
1720.24372	0.01655
1718.18355	0.01659
1716.12337	0.01665
1714.06320	0.01670
1712.00303	0.01668
1709.94286	0.01654
1707.88268	0.01634
1705.82251	0.01614
1703.76234	0.01595
1701.70217	0.01577
1699.64200	0.01571
1697.58182	0.01589
1695.52165	0.01632
1693.46148	0.01695
1691.40131	0.01778
1689.34114	0.01886
1687.28096	0.02022
1685.22079	0.02189
1683.16062	0.02374
1681.10045	0.02552
1679.04028	0.02703
1676.98010	0.02825
1674.91993	0.02914
1672.85976	0.02966
1670.79959	0.02974
1668.73941	0.02941
1666.67924	0.02883
1664.61907	0.02819
1662.55890	0.02759
1660.49873	0.02707
1658.43855	0.02662
1656.37838	0.02621
1654.31821	0.02587
1652.25804	0.02566
1650.19787	0.02564
1648.13769	0.02576
1646.07752	0.02595
1644.01735	0.02619
1641.95718	0.02646
1639.89701	0.02682
1637.83683	0.02730
1635.77666	0.02791
1633.71649	0.02854
1631.65632	0.02911
1629.59614	0.02957
1627.53597	0.02995
1625.47580	0.03026
1623.41563	0.03052
1621.35546	0.03076
1619.29528	0.03101
1617.23511	0.03136
1615.17494	0.03193
1613.11477	0.03277
1611.05460	0.03381
1608.99442	0.03487
1606.93425	0.03564
1604.87408	0.03586
1602.81391	0.03542
1600.75373	0.03443
1598.69356	0.03312
1596.63339	0.03174
1594.57322	0.03047
1592.51305	0.02940
1590.45287	0.02847
1588.39270	0.02757
1586.33253	0.02664
1584.27236	0.02569
1582.21219	0.02481
1580.15201	0.02404
1578.09184	0.02335
1576.03167	0.02270
1573.97150	0.02211
1571.91133	0.02155
1569.85115	0.02096
1567.79098	0.02027
1565.73081	0.01950
1563.67064	0.01866
1561.61046	0.01776
1559.55029	0.01676
1557.49012	0.01570
1555.42995	0.01477
1553.36978	0.01400
1551.30960	0.01334
1549.24943	0.01274
1547.18926	0.01221
1545.12909	0.01171
1543.06892	0.01123
1541.00874	0.01074
1538.94857	0.01023
1536.88840	0.00969
1534.82823	0.00915
1532.76805	0.00864
1530.70788	0.00819
1528.64771	0.00785
1526.58754	0.00772
1524.52737	0.00794
1522.46719	0.00860
1520.40702	0.00967
1518.34685	0.01089
1516.28668	0.01185
1514.22651	0.01218
1512.16633	0.01174
1510.10616	0.01064
1508.04599	0.00915
1505.98582	0.00765
1503.92565	0.00649
1501.86547	0.00567
1499.80530	0.00503
1497.74513	0.00446
1495.68496	0.00392
1493.62478	0.00343
1491.56461	0.00295
1489.50444	0.00252
1487.44427	0.00224
1485.38410	0.00222
1483.32392	0.00247
1481.26375	0.00293
1479.20358	0.00358
1477.14341	0.00449
1475.08324	0.00578
1473.02306	0.00749
1470.96289	0.00951
1468.90272	0.01159
1466.84255	0.01353
1464.78238	0.01516
1462.72220	0.01638
1460.66203	0.01725
1458.60186	0.01802
1456.54169	0.01880
1454.48151	0.01953
1452.42134	0.02018
1450.36117	0.02079
1448.30100	0.02146
1446.24083	0.02220
1444.18065	0.02296
1442.12048	0.02370
1440.06031	0.02435
1438.00014	0.02490
1435.93997	0.02535
1433.87979	0.02567
1431.81962	0.02589
1429.75945	0.02604
1427.69928	0.02615
1425.63910	0.02624
1423.57893	0.02633
1421.51876	0.02646
1419.45859	0.02657
1417.39842	0.02660
1415.33824	0.02651
1413.27807	0.02626
1411.21790	0.02584
1409.15773	0.02529
1407.09756	0.02463
1405.03738	0.02391
1402.97721	0.02315
1400.91704	0.02238
1398.85687	0.02163
1396.79670	0.02096
1394.73652	0.02046
1392.67635	0.02020
1390.61618	0.02019
1388.55601	0.02039
1386.49583	0.02078
1384.43566	0.02133
1382.37549	0.02198
1380.31532	0.02269
1378.25515	0.02337
1376.19497	0.02389
1374.13480	0.02418
1372.07463	0.02427
1370.01446	0.02421
1367.95429	0.02403
1365.89411	0.02374
1363.83394	0.02336
1361.77377	0.02295
1359.71360	0.02260
1357.65343	0.02237
1355.59325	0.02222
1353.53308	0.02209
1351.47291	0.02195
1349.41274	0.02178
1347.35256	0.02158
1345.29239	0.02137
1343.23222	0.02119
1341.17205	0.02111
1339.11188	0.02112
1337.05170	0.02117
1334.99153	0.02119
1332.93136	0.02119
1330.87119	0.02119
1328.81102	0.02123
1326.75084	0.02131
1324.69067	0.02141
1322.63050	0.02154
1320.57033	0.02166
1318.51015	0.02172
1316.44998	0.02164
1314.38981	0.02141
1312.32964	0.02106
1310.26947	0.02061
1308.20929	0.02010
1306.14912	0.01953
1304.08895	0.01891
1302.02878	0.01831
1299.96861	0.01784
1297.90843	0.01756
1295.84826	0.01745
1293.78809	0.01747
1291.72792	0.01758
1289.66775	0.01775
1287.60757	0.01797
1285.54740	0.01825
1283.48723	0.01854
1281.42706	0.01880
1279.36688	0.01901
1277.30671	0.01919
1275.24654	0.01937
1273.18637	0.01959
1271.12620	0.01987
1269.06602	0.02026
1267.00585	0.02079
1264.94568	0.02146
1262.88551	0.02220
1260.82534	0.02294
1258.76516	0.02364
1256.70499	0.02422
1254.64482	0.02467
1252.58465	0.02503
1250.52447	0.02537
1248.46430	0.02570
1246.40413	0.02597
1244.34396	0.02615
1242.28379	0.02620
1240.22361	0.02614
1238.16344	0.02596
1236.10327	0.02562
1234.04310	0.02511
1231.98293	0.02446
1229.92275	0.02370
1227.86258	0.02281
1225.80241	0.02180
1223.74224	0.02070
1221.68207	0.01955
1219.62189	0.01837
1217.56172	0.01719
1215.50155	0.01605
1213.44138	0.01499
1211.38120	0.01399
1209.32103	0.01301
1207.26086	0.01196
1205.20069	0.01080
1203.14052	0.00954
1201.08034	0.00820
1199.02017	0.00684
1196.96000	0.00549
1194.89983	0.00423
1192.83966	0.00325
1190.77948	0.00271
1188.71931	0.00251
1186.65914	0.00241
1184.59897	0.00238
1182.53880	0.00251
1180.47862	0.00294
1178.41845	0.00379
1176.35828	0.00506
1174.29811	0.00677
1172.23793	0.00887
1170.17776	0.01099
1168.11759	0.01268
1166.05742	0.01381
1163.99725	0.01457
1161.93707	0.01517
1159.87690	0.01570
1157.81673	0.01619
1155.75656	0.01668
1153.69639	0.01727
1151.63621	0.01810
1149.57604	0.01913
1147.51587	0.02021
1145.45570	0.02118
1143.39552	0.02193
1141.33535	0.02255
1139.27518	0.02318
1137.21501	0.02376
1135.15484	0.02423
1133.09466	0.02476
1131.03449	0.02558
1128.97432	0.02665
1126.91415	0.02782
1124.85398	0.02901
1122.79380	0.03015
1120.73363	0.03123
1118.67346	0.03229
1116.61329	0.03335
1114.55312	0.03438
1112.49294	0.03540
1110.43277	0.03646
1108.37260	0.03752
1106.31243	0.03853
1104.25225	0.03957
1102.19208	0.04080
1100.13191	0.04228
1098.07174	0.04402
1096.01157	0.04590
1093.95139	0.04774
1091.89122	0.04944
1089.83105	0.05102
1087.77088	0.05259
1085.71071	0.05423
1083.65053	0.05599
1081.59036	0.05774
1079.53019	0.05945
1077.47002	0.06121
1075.40985	0.06306
1073.34967	0.06493
1071.28950	0.06676
1069.22933	0.06847
1067.16916	0.06990
1065.10898	0.07113
1063.04881	0.07229
1060.98864	0.07342
1058.92847	0.07456
1056.86830	0.07584
1054.80812	0.07728
1052.74795	0.07879
1050.68778	0.08051
1048.62761	0.08267
1046.56744	0.08505
1044.50726	0.08720
1042.44709	0.08902
1040.38692	0.09068
1038.32675	0.09222
1036.26657	0.09349
1034.20640	0.09430
1032.14623	0.09467
1030.08606	0.09478
1028.02589	0.09479
1025.96571	0.09470
1023.90554	0.09441
1021.84537	0.09389
1019.78520	0.09329
1017.72503	0.09287
1015.66485	0.09268
1013.60468	0.09258
1011.54451	0.09261
1009.48434	0.09281
1007.42417	0.09300
1005.36399	0.09286
1003.30382	0.09234
1001.24365	0.09154
999.18348	0.09048
997.12330	0.08921
995.06313	0.08783
993.00296	0.08635
990.94279	0.08479
988.88262	0.08326
986.82244	0.08175
984.76227	0.08027
982.70210	0.07894
980.64193	0.07780
978.58176	0.07668
976.52158	0.07541
974.46141	0.07396
972.40124	0.07244
970.34107	0.07100
968.28089	0.06952
966.22072	0.06790
964.16055	0.06622
962.10038	0.06454
960.04021	0.06294
957.98003	0.06150
955.91986	0.06019
953.85969	0.05888
951.79952	0.05753
949.73935	0.05608
947.67917	0.05457
945.61900	0.05304
943.55883	0.05135
941.49866	0.04923
939.43849	0.04668
937.37831	0.04391
935.31814	0.04102
933.25797	0.03810
931.19780	0.03539
929.13762	0.03309
927.07745	0.03106
925.01728	0.02909
922.95711	0.02718
920.89694	0.02551
918.83676	0.02411
916.77659	0.02278
914.71642	0.02135
912.65625	0.01988
910.59608	0.01843
908.53590	0.01710
906.47573	0.01608
904.41556	0.01549
902.35539	0.01530
900.29522	0.01536
898.23504	0.01553
896.17487	0.01580
894.11470	0.01615
892.05453	0.01640
889.99435	0.01624
887.93418	0.01561
885.87401	0.01476
883.81384	0.01397
881.75367	0.01317
879.69349	0.01214
877.63332	0.01099
875.57315	0.01006
873.51298	0.00937
871.45281	0.00890
869.39263	0.00869
867.33246	0.00857
865.27229	0.00839
863.21212	0.00807
861.15194	0.00764
859.09177	0.00731
857.03160	0.00723
854.97143	0.00726
852.91126	0.00723
850.85108	0.00718
848.79091	0.00723
846.73074	0.00731
844.67057	0.00742
842.61040	0.00752
840.55022	0.00746
838.49005	0.00729
836.42988	0.00710
834.36971	0.00679
832.30954	0.00632
830.24936	0.00584
828.18919	0.00524
826.12902	0.00459
824.06885	0.00425
822.00867	0.00434
819.94850	0.00442
817.88833	0.00417
815.82816	0.00379
813.76799	0.00368
811.70781	0.00387
809.64764	0.00418
807.58747	0.00461
805.52730	0.00493
803.46713	0.00479
801.40695	0.00443
799.34678	0.00420
797.28661	0.00401
795.22644	0.00367
793.16627	0.00322
791.10609	0.00288
789.04592	0.00268
786.98575	0.00273
784.92558	0.00310
782.86540	0.00372
780.80523	0.00410
778.74506	0.00390
776.68489	0.00346
774.62472	0.00338
772.56454	0.00357
770.50437	0.00348
768.44420	0.00304
766.38403	0.00278
764.32386	0.00300
762.26368	0.00337
760.20351	0.00351
758.14334	0.00348
756.08317	0.00342
754.02299	0.00322
751.96282	0.00291
749.90265	0.00240
747.84248	0.00205
745.78231	0.00180
743.72213	0.00161
741.66196	0.00121
739.60179	0.00048
737.54162	0.00000
735.48145	0.00028
733.42127	0.00089
731.36110	0.00113
729.30093	0.00113
727.24076	0.00133
725.18059	0.00162
723.12041	0.00185
721.06024	0.00209
719.00007	0.00236
716.93990	0.00264
714.87972	0.00292
712.81955	0.00325
710.75938	0.00361
708.69921	0.00396
706.63904	0.00429
704.57886	0.00466
702.51869	0.00501
700.45852	0.00524
698.39835	0.00528
696.33818	0.00513
694.27800	0.00484
692.21783	0.00444
690.15766	0.00403
688.09749	0.00372
686.03731	0.00346
683.97714	0.00301
681.91697	0.00234
679.85680	0.00177
677.79663	0.00158
675.73645	0.00174
673.67628	0.00197
671.61611	0.00197
669.55594	0.00175
667.49577	0.00149
665.43559	0.00120
663.37542	0.00084
661.31525	0.00058
659.25508	0.00062
657.19491	0.00103
655.13473	0.00160
653.07456	0.00204
651.01439	0.00219
648.95422	0.00215
646.89404	0.00213
644.83387	0.00229
642.77370	0.00258
640.71353	0.00285
638.65336	0.00297
636.59318	0.00287
634.53301	0.00253
632.47284	0.00204
630.41267	0.00145
628.35250	0.00077
626.29232	0.00008
624.23215	0.00000
622.17198	0.00079
620.11181	0.00198
618.05164	0.00315
615.99146	0.00404
613.93129	0.00405
611.87112	0.00330
609.81095	0.00278
607.75077	0.00249
605.69060	0.00179
603.63043	0.00092
601.57026	0.00036
599.51009	0.00000
