3996.73391	0.00050
3994.67373	0.00056
3992.61356	0.00054
3990.55339	0.00038
3988.49322	0.00015
3986.43305	0.00000
3984.37287	0.00001
3982.31270	0.00013
3980.25253	0.00026
3978.19236	0.00032
3976.13219	0.00034
3974.07201	0.00034
3972.01184	0.00038
3969.95167	0.00049
3967.89150	0.00066
3965.83133	0.00079
3963.77115	0.00080
3961.71098	0.00067
3959.65081	0.00051
3957.59064	0.00036
3955.53046	0.00024
3953.47029	0.00011
3951.41012	0.00008
3949.34995	0.00023
3947.28978	0.00049
3945.22960	0.00073
3943.16943	0.00086
3941.10926	0.00093
3939.04909	0.00104
3936.98892	0.00120
3934.92874	0.00128
3932.86857	0.00118
3930.80840	0.00101
3928.74823	0.00093
3926.68805	0.00097
3924.62788	0.00105
3922.56771	0.00106
3920.50754	0.00095
3918.44737	0.00076
3916.38719	0.00061
3914.32702	0.00059
3912.26685	0.00069
3910.20668	0.00080
3908.14651	0.00087
3906.08633	0.00093
3904.02616	0.00103
3901.96599	0.00114
3899.90582	0.00124
3897.84565	0.00130
3895.78547	0.00129
3893.72530	0.00119
3891.66513	0.00100
3889.60496	0.00075
3887.54478	0.00047
3885.48461	0.00021
3883.42444	0.00013
3881.36427	0.00034
3879.30410	0.00079
3877.24392	0.00125
3875.18375	0.00154
3873.12358	0.00161
3871.06341	0.00154
3869.00324	0.00142
3866.94306	0.00134
3864.88289	0.00131
3862.82272	0.00127
3860.76255	0.00118
3858.70237	0.00105
3856.64220	0.00095
3854.58203	0.00093
3852.52186	0.00100
3850.46169	0.00107
3848.40151	0.00107
3846.34134	0.00106
3844.28117	0.00116
3842.22100	0.00136
3840.16083	0.00153
3838.10065	0.00147
3836.04048	0.00117
3833.98031	0.00087
3831.92014	0.00078
3829.85997	0.00090
3827.79979	0.00115
3825.73962	0.00141
3823.67945	0.00158
3821.61928	0.00154
3819.55910	0.00127
3817.49893	0.00089
3815.43876	0.00055
3813.37859	0.00033
3811.31842	0.00025
3809.25824	0.00033
3807.19807	0.00054
3805.13790	0.00084
3803.07773	0.00115
3801.01756	0.00134
3798.95738	0.00137
3796.89721	0.00132
3794.83704	0.00123
3792.77687	0.00112
3790.71670	0.00098
3788.65652	0.00081
3786.59635	0.00066
3784.53618	0.00061
3782.47601	0.00069
3780.41583	0.00086
3778.35566	0.00103
3776.29549	0.00113
3774.23532	0.00113
3772.17515	0.00104
3770.11497	0.00088
3768.05480	0.00070
3765.99463	0.00057
3763.93446	0.00061
3761.87429	0.00084
3759.81411	0.00112
3757.75394	0.00129
3755.69377	0.00128
3753.63360	0.00118
3751.57342	0.00115
3749.51325	0.00127
3747.45308	0.00161
3745.39291	0.00201
3743.33274	0.00222
3741.27256	0.00219
3739.21239	0.00208
3737.15222	0.00204
3735.09205	0.00196
3733.03188	0.00169
3730.97170	0.00124
3728.91153	0.00079
3726.85136	0.00060
3724.79119	0.00070
3722.73102	0.00091
3720.67084	0.00107
3718.61067	0.00117
3716.55050	0.00124
3714.49033	0.00133
3712.43015	0.00143
3710.36998	0.00141
3708.30981	0.00119
3706.24964	0.00083
3704.18947	0.00050
3702.12929	0.00034
3700.06912	0.00037
3698.00895	0.00050
3695.94878	0.00066
3693.88861	0.00076
3691.82843	0.00075
3689.76826	0.00064
3687.70809	0.00049
3685.64792	0.00036
3683.58775	0.00027
3681.52757	0.00027
3679.46740	0.00040
3677.40723	0.00070
3675.34706	0.00106
3673.28688	0.00130
3671.22671	0.00132
3669.16654	0.00117
3667.10637	0.00094
3665.04620	0.00079
3662.98602	0.00074
3660.92585	0.00079
3658.86568	0.00092
3656.80551	0.00113
3654.74534	0.00140
3652.68516	0.00171
3650.62499	0.00196
3648.56482	0.00203
3646.50465	0.00193
3644.44447	0.00185
3642.38430	0.00189
3640.32413	0.00206
3638.26396	0.00231
3636.20379	0.00264
3634.14361	0.00301
3632.08344	0.00336
3630.02327	0.00364
3627.96310	0.00382
3625.90293	0.00394
3623.84275	0.00406
3621.78258	0.00420
3619.72241	0.00430
3617.66224	0.00433
3615.60207	0.00434
3613.54189	0.00441
3611.48172	0.00450
3609.42155	0.00455
3607.36138	0.00461
3605.30120	0.00475
3603.24103	0.00504
3601.18086	0.00541
3599.12069	0.00571
3597.06052	0.00585
3595.00034	0.00592
3592.94017	0.00612
3590.88000	0.00657
3588.81983	0.00720
3586.75966	0.00779
3584.69948	0.00811
3582.63931	0.00816
3580.57914	0.00813
3578.51897	0.00821
3576.45879	0.00841
3574.39862	0.00864
3572.33845	0.00879
3570.27828	0.00893
3568.21811	0.00920
3566.15793	0.00966
3564.09776	0.01023
3562.03759	0.01079
3559.97742	0.01125
3557.91725	0.01155
3555.85707	0.01175
3553.79690	0.01195
3551.73673	0.01221
3549.67656	0.01252
3547.61639	0.01286
3545.55621	0.01317
3543.49604	0.01345
3541.43587	0.01377
3539.37570	0.01419
3537.31552	0.01470
3535.25535	0.01523
3533.19518	0.01573
3531.13501	0.01620
3529.07484	0.01659
3527.01466	0.01678
3524.95449	0.01676
3522.89432	0.01673
3520.83415	0.01684
3518.77398	0.01712
3516.71380	0.01752
3514.65363	0.01799
3512.59346	0.01845
3510.53329	0.01885
3508.47312	0.01921
3506.41294	0.01961
3504.35277	0.02007
3502.29260	0.02055
3500.23243	0.02095
3498.17225	0.02129
3496.11208	0.02163
3494.05191	0.02200
3491.99174	0.02231
3489.93157	0.02252
3487.87139	0.02267
3485.81122	0.02286
3483.75105	0.02313
3481.69088	0.02347
3479.63071	0.02380
3477.57053	0.02409
3475.51036	0.02437
3473.45019	0.02473
3471.39002	0.02524
3469.32984	0.02580
3467.26967	0.02628
3465.20950	0.02660
3463.14933	0.02683
3461.08916	0.02703
3459.02898	0.02729
3456.96881	0.02763
3454.90864	0.02804
3452.84847	0.02845
3450.78830	0.02883
3448.72812	0.02919
3446.66795	0.02958
3444.60778	0.02998
3442.54761	0.03029
3440.48744	0.03051
3438.42726	0.03069
3436.36709	0.03089
3434.30692	0.03113
3432.24675	0.03146
3430.18657	0.03184
3428.12640	0.03222
3426.06623	0.03256
3424.00606	0.03285
3421.94589	0.03311
3419.88571	0.03330
3417.82554	0.03345
3415.76537	0.03365
3413.70520	0.03395
3411.64503	0.03433
3409.58485	0.03469
3407.52468	0.03496
3405.46451	0.03516
3403.40434	0.03531
3401.34416	0.03547
3399.28399	0.03567
3397.22382	0.03592
3395.16365	0.03618
3393.10348	0.03638
3391.04330	0.03651
3388.98313	0.03662
3386.92296	0.03673
3384.86279	0.03686
3382.80262	0.03703
3380.74244	0.03727
3378.68227	0.03757
3376.62210	0.03789
3374.56193	0.03819
3372.50176	0.03850
3370.44158	0.03885
3368.38141	0.03919
3366.32124	0.03946
3364.26107	0.03956
3362.20089	0.03954
3360.14072	0.03951
3358.08055	0.03955
3356.02038	0.03964
3353.96021	0.03976
3351.90003	0.03993
3349.83986	0.04011
3347.77969	0.04027
3345.71952	0.04040
3343.65935	0.04054
3341.59917	0.04065
3339.53900	0.04067
3337.47883	0.04055
3335.41866	0.04033
3333.35849	0.04010
3331.29831	0.03998
3329.23814	0.04000
3327.17797	0.04018
3325.11780	0.04039
3323.05762	0.04052
3320.99745	0.04058
3318.93728	0.04062
3316.87711	0.04073
3314.81694	0.04091
3312.75676	0.04111
3310.69659	0.04126
3308.63642	0.04133
3306.57625	0.04127
3304.51608	0.04115
3302.45590	0.04105
3300.39573	0.04104
3298.33556	0.04112
3296.27539	0.04124
3294.21521	0.04137
3292.15504	0.04144
3290.09487	0.04144
3288.03470	0.04138
3285.97453	0.04134
3283.91435	0.04132
3281.85418	0.04132
3279.79401	0.04132
3277.73384	0.04128
3275.67367	0.04121
3273.61349	0.04107
3271.55332	0.04087
3269.49315	0.04068
3267.43298	0.04055
3265.37281	0.04047
3263.31263	0.04040
3261.25246	0.04027
3259.19229	0.04011
3257.13212	0.03997
3255.07194	0.03988
3253.01177	0.03983
3250.95160	0.03988
3248.89143	0.04006
3246.83126	0.04029
3244.77108	0.04043
3242.71091	0.04036
3240.65074	0.04012
3238.59057	0.03980
3236.53040	0.03949
3234.47022	0.03926
3232.41005	0.03915
3230.34988	0.03916
3228.28971	0.03925
3226.22954	0.03936
3224.16936	0.03933
3222.10919	0.03913
3220.04902	0.03885
3217.98885	0.03859
3215.92867	0.03839
3213.86850	0.03823
3211.80833	0.03808
3209.74816	0.03791
3207.68799	0.03773
3205.62781	0.03760
3203.56764	0.03753
3201.50747	0.03743
3199.44730	0.03720
3197.38713	0.03685
3195.32695	0.03650
3193.26678	0.03623
3191.20661	0.03609
3189.14644	0.03600
3187.08626	0.03588
3185.02609	0.03572
3182.96592	0.03556
3180.90575	0.03540
3178.84558	0.03516
3176.78540	0.03483
3174.72523	0.03448
3172.66506	0.03417
3170.60489	0.03394
3168.54472	0.03378
3166.48454	0.03366
3164.42437	0.03357
3162.36420	0.03344
3160.30403	0.03323
3158.24386	0.03297
3156.18368	0.03268
3154.12351	0.03240
3152.06334	0.03210
3150.00317	0.03178
3147.94299	0.03144
3145.88282	0.03111
3143.82265	0.03085
3141.76248	0.03065
3139.70231	0.03047
3137.64213	0.03026
3135.58196	0.03005
3133.52179	0.02986
3131.46162	0.02973
3129.40145	0.02965
3127.34127	0.02959
3125.28110	0.02951
3123.22093	0.02934
3121.16076	0.02911
3119.10058	0.02885
3117.04041	0.02854
3114.98024	0.02820
3112.92007	0.02788
3110.85990	0.02760
3108.79972	0.02737
3106.73955	0.02716
3104.67938	0.02696
3102.61921	0.02674
3100.55904	0.02647
3098.49886	0.02618
3096.43869	0.02594
3094.37852	0.02576
3092.31835	0.02561
3090.25818	0.02546
3088.19800	0.02532
3086.13783	0.02519
3084.07766	0.02501
3082.01749	0.02471
3079.95731	0.02431
3077.89714	0.02393
3075.83697	0.02365
3073.77680	0.02348
3071.71663	0.02338
3069.65645	0.02328
3067.59628	0.02314
3065.53611	0.02293
3063.47594	0.02269
3061.41577	0.02248
3059.35559	0.02228
3057.29542	0.02199
3055.23525	0.02164
3053.17508	0.02130
3051.11491	0.02106
3049.05473	0.02095
3046.99456	0.02095
3044.93439	0.02095
3042.87422	0.02084
3040.81404	0.02060
3038.75387	0.02030
3036.69370	0.02000
3034.63353	0.01976
3032.57336	0.01960
3030.51318	0.01954
3028.45301	0.01953
3026.39284	0.01951
3024.33267	0.01942
3022.27250	0.01928
3020.21232	0.01917
3018.15215	0.01913
3016.09198	0.01917
3014.03181	0.01924
3011.97163	0.01928
3009.91146	0.01925
3007.85129	0.01917
3005.79112	0.01907
3003.73095	0.01896
3001.67077	0.01883
2999.61060	0.01860
2997.55043	0.01829
2995.49026	0.01810
2993.43009	0.01807
2991.36991	0.01805
2989.30974	0.01805
2987.24957	0.01811
2985.18940	0.01817
2983.12923	0.01821
2981.06905	0.01841
2979.00888	0.01886
2976.94871	0.01941
2974.88854	0.01998
2972.82836	0.02061
2970.76819	0.02128
2968.70802	0.02200
2966.64785	0.02289
2964.58768	0.02397
2962.52750	0.02520
2960.46733	0.02661
2958.40716	0.02815
2956.34699	0.02961
2954.28682	0.03084
2952.22664	0.03199
2950.16647	0.03328
2948.10630	0.03475
2946.04613	0.03632
2943.98596	0.03804
2941.92578	0.03993
2939.86561	0.04186
2937.80544	0.04378
2935.74527	0.04570
2933.68509	0.04756
2931.62492	0.04928
2929.56475	0.05089
2927.50458	0.05238
2925.44441	0.05361
2923.38423	0.05444
2921.32406	0.05481
2919.26389	0.05466
2917.20372	0.05382
2915.14355	0.05228
2913.08337	0.05033
2911.02320	0.04824
2908.96303	0.04626
2906.90286	0.04457
2904.84268	0.04317
2902.78251	0.04188
2900.72234	0.04062
2898.66217	0.03943
2896.60200	0.03836
2894.54182	0.03738
2892.48165	0.03646
2890.42148	0.03554
2888.36131	0.03465
2886.30114	0.03396
2884.24096	0.03344
2882.18079	0.03293
2880.12062	0.03249
2878.06045	0.03234
2876.00028	0.03253
2873.94010	0.03293
2871.87993	0.03332
2869.81976	0.03360
2867.75959	0.03390
2865.69941	0.03442
2863.63924	0.03530
2861.57907	0.03652
2859.51890	0.03801
2857.45873	0.03961
2855.39855	0.04108
2853.33838	0.04213
2851.27821	0.04240
2849.21804	0.04145
2847.15787	0.03922
2845.09769	0.03634
2843.03752	0.03359
2840.97735	0.03128
2838.91718	0.02939
2836.85700	0.02793
2834.79683	0.02683
2832.73666	0.02591
2830.67649	0.02508
2828.61632	0.02434
2826.55614	0.02368
2824.49597	0.02309
2822.43580	0.02258
2820.37563	0.02215
2818.31546	0.02184
2816.25528	0.02157
2814.19511	0.02121
2812.13494	0.02075
2810.07477	0.02034
2808.01460	0.02006
2805.95442	0.01980
2803.89425	0.01950
2801.83408	0.01925
2799.77391	0.01911
2797.71373	0.01902
2795.65356	0.01883
2793.59339	0.01853
2791.53322	0.01830
2789.47305	0.01825
2787.41287	0.01819
2785.35270	0.01794
2783.29253	0.01757
2781.23236	0.01729
2779.17219	0.01724
2777.11201	0.01732
2775.05184	0.01732
2772.99167	0.01724
2770.93150	0.01717
2768.87133	0.01703
2766.81115	0.01683
2764.75098	0.01673
2762.69081	0.01666
2760.63064	0.01654
2758.57046	0.01641
2756.51029	0.01628
2754.45012	0.01619
2752.38995	0.01626
2750.32978	0.01644
2748.26960	0.01651
2746.20943	0.01638
2744.14926	0.01613
2742.08909	0.01588
2740.02892	0.01571
2737.96874	0.01573
2735.90857	0.01591
2733.84840	0.01608
2731.78823	0.01614
2729.72805	0.01605
2727.66788	0.01585
2725.60771	0.01566
2723.54754	0.01557
2721.48737	0.01550
2719.42719	0.01538
2717.36702	0.01522
2715.30685	0.01513
2713.24668	0.01520
2711.18651	0.01537
2709.12633	0.01549
2707.06616	0.01546
2705.00599	0.01535
2702.94582	0.01530
2700.88565	0.01532
2698.82547	0.01528
2696.76530	0.01513
2694.70513	0.01493
2692.64496	0.01477
2690.58478	0.01472
2688.52461	0.01480
2686.46444	0.01491
2684.40427	0.01491
2682.34410	0.01482
2680.28392	0.01474
2678.22375	0.01478
2676.16358	0.01487
2674.10341	0.01483
2672.04324	0.01457
2669.98306	0.01427
2667.92289	0.01415
2665.86272	0.01428
2663.80255	0.01450
2661.74238	0.01457
2659.68220	0.01442
2657.62203	0.01417
2655.56186	0.01397
2653.50169	0.01390
2651.44151	0.01388
2649.38134	0.01377
2647.32117	0.01361
2645.26100	0.01355
2643.20083	0.01358
2641.14065	0.01358
2639.08048	0.01346
2637.02031	0.01327
2634.96014	0.01310
2632.89997	0.01299
2630.83979	0.01303
2628.77962	0.01317
2626.71945	0.01310
2624.65928	0.01273
2622.59910	0.01239
2620.53893	0.01234
2618.47876	0.01245
2616.41859	0.01253
2614.35842	0.01251
2612.29824	0.01235
2610.23807	0.01220
2608.17790	0.01228
2606.11773	0.01247
2604.05756	0.01239
2601.99738	0.01200
2599.93721	0.01177
2597.87704	0.01189
2595.81687	0.01199
2593.75670	0.01182
2591.69652	0.01158
2589.63635	0.01143
2587.57618	0.01132
2585.51601	0.01127
2583.45583	0.01130
2581.39566	0.01135
2579.33549	0.01137
2577.27532	0.01131
2575.21515	0.01123
2573.15497	0.01114
2571.09480	0.01102
2569.03463	0.01073
2566.97446	0.01033
2564.91429	0.01010
2562.85411	0.01032
2560.79394	0.01072
2558.73377	0.01088
2556.67360	0.01070
2554.61342	0.01034
2552.55325	0.00998
2550.49308	0.00978
2548.43291	0.00987
2546.37274	0.01011
2544.31256	0.01026
2542.25239	0.01028
2540.19222	0.01024
2538.13205	0.01009
2536.07188	0.00998
2534.01170	0.01008
2531.95153	0.01023
2529.89136	0.01018
2527.83119	0.00992
2525.77102	0.00966
2523.71084	0.00947
2521.65067	0.00923
2519.59050	0.00903
2517.53033	0.00912
2515.47015	0.00946
2513.40998	0.00970
2511.34981	0.00962
2509.28964	0.00924
2507.22947	0.00885
2505.16929	0.00876
2503.10912	0.00893
2501.04895	0.00904
2498.98878	0.00904
2496.92861	0.00916
2494.86843	0.00941
2492.80826	0.00952
2490.74809	0.00944
2488.68792	0.00931
2486.62775	0.00921
2484.56757	0.00913
2482.50740	0.00901
2480.44723	0.00875
2478.38706	0.00837
2476.32688	0.00815
2474.26671	0.00824
2472.20654	0.00843
2470.14637	0.00842
2468.08620	0.00818
2466.02602	0.00796
2463.96585	0.00800
2461.90568	0.00833
2459.84551	0.00862
2457.78534	0.00869
2455.72516	0.00864
2453.66499	0.00852
2451.60482	0.00835
2449.54465	0.00829
2447.48447	0.00841
2445.42430	0.00853
2443.36413	0.00839
2441.30396	0.00807
2439.24379	0.00799
2437.18361	0.00826
2435.12344	0.00856
2433.06327	0.00871
2431.00310	0.00872
2428.94293	0.00846
2426.88275	0.00805
2424.82258	0.00784
2422.76241	0.00795
2420.70224	0.00805
2418.64207	0.00787
2416.58189	0.00767
2414.52172	0.00771
2412.46155	0.00782
2410.40138	0.00787
2408.34120	0.00793
2406.28103	0.00798
2404.22086	0.00794
2402.16069	0.00785
2400.10052	0.00780
2398.04034	0.00777
2395.98017	0.00769
2393.92000	0.00751
2391.85983	0.00728
2389.79966	0.00711
2387.73948	0.00705
2385.67931	0.00709
2383.61914	0.00712
2381.55897	0.00709
2379.49880	0.00699
2377.43862	0.00686
2375.37845	0.00681
2373.31828	0.00679
2371.25811	0.00669
2369.19793	0.00649
2367.13776	0.00632
2365.07759	0.00633
2363.01742	0.00660
2360.95725	0.00707
2358.89707	0.00760
2356.83690	0.00803
2354.77673	0.00826
2352.71656	0.00822
2350.65639	0.00786
2348.59621	0.00719
2346.53604	0.00639
2344.47587	0.00592
2342.41570	0.00594
2340.35552	0.00623
2338.29535	0.00656
2336.23518	0.00693
2334.17501	0.00743
2332.11484	0.00806
2330.05466	0.00865
2327.99449	0.00900
2325.93432	0.00897
2323.87415	0.00859
2321.81398	0.00806
2319.75380	0.00761
2317.69363	0.00744
2315.63346	0.00746
2313.57329	0.00750
2311.51312	0.00744
2309.45294	0.00733
2307.39277	0.00725
2305.33260	0.00720
2303.27243	0.00717
2301.21225	0.00721
2299.15208	0.00733
2297.09191	0.00749
2295.03174	0.00762
2292.97157	0.00772
2290.91139	0.00780
2288.85122	0.00787
2286.79105	0.00792
2284.73088	0.00792
2282.67071	0.00783
2280.61053	0.00762
2278.55036	0.00735
2276.49019	0.00708
2274.43002	0.00686
2272.36984	0.00664
2270.30967	0.00638
2268.24950	0.00616
2266.18933	0.00603
2264.12916	0.00595
2262.06898	0.00588
2260.00881	0.00590
2257.94864	0.00604
2255.88847	0.00615
2253.82830	0.00602
2251.76812	0.00564
2249.70795	0.00522
2247.64778	0.00514
2245.58761	0.00557
2243.52744	0.00604
2241.46726	0.00605
2239.40709	0.00577
2237.34692	0.00567
2235.28675	0.00570
2233.22657	0.00547
2231.16640	0.00500
2229.10623	0.00471
2227.04606	0.00477
2224.98589	0.00503
2222.92571	0.00524
2220.86554	0.00533
2218.80537	0.00560
2216.74520	0.00610
2214.68503	0.00629
2212.62485	0.00586
2210.56468	0.00523
2208.50451	0.00499
2206.44434	0.00513
2204.38417	0.00506
2202.32399	0.00466
2200.26382	0.00438
2198.20365	0.00430
2196.14348	0.00418
2194.08330	0.00400
2192.02313	0.00417
2189.96296	0.00502
2187.90279	0.00598
2185.84262	0.00638
2183.78244	0.00664
2181.72227	0.00706
2179.66210	0.00664
2177.60193	0.00491
2175.54176	0.00319
2173.48158	0.00276
2171.42141	0.00340
2169.36124	0.00421
2167.30107	0.00477
2165.24089	0.00519
2163.18072	0.00540
2161.12055	0.00515
2159.06038	0.00433
2157.00021	0.00323
2154.94003	0.00272
2152.87986	0.00330
2150.81969	0.00449
2148.75952	0.00534
2146.69935	0.00533
2144.63917	0.00465
2142.57900	0.00390
2140.51883	0.00357
2138.45866	0.00358
2136.39849	0.00329
2134.33831	0.00273
2132.27814	0.00267
2130.21797	0.00320
2128.15780	0.00372
2126.09762	0.00397
2124.03745	0.00418
2121.97728	0.00461
2119.91711	0.00515
2117.85694	0.00546
2115.79676	0.00553
2113.73659	0.00560
2111.67642	0.00572
2109.61625	0.00577
2107.55608	0.00596
2105.49590	0.00658
2103.43573	0.00709
2101.37556	0.00684
2099.31539	0.00626
2097.25521	0.00580
2095.19504	0.00553
2093.13487	0.00533
2091.07470	0.00515
2089.01453	0.00498
2086.95435	0.00483
2084.89418	0.00465
2082.83401	0.00448
2080.77384	0.00443
2078.71367	0.00458
2076.65349	0.00490
2074.59332	0.00524
2072.53315	0.00543
2070.47298	0.00544
2068.41281	0.00536
2066.35263	0.00520
2064.29246	0.00497
2062.23229	0.00480
2060.17212	0.00482
2058.11194	0.00496
2056.05177	0.00506
2053.99160	0.00508
2051.93143	0.00504
2049.87126	0.00508
2047.81108	0.00535
2045.75091	0.00578
2043.69074	0.00596
2041.63057	0.00557
2039.57040	0.00458
2037.51022	0.00335
2035.45005	0.00232
2033.38988	0.00168
2031.32971	0.00138
2029.26954	0.00142
2027.20936	0.00192
2025.14919	0.00273
2023.08902	0.00346
2021.02885	0.00372
2018.96867	0.00356
2016.90850	0.00332
2014.84833	0.00333
2012.78816	0.00352
2010.72799	0.00339
2008.66781	0.00272
2006.60764	0.00209
2004.54747	0.00216
2002.48730	0.00284
2000.42713	0.00355
1998.36695	0.00389
1996.30678	0.00386
1994.24661	0.00367
1992.18644	0.00356
1990.12626	0.00360
1988.06609	0.00369
1986.00592	0.00380
1983.94575	0.00396
1981.88558	0.00408
1979.82540	0.00402
1977.76523	0.00376
1975.70506	0.00341
1973.64489	0.00315
1971.58472	0.00321
1969.52454	0.00359
1967.46437	0.00384
1965.40420	0.00364
1963.34403	0.00321
1961.28386	0.00290
1959.22368	0.00277
1957.16351	0.00277
1955.10334	0.00294
1953.04317	0.00321
1950.98299	0.00336
1948.92282	0.00317
1946.86265	0.00266
1944.80248	0.00203
1942.74231	0.00154
1940.68213	0.00144
1938.62196	0.00184
1936.56179	0.00254
1934.50162	0.00311
1932.44145	0.00324
1930.38127	0.00302
1928.32110	0.00283
1926.26093	0.00291
1924.20076	0.00320
1922.14059	0.00348
1920.08041	0.00364
1918.02024	0.00364
1915.96007	0.00348
1913.89990	0.00327
1911.83972	0.00311
1909.77955	0.00303
1907.71938	0.00298
1905.65921	0.00296
1903.59904	0.00292
1901.53886	0.00283
1899.47869	0.00269
1897.41852	0.00257
1895.35835	0.00253
1893.29818	0.00259
1891.23800	0.00273
1889.17783	0.00291
1887.11766	0.00307
1885.05749	0.00322
1882.99731	0.00333
1880.93714	0.00337
1878.87697	0.00335
1876.81680	0.00330
1874.75663	0.00327
1872.69645	0.00327
1870.63628	0.00317
1868.57611	0.00294
1866.51594	0.00267
1864.45577	0.00253
1862.39559	0.00255
1860.33542	0.00265
1858.27525	0.00270
1856.21508	0.00260
1854.15491	0.00240
1852.09473	0.00218
1850.03456	0.00202
1847.97439	0.00191
1845.91422	0.00189
1843.85404	0.00200
1841.79387	0.00225
1839.73370	0.00256
1837.67353	0.00283
1835.61336	0.00297
1833.55318	0.00299
1831.49301	0.00286
1829.43284	0.00262
1827.37267	0.00236
1825.31250	0.00213
1823.25232	0.00189
1821.19215	0.00165
1819.13198	0.00152
1817.07181	0.00154
1815.01163	0.00174
1812.95146	0.00201
1810.89129	0.00226
1808.83112	0.00238
1806.77095	0.00232
1804.71077	0.00215
1802.65060	0.00199
1800.59043	0.00193
1798.53026	0.00195
1796.47009	0.00198
1794.40991	0.00197
1792.34974	0.00191
1790.28957	0.00179
1788.22940	0.00169
1786.16923	0.00166
1784.10905	0.00167
1782.04888	0.00167
1779.98871	0.00161
1777.92854	0.00155
1775.86836	0.00150
1773.80819	0.00157
1771.74802	0.00174
1769.68785	0.00203
1767.62768	0.00245
1765.56750	0.00298
1763.50733	0.00364
1761.44716	0.00445
1759.38699	0.00544
1757.32682	0.00662
1755.26664	0.00797
1753.20647	0.00947
1751.14630	0.01108
1749.08613	0.01270
1747.02596	0.01411
1744.96578	0.01515
1742.90561	0.01580
1740.84544	0.01615
1738.78527	0.01633
1736.72509	0.01639
1734.66492	0.01630
1732.60475	0.01601
1730.54458	0.01563
1728.48441	0.01535
1726.42423	0.01525
1724.36406	0.01532
1722.30389	0.01547
1720.24372	0.01560
1718.18355	0.01565
1716.12337	0.01561
1714.06320	0.01554
1712.00303	0.01548
1709.94286	0.01543
1707.88268	0.01536
1705.82251	0.01526
1703.76234	0.01511
1701.70217	0.01491
1699.64200	0.01476
1697.58182	0.01479
1695.52165	0.01507
1693.46148	0.01559
1691.40131	0.01632
1689.34114	0.01729
1687.28096	0.01855
1685.22079	0.02010
1683.16062	0.02185
1681.10045	0.02352
1679.04028	0.02497
1676.98010	0.02617
1674.91993	0.02708
1672.85976	0.02761
1670.79959	0.02768
1668.73941	0.02732
1666.67924	0.02669
1664.61907	0.02595
1662.55890	0.02526
1660.49873	0.02470
1658.43855	0.02433
1656.37838	0.02410
1654.31821	0.02394
1652.25804	0.02381
1650.19787	0.02374
1648.13769	0.02377
1646.07752	0.02386
1644.01735	0.02396
1641.95718	0.02410
1639.89701	0.02434
1637.83683	0.02476
1635.77666	0.02533
1633.71649	0.02591
1631.65632	0.02637
1629.59614	0.02672
1627.53597	0.02703
1625.47580	0.02730
1623.41563	0.02753
1621.35546	0.02770
1619.29528	0.02790
1617.23511	0.02821
1615.17494	0.02876
1613.11477	0.02962
1611.05460	0.03072
1608.99442	0.03183
1606.93425	0.03265
1604.87408	0.03288
1602.81391	0.03241
1600.75373	0.03138
1598.69356	0.03008
1596.63339	0.02878
1594.57322	0.02763
1592.51305	0.02668
1590.45287	0.02588
1588.39270	0.02512
1586.33253	0.02433
1584.27236	0.02352
1582.21219	0.02278
1580.15201	0.02212
1578.09184	0.02154
1576.03167	0.02098
1573.97150	0.02043
1571.91133	0.01988
1569.85115	0.01927
1567.79098	0.01860
1565.73081	0.01790
1563.67064	0.01719
1561.61046	0.01643
1559.55029	0.01557
1557.49012	0.01462
1555.42995	0.01371
1553.36978	0.01292
1551.30960	0.01225
1549.24943	0.01168
1547.18926	0.01117
1545.12909	0.01067
1543.06892	0.01013
1541.00874	0.00956
1538.94857	0.00896
1536.88840	0.00839
1534.82823	0.00785
1532.76805	0.00733
1530.70788	0.00690
1528.64771	0.00664
1526.58754	0.00667
1524.52737	0.00708
1522.46719	0.00790
1520.40702	0.00901
1518.34685	0.01017
1516.28668	0.01103
1514.22651	0.01133
1512.16633	0.01095
1510.10616	0.01000
1508.04599	0.00870
1505.98582	0.00733
1503.92565	0.00619
1501.86547	0.00537
1499.80530	0.00475
1497.74513	0.00419
1495.68496	0.00363
1493.62478	0.00311
1491.56461	0.00268
1489.50444	0.00235
1487.44427	0.00213
1485.38410	0.00204
1483.32392	0.00214
1481.26375	0.00247
1479.20358	0.00304
1477.14341	0.00389
1475.08324	0.00509
1473.02306	0.00669
1470.96289	0.00856
1468.90272	0.01048
1466.84255	0.01230
1464.78238	0.01388
1462.72220	0.01511
1460.66203	0.01605
1458.60186	0.01687
1456.54169	0.01766
1454.48151	0.01835
1452.42134	0.01893
1450.36117	0.01948
1448.30100	0.02008
1446.24083	0.02074
1444.18065	0.02142
1442.12048	0.02209
1440.06031	0.02270
1438.00014	0.02325
1435.93997	0.02374
1433.87979	0.02410
1431.81962	0.02431
1429.75945	0.02440
1427.69928	0.02444
1425.63910	0.02450
1423.57893	0.02463
1421.51876	0.02480
1419.45859	0.02496
1417.39842	0.02504
1415.33824	0.02499
1413.27807	0.02477
1411.21790	0.02437
1409.15773	0.02380
1407.09756	0.02314
1405.03738	0.02241
1402.97721	0.02165
1400.91704	0.02090
1398.85687	0.02020
1396.79670	0.01958
1394.73652	0.01912
1392.67635	0.01889
1390.61618	0.01891
1388.55601	0.01915
1386.49583	0.01957
1384.43566	0.02009
1382.37549	0.02063
1380.31532	0.02117
1378.25515	0.02169
1376.19497	0.02215
1374.13480	0.02248
1372.07463	0.02266
1370.01446	0.02269
1367.95429	0.02261
1365.89411	0.02241
1363.83394	0.02209
1361.77377	0.02166
1359.71360	0.02124
1357.65343	0.02092
1355.59325	0.02071
1353.53308	0.02060
1351.47291	0.02050
1349.41274	0.02038
1347.35256	0.02023
1345.29239	0.02009
1343.23222	0.02000
1341.17205	0.01996
1339.11188	0.01993
1337.05170	0.01989
1334.99153	0.01987
1332.93136	0.01988
1330.87119	0.01992
1328.81102	0.01998
1326.75084	0.02005
1324.69067	0.02010
1322.63050	0.02013
1320.57033	0.02012
1318.51015	0.02009
1316.44998	0.01999
1314.38981	0.01976
1312.32964	0.01940
1310.26947	0.01896
1308.20929	0.01851
1306.14912	0.01805
1304.08895	0.01756
1302.02878	0.01705
1299.96861	0.01661
1297.90843	0.01631
1295.84826	0.01618
1293.78809	0.01619
1291.72792	0.01630
1289.66775	0.01649
1287.60757	0.01675
1285.54740	0.01705
1283.48723	0.01737
1281.42706	0.01762
1279.36688	0.01775
1277.30671	0.01779
1275.24654	0.01784
1273.18637	0.01799
1271.12620	0.01827
1269.06602	0.01872
1267.00585	0.01934
1264.94568	0.02011
1262.88551	0.02093
1260.82534	0.02168
1258.76516	0.02230
1256.70499	0.02281
1254.64482	0.02325
1252.58465	0.02364
1250.52447	0.02399
1248.46430	0.02427
1246.40413	0.02446
1244.34396	0.02459
1242.28379	0.02466
1240.22361	0.02467
1238.16344	0.02457
1236.10327	0.02431
1234.04310	0.02387
1231.98293	0.02325
1229.92275	0.02248
1227.86258	0.02158
1225.80241	0.02060
1223.74224	0.01955
1221.68207	0.01844
1219.62189	0.01730
1217.56172	0.01617
1215.50155	0.01508
1213.44138	0.01405
1211.38120	0.01307
1209.32103	0.01209
1207.26086	0.01109
1205.20069	0.01001
1203.14052	0.00880
1201.08034	0.00750
1199.02017	0.00617
1196.96000	0.00491
1194.89983	0.00377
1192.83966	0.00286
1190.77948	0.00231
1188.71931	0.00207
1186.65914	0.00194
1184.59897	0.00182
1182.53880	0.00188
1180.47862	0.00227
1178.41845	0.00303
1176.35828	0.00421
1174.29811	0.00591
1172.23793	0.00797
1170.17776	0.01002
1168.11759	0.01165
1166.05742	0.01273
1163.99725	0.01335
1161.93707	0.01378
1159.87690	0.01424
1157.81673	0.01481
1155.75656	0.01543
1153.69639	0.01604
1151.63621	0.01675
1149.57604	0.01767
1147.51587	0.01872
1145.45570	0.01968
1143.39552	0.02043
1141.33535	0.02108
1139.27518	0.02175
1137.21501	0.02239
1135.15484	0.02296
1133.09466	0.02355
1131.03449	0.02425
1128.97432	0.02502
1126.91415	0.02586
1124.85398	0.02680
1122.79380	0.02786
1120.73363	0.02897
1118.67346	0.03005
1116.61329	0.03110
1114.55312	0.03214
1112.49294	0.03317
1110.43277	0.03416
1108.37260	0.03506
1106.31243	0.03590
1104.25225	0.03684
1102.19208	0.03806
1100.13191	0.03960
1098.07174	0.04134
1096.01157	0.04313
1093.95139	0.04480
1091.89122	0.04630
1089.83105	0.04773
1087.77088	0.04924
1085.71071	0.05088
1083.65053	0.05259
1081.59036	0.05426
1079.53019	0.05588
1077.47002	0.05761
1075.40985	0.05945
1073.34967	0.06128
1071.28950	0.06300
1069.22933	0.06450
1067.16916	0.06570
1065.10898	0.06673
1063.04881	0.06773
1060.98864	0.06874
1058.92847	0.06984
1056.86830	0.07121
1054.80812	0.07279
1052.74795	0.07442
1050.68778	0.07616
1048.62761	0.07816
1046.56744	0.08031
1044.50726	0.08230
1042.44709	0.08400
1040.38692	0.08548
1038.32675	0.08684
1036.26657	0.08810
1034.20640	0.08910
1032.14623	0.08958
1030.08606	0.08958
1028.02589	0.08936
1025.96571	0.08906
1023.90554	0.08866
1021.84537	0.08815
1019.78520	0.08769
1017.72503	0.08748
1015.66485	0.08761
1013.60468	0.08781
1011.54451	0.08789
1009.48434	0.08796
1007.42417	0.08808
1005.36399	0.08798
1003.30382	0.08746
1001.24365	0.08664
999.18348	0.08570
997.12330	0.08460
995.06313	0.08329
993.00296	0.08183
990.94279	0.08030
988.88262	0.07886
986.82244	0.07759
984.76227	0.07638
982.70210	0.07513
980.64193	0.07388
978.58176	0.07267
976.52158	0.07144
974.46141	0.07023
972.40124	0.06913
970.34107	0.06798
968.28089	0.06655
966.22072	0.06484
964.16055	0.06310
962.10038	0.06147
960.04021	0.05991
957.98003	0.05848
955.91986	0.05721
953.85969	0.05602
951.79952	0.05482
949.73935	0.05361
947.67917	0.05244
945.61900	0.05118
943.55883	0.04963
941.49866	0.04765
939.43849	0.04516
937.37831	0.04231
935.31814	0.03944
933.25797	0.03681
931.19780	0.03440
929.13762	0.03220
927.07745	0.03026
925.01728	0.02856
922.95711	0.02701
920.89694	0.02551
918.83676	0.02404
916.77659	0.02261
914.71642	0.02123
912.65625	0.01986
910.59608	0.01850
908.53590	0.01732
906.47573	0.01650
904.41556	0.01599
902.35539	0.01567
900.29522	0.01552
898.23504	0.01561
896.17487	0.01589
894.11470	0.01615
892.05453	0.01613
889.99435	0.01573
887.93418	0.01513
885.87401	0.01457
883.81384	0.01402
881.75367	0.01325
879.69349	0.01221
877.63332	0.01112
875.57315	0.01022
873.51298	0.00957
871.45281	0.00914
869.39263	0.00884
867.33246	0.00855
865.27229	0.00829
863.21212	0.00808
861.15194	0.00795
859.09177	0.00794
857.03160	0.00807
854.97143	0.00815
852.91126	0.00806
850.85108	0.00787
848.79091	0.00765
846.73074	0.00754
844.67057	0.00749
842.61040	0.00732
840.55022	0.00701
838.49005	0.00685
836.42988	0.00699
834.36971	0.00714
832.30954	0.00697
830.24936	0.00655
828.18919	0.00603
826.12902	0.00550
824.06885	0.00514
822.00867	0.00499
819.94850	0.00482
817.88833	0.00445
815.82816	0.00406
813.76799	0.00395
811.70781	0.00399
809.64764	0.00406
807.58747	0.00425
805.52730	0.00442
803.46713	0.00439
801.40695	0.00432
799.34678	0.00431
797.28661	0.00412
795.22644	0.00348
793.16627	0.00261
791.10609	0.00221
789.04592	0.00251
786.98575	0.00313
784.92558	0.00349
782.86540	0.00353
780.80523	0.00348
778.74506	0.00342
776.68489	0.00325
774.62472	0.00295
772.56454	0.00255
770.50437	0.00216
768.44420	0.00195
766.38403	0.00207
764.32386	0.00253
762.26368	0.00311
760.20351	0.00357
758.14334	0.00385
756.08317	0.00383
754.02299	0.00333
751.96282	0.00265
749.90265	0.00224
747.84248	0.00190
745.78231	0.00186
743.72213	0.00206
741.66196	0.00219
739.60179	0.00189
737.54162	0.00140
735.48145	0.00117
733.42127	0.00122
731.36110	0.00127
729.30093	0.00132
727.24076	0.00152
725.18059	0.00186
723.12041	0.00218
721.06024	0.00253
719.00007	0.00292
716.93990	0.00332
714.87972	0.00364
712.81955	0.00382
710.75938	0.00386
708.69921	0.00392
706.63904	0.00429
704.57886	0.00504
702.51869	0.00580
700.45852	0.00619
698.39835	0.00610
696.33818	0.00567
694.27800	0.00507
692.21783	0.00443
690.15766	0.00387
688.09749	0.00345
686.03731	0.00316
683.97714	0.00288
681.91697	0.00257
679.85680	0.00236
677.79663	0.00232
675.73645	0.00241
673.67628	0.00241
671.61611	0.00209
669.55594	0.00152
667.49577	0.00119
665.43559	0.00133
663.37542	0.00164
661.31525	0.00197
659.25508	0.00234
657.19491	0.00269
655.13473	0.00285
653.07456	0.00271
651.01439	0.00242
648.95422	0.00231
646.89404	0.00248
644.83387	0.00289
642.77370	0.00335
640.71353	0.00365
638.65336	0.00358
636.59318	0.00308
634.53301	0.00216
632.47284	0.00101
630.41267	0.00035
628.35250	0.00103
626.29232	0.00337
624.23215	0.00518
622.17198	0.00535
620.11181	0.00471
618.05164	0.00445
615.99146	0.00463
613.93129	0.00418
611.87112	0.00300
609.81095	0.00223
607.75077	0.00217
605.69060	0.00181
603.63043	0.00071
601.57026	0.00000
599.51009	0.00000
