3996.73391	0.00040
3994.67373	0.00050
3992.61356	0.00061
3990.55339	0.00071
3988.49322	0.00081
3986.43305	0.00087
3984.37287	0.00082
3982.31270	0.00063
3980.25253	0.00040
3978.19236	0.00025
3976.13219	0.00026
3974.07201	0.00039
3972.01184	0.00053
3969.95167	0.00059
3967.89150	0.00058
3965.83133	0.00052
3963.77115	0.00040
3961.71098	0.00025
3959.65081	0.00012
3957.59064	0.00003
3955.53046	0.00000
3953.47029	0.00002
3951.41012	0.00015
3949.34995	0.00042
3947.28978	0.00074
3945.22960	0.00094
3943.16943	0.00098
3941.10926	0.00091
3939.04909	0.00084
3936.98892	0.00078
3934.92874	0.00070
3932.86857	0.00059
3930.80840	0.00051
3928.74823	0.00053
3926.68805	0.00064
3924.62788	0.00073
3922.56771	0.00071
3920.50754	0.00057
3918.44737	0.00042
3916.38719	0.00044
3914.32702	0.00065
3912.26685	0.00091
3910.20668	0.00112
3908.14651	0.00124
3906.08633	0.00131
3904.02616	0.00132
3901.96599	0.00126
3899.90582	0.00117
3897.84565	0.00110
3895.78547	0.00105
3893.72530	0.00096
3891.66513	0.00086
3889.60496	0.00075
3887.54478	0.00062
3885.48461	0.00041
3883.42444	0.00018
3881.36427	0.00005
3879.30410	0.00009
3877.24392	0.00028
3875.18375	0.00053
3873.12358	0.00079
3871.06341	0.00106
3869.00324	0.00129
3866.94306	0.00138
3864.88289	0.00135
3862.82272	0.00124
3860.76255	0.00114
3858.70237	0.00111
3856.64220	0.00117
3854.58203	0.00127
3852.52186	0.00133
3850.46169	0.00130
3848.40151	0.00116
3846.34134	0.00099
3844.28117	0.00083
3842.22100	0.00077
3840.16083	0.00085
3838.10065	0.00097
3836.04048	0.00098
3833.98031	0.00092
3831.92014	0.00090
3829.85997	0.00092
3827.79979	0.00096
3825.73962	0.00104
3823.67945	0.00112
3821.61928	0.00113
3819.55910	0.00095
3817.49893	0.00064
3815.43876	0.00041
3813.37859	0.00033
3811.31842	0.00036
3809.25824	0.00043
3807.19807	0.00057
3805.13790	0.00072
3803.07773	0.00077
3801.01756	0.00070
3798.95738	0.00065
3796.89721	0.00074
3794.83704	0.00095
3792.77687	0.00116
3790.71670	0.00117
3788.65652	0.00095
3786.59635	0.00063
3784.53618	0.00039
3782.47601	0.00030
3780.41583	0.00037
3778.35566	0.00056
3776.29549	0.00078
3774.23532	0.00094
3772.17515	0.00097
3770.11497	0.00082
3768.05480	0.00057
3765.99463	0.00035
3763.93446	0.00030
3761.87429	0.00042
3759.81411	0.00058
3757.75394	0.00060
3755.69377	0.00050
3753.63360	0.00050
3751.57342	0.00076
3749.51325	0.00116
3747.45308	0.00153
3745.39291	0.00178
3743.33274	0.00185
3741.27256	0.00174
3739.21239	0.00157
3737.15222	0.00140
3735.09205	0.00122
3733.03188	0.00096
3730.97170	0.00064
3728.91153	0.00033
3726.85136	0.00015
3724.79119	0.00017
3722.73102	0.00032
3720.67084	0.00042
3718.61067	0.00045
3716.55050	0.00044
3714.49033	0.00049
3712.43015	0.00065
3710.36998	0.00084
3708.30981	0.00094
3706.24964	0.00093
3704.18947	0.00085
3702.12929	0.00070
3700.06912	0.00052
3698.00895	0.00040
3695.94878	0.00045
3693.88861	0.00068
3691.82843	0.00100
3689.76826	0.00127
3687.70809	0.00140
3685.64792	0.00137
3683.58775	0.00129
3681.52757	0.00125
3679.46740	0.00130
3677.40723	0.00138
3675.34706	0.00137
3673.28688	0.00123
3671.22671	0.00107
3669.16654	0.00102
3667.10637	0.00109
3665.04620	0.00116
3662.98602	0.00119
3660.92585	0.00116
3658.86568	0.00114
3656.80551	0.00122
3654.74534	0.00147
3652.68516	0.00185
3650.62499	0.00218
3648.56482	0.00228
3646.50465	0.00218
3644.44447	0.00209
3642.38430	0.00222
3640.32413	0.00258
3638.26396	0.00303
3636.20379	0.00339
3634.14361	0.00362
3632.08344	0.00374
3630.02327	0.00377
3627.96310	0.00374
3625.90293	0.00375
3623.84275	0.00386
3621.78258	0.00408
3619.72241	0.00433
3617.66224	0.00452
3615.60207	0.00459
3613.54189	0.00465
3611.48172	0.00486
3609.42155	0.00530
3607.36138	0.00582
3605.30120	0.00624
3603.24103	0.00649
3601.18086	0.00664
3599.12069	0.00673
3597.06052	0.00681
3595.00034	0.00694
3592.94017	0.00724
3590.88000	0.00774
3588.81983	0.00834
3586.75966	0.00886
3584.69948	0.00915
3582.63931	0.00927
3580.57914	0.00938
3578.51897	0.00965
3576.45879	0.01005
3574.39862	0.01044
3572.33845	0.01071
3570.27828	0.01088
3568.21811	0.01109
3566.15793	0.01146
3564.09776	0.01198
3562.03759	0.01247
3559.97742	0.01280
3557.91725	0.01305
3555.85707	0.01337
3553.79690	0.01387
3551.73673	0.01452
3549.67656	0.01517
3547.61639	0.01567
3545.55621	0.01601
3543.49604	0.01629
3541.43587	0.01664
3539.37570	0.01706
3537.31552	0.01751
3535.25535	0.01794
3533.19518	0.01831
3531.13501	0.01866
3529.07484	0.01905
3527.01466	0.01949
3524.95449	0.01992
3522.89432	0.02027
3520.83415	0.02055
3518.77398	0.02083
3516.71380	0.02119
3514.65363	0.02166
3512.59346	0.02218
3510.53329	0.02261
3508.47312	0.02295
3506.41294	0.02325
3504.35277	0.02358
3502.29260	0.02397
3500.23243	0.02442
3498.17225	0.02495
3496.11208	0.02552
3494.05191	0.02612
3491.99174	0.02669
3489.93157	0.02714
3487.87139	0.02737
3485.81122	0.02744
3483.75105	0.02750
3481.69088	0.02769
3479.63071	0.02809
3477.57053	0.02863
3475.51036	0.02923
3473.45019	0.02988
3471.39002	0.03057
3469.32984	0.03120
3467.26967	0.03167
3465.20950	0.03192
3463.14933	0.03202
3461.08916	0.03206
3459.02898	0.03217
3456.96881	0.03245
3454.90864	0.03292
3452.84847	0.03350
3450.78830	0.03408
3448.72812	0.03457
3446.66795	0.03500
3444.60778	0.03540
3442.54761	0.03572
3440.48744	0.03585
3438.42726	0.03581
3436.36709	0.03579
3434.30692	0.03597
3432.24675	0.03641
3430.18657	0.03699
3428.12640	0.03755
3426.06623	0.03805
3424.00606	0.03850
3421.94589	0.03884
3419.88571	0.03905
3417.82554	0.03922
3415.76537	0.03946
3413.70520	0.03977
3411.64503	0.04008
3409.58485	0.04039
3407.52468	0.04074
3405.46451	0.04109
3403.40434	0.04138
3401.34416	0.04159
3399.28399	0.04177
3397.22382	0.04192
3395.16365	0.04205
3393.10348	0.04213
3391.04330	0.04225
3388.98313	0.04250
3386.92296	0.04286
3384.86279	0.04321
3382.80262	0.04352
3380.74244	0.04379
3378.68227	0.04407
3376.62210	0.04432
3374.56193	0.04454
3372.50176	0.04476
3370.44158	0.04497
3368.38141	0.04515
3366.32124	0.04532
3364.26107	0.04546
3362.20089	0.04551
3360.14072	0.04552
3358.08055	0.04559
3356.02038	0.04578
3353.96021	0.04606
3351.90003	0.04632
3349.83986	0.04650
3347.77969	0.04660
3345.71952	0.04668
3343.65935	0.04682
3341.59917	0.04694
3339.53900	0.04697
3337.47883	0.04685
3335.41866	0.04664
3333.35849	0.04645
3331.29831	0.04638
3329.23814	0.04649
3327.17797	0.04679
3325.11780	0.04714
3323.05762	0.04736
3320.99745	0.04741
3318.93728	0.04744
3316.87711	0.04754
3314.81694	0.04771
3312.75676	0.04782
3310.69659	0.04780
3308.63642	0.04768
3306.57625	0.04753
3304.51608	0.04740
3302.45590	0.04739
3300.39573	0.04755
3298.33556	0.04782
3296.27539	0.04803
3294.21521	0.04806
3292.15504	0.04795
3290.09487	0.04779
3288.03470	0.04770
3285.97453	0.04767
3283.91435	0.04765
3281.85418	0.04764
3279.79401	0.04766
3277.73384	0.04770
3275.67367	0.04772
3273.61349	0.04766
3271.55332	0.04750
3269.49315	0.04728
3267.43298	0.04710
3265.37281	0.04696
3263.31263	0.04682
3261.25246	0.04667
3259.19229	0.04651
3257.13212	0.04636
3255.07194	0.04622
3253.01177	0.04612
3250.95160	0.04611
3248.89143	0.04621
3246.83126	0.04636
3244.77108	0.04645
3242.71091	0.04639
3240.65074	0.04615
3238.59057	0.04585
3236.53040	0.04559
3234.47022	0.04540
3232.41005	0.04524
3230.34988	0.04510
3228.28971	0.04503
3226.22954	0.04505
3224.16936	0.04504
3222.10919	0.04482
3220.04902	0.04438
3217.98885	0.04387
3215.92867	0.04348
3213.86850	0.04333
3211.80833	0.04341
3209.74816	0.04358
3207.68799	0.04367
3205.62781	0.04359
3203.56764	0.04333
3201.50747	0.04294
3199.44730	0.04247
3197.38713	0.04202
3195.32695	0.04173
3193.26678	0.04165
3191.20661	0.04168
3189.14644	0.04165
3187.08626	0.04145
3185.02609	0.04106
3182.96592	0.04058
3180.90575	0.04015
3178.84558	0.03980
3176.78540	0.03952
3174.72523	0.03930
3172.66506	0.03910
3170.60489	0.03893
3168.54472	0.03881
3166.48454	0.03871
3164.42437	0.03861
3162.36420	0.03844
3160.30403	0.03814
3158.24386	0.03767
3156.18368	0.03711
3154.12351	0.03661
3152.06334	0.03625
3150.00317	0.03601
3147.94299	0.03580
3145.88282	0.03558
3143.82265	0.03534
3141.76248	0.03508
3139.70231	0.03479
3137.64213	0.03447
3135.58196	0.03414
3133.52179	0.03382
3131.46162	0.03355
3129.40145	0.03338
3127.34127	0.03331
3125.28110	0.03324
3123.22093	0.03307
3121.16076	0.03279
3119.10058	0.03248
3117.04041	0.03213
3114.98024	0.03174
3112.92007	0.03138
3110.85990	0.03106
3108.79972	0.03079
3106.73955	0.03059
3104.67938	0.03043
3102.61921	0.03022
3100.55904	0.02996
3098.49886	0.02967
3096.43869	0.02940
3094.37852	0.02911
3092.31835	0.02879
3090.25818	0.02847
3088.19800	0.02824
3086.13783	0.02812
3084.07766	0.02800
3082.01749	0.02777
3079.95731	0.02741
3077.89714	0.02699
3075.83697	0.02659
3073.77680	0.02627
3071.71663	0.02605
3069.65645	0.02585
3067.59628	0.02562
3065.53611	0.02538
3063.47594	0.02520
3061.41577	0.02509
3059.35559	0.02498
3057.29542	0.02477
3055.23525	0.02444
3053.17508	0.02408
3051.11491	0.02378
3049.05473	0.02360
3046.99456	0.02354
3044.93439	0.02351
3042.87422	0.02340
3040.81404	0.02316
3038.75387	0.02278
3036.69370	0.02234
3034.63353	0.02199
3032.57336	0.02180
3030.51318	0.02178
3028.45301	0.02186
3026.39284	0.02194
3024.33267	0.02195
3022.27250	0.02191
3020.21232	0.02183
3018.15215	0.02176
3016.09198	0.02172
3014.03181	0.02169
3011.97163	0.02167
3009.91146	0.02164
3007.85129	0.02159
3005.79112	0.02150
3003.73095	0.02134
3001.67077	0.02108
2999.61060	0.02072
2997.55043	0.02032
2995.49026	0.02002
2993.43009	0.01991
2991.36991	0.01996
2989.30974	0.02005
2987.24957	0.02015
2985.18940	0.02035
2983.12923	0.02062
2981.06905	0.02091
2979.00888	0.02134
2976.94871	0.02200
2974.88854	0.02275
2972.82836	0.02345
2970.76819	0.02417
2968.70802	0.02514
2966.64785	0.02649
2964.58768	0.02804
2962.52750	0.02955
2960.46733	0.03103
2958.40716	0.03258
2956.34699	0.03419
2954.28682	0.03579
2952.22664	0.03735
2950.16647	0.03886
2948.10630	0.04037
2946.04613	0.04208
2943.98596	0.04416
2941.92578	0.04653
2939.86561	0.04889
2937.80544	0.05115
2935.74527	0.05339
2933.68509	0.05558
2931.62492	0.05763
2929.56475	0.05947
2927.50458	0.06100
2925.44441	0.06216
2923.38423	0.06301
2921.32406	0.06356
2919.26389	0.06354
2917.20372	0.06262
2915.14355	0.06073
2913.08337	0.05819
2911.02320	0.05553
2908.96303	0.05311
2906.90286	0.05105
2904.84268	0.04930
2902.78251	0.04772
2900.72234	0.04620
2898.66217	0.04482
2896.60200	0.04363
2894.54182	0.04251
2892.48165	0.04141
2890.42148	0.04037
2888.36131	0.03939
2886.30114	0.03856
2884.24096	0.03789
2882.18079	0.03729
2880.12062	0.03680
2878.06045	0.03658
2876.00028	0.03670
2873.94010	0.03703
2871.87993	0.03747
2869.81976	0.03799
2867.75959	0.03862
2865.69941	0.03945
2863.63924	0.04058
2861.57907	0.04204
2859.51890	0.04371
2857.45873	0.04542
2855.39855	0.04703
2853.33838	0.04825
2851.27821	0.04854
2849.21804	0.04739
2847.15787	0.04475
2845.09769	0.04128
2843.03752	0.03785
2840.97735	0.03492
2838.91718	0.03257
2836.85700	0.03078
2834.79683	0.02944
2832.73666	0.02842
2830.67649	0.02760
2828.61632	0.02689
2826.55614	0.02617
2824.49597	0.02541
2822.43580	0.02469
2820.37563	0.02411
2818.31546	0.02364
2816.25528	0.02322
2814.19511	0.02288
2812.13494	0.02261
2810.07477	0.02228
2808.01460	0.02189
2805.95442	0.02154
2803.89425	0.02122
2801.83408	0.02096
2799.77391	0.02088
2797.71373	0.02087
2795.65356	0.02074
2793.59339	0.02047
2791.53322	0.02014
2789.47305	0.01978
2787.41287	0.01933
2785.35270	0.01889
2783.29253	0.01862
2781.23236	0.01857
2779.17219	0.01862
2777.11201	0.01859
2775.05184	0.01849
2772.99167	0.01850
2770.93150	0.01860
2768.87133	0.01849
2766.81115	0.01815
2764.75098	0.01785
2762.69081	0.01768
2760.63064	0.01761
2758.57046	0.01764
2756.51029	0.01765
2754.45012	0.01760
2752.38995	0.01763
2750.32978	0.01775
2748.26960	0.01778
2746.20943	0.01764
2744.14926	0.01741
2742.08909	0.01719
2740.02892	0.01700
2737.96874	0.01690
2735.90857	0.01691
2733.84840	0.01692
2731.78823	0.01685
2729.72805	0.01669
2727.66788	0.01650
2725.60771	0.01636
2723.54754	0.01636
2721.48737	0.01643
2719.42719	0.01651
2717.36702	0.01652
2715.30685	0.01645
2713.24668	0.01635
2711.18651	0.01629
2709.12633	0.01626
2707.06616	0.01620
2705.00599	0.01611
2702.94582	0.01609
2700.88565	0.01610
2698.82547	0.01600
2696.76530	0.01578
2694.70513	0.01558
2692.64496	0.01549
2690.58478	0.01554
2688.52461	0.01565
2686.46444	0.01569
2684.40427	0.01566
2682.34410	0.01566
2680.28392	0.01566
2678.22375	0.01561
2676.16358	0.01551
2674.10341	0.01541
2672.04324	0.01532
2669.98306	0.01525
2667.92289	0.01525
2665.86272	0.01531
2663.80255	0.01529
2661.74238	0.01510
2659.68220	0.01487
2657.62203	0.01469
2655.56186	0.01462
2653.50169	0.01471
2651.44151	0.01483
2649.38134	0.01478
2647.32117	0.01465
2645.26100	0.01463
2643.20083	0.01470
2641.14065	0.01469
2639.08048	0.01449
2637.02031	0.01419
2634.96014	0.01395
2632.89997	0.01378
2630.83979	0.01372
2628.77962	0.01389
2626.71945	0.01412
2624.65928	0.01412
2622.59910	0.01396
2620.53893	0.01378
2618.47876	0.01352
2616.41859	0.01312
2614.35842	0.01273
2612.29824	0.01254
2610.23807	0.01254
2608.17790	0.01265
2606.11773	0.01275
2604.05756	0.01270
2601.99738	0.01245
2599.93721	0.01223
2597.87704	0.01217
2595.81687	0.01207
2593.75670	0.01191
2591.69652	0.01188
2589.63635	0.01192
2587.57618	0.01178
2585.51601	0.01147
2583.45583	0.01130
2581.39566	0.01141
2579.33549	0.01158
2577.27532	0.01146
2575.21515	0.01109
2573.15497	0.01088
2571.09480	0.01101
2569.03463	0.01114
2566.97446	0.01089
2564.91429	0.01047
2562.85411	0.01035
2560.79394	0.01063
2558.73377	0.01105
2556.67360	0.01130
2554.61342	0.01129
2552.55325	0.01105
2550.49308	0.01074
2548.43291	0.01059
2546.37274	0.01071
2544.31256	0.01093
2542.25239	0.01098
2540.19222	0.01071
2538.13205	0.01016
2536.07188	0.00963
2534.01170	0.00948
2531.95153	0.00972
2529.89136	0.01006
2527.83119	0.01025
2525.77102	0.01023
2523.71084	0.00998
2521.65067	0.00962
2519.59050	0.00940
2517.53033	0.00948
2515.47015	0.00966
2513.40998	0.00960
2511.34981	0.00922
2509.28964	0.00889
2507.22947	0.00885
2505.16929	0.00902
2503.10912	0.00932
2501.04895	0.00958
2498.98878	0.00959
2496.92861	0.00937
2494.86843	0.00919
2492.80826	0.00915
2490.74809	0.00919
2488.68792	0.00920
2486.62775	0.00920
2484.56757	0.00928
2482.50740	0.00942
2480.44723	0.00937
2478.38706	0.00899
2476.32688	0.00862
2474.26671	0.00863
2472.20654	0.00883
2470.14637	0.00881
2468.08620	0.00853
2466.02602	0.00826
2463.96585	0.00820
2461.90568	0.00840
2459.84551	0.00865
2457.78534	0.00875
2455.72516	0.00875
2453.66499	0.00878
2451.60482	0.00885
2449.54465	0.00883
2447.48447	0.00867
2445.42430	0.00849
2443.36413	0.00829
2441.30396	0.00809
2439.24379	0.00799
2437.18361	0.00805
2435.12344	0.00817
2433.06327	0.00830
2431.00310	0.00834
2428.94293	0.00819
2426.88275	0.00795
2424.82258	0.00783
2422.76241	0.00783
2420.70224	0.00778
2418.64207	0.00755
2416.58189	0.00738
2414.52172	0.00750
2412.46155	0.00770
2410.40138	0.00778
2408.34120	0.00777
2406.28103	0.00775
2404.22086	0.00769
2402.16069	0.00761
2400.10052	0.00764
2398.04034	0.00773
2395.98017	0.00777
2393.92000	0.00771
2391.85983	0.00757
2389.79966	0.00743
2387.73948	0.00731
2385.67931	0.00720
2383.61914	0.00707
2381.55897	0.00696
2379.49880	0.00695
2377.43862	0.00708
2375.37845	0.00729
2373.31828	0.00745
2371.25811	0.00734
2369.19793	0.00690
2367.13776	0.00621
2365.07759	0.00551
2363.01742	0.00523
2360.95725	0.00569
2358.89707	0.00678
2356.83690	0.00793
2354.77673	0.00858
2352.71656	0.00853
2350.65639	0.00801
2348.59621	0.00746
2346.53604	0.00715
2344.47587	0.00711
2342.41570	0.00728
2340.35552	0.00757
2338.29535	0.00781
2336.23518	0.00779
2334.17501	0.00753
2332.11484	0.00729
2330.05466	0.00735
2327.99449	0.00770
2325.93432	0.00807
2323.87415	0.00819
2321.81398	0.00802
2319.75380	0.00771
2317.69363	0.00736
2315.63346	0.00707
2313.57329	0.00686
2311.51312	0.00678
2309.45294	0.00680
2307.39277	0.00686
2305.33260	0.00688
2303.27243	0.00686
2301.21225	0.00689
2299.15208	0.00699
2297.09191	0.00707
2295.03174	0.00706
2292.97157	0.00698
2290.91139	0.00692
2288.85122	0.00696
2286.79105	0.00706
2284.73088	0.00713
2282.67071	0.00717
2280.61053	0.00725
2278.55036	0.00738
2276.49019	0.00740
2274.43002	0.00719
2272.36984	0.00677
2270.30967	0.00631
2268.24950	0.00595
2266.18933	0.00569
2264.12916	0.00546
2262.06898	0.00523
2260.00881	0.00511
2257.94864	0.00515
2255.88847	0.00527
2253.82830	0.00535
2251.76812	0.00535
2249.70795	0.00532
2247.64778	0.00542
2245.58761	0.00578
2243.52744	0.00621
2241.46726	0.00629
2239.40709	0.00597
2237.34692	0.00565
2235.28675	0.00566
2233.22657	0.00567
2231.16640	0.00532
2229.10623	0.00507
2227.04606	0.00539
2224.98589	0.00582
2222.92571	0.00556
2220.86554	0.00494
2218.80537	0.00509
2216.74520	0.00595
2214.68503	0.00633
2212.62485	0.00587
2210.56468	0.00499
2208.50451	0.00411
2206.44434	0.00348
2204.38417	0.00301
2202.32399	0.00275
2200.26382	0.00302
2198.20365	0.00353
2196.14348	0.00372
2194.08330	0.00374
2192.02313	0.00398
2189.96296	0.00447
2187.90279	0.00498
2185.84262	0.00542
2183.78244	0.00577
2181.72227	0.00594
2179.66210	0.00568
2177.60193	0.00494
2175.54176	0.00422
2173.48158	0.00378
2171.42141	0.00352
2169.36124	0.00325
2167.30107	0.00298
2165.24089	0.00291
2163.18072	0.00277
2161.12055	0.00224
2159.06038	0.00181
2157.00021	0.00168
2154.94003	0.00153
2152.87986	0.00151
2150.81969	0.00209
2148.75952	0.00311
2146.69935	0.00377
2144.63917	0.00362
2142.57900	0.00328
2140.51883	0.00344
2138.45866	0.00399
2136.39849	0.00422
2134.33831	0.00381
2132.27814	0.00329
2130.21797	0.00325
2128.15780	0.00365
2126.09762	0.00417
2124.03745	0.00474
2121.97728	0.00544
2119.91711	0.00612
2117.85694	0.00626
2115.79676	0.00577
2113.73659	0.00544
2111.67642	0.00573
2109.61625	0.00600
2107.55608	0.00587
2105.49590	0.00574
2103.43573	0.00565
2101.37556	0.00526
2099.31539	0.00466
2097.25521	0.00408
2095.19504	0.00362
2093.13487	0.00332
2091.07470	0.00324
2089.01453	0.00335
2086.95435	0.00358
2084.89418	0.00390
2082.83401	0.00428
2080.77384	0.00467
2078.71367	0.00495
2076.65349	0.00508
2074.59332	0.00507
2072.53315	0.00506
2070.47298	0.00504
2068.41281	0.00488
2066.35263	0.00441
2064.29246	0.00372
2062.23229	0.00315
2060.17212	0.00301
2058.11194	0.00325
2056.05177	0.00359
2053.99160	0.00393
2051.93143	0.00430
2049.87126	0.00479
2047.81108	0.00536
2045.75091	0.00577
2043.69074	0.00574
2041.63057	0.00509
2039.57040	0.00391
2037.51022	0.00258
2035.45005	0.00161
2033.38988	0.00125
2031.32971	0.00139
2029.26954	0.00172
2027.20936	0.00205
2025.14919	0.00238
2023.08902	0.00275
2021.02885	0.00298
2018.96867	0.00283
2016.90850	0.00238
2014.84833	0.00193
2012.78816	0.00170
2010.72799	0.00157
2008.66781	0.00137
2006.60764	0.00121
2004.54747	0.00128
2002.48730	0.00150
2000.42713	0.00173
1998.36695	0.00195
1996.30678	0.00226
1994.24661	0.00263
1992.18644	0.00295
1990.12626	0.00319
1988.06609	0.00339
1986.00592	0.00361
1983.94575	0.00373
1981.88558	0.00356
1979.82540	0.00312
1977.76523	0.00263
1975.70506	0.00221
1973.64489	0.00179
1971.58472	0.00143
1969.52454	0.00129
1967.46437	0.00140
1965.40420	0.00170
1963.34403	0.00210
1961.28386	0.00238
1959.22368	0.00235
1957.16351	0.00216
1955.10334	0.00218
1953.04317	0.00248
1950.98299	0.00279
1948.92282	0.00284
1946.86265	0.00261
1944.80248	0.00223
1942.74231	0.00183
1940.68213	0.00156
1938.62196	0.00158
1936.56179	0.00193
1934.50162	0.00236
1932.44145	0.00255
1930.38127	0.00235
1928.32110	0.00198
1926.26093	0.00175
1924.20076	0.00188
1922.14059	0.00228
1920.08041	0.00270
1918.02024	0.00291
1915.96007	0.00281
1913.89990	0.00245
1911.83972	0.00203
1909.77955	0.00173
1907.71938	0.00164
1905.65921	0.00172
1903.59904	0.00190
1901.53886	0.00212
1899.47869	0.00233
1897.41852	0.00244
1895.35835	0.00240
1893.29818	0.00229
1891.23800	0.00226
1889.17783	0.00241
1887.11766	0.00265
1885.05749	0.00283
1882.99731	0.00285
1880.93714	0.00269
1878.87697	0.00245
1876.81680	0.00225
1874.75663	0.00220
1872.69645	0.00222
1870.63628	0.00218
1868.57611	0.00200
1866.51594	0.00180
1864.45577	0.00171
1862.39559	0.00178
1860.33542	0.00194
1858.27525	0.00209
1856.21508	0.00213
1854.15491	0.00208
1852.09473	0.00199
1850.03456	0.00192
1847.97439	0.00183
1845.91422	0.00173
1843.85404	0.00171
1841.79387	0.00183
1839.73370	0.00202
1837.67353	0.00217
1835.61336	0.00228
1833.55318	0.00238
1831.49301	0.00242
1829.43284	0.00233
1827.37267	0.00215
1825.31250	0.00196
1823.25232	0.00179
1821.19215	0.00160
1819.13198	0.00145
1817.07181	0.00139
1815.01163	0.00143
1812.95146	0.00155
1810.89129	0.00170
1808.83112	0.00181
1806.77095	0.00184
1804.71077	0.00176
1802.65060	0.00162
1800.59043	0.00148
1798.53026	0.00138
1796.47009	0.00133
1794.40991	0.00129
1792.34974	0.00121
1790.28957	0.00109
1788.22940	0.00099
1786.16923	0.00101
1784.10905	0.00118
1782.04888	0.00142
1779.98871	0.00153
1777.92854	0.00155
1775.86836	0.00150
1773.80819	0.00146
1771.74802	0.00151
1769.68785	0.00175
1767.62768	0.00221
1765.56750	0.00288
1763.50733	0.00370
1761.44716	0.00468
1759.38699	0.00584
1757.32682	0.00720
1755.26664	0.00875
1753.20647	0.01051
1751.14630	0.01240
1749.08613	0.01431
1747.02596	0.01600
1744.96578	0.01730
1742.90561	0.01816
1740.84544	0.01862
1738.78527	0.01874
1736.72509	0.01863
1734.66492	0.01833
1732.60475	0.01791
1730.54458	0.01748
1728.48441	0.01717
1726.42423	0.01704
1724.36406	0.01706
1722.30389	0.01718
1720.24372	0.01731
1718.18355	0.01741
1716.12337	0.01745
1714.06320	0.01743
1712.00303	0.01736
1709.94286	0.01719
1707.88268	0.01689
1705.82251	0.01651
1703.76234	0.01612
1701.70217	0.01585
1699.64200	0.01582
1697.58182	0.01611
1695.52165	0.01664
1693.46148	0.01735
1691.40131	0.01821
1689.34114	0.01927
1687.28096	0.02058
1685.22079	0.02224
1683.16062	0.02425
1681.10045	0.02631
1679.04028	0.02812
1676.98010	0.02954
1674.91993	0.03052
1672.85976	0.03102
1670.79959	0.03109
1668.73941	0.03077
1666.67924	0.03018
1664.61907	0.02946
1662.55890	0.02871
1660.49873	0.02799
1658.43855	0.02737
1656.37838	0.02691
1654.31821	0.02663
1652.25804	0.02657
1650.19787	0.02664
1648.13769	0.02673
1646.07752	0.02681
1644.01735	0.02691
1641.95718	0.02709
1639.89701	0.02737
1637.83683	0.02779
1635.77666	0.02840
1633.71649	0.02911
1631.65632	0.02974
1629.59614	0.03022
1627.53597	0.03053
1625.47580	0.03073
1623.41563	0.03086
1621.35546	0.03097
1619.29528	0.03111
1617.23511	0.03139
1615.17494	0.03193
1613.11477	0.03284
1611.05460	0.03404
1608.99442	0.03532
1606.93425	0.03630
1604.87408	0.03661
1602.81391	0.03610
1600.75373	0.03494
1598.69356	0.03343
1596.63339	0.03190
1594.57322	0.03056
1592.51305	0.02948
1590.45287	0.02858
1588.39270	0.02775
1586.33253	0.02690
1584.27236	0.02601
1582.21219	0.02510
1580.15201	0.02422
1578.09184	0.02343
1576.03167	0.02277
1573.97150	0.02222
1571.91133	0.02167
1569.85115	0.02099
1567.79098	0.02015
1565.73081	0.01924
1563.67064	0.01832
1561.61046	0.01738
1559.55029	0.01638
1557.49012	0.01536
1555.42995	0.01445
1553.36978	0.01368
1551.30960	0.01300
1549.24943	0.01240
1547.18926	0.01184
1545.12909	0.01127
1543.06892	0.01067
1541.00874	0.00999
1538.94857	0.00927
1536.88840	0.00858
1534.82823	0.00798
1532.76805	0.00749
1530.70788	0.00711
1528.64771	0.00686
1526.58754	0.00679
1524.52737	0.00704
1522.46719	0.00775
1520.40702	0.00890
1518.34685	0.01022
1516.28668	0.01128
1514.22651	0.01170
1512.16633	0.01131
1510.10616	0.01021
1508.04599	0.00865
1505.98582	0.00705
1503.92565	0.00577
1501.86547	0.00484
1499.80530	0.00413
1497.74513	0.00353
1495.68496	0.00303
1493.62478	0.00263
1491.56461	0.00229
1489.50444	0.00197
1487.44427	0.00173
1485.38410	0.00165
1483.32392	0.00181
1481.26375	0.00224
1479.20358	0.00295
1477.14341	0.00401
1475.08324	0.00553
1473.02306	0.00749
1470.96289	0.00971
1468.90272	0.01189
1466.84255	0.01383
1464.78238	0.01542
1462.72220	0.01664
1460.66203	0.01759
1458.60186	0.01846
1456.54169	0.01931
1454.48151	0.02008
1452.42134	0.02074
1450.36117	0.02137
1448.30100	0.02206
1446.24083	0.02281
1444.18065	0.02360
1442.12048	0.02437
1440.06031	0.02507
1438.00014	0.02566
1435.93997	0.02611
1433.87979	0.02639
1431.81962	0.02654
1429.75945	0.02662
1427.69928	0.02670
1425.63910	0.02681
1423.57893	0.02701
1421.51876	0.02725
1419.45859	0.02747
1417.39842	0.02756
1415.33824	0.02746
1413.27807	0.02714
1411.21790	0.02663
1409.15773	0.02594
1407.09756	0.02512
1405.03738	0.02426
1402.97721	0.02344
1400.91704	0.02268
1398.85687	0.02195
1396.79670	0.02128
1394.73652	0.02075
1392.67635	0.02046
1390.61618	0.02044
1388.55601	0.02067
1386.49583	0.02113
1384.43566	0.02174
1382.37549	0.02245
1380.31532	0.02316
1378.25515	0.02380
1376.19497	0.02428
1374.13480	0.02457
1372.07463	0.02468
1370.01446	0.02463
1367.95429	0.02445
1365.89411	0.02414
1363.83394	0.02374
1361.77377	0.02328
1359.71360	0.02287
1357.65343	0.02257
1355.59325	0.02240
1353.53308	0.02233
1351.47291	0.02228
1349.41274	0.02220
1347.35256	0.02205
1345.29239	0.02183
1343.23222	0.02161
1341.17205	0.02144
1339.11188	0.02135
1337.05170	0.02130
1334.99153	0.02127
1332.93136	0.02126
1330.87119	0.02128
1328.81102	0.02134
1326.75084	0.02142
1324.69067	0.02150
1322.63050	0.02156
1320.57033	0.02161
1318.51015	0.02162
1316.44998	0.02154
1314.38981	0.02136
1312.32964	0.02107
1310.26947	0.02068
1308.20929	0.02021
1306.14912	0.01967
1304.08895	0.01908
1302.02878	0.01848
1299.96861	0.01795
1297.90843	0.01758
1295.84826	0.01742
1293.78809	0.01745
1291.72792	0.01762
1289.66775	0.01785
1287.60757	0.01813
1285.54740	0.01843
1283.48723	0.01872
1281.42706	0.01894
1279.36688	0.01910
1277.30671	0.01925
1275.24654	0.01942
1273.18637	0.01963
1271.12620	0.01992
1269.06602	0.02038
1267.00585	0.02103
1264.94568	0.02182
1262.88551	0.02266
1260.82534	0.02347
1258.76516	0.02420
1256.70499	0.02481
1254.64482	0.02530
1252.58465	0.02571
1250.52447	0.02607
1248.46430	0.02636
1246.40413	0.02658
1244.34396	0.02672
1242.28379	0.02676
1240.22361	0.02671
1238.16344	0.02656
1236.10327	0.02626
1234.04310	0.02579
1231.98293	0.02512
1229.92275	0.02424
1227.86258	0.02320
1225.80241	0.02205
1223.74224	0.02083
1221.68207	0.01955
1219.62189	0.01826
1217.56172	0.01701
1215.50155	0.01583
1213.44138	0.01471
1211.38120	0.01358
1209.32103	0.01242
1207.26086	0.01123
1205.20069	0.01002
1203.14052	0.00877
1201.08034	0.00745
1199.02017	0.00606
1196.96000	0.00468
1194.89983	0.00350
1192.83966	0.00272
1190.77948	0.00229
1188.71931	0.00202
1186.65914	0.00180
1184.59897	0.00168
1182.53880	0.00185
1180.47862	0.00239
1178.41845	0.00334
1176.35828	0.00477
1174.29811	0.00672
1172.23793	0.00900
1170.17776	0.01119
1168.11759	0.01289
1166.05742	0.01401
1163.99725	0.01477
1161.93707	0.01542
1159.87690	0.01597
1157.81673	0.01643
1155.75656	0.01694
1153.69639	0.01768
1151.63621	0.01866
1149.57604	0.01974
1147.51587	0.02080
1145.45570	0.02178
1143.39552	0.02265
1141.33535	0.02342
1139.27518	0.02411
1137.21501	0.02476
1135.15484	0.02546
1133.09466	0.02622
1131.03449	0.02699
1128.97432	0.02773
1126.91415	0.02857
1124.85398	0.02963
1122.79380	0.03086
1120.73363	0.03211
1118.67346	0.03326
1116.61329	0.03428
1114.55312	0.03527
1112.49294	0.03628
1110.43277	0.03729
1108.37260	0.03829
1106.31243	0.03936
1104.25225	0.04060
1102.19208	0.04205
1100.13191	0.04373
1098.07174	0.04557
1096.01157	0.04747
1093.95139	0.04930
1091.89122	0.05101
1089.83105	0.05269
1087.77088	0.05441
1085.71071	0.05617
1083.65053	0.05792
1081.59036	0.05955
1079.53019	0.06118
1077.47002	0.06306
1075.40985	0.06515
1073.34967	0.06713
1071.28950	0.06887
1069.22933	0.07045
1067.16916	0.07191
1065.10898	0.07321
1063.04881	0.07435
1060.98864	0.07542
1058.92847	0.07656
1056.86830	0.07798
1054.80812	0.07970
1052.74795	0.08154
1050.68778	0.08342
1048.62761	0.08542
1046.56744	0.08761
1044.50726	0.08978
1042.44709	0.09176
1040.38692	0.09351
1038.32675	0.09508
1036.26657	0.09641
1034.20640	0.09735
1032.14623	0.09779
1030.08606	0.09793
1028.02589	0.09799
1025.96571	0.09788
1023.90554	0.09748
1021.84537	0.09690
1019.78520	0.09636
1017.72503	0.09597
1015.66485	0.09577
1013.60468	0.09576
1011.54451	0.09588
1009.48434	0.09602
1007.42417	0.09606
1005.36399	0.09587
1003.30382	0.09539
1001.24365	0.09463
999.18348	0.09359
997.12330	0.09234
995.06313	0.09096
993.00296	0.08943
990.94279	0.08778
988.88262	0.08618
986.82244	0.08476
984.76227	0.08345
982.70210	0.08212
980.64193	0.08074
978.58176	0.07931
976.52158	0.07783
974.46141	0.07635
972.40124	0.07499
970.34107	0.07367
968.28089	0.07215
966.22072	0.07034
964.16055	0.06840
962.10038	0.06655
960.04021	0.06493
957.98003	0.06354
955.91986	0.06225
953.85969	0.06096
951.79952	0.05957
949.73935	0.05812
947.67917	0.05674
945.61900	0.05530
943.55883	0.05343
941.49866	0.05105
939.43849	0.04831
937.37831	0.04531
935.31814	0.04217
933.25797	0.03912
931.19780	0.03635
929.13762	0.03389
927.07745	0.03165
925.01728	0.02959
922.95711	0.02774
920.89694	0.02620
918.83676	0.02489
916.77659	0.02353
914.71642	0.02193
912.65625	0.02026
910.59608	0.01869
908.53590	0.01735
906.47573	0.01632
904.41556	0.01562
902.35539	0.01522
900.29522	0.01515
898.23504	0.01545
896.17487	0.01594
894.11470	0.01648
892.05453	0.01685
889.99435	0.01672
887.93418	0.01606
885.87401	0.01512
883.81384	0.01410
881.75367	0.01300
879.69349	0.01188
877.63332	0.01094
875.57315	0.01028
873.51298	0.00979
871.45281	0.00943
869.39263	0.00915
867.33246	0.00879
865.27229	0.00839
863.21212	0.00817
861.15194	0.00813
859.09177	0.00803
857.03160	0.00773
854.97143	0.00739
852.91126	0.00726
850.85108	0.00739
848.79091	0.00758
846.73074	0.00765
844.67057	0.00752
842.61040	0.00722
840.55022	0.00691
838.49005	0.00681
836.42988	0.00692
834.36971	0.00692
832.30954	0.00660
830.24936	0.00613
828.18919	0.00552
826.12902	0.00477
824.06885	0.00429
822.00867	0.00430
819.94850	0.00444
817.88833	0.00440
815.82816	0.00424
813.76799	0.00418
811.70781	0.00422
809.64764	0.00432
807.58747	0.00446
805.52730	0.00447
803.46713	0.00429
801.40695	0.00404
799.34678	0.00384
797.28661	0.00361
795.22644	0.00313
793.16627	0.00243
791.10609	0.00206
789.04592	0.00227
786.98575	0.00274
784.92558	0.00312
782.86540	0.00343
780.80523	0.00362
778.74506	0.00353
776.68489	0.00335
774.62472	0.00335
772.56454	0.00341
770.50437	0.00323
768.44420	0.00278
766.38403	0.00239
764.32386	0.00241
762.26368	0.00285
760.20351	0.00343
758.14334	0.00370
756.08317	0.00340
754.02299	0.00271
751.96282	0.00209
749.90265	0.00158
747.84248	0.00155
745.78231	0.00175
743.72213	0.00176
741.66196	0.00131
739.60179	0.00058
737.54162	0.00002
735.48145	0.00000
733.42127	0.00045
731.36110	0.00089
729.30093	0.00105
727.24076	0.00115
725.18059	0.00145
723.12041	0.00189
721.06024	0.00230
719.00007	0.00259
716.93990	0.00282
714.87972	0.00308
712.81955	0.00339
710.75938	0.00374
708.69921	0.00406
706.63904	0.00433
704.57886	0.00462
702.51869	0.00505
700.45852	0.00558
698.39835	0.00597
696.33818	0.00609
694.27800	0.00600
692.21783	0.00573
690.15766	0.00527
688.09749	0.00455
686.03731	0.00362
683.97714	0.00264
681.91697	0.00197
679.85680	0.00184
677.79663	0.00207
675.73645	0.00219
673.67628	0.00201
671.61611	0.00172
669.55594	0.00161
667.49577	0.00167
665.43559	0.00168
663.37542	0.00153
661.31525	0.00132
659.25508	0.00123
657.19491	0.00133
655.13473	0.00149
653.07456	0.00160
651.01439	0.00164
648.95422	0.00169
646.89404	0.00192
644.83387	0.00251
642.77370	0.00332
640.71353	0.00395
638.65336	0.00409
636.59318	0.00366
634.53301	0.00285
632.47284	0.00196
630.41267	0.00138
628.35250	0.00141
626.29232	0.00203
624.23215	0.00271
622.17198	0.00334
620.11181	0.00393
618.05164	0.00438
615.99146	0.00462
613.93129	0.00480
611.87112	0.00500
609.81095	0.00506
607.75077	0.00458
605.69060	0.00359
603.63043	0.00250
601.57026	0.00131
599.51009	0.00000
