3996.73391,-0.00004
3994.67373,0.00010
3992.61356,0.00017
3990.55339,0.00011
3988.49322,0.00003
3986.43305,-0.00011
3984.37287,-0.00024
3982.31270,-0.00016
3980.25253,0.00005
3978.19236,0.00022
3976.13219,0.00027
3974.07201,0.00018
3972.01184,-0.00001
3969.95167,-0.00013
3967.89150,-0.00005
3965.83133,0.00005
3963.77115,0.00003
3961.71098,0.00009
3959.65081,0.00026
3957.59064,0.00022
3955.53046,0.00005
3953.47029,0.00000
3951.41012,0.00006
3949.34995,0.00027
3947.28978,0.00054
3945.22960,0.00053
3943.16943,0.00035
3941.10926,0.00033
3939.04909,0.00036
3936.98892,0.00035
3934.92874,0.00039
3932.86857,0.00044
3930.80840,0.00044
3928.74823,0.00034
3926.68805,0.00005
3924.62788,-0.00017
3922.56771,0.00003
3920.50754,0.00051
3918.44737,0.00086
3916.38719,0.00101
3914.32702,0.00116
3912.26685,0.00126
3910.20668,0.00116
3908.14651,0.00083
3906.08633,0.00035
3904.02616,0.00000
3901.96599,0.00009
3899.90582,0.00047
3897.84565,0.00073
3895.78547,0.00070
3893.72530,0.00057
3891.66513,0.00068
3889.60496,0.00088
3887.54478,0.00082
3885.48461,0.00072
3883.42444,0.00080
3881.36427,0.00095
3879.30410,0.00104
3877.24392,0.00089
3875.18375,0.00058
3873.12358,0.00047
3871.06341,0.00074
3869.00324,0.00106
3866.94306,0.00096
3864.88289,0.00063
3862.82272,0.00051
3860.76255,0.00049
3858.70237,0.00032
3856.64220,0.00009
3854.58203,0.00013
3852.52186,0.00072
3850.46169,0.00117
3848.40151,0.00110
3846.34134,0.00090
3844.28117,0.00076
3842.22100,0.00051
3840.16083,0.00013
3838.10065,0.00000
3836.04048,0.00036
3833.98031,0.00088
3831.92014,0.00117
3829.85997,0.00113
3827.79979,0.00099
3825.73962,0.00096
3823.67945,0.00099
3821.61928,0.00113
3819.55910,0.00134
3817.49893,0.00127
3815.43876,0.00115
3813.37859,0.00107
3811.31842,0.00068
3809.25824,0.00028
3807.19807,0.00045
3805.13790,0.00085
3803.07773,0.00085
3801.01756,0.00071
3798.95738,0.00070
3796.89721,0.00086
3794.83704,0.00105
3792.77687,0.00097
3790.71670,0.00076
3788.65652,0.00077
3786.59635,0.00091
3784.53618,0.00097
3782.47601,0.00096
3780.41583,0.00108
3778.35566,0.00136
3776.29549,0.00151
3774.23532,0.00140
3772.17515,0.00120
3770.11497,0.00119
3768.05480,0.00141
3765.99463,0.00159
3763.93446,0.00154
3761.87429,0.00122
3759.81411,0.00074
3757.75394,0.00045
3755.69377,0.00036
3753.63360,0.00014
3751.57342,0.00000
3749.51325,0.00023
3747.45308,0.00045
3745.39291,0.00087
3743.33274,0.00168
3741.27256,0.00196
3739.21239,0.00166
3737.15222,0.00158
3735.09205,0.00208
3733.03188,0.00267
3730.97170,0.00271
3728.91153,0.00219
3726.85136,0.00157
3724.79119,0.00138
3722.73102,0.00180
3720.67084,0.00242
3718.61067,0.00262
3716.55050,0.00218
3714.49033,0.00142
3712.43015,0.00109
3710.36998,0.00170
3708.30981,0.00232
3706.24964,0.00211
3704.18947,0.00140
3702.12929,0.00102
3700.06912,0.00136
3698.00895,0.00189
3695.94878,0.00207
3693.88861,0.00178
3691.82843,0.00132
3689.76826,0.00138
3687.70809,0.00204
3685.64792,0.00251
3683.58775,0.00257
3681.52757,0.00229
3679.46740,0.00195
3677.40723,0.00198
3675.34706,0.00247
3673.28688,0.00299
3671.22671,0.00324
3669.16654,0.00323
3667.10637,0.00305
3665.04620,0.00292
3662.98602,0.00308
3660.92585,0.00346
3658.86568,0.00385
3656.80551,0.00418
3654.74534,0.00427
3652.68516,0.00393
3650.62499,0.00360
3648.56482,0.00394
3646.50465,0.00466
3644.44447,0.00507
3642.38430,0.00537
3640.32413,0.00590
3638.26396,0.00635
3636.20379,0.00632
3634.14361,0.00611
3632.08344,0.00635
3630.02327,0.00715
3627.96310,0.00805
3625.90293,0.00848
3623.84275,0.00847
3621.78258,0.00824
3619.72241,0.00803
3617.66224,0.00831
3615.60207,0.00900
3613.54189,0.00964
3611.48172,0.01016
3609.42155,0.01069
3607.36138,0.01122
3605.30120,0.01158
3603.24103,0.01180
3601.18086,0.01217
3599.12069,0.01276
3597.06052,0.01338
3595.00034,0.01378
3592.94017,0.01377
3590.88000,0.01355
3588.81983,0.01361
3586.75966,0.01433
3584.69948,0.01532
3582.63931,0.01591
3580.57914,0.01623
3578.51897,0.01666
3576.45879,0.01715
3574.39862,0.01753
3572.33845,0.01779
3570.27828,0.01786
3568.21811,0.01794
3566.15793,0.01835
3564.09776,0.01881
3562.03759,0.01910
3559.97742,0.01945
3557.91725,0.02003
3555.85707,0.02069
3553.79690,0.02103
3551.73673,0.02107
3549.67656,0.02115
3547.61639,0.02136
3545.55621,0.02182
3543.49604,0.02251
3541.43587,0.02311
3539.37570,0.02356
3537.31552,0.02410
3535.25535,0.02474
3533.19518,0.02501
3531.13501,0.02488
3529.07484,0.02487
3527.01466,0.02531
3524.95449,0.02595
3522.89432,0.02659
3520.83415,0.02727
3518.77398,0.02783
3516.71380,0.02817
3514.65363,0.02835
3512.59346,0.02858
3510.53329,0.02889
3508.47312,0.02914
3506.41294,0.02938
3504.35277,0.02976
3502.29260,0.03024
3500.23243,0.03067
3498.17225,0.03092
3496.11208,0.03110
3494.05191,0.03142
3491.99174,0.03193
3489.93157,0.03257
3487.87139,0.03307
3485.81122,0.03319
3483.75105,0.03318
3481.69088,0.03335
3479.63071,0.03358
3477.57053,0.03389
3475.51036,0.03442
3473.45019,0.03500
3471.39002,0.03550
3469.32984,0.03589
3467.26967,0.03623
3465.20950,0.03658
3463.14933,0.03686
3461.08916,0.03703
3459.02898,0.03724
3456.96881,0.03738
3454.90864,0.03729
3452.84847,0.03725
3450.78830,0.03748
3448.72812,0.03808
3446.66795,0.03901
3444.60778,0.03969
3442.54761,0.03992
3440.48744,0.04016
3438.42726,0.04038
3436.36709,0.04041
3434.30692,0.04051
3432.24675,0.04077
3430.18657,0.04101
3428.12640,0.04135
3426.06623,0.04183
3424.00606,0.04215
3421.94589,0.04225
3419.88571,0.04241
3417.82554,0.04271
3415.76537,0.04283
3413.70520,0.04280
3411.64503,0.04310
3409.58485,0.04365
3407.52468,0.04388
3405.46451,0.04378
3403.40434,0.04377
3401.34416,0.04391
3399.28399,0.04407
3397.22382,0.04425
3395.16365,0.04444
3393.10348,0.04458
3391.04330,0.04489
3388.98313,0.04533
3386.92296,0.04561
3384.86279,0.04569
3382.80262,0.04589
3380.74244,0.04630
3378.68227,0.04653
3376.62210,0.04653
3374.56193,0.04667
3372.50176,0.04688
3370.44158,0.04687
3368.38141,0.04681
3366.32124,0.04698
3364.26107,0.04724
3362.20089,0.04724
3360.14072,0.04710
3358.08055,0.04728
3356.02038,0.04767
3353.96021,0.04786
3351.90003,0.04798
3349.83986,0.04818
3347.77969,0.04800
3345.71952,0.04729
3343.65935,0.04689
3341.59917,0.04726
3339.53900,0.04779
3337.47883,0.04795
3335.41866,0.04792
3333.35849,0.04798
3331.29831,0.04800
3329.23814,0.04796
3327.17797,0.04801
3325.11780,0.04800
3323.05762,0.04788
3320.99745,0.04792
3318.93728,0.04807
3316.87711,0.04810
3314.81694,0.04801
3312.75676,0.04794
3310.69659,0.04798
3308.63642,0.04798
3306.57625,0.04789
3304.51608,0.04787
3302.45590,0.04788
3300.39573,0.04785
3298.33556,0.04785
3296.27539,0.04787
3294.21521,0.04778
3292.15504,0.04768
3290.09487,0.04773
3288.03470,0.04783
3285.97453,0.04789
3283.91435,0.04784
3281.85418,0.04773
3279.79401,0.04782
3277.73384,0.04788
3275.67367,0.04766
3273.61349,0.04748
3271.55332,0.04752
3269.49315,0.04754
3267.43298,0.04738
3265.37281,0.04720
3263.31263,0.04706
3261.25246,0.04695
3259.19229,0.04690
3257.13212,0.04695
3255.07194,0.04716
3253.01177,0.04745
3250.95160,0.04753
3248.89143,0.04730
3246.83126,0.04684
3244.77108,0.04636
3242.71091,0.04606
3240.65074,0.04588
3238.59057,0.04566
3236.53040,0.04553
3234.47022,0.04554
3232.41005,0.04540
3230.34988,0.04513
3228.28971,0.04501
3226.22954,0.04487
3224.16936,0.04462
3222.10919,0.04453
3220.04902,0.04450
3217.98885,0.04443
3215.92867,0.04424
3213.86850,0.04392
3211.80833,0.04360
3209.74816,0.04334
3207.68799,0.04308
3205.62781,0.04274
3203.56764,0.04237
3201.50747,0.04215
3199.44730,0.04204
3197.38713,0.04187
3195.32695,0.04157
3193.26678,0.04113
3191.20661,0.04074
3189.14644,0.04059
3187.08626,0.04051
3185.02609,0.04034
3182.96592,0.03999
3180.90575,0.03955
3178.84558,0.03919
3176.78540,0.03885
3174.72523,0.03857
3172.66506,0.03843
3170.60489,0.03829
3168.54472,0.03795
3166.48454,0.03751
3164.42437,0.03719
3162.36420,0.03684
3160.30403,0.03636
3158.24386,0.03586
3156.18368,0.03546
3154.12351,0.03529
3152.06334,0.03510
3150.00317,0.03468
3147.94299,0.03426
3145.88282,0.03386
3143.82265,0.03344
3141.76248,0.03310
3139.70231,0.03281
3137.64213,0.03255
3135.58196,0.03238
3133.52179,0.03222
3131.46162,0.03190
3129.40145,0.03132
3127.34127,0.03073
3125.28110,0.03052
3123.22093,0.03050
3121.16076,0.03027
3119.10058,0.02984
3117.04041,0.02933
3114.98024,0.02884
3112.92007,0.02856
3110.85990,0.02842
3108.79972,0.02814
3106.73955,0.02767
3104.67938,0.02719
3102.61921,0.02686
3100.55904,0.02664
3098.49886,0.02633
3096.43869,0.02591
3094.37852,0.02549
3092.31835,0.02516
3090.25818,0.02506
3088.19800,0.02512
3086.13783,0.02505
3084.07766,0.02473
3082.01749,0.02432
3079.95731,0.02399
3077.89714,0.02368
3075.83697,0.02328
3073.77680,0.02291
3071.71663,0.02267
3069.65645,0.02233
3067.59628,0.02188
3065.53611,0.02154
3063.47594,0.02129
3061.41577,0.02108
3059.35559,0.02095
3057.29542,0.02074
3055.23525,0.02044
3053.17508,0.02018
3051.11491,0.01991
3049.05473,0.01967
3046.99456,0.01948
3044.93439,0.01929
3042.87422,0.01911
3040.81404,0.01878
3038.75387,0.01840
3036.69370,0.01828
3034.63353,0.01824
3032.57336,0.01798
3030.51318,0.01771
3028.45301,0.01756
3026.39284,0.01738
3024.33267,0.01726
3022.27250,0.01725
3020.21232,0.01712
3018.15215,0.01685
3016.09198,0.01666
3014.03181,0.01657
3011.97163,0.01643
3009.91146,0.01625
3007.85129,0.01619
3005.79112,0.01624
3003.73095,0.01621
3001.67077,0.01599
2999.61060,0.01577
2997.55043,0.01580
2995.49026,0.01589
2993.43009,0.01582
2991.36991,0.01567
2989.30974,0.01552
2987.24957,0.01560
2985.18940,0.01586
2983.12923,0.01597
2981.06905,0.01601
2979.00888,0.01615
2976.94871,0.01618
2974.88854,0.01617
2972.82836,0.01645
2970.76819,0.01690
2968.70802,0.01711
2966.64785,0.01716
2964.58768,0.01730
2962.52750,0.01757
2960.46733,0.01789
2958.40716,0.01821
2956.34699,0.01858
2954.28682,0.01897
2952.22664,0.01933
2950.16647,0.01974
2948.10630,0.02013
2946.04613,0.02047
2943.98596,0.02084
2941.92578,0.02119
2939.86561,0.02137
2937.80544,0.02134
2935.74527,0.02129
2933.68509,0.02132
2931.62492,0.02136
2929.56475,0.02134
2927.50458,0.02134
2925.44441,0.02129
2923.38423,0.02100
2921.32406,0.02068
2919.26389,0.02059
2917.20372,0.02055
2915.14355,0.02039
2913.08337,0.02020
2911.02320,0.02004
2908.96303,0.01992
2906.90286,0.01969
2904.84268,0.01945
2902.78251,0.01924
2900.72234,0.01894
2898.66217,0.01871
2896.60200,0.01866
2894.54182,0.01863
2892.48165,0.01859
2890.42148,0.01858
2888.36131,0.01853
2886.30114,0.01838
2884.24096,0.01823
2882.18079,0.01816
2880.12062,0.01819
2878.06045,0.01811
2876.00028,0.01792
2873.94010,0.01782
2871.87993,0.01767
2869.81976,0.01739
2867.75959,0.01711
2865.69941,0.01684
2863.63924,0.01657
2861.57907,0.01621
2859.51890,0.01580
2857.45873,0.01559
2855.39855,0.01558
2853.33838,0.01556
2851.27821,0.01524
2849.21804,0.01466
2847.15787,0.01422
2845.09769,0.01405
2843.03752,0.01403
2840.97735,0.01399
2838.91718,0.01383
2836.85700,0.01368
2834.79683,0.01350
2832.73666,0.01326
2830.67649,0.01308
2828.61632,0.01285
2826.55614,0.01261
2824.49597,0.01255
2822.43580,0.01257
2820.37563,0.01248
2818.31546,0.01230
2816.25528,0.01206
2814.19511,0.01187
2812.13494,0.01181
2810.07477,0.01183
2808.01460,0.01187
2805.95442,0.01182
2803.89425,0.01165
2801.83408,0.01145
2799.77391,0.01139
2797.71373,0.01139
2795.65356,0.01142
2793.59339,0.01146
2791.53322,0.01138
2789.47305,0.01125
2787.41287,0.01119
2785.35270,0.01110
2783.29253,0.01087
2781.23236,0.01071
2779.17219,0.01084
2777.11201,0.01100
2775.05184,0.01086
2772.99167,0.01064
2770.93150,0.01059
2768.87133,0.01055
2766.81115,0.01036
2764.75098,0.01003
2762.69081,0.00986
2760.63064,0.01003
2758.57046,0.01026
2756.51029,0.01033
2754.45012,0.01017
2752.38995,0.00996
2750.32978,0.01000
2748.26960,0.01012
2746.20943,0.01007
2744.14926,0.00998
2742.08909,0.00986
2740.02892,0.00968
2737.96874,0.00967
2735.90857,0.00975
2733.84840,0.00976
2731.78823,0.00976
2729.72805,0.00974
2727.66788,0.00965
2725.60771,0.00947
2723.54754,0.00929
2721.48737,0.00922
2719.42719,0.00925
2717.36702,0.00922
2715.30685,0.00914
2713.24668,0.00910
2711.18651,0.00911
2709.12633,0.00914
2707.06616,0.00912
2705.00599,0.00899
2702.94582,0.00885
2700.88565,0.00880
2698.82547,0.00883
2696.76530,0.00887
2694.70513,0.00889
2692.64496,0.00885
2690.58478,0.00873
2688.52461,0.00851
2686.46444,0.00837
2684.40427,0.00845
2682.34410,0.00863
2680.28392,0.00874
2678.22375,0.00866
2676.16358,0.00851
2674.10341,0.00843
2672.04324,0.00832
2669.98306,0.00821
2667.92289,0.00822
2665.86272,0.00826
2663.80255,0.00820
2661.74238,0.00817
2659.68220,0.00825
2657.62203,0.00825
2655.56186,0.00805
2653.50169,0.00792
2651.44151,0.00791
2649.38134,0.00780
2647.32117,0.00763
2645.26100,0.00750
2643.20083,0.00739
2641.14065,0.00740
2639.08048,0.00755
2637.02031,0.00756
2634.96014,0.00746
2632.89997,0.00753
2630.83979,0.00772
2628.77962,0.00772
2626.71945,0.00744
2624.65928,0.00712
2622.59910,0.00706
2620.53893,0.00708
2618.47876,0.00694
2616.41859,0.00672
2614.35842,0.00646
2612.29824,0.00619
2610.23807,0.00612
2608.17790,0.00625
2606.11773,0.00632
2604.05756,0.00632
2601.99738,0.00641
2599.93721,0.00646
2597.87704,0.00621
2595.81687,0.00581
2593.75670,0.00561
2591.69652,0.00569
2589.63635,0.00589
2587.57618,0.00597
2585.51601,0.00591
2583.45583,0.00593
2581.39566,0.00606
2579.33549,0.00631
2577.27532,0.00651
2575.21515,0.00634
2573.15497,0.00592
2571.09480,0.00566
2569.03463,0.00572
2566.97446,0.00589
2564.91429,0.00577
2562.85411,0.00553
2560.79394,0.00549
2558.73377,0.00546
2556.67360,0.00529
2554.61342,0.00523
2552.55325,0.00523
2550.49308,0.00505
2548.43291,0.00501
2546.37274,0.00531
2544.31256,0.00556
2542.25239,0.00553
2540.19222,0.00537
2538.13205,0.00544
2536.07188,0.00568
2534.01170,0.00570
2531.95153,0.00560
2529.89136,0.00548
2527.83119,0.00539
2525.77102,0.00540
2523.71084,0.00526
2521.65067,0.00514
2519.59050,0.00524
2517.53033,0.00529
2515.47015,0.00529
2513.40998,0.00537
2511.34981,0.00523
2509.28964,0.00496
2507.22947,0.00505
2505.16929,0.00527
2503.10912,0.00518
2501.04895,0.00509
2498.98878,0.00518
2496.92861,0.00511
2494.86843,0.00498
2492.80826,0.00505
2490.74809,0.00516
2488.68792,0.00514
2486.62775,0.00505
2484.56757,0.00486
2482.50740,0.00455
2480.44723,0.00444
2478.38706,0.00462
2476.32688,0.00455
2474.26671,0.00435
2472.20654,0.00453
2470.14637,0.00465
2468.08620,0.00436
2466.02602,0.00417
2463.96585,0.00446
2461.90568,0.00462
2459.84551,0.00436
2457.78534,0.00414
2455.72516,0.00420
2453.66499,0.00448
2451.60482,0.00484
2449.54465,0.00495
2447.48447,0.00480
2445.42430,0.00459
2443.36413,0.00421
2441.30396,0.00387
2439.24379,0.00381
2437.18361,0.00394
2435.12344,0.00414
2433.06327,0.00414
2431.00310,0.00402
2428.94293,0.00404
2426.88275,0.00409
2424.82258,0.00390
2422.76241,0.00369
2420.70224,0.00371
2418.64207,0.00385
2416.58189,0.00394
2414.52172,0.00405
2412.46155,0.00430
2410.40138,0.00446
2408.34120,0.00420
2406.28103,0.00376
2404.22086,0.00376
2402.16069,0.00412
2400.10052,0.00435
2398.04034,0.00450
2395.98017,0.00453
2393.92000,0.00441
2391.85983,0.00429
2389.79966,0.00419
2387.73948,0.00403
2385.67931,0.00390
2383.61914,0.00393
2381.55897,0.00424
2379.49880,0.00465
2377.43862,0.00491
2375.37845,0.00509
2373.31828,0.00548
2371.25811,0.00602
2369.19793,0.00672
2367.13776,0.00773
2365.07759,0.00832
2363.01742,0.00744
2360.95725,0.00590
2358.89707,0.00556
2356.83690,0.00631
2354.77673,0.00671
2352.71656,0.00631
2350.65639,0.00562
2348.59621,0.00512
2346.53604,0.00503
2344.47587,0.00533
2342.41570,0.00549
2340.35552,0.00496
2338.29535,0.00406
2336.23518,0.00350
2334.17501,0.00377
2332.11484,0.00492
2330.05466,0.00614
2327.99449,0.00648
2325.93432,0.00626
2323.87415,0.00620
2321.81398,0.00622
2319.75380,0.00585
2317.69363,0.00510
2315.63346,0.00453
2313.57329,0.00453
2311.51312,0.00480
2309.45294,0.00498
2307.39277,0.00513
2305.33260,0.00532
2303.27243,0.00541
2301.21225,0.00528
2299.15208,0.00498
2297.09191,0.00469
2295.03174,0.00460
2292.97157,0.00491
2290.91139,0.00539
2288.85122,0.00555
2286.79105,0.00537
2284.73088,0.00509
2282.67071,0.00482
2280.61053,0.00460
2278.55036,0.00466
2276.49019,0.00508
2274.43002,0.00541
2272.36984,0.00496
2270.30967,0.00391
2268.24950,0.00344
2266.18933,0.00385
2264.12916,0.00402
2262.06898,0.00362
2260.00881,0.00342
2257.94864,0.00345
2255.88847,0.00343
2253.82830,0.00360
2251.76812,0.00395
2249.70795,0.00402
2247.64778,0.00373
2245.58761,0.00371
2243.52744,0.00389
2241.46726,0.00412
2239.40709,0.00437
2237.34692,0.00414
2235.28675,0.00347
2233.22657,0.00313
2231.16640,0.00346
2229.10623,0.00361
2227.04606,0.00323
2224.98589,0.00314
2222.92571,0.00341
2220.86554,0.00348
2218.80537,0.00359
2216.74520,0.00397
2214.68503,0.00423
2212.62485,0.00397
2210.56468,0.00328
2208.50451,0.00265
2206.44434,0.00243
2204.38417,0.00278
2202.32399,0.00323
2200.26382,0.00337
2198.20365,0.00355
2196.14348,0.00376
2194.08330,0.00360
2192.02313,0.00306
2189.96296,0.00282
2187.90279,0.00313
2185.84262,0.00306
2183.78244,0.00255
2181.72227,0.00223
2179.66210,0.00180
2177.60193,0.00128
2175.54176,0.00101
2173.48158,0.00126
2171.42141,0.00203
2169.36124,0.00242
2167.30107,0.00214
2165.24089,0.00171
2163.18072,0.00143
2161.12055,0.00094
2159.06038,0.00031
2157.00021,0.00000
2154.94003,0.00071
2152.87986,0.00250
2150.81969,0.00346
2148.75952,0.00302
2146.69935,0.00205
2144.63917,0.00108
2142.57900,0.00064
2140.51883,0.00073
2138.45866,0.00091
2136.39849,0.00075
2134.33831,0.00081
2132.27814,0.00183
2130.21797,0.00297
2128.15780,0.00351
2126.09762,0.00355
2124.03745,0.00336
2121.97728,0.00351
2119.91711,0.00380
2117.85694,0.00388
2115.79676,0.00412
2113.73659,0.00453
2111.67642,0.00478
2109.61625,0.00429
2107.55608,0.00338
2105.49590,0.00305
2103.43573,0.00330
2101.37556,0.00350
2099.31539,0.00325
2097.25521,0.00289
2095.19504,0.00307
2093.13487,0.00373
2091.07470,0.00406
2089.01453,0.00386
2086.95435,0.00392
2084.89418,0.00424
2082.83401,0.00404
2080.77384,0.00363
2078.71367,0.00373
2076.65349,0.00417
2074.59332,0.00417
2072.53315,0.00361
2070.47298,0.00333
2068.41281,0.00359
2066.35263,0.00379
2064.29246,0.00383
2062.23229,0.00398
2060.17212,0.00431
2058.11194,0.00459
2056.05177,0.00428
2053.99160,0.00340
2051.93143,0.00286
2049.87126,0.00297
2047.81108,0.00322
2045.75091,0.00304
2043.69074,0.00249
2041.63057,0.00214
2039.57040,0.00221
2037.51022,0.00267
2035.45005,0.00289
2033.38988,0.00283
2031.32971,0.00308
2029.26954,0.00288
2027.20936,0.00185
2025.14919,0.00139
2023.08902,0.00211
2021.02885,0.00273
2018.96867,0.00275
2016.90850,0.00279
2014.84833,0.00271
2012.78816,0.00287
2010.72799,0.00339
2008.66781,0.00305
2006.60764,0.00205
2004.54747,0.00153
2002.48730,0.00161
2000.42713,0.00228
1998.36695,0.00292
1996.30678,0.00275
1994.24661,0.00259
1992.18644,0.00312
1990.12626,0.00331
1988.06609,0.00259
1986.00592,0.00204
1983.94575,0.00273
1981.88558,0.00378
1979.82540,0.00373
1977.76523,0.00292
1975.70506,0.00237
1973.64489,0.00193
1971.58472,0.00149
1969.52454,0.00094
1967.46437,0.00029
1965.40420,0.00020
1963.34403,0.00021
1961.28386,0.00000
1959.22368,0.00025
1957.16351,0.00088
1955.10334,0.00131
1953.04317,0.00146
1950.98299,0.00142
1948.92282,0.00124
1946.86265,0.00102
1944.80248,0.00102
1942.74231,0.00137
1940.68213,0.00167
1938.62196,0.00137
1936.56179,0.00089
1934.50162,0.00103
1932.44145,0.00169
1930.38127,0.00204
1928.32110,0.00156
1926.26093,0.00104
1924.20076,0.00147
1922.14059,0.00229
1920.08041,0.00246
1918.02024,0.00204
1915.96007,0.00150
1913.89990,0.00115
1911.83972,0.00123
1909.77955,0.00158
1907.71938,0.00176
1905.65921,0.00168
1903.59904,0.00165
1901.53886,0.00174
1899.47869,0.00170
1897.41852,0.00156
1895.35835,0.00156
1893.29818,0.00172
1891.23800,0.00187
1889.17783,0.00200
1887.11766,0.00213
1885.05749,0.00211
1882.99731,0.00202
1880.93714,0.00198
1878.87697,0.00186
1876.81680,0.00162
1874.75663,0.00129
1872.69645,0.00089
1870.63628,0.00056
1868.57611,0.00063
1866.51594,0.00111
1864.45577,0.00140
1862.39559,0.00138
1860.33542,0.00135
1858.27525,0.00127
1856.21508,0.00103
1854.15491,0.00084
1852.09473,0.00087
1850.03456,0.00085
1847.97439,0.00059
1845.91422,0.00042
1843.85404,0.00053
1841.79387,0.00070
1839.73370,0.00077
1837.67353,0.00077
1835.61336,0.00079
1833.55318,0.00088
1831.49301,0.00084
1829.43284,0.00066
1827.37267,0.00057
1825.31250,0.00062
1823.25232,0.00070
1821.19215,0.00065
1819.13198,0.00051
1817.07181,0.00051
1815.01163,0.00063
1812.95146,0.00060
1810.89129,0.00057
1808.83112,0.00075
1806.77095,0.00096
1804.71077,0.00094
1802.65060,0.00065
1800.59043,0.00035
1798.53026,0.00027
1796.47009,0.00022
1794.40991,0.00001
1792.34974,-0.00010
1790.28957,0.00020
1788.22940,0.00059
1786.16923,0.00074
1784.10905,0.00069
1782.04888,0.00062
1779.98871,0.00061
1777.92854,0.00065
1775.86836,0.00063
1773.80819,0.00045
1771.74802,0.00035
1769.68785,0.00076
1767.62768,0.00155
1765.56750,0.00229
1763.50733,0.00281
1761.44716,0.00322
1759.38699,0.00371
1757.32682,0.00443
1755.26664,0.00523
1753.20647,0.00581
1751.14630,0.00626
1749.08613,0.00690
1747.02596,0.00776
1744.96578,0.00854
1742.90561,0.00908
1740.84544,0.00942
1738.78527,0.00970
1736.72509,0.00982
1734.66492,0.00985
1732.60475,0.01018
1730.54458,0.01079
1728.48441,0.01125
1726.42423,0.01134
1724.36406,0.01112
1722.30389,0.01081
1720.24372,0.01036
1718.18355,0.00954
1716.12337,0.00856
1714.06320,0.00793
1712.00303,0.00759
1709.94286,0.00728
1707.88268,0.00684
1705.82251,0.00635
1703.76234,0.00607
1701.70217,0.00594
1699.64200,0.00566
1697.58182,0.00541
1695.52165,0.00558
1693.46148,0.00599
1691.40131,0.00632
1689.34114,0.00655
1687.28096,0.00666
1685.22079,0.00691
1683.16062,0.00776
1681.10045,0.00880
1679.04028,0.00955
1676.98010,0.01016
1674.91993,0.01081
1672.85976,0.01147
1670.79959,0.01227
1668.73941,0.01330
1666.67924,0.01413
1664.61907,0.01472
1662.55890,0.01548
1660.49873,0.01648
1658.43855,0.01735
1656.37838,0.01796
1654.31821,0.01849
1652.25804,0.01920
1650.19787,0.01964
1648.13769,0.01984
1646.07752,0.02037
1644.01735,0.02113
1641.95718,0.02166
1639.89701,0.02192
1637.83683,0.02206
1635.77666,0.02226
1633.71649,0.02259
1631.65632,0.02282
1629.59614,0.02291
1627.53597,0.02293
1625.47580,0.02290
1623.41563,0.02288
1621.35546,0.02299
1619.29528,0.02311
1617.23511,0.02311
1615.17494,0.02307
1613.11477,0.02304
1611.05460,0.02294
1608.99442,0.02267
1606.93425,0.02224
1604.87408,0.02163
1602.81391,0.02091
1600.75373,0.02009
1598.69356,0.01912
1596.63339,0.01800
1594.57322,0.01676
1592.51305,0.01551
1590.45287,0.01437
1588.39270,0.01336
1586.33253,0.01240
1584.27236,0.01137
1582.21219,0.01028
1580.15201,0.00917
1578.09184,0.00807
1576.03167,0.00710
1573.97150,0.00651
1571.91133,0.00609
1569.85115,0.00551
1567.79098,0.00494
1565.73081,0.00452
1563.67064,0.00415
1561.61046,0.00362
1559.55029,0.00298
1557.49012,0.00269
1555.42995,0.00267
1553.36978,0.00252
1551.30960,0.00227
1549.24943,0.00208
1547.18926,0.00188
1545.12909,0.00142
1543.06892,0.00070
1541.00874,0.00016
1538.94857,0.00033
1536.88840,0.00062
1534.82823,0.00055
1532.76805,0.00043
1530.70788,0.00050
1528.64771,0.00046
1526.58754,0.00021
1524.52737,0.00000
1522.46719,0.00003
1520.40702,0.00018
1518.34685,0.00020
1516.28668,0.00027
1514.22651,0.00049
1512.16633,0.00055
1510.10616,0.00028
1508.04599,-0.00003
1505.98582,0.00014
1503.92565,0.00045
1501.86547,0.00048
1499.80530,0.00036
1497.74513,0.00034
1495.68496,0.00055
1493.62478,0.00078
1491.56461,0.00081
1489.50444,0.00085
1487.44427,0.00119
1485.38410,0.00173
1483.32392,0.00225
1481.26375,0.00276
1479.20358,0.00319
1477.14341,0.00341
1475.08324,0.00358
1473.02306,0.00421
1470.96289,0.00533
1468.90272,0.00624
1466.84255,0.00684
1464.78238,0.00742
1462.72220,0.00788
1460.66203,0.00801
1458.60186,0.00812
1456.54169,0.00879
1454.48151,0.00975
1452.42134,0.01032
1450.36117,0.01055
1448.30100,0.01077
1446.24083,0.01117
1444.18065,0.01164
1442.12048,0.01205
1440.06031,0.01232
1438.00014,0.01247
1435.93997,0.01285
1433.87979,0.01351
1431.81962,0.01423
1429.75945,0.01495
1427.69928,0.01562
1425.63910,0.01621
1423.57893,0.01680
1421.51876,0.01734
1419.45859,0.01778
1417.39842,0.01820
1415.33824,0.01857
1413.27807,0.01876
1411.21790,0.01877
1409.15773,0.01861
1407.09756,0.01817
1405.03738,0.01754
1402.97721,0.01700
1400.91704,0.01652
1398.85687,0.01590
1396.79670,0.01518
1394.73652,0.01468
1392.67635,0.01454
1390.61618,0.01462
1388.55601,0.01474
1386.49583,0.01496
1384.43566,0.01532
1382.37549,0.01574
1380.31532,0.01615
1378.25515,0.01654
1376.19497,0.01691
1374.13480,0.01729
1372.07463,0.01764
1370.01446,0.01780
1367.95429,0.01768
1365.89411,0.01726
1363.83394,0.01669
1361.77377,0.01625
1359.71360,0.01604
1357.65343,0.01591
1355.59325,0.01576
1353.53308,0.01557
1351.47291,0.01539
1349.41274,0.01521
1347.35256,0.01493
1345.29239,0.01448
1343.23222,0.01398
1341.17205,0.01363
1339.11188,0.01350
1337.05170,0.01345
1334.99153,0.01348
1332.93136,0.01368
1330.87119,0.01392
1328.81102,0.01401
1326.75084,0.01403
1324.69067,0.01401
1322.63050,0.01396
1320.57033,0.01390
1318.51015,0.01388
1316.44998,0.01388
1314.38981,0.01379
1312.32964,0.01370
1310.26947,0.01363
1308.20929,0.01336
1306.14912,0.01288
1304.08895,0.01245
1302.02878,0.01212
1299.96861,0.01177
1297.90843,0.01143
1295.84826,0.01127
1293.78809,0.01121
1291.72792,0.01119
1289.66775,0.01120
1287.60757,0.01119
1285.54740,0.01118
1283.48723,0.01119
1281.42706,0.01125
1279.36688,0.01136
1277.30671,0.01149
1275.24654,0.01174
1273.18637,0.01218
1271.12620,0.01274
1269.06602,0.01336
1267.00585,0.01410
1264.94568,0.01505
1262.88551,0.01605
1260.82534,0.01702
1258.76516,0.01804
1256.70499,0.01892
1254.64482,0.01942
1252.58465,0.01970
1250.52447,0.01999
1248.46430,0.02024
1246.40413,0.02031
1244.34396,0.02021
1242.28379,0.01997
1240.22361,0.01956
1238.16344,0.01903
1236.10327,0.01844
1234.04310,0.01774
1231.98293,0.01697
1229.92275,0.01619
1227.86258,0.01539
1225.80241,0.01453
1223.74224,0.01368
1221.68207,0.01289
1219.62189,0.01202
1217.56172,0.01095
1215.50155,0.00987
1213.44138,0.00896
1211.38120,0.00812
1209.32103,0.00707
1207.26086,0.00582
1205.20069,0.00470
1203.14052,0.00372
1201.08034,0.00282
1199.02017,0.00201
1196.96000,0.00133
1194.89983,0.00076
1192.83966,0.00033
1190.77948,0.00007
1188.71931,0.00000
1186.65914,0.00004
1184.59897,0.00023
1182.53880,0.00061
1180.47862,0.00128
1178.41845,0.00224
1176.35828,0.00344
1174.29811,0.00471
1172.23793,0.00601
1170.17776,0.00755
1168.11759,0.00935
1166.05742,0.01105
1163.99725,0.01245
1161.93707,0.01380
1159.87690,0.01514
1157.81673,0.01638
1155.75656,0.01744
1153.69639,0.01848
1151.63621,0.01955
1149.57604,0.02044
1147.51587,0.02122
1145.45570,0.02199
1143.39552,0.02258
1141.33535,0.02284
1139.27518,0.02292
1137.21501,0.02300
1135.15484,0.02320
1133.09466,0.02374
1131.03449,0.02459
1128.97432,0.02553
1126.91415,0.02654
1124.85398,0.02763
1122.79380,0.02875
1120.73363,0.02984
1118.67346,0.03076
1116.61329,0.03154
1114.55312,0.03236
1112.49294,0.03328
1110.43277,0.03420
1108.37260,0.03510
1106.31243,0.03615
1104.25225,0.03749
1102.19208,0.03917
1100.13191,0.04113
1098.07174,0.04321
1096.01157,0.04522
1093.95139,0.04716
1091.89122,0.04897
1089.83105,0.05059
1087.77088,0.05194
1085.71071,0.05318
1083.65053,0.05463
1081.59036,0.05615
1079.53019,0.05761
1077.47002,0.05920
1075.40985,0.06093
1073.34967,0.06254
1071.28950,0.06404
1069.22933,0.06537
1067.16916,0.06623
1065.10898,0.06665
1063.04881,0.06719
1060.98864,0.06809
1058.92847,0.06899
1056.86830,0.06978
1054.80812,0.07061
1052.74795,0.07173
1050.68778,0.07314
1048.62761,0.07454
1046.56744,0.07574
1044.50726,0.07701
1042.44709,0.07844
1040.38692,0.07963
1038.32675,0.08051
1036.26657,0.08116
1034.20640,0.08131
1032.14623,0.08092
1030.08606,0.08033
1028.02589,0.07978
1025.96571,0.07921
1023.90554,0.07867
1021.84537,0.07831
1019.78520,0.07796
1017.72503,0.07755
1015.66485,0.07733
1013.60468,0.07730
1011.54451,0.07725
1009.48434,0.07690
1007.42417,0.07607
1005.36399,0.07477
1003.30382,0.07310
1001.24365,0.07131
999.18348,0.06942
997.12330,0.06738
995.06313,0.06555
993.00296,0.06417
990.94279,0.06302
988.88262,0.06193
986.82244,0.06094
984.76227,0.06002
982.70210,0.05918
980.64193,0.05843
978.58176,0.05761
976.52158,0.05665
974.46141,0.05552
972.40124,0.05419
970.34107,0.05266
968.28089,0.05103
966.22072,0.04959
964.16055,0.04840
962.10038,0.04718
960.04021,0.04571
957.98003,0.04425
955.91986,0.04310
953.85969,0.04218
951.79952,0.04101
949.73935,0.03954
947.67917,0.03802
945.61900,0.03628
943.55883,0.03413
941.49866,0.03145
939.43849,0.02827
937.37831,0.02500
935.31814,0.02211
933.25797,0.01963
931.19780,0.01746
929.13762,0.01556
927.07745,0.01383
925.01728,0.01250
922.95711,0.01166
920.89694,0.01092
918.83676,0.01012
916.77659,0.00931
914.71642,0.00835
912.65625,0.00733
910.59608,0.00676
908.53590,0.00660
906.47573,0.00627
904.41556,0.00588
902.35539,0.00602
900.29522,0.00666
898.23504,0.00738
896.17487,0.00811
894.11470,0.00862
892.05453,0.00861
889.99435,0.00837
887.93418,0.00816
885.87401,0.00782
883.81384,0.00716
881.75367,0.00614
879.69349,0.00499
877.63332,0.00411
875.57315,0.00345
873.51298,0.00285
871.45281,0.00245
869.39263,0.00234
867.33246,0.00233
865.27229,0.00210
863.21212,0.00186
861.15194,0.00192
859.09177,0.00212
857.03160,0.00234
854.97143,0.00220
852.91126,0.00177
850.85108,0.00162
848.79091,0.00152
846.73074,0.00124
844.67057,0.00111
842.61040,0.00099
840.55022,0.00069
838.49005,0.00030
836.42988,0.00000
834.36971,-0.00024
832.30954,-0.00044
830.24936,-0.00064
828.18919,-0.00043
826.12902,-0.00008
824.06885,-0.00002
822.00867,-0.00005
819.94850,0.00018
817.88833,0.00065
815.82816,0.00115
813.76799,0.00154
811.70781,0.00179
809.64764,0.00208
807.58747,0.00239
805.52730,0.00245
803.46713,0.00253
801.40695,0.00272
799.34678,0.00232
797.28661,0.00131
795.22644,0.00048
793.16627,0.00020
791.10609,0.00014
789.04592,-0.00004
786.98575,-0.00026
784.92558,-0.00026
782.86540,-0.00008
780.80523,0.00021
778.74506,0.00047
776.68489,0.00049
774.62472,0.00037
772.56454,0.00003
770.50437,-0.00052
768.44420,-0.00069
766.38403,-0.00041
764.32386,-0.00003
762.26368,0.00010
760.20351,0.00006
758.14334,0.00015
756.08317,0.00013
754.02299,-0.00004
751.96282,0.00000
749.90265,-0.00007
747.84248,-0.00039
745.78231,-0.00070
743.72213,-0.00091
741.66196,-0.00111
739.60179,-0.00117
737.54162,-0.00098
735.48145,-0.00112
733.42127,-0.00167
731.36110,-0.00190
729.30093,-0.00187
727.24076,-0.00179
725.18059,-0.00144
723.12041,-0.00109
721.06024,-0.00091
719.00007,-0.00082
716.93990,-0.00064
714.87972,-0.00038
712.81955,0.00013
710.75938,0.00085
708.69921,0.00133
706.63904,0.00160
704.57886,0.00205
702.51869,0.00257
700.45852,0.00252
698.39835,0.00201
696.33818,0.00182
694.27800,0.00207
692.21783,0.00218
690.15766,0.00184
688.09749,0.00131
686.03731,0.00088
683.97714,0.00045
681.91697,0.00009
679.85680,-0.00007
677.79663,-0.00045
675.73645,-0.00116
673.67628,-0.00172
671.61611,-0.00176
669.55594,-0.00117
667.49577,-0.00035
665.43559,-0.00015
663.37542,-0.00044
661.31525,-0.00065
659.25508,-0.00046
657.19491,-0.00003
655.13473,0.00001
653.07456,-0.00041
651.01439,-0.00045
648.95422,0.00000
646.89404,0.00023
644.83387,0.00020
642.77370,0.00004
640.71353,-0.00048
638.65336,-0.00127
636.59318,-0.00183
634.53301,-0.00191
632.47284,-0.00195
630.41267,-0.00251
628.35250,-0.00357
626.29232,-0.00455
624.23215,-0.00495
622.17198,-0.00440
620.11181,-0.00314
618.05164,-0.00182
615.99146,-0.00071
613.93129,-0.00055
611.87112,-0.00080
609.81095,-0.00078
607.75077,-0.00076
605.69060,-0.00057
603.63043,-0.00060
601.57026,-0.00053
599.51009,0.00000
