3996.73391,0.00061
3994.67373,0.00047
3992.61356,0.00042
3990.55339,0.00048
3988.49322,0.00055
3986.43305,0.00052
3984.37287,0.00042
3982.31270,0.00032
3980.25253,0.00024
3978.19236,0.00024
3976.13219,0.00025
3974.07201,0.00021
3972.01184,0.00011
3969.95167,0.00002
3967.89150,0.00000
3965.83133,0.00005
3963.77115,0.00012
3961.71098,0.00038
3959.65081,0.00074
3957.59064,0.00079
3955.53046,0.00051
3953.47029,0.00032
3951.41012,0.00028
3949.34995,0.00024
3947.28978,0.00026
3945.22960,0.00038
3943.16943,0.00040
3941.10926,0.00037
3939.04909,0.00043
3936.98892,0.00053
3934.92874,0.00062
3932.86857,0.00059
3930.80840,0.00043
3928.74823,0.00037
3926.68805,0.00032
3924.62788,0.00017
3922.56771,0.00026
3920.50754,0.00062
3918.44737,0.00085
3916.38719,0.00078
3914.32702,0.00074
3912.26685,0.00081
3910.20668,0.00084
3908.14651,0.00086
3906.08633,0.00077
3904.02616,0.00050
3901.96599,0.00020
3899.90582,0.00001
3897.84565,0.00007
3895.78547,0.00044
3893.72530,0.00084
3891.66513,0.00108
3889.60496,0.00129
3887.54478,0.00147
3885.48461,0.00129
3883.42444,0.00095
3881.36427,0.00078
3879.30410,0.00074
3877.24392,0.00093
3875.18375,0.00117
3873.12358,0.00122
3871.06341,0.00115
3869.00324,0.00106
3866.94306,0.00110
3864.88289,0.00107
3862.82272,0.00085
3860.76255,0.00078
3858.70237,0.00108
3856.64220,0.00155
3854.58203,0.00162
3852.52186,0.00108
3850.46169,0.00080
3848.40151,0.00103
3846.34134,0.00132
3844.28117,0.00142
3842.22100,0.00134
3840.16083,0.00094
3838.10065,0.00029
3836.04048,0.00000
3833.98031,0.00038
3831.92014,0.00091
3829.85997,0.00114
3827.79979,0.00123
3825.73962,0.00141
3823.67945,0.00162
3821.61928,0.00166
3819.55910,0.00147
3817.49893,0.00126
3815.43876,0.00109
3813.37859,0.00108
3811.31842,0.00122
3809.25824,0.00133
3807.19807,0.00140
3805.13790,0.00152
3803.07773,0.00143
3801.01756,0.00085
3798.95738,0.00049
3796.89721,0.00073
3794.83704,0.00100
3792.77687,0.00101
3790.71670,0.00090
3788.65652,0.00089
3786.59635,0.00099
3784.53618,0.00101
3782.47601,0.00093
3780.41583,0.00086
3778.35566,0.00096
3776.29549,0.00135
3774.23532,0.00181
3772.17515,0.00189
3770.11497,0.00141
3768.05480,0.00090
3765.99463,0.00082
3763.93446,0.00110
3761.87429,0.00148
3759.81411,0.00151
3757.75394,0.00109
3755.69377,0.00067
3753.63360,0.00034
3751.57342,0.00002
3749.51325,0.00001
3747.45308,0.00045
3745.39291,0.00080
3743.33274,0.00070
3741.27256,0.00080
3739.21239,0.00146
3737.15222,0.00194
3735.09205,0.00156
3733.03188,0.00097
3730.97170,0.00103
3728.91153,0.00135
3726.85136,0.00131
3724.79119,0.00087
3722.73102,0.00053
3720.67084,0.00078
3718.61067,0.00144
3716.55050,0.00200
3714.49033,0.00200
3712.43015,0.00141
3710.36998,0.00098
3708.30981,0.00113
3706.24964,0.00131
3704.18947,0.00123
3702.12929,0.00114
3700.06912,0.00129
3698.00895,0.00158
3695.94878,0.00181
3693.88861,0.00201
3691.82843,0.00214
3689.76826,0.00193
3687.70809,0.00154
3685.64792,0.00157
3683.58775,0.00205
3681.52757,0.00256
3679.46740,0.00298
3677.40723,0.00321
3675.34706,0.00281
3673.28688,0.00237
3671.22671,0.00242
3669.16654,0.00239
3667.10637,0.00251
3665.04620,0.00303
3662.98602,0.00357
3660.92585,0.00402
3658.86568,0.00436
3656.80551,0.00443
3654.74534,0.00459
3652.68516,0.00518
3650.62499,0.00576
3648.56482,0.00576
3646.50465,0.00555
3644.44447,0.00564
3642.38430,0.00604
3640.32413,0.00674
3638.26396,0.00761
3636.20379,0.00831
3634.14361,0.00872
3632.08344,0.00913
3630.02327,0.00946
3627.96310,0.00939
3625.90293,0.00938
3623.84275,0.00987
3621.78258,0.01040
3619.72241,0.01051
3617.66224,0.01048
3615.60207,0.01087
3613.54189,0.01164
3611.48172,0.01240
3609.42155,0.01296
3607.36138,0.01340
3605.30120,0.01386
3603.24103,0.01433
3601.18086,0.01486
3599.12069,0.01564
3597.06052,0.01648
3595.00034,0.01687
3592.94017,0.01689
3590.88000,0.01714
3588.81983,0.01757
3586.75966,0.01797
3584.69948,0.01844
3582.63931,0.01895
3580.57914,0.01947
3578.51897,0.02001
3576.45879,0.02048
3574.39862,0.02090
3572.33845,0.02142
3570.27828,0.02206
3568.21811,0.02261
3566.15793,0.02300
3564.09776,0.02328
3562.03759,0.02362
3559.97742,0.02417
3557.91725,0.02479
3555.85707,0.02531
3553.79690,0.02573
3551.73673,0.02625
3549.67656,0.02679
3547.61639,0.02721
3545.55621,0.02770
3543.49604,0.02837
3541.43587,0.02892
3539.37570,0.02928
3537.31552,0.02970
3535.25535,0.03017
3533.19518,0.03046
3531.13501,0.03068
3529.07484,0.03116
3527.01466,0.03190
3524.95449,0.03253
3522.89432,0.03300
3520.83415,0.03347
3518.77398,0.03393
3516.71380,0.03431
3514.65363,0.03459
3512.59346,0.03487
3510.53329,0.03539
3508.47312,0.03606
3506.41294,0.03659
3504.35277,0.03700
3502.29260,0.03758
3500.23243,0.03830
3498.17225,0.03877
3496.11208,0.03886
3494.05191,0.03907
3491.99174,0.03975
3489.93157,0.04049
3487.87139,0.04093
3485.81122,0.04125
3483.75105,0.04155
3481.69088,0.04187
3479.63071,0.04232
3477.57053,0.04282
3475.51036,0.04319
3473.45019,0.04337
3471.39002,0.04361
3469.32984,0.04408
3467.26967,0.04452
3465.20950,0.04490
3463.14933,0.04541
3461.08916,0.04596
3459.02898,0.04636
3456.96881,0.04662
3454.90864,0.04678
3452.84847,0.04678
3450.78830,0.04684
3448.72812,0.04741
3446.66795,0.04843
3444.60778,0.04912
3442.54761,0.04910
3440.48744,0.04910
3438.42726,0.04957
3436.36709,0.05016
3434.30692,0.05063
3432.24675,0.05108
3430.18657,0.05139
3428.12640,0.05148
3426.06623,0.05164
3424.00606,0.05193
3421.94589,0.05218
3419.88571,0.05256
3417.82554,0.05310
3415.76537,0.05340
3413.70520,0.05353
3411.64503,0.05392
3409.58485,0.05438
3407.52468,0.05463
3405.46451,0.05487
3403.40434,0.05508
3401.34416,0.05506
3399.28399,0.05507
3397.22382,0.05526
3395.16365,0.05546
3393.10348,0.05566
3391.04330,0.05615
3388.98313,0.05686
3386.92296,0.05741
3384.86279,0.05759
3382.80262,0.05776
3380.74244,0.05806
3378.68227,0.05815
3376.62210,0.05810
3374.56193,0.05826
3372.50176,0.05860
3370.44158,0.05887
3368.38141,0.05887
3366.32124,0.05878
3364.26107,0.05882
3362.20089,0.05891
3360.14072,0.05906
3358.08055,0.05935
3356.02038,0.05959
3353.96021,0.05964
3351.90003,0.05956
3349.83986,0.05958
3347.77969,0.05968
3345.71952,0.05961
3343.65935,0.05949
3341.59917,0.05959
3339.53900,0.05984
3337.47883,0.06003
3335.41866,0.06019
3333.35849,0.06024
3331.29831,0.06026
3329.23814,0.06030
3327.17797,0.06024
3325.11780,0.06013
3323.05762,0.06008
3320.99745,0.06016
3318.93728,0.06035
3316.87711,0.06048
3314.81694,0.06051
3312.75676,0.06046
3310.69659,0.06036
3308.63642,0.06029
3306.57625,0.06031
3304.51608,0.06033
3302.45590,0.06031
3300.39573,0.06035
3298.33556,0.06041
3296.27539,0.06041
3294.21521,0.06033
3292.15504,0.06013
3290.09487,0.06000
3288.03470,0.06006
3285.97453,0.06016
3283.91435,0.06022
3281.85418,0.06041
3279.79401,0.06062
3277.73384,0.06043
3275.67367,0.05996
3273.61349,0.05980
3271.55332,0.06007
3269.49315,0.06035
3267.43298,0.06039
3265.37281,0.06018
3263.31263,0.05989
3261.25246,0.05971
3259.19229,0.05946
3257.13212,0.05916
3255.07194,0.05920
3253.01177,0.05956
3250.95160,0.05983
3248.89143,0.05976
3246.83126,0.05929
3244.77108,0.05877
3242.71091,0.05858
3240.65074,0.05859
3238.59057,0.05850
3236.53040,0.05825
3234.47022,0.05792
3232.41005,0.05767
3230.34988,0.05750
3228.28971,0.05737
3226.22954,0.05724
3224.16936,0.05712
3222.10919,0.05689
3220.04902,0.05646
3217.98885,0.05610
3215.92867,0.05597
3213.86850,0.05588
3211.80833,0.05575
3209.74816,0.05552
3207.68799,0.05511
3205.62781,0.05460
3203.56764,0.05418
3201.50747,0.05393
3199.44730,0.05355
3197.38713,0.05292
3195.32695,0.05235
3193.26678,0.05192
3191.20661,0.05150
3189.14644,0.05122
3187.08626,0.05103
3185.02609,0.05073
3182.96592,0.05036
3180.90575,0.05001
3178.84558,0.04964
3176.78540,0.04923
3174.72523,0.04878
3172.66506,0.04832
3170.60489,0.04796
3168.54472,0.04761
3166.48454,0.04725
3164.42437,0.04709
3162.36420,0.04704
3160.30403,0.04665
3158.24386,0.04577
3156.18368,0.04479
3154.12351,0.04419
3152.06334,0.04388
3150.00317,0.04362
3147.94299,0.04346
3145.88282,0.04315
3143.82265,0.04249
3141.76248,0.04178
3139.70231,0.04133
3137.64213,0.04105
3135.58196,0.04071
3133.52179,0.04033
3131.46162,0.03990
3129.40145,0.03936
3127.34127,0.03896
3125.28110,0.03887
3123.22093,0.03865
3121.16076,0.03796
3119.10058,0.03702
3117.04041,0.03631
3114.98024,0.03611
3112.92007,0.03605
3110.85990,0.03575
3108.79972,0.03530
3106.73955,0.03485
3104.67938,0.03430
3102.61921,0.03372
3100.55904,0.03340
3098.49886,0.03321
3096.43869,0.03285
3094.37852,0.03239
3092.31835,0.03200
3090.25818,0.03164
3088.19800,0.03133
3086.13783,0.03102
3084.07766,0.03064
3082.01749,0.03030
3079.95731,0.03004
3077.89714,0.02970
3075.83697,0.02926
3073.77680,0.02870
3071.71663,0.02810
3069.65645,0.02760
3067.59628,0.02721
3065.53611,0.02699
3063.47594,0.02683
3061.41577,0.02651
3059.35559,0.02613
3057.29542,0.02580
3055.23525,0.02539
3053.17508,0.02497
3051.11491,0.02466
3049.05473,0.02437
3046.99456,0.02400
3044.93439,0.02362
3042.87422,0.02335
3040.81404,0.02306
3038.75387,0.02280
3036.69370,0.02263
3034.63353,0.02240
3032.57336,0.02204
3030.51318,0.02178
3028.45301,0.02168
3026.39284,0.02153
3024.33267,0.02122
3022.27250,0.02093
3020.21232,0.02076
3018.15215,0.02063
3016.09198,0.02047
3014.03181,0.02024
3011.97163,0.01993
3009.91146,0.01970
3007.85129,0.01966
3005.79112,0.01961
3003.73095,0.01937
3001.67077,0.01904
2999.61060,0.01889
2997.55043,0.01900
2995.49026,0.01903
2993.43009,0.01889
2991.36991,0.01884
2989.30974,0.01887
2987.24957,0.01896
2985.18940,0.01910
2983.12923,0.01921
2981.06905,0.01944
2979.00888,0.01971
2976.94871,0.01978
2974.88854,0.01986
2972.82836,0.02020
2970.76819,0.02068
2968.70802,0.02103
2966.64785,0.02124
2964.58768,0.02148
2962.52750,0.02178
2960.46733,0.02218
2958.40716,0.02258
2956.34699,0.02290
2954.28682,0.02327
2952.22664,0.02375
2950.16647,0.02435
2948.10630,0.02492
2946.04613,0.02539
2943.98596,0.02582
2941.92578,0.02612
2939.86561,0.02621
2937.80544,0.02626
2935.74527,0.02641
2933.68509,0.02649
2931.62492,0.02648
2929.56475,0.02652
2927.50458,0.02650
2925.44441,0.02623
2923.38423,0.02580
2921.32406,0.02542
2919.26389,0.02516
2917.20372,0.02492
2915.14355,0.02469
2913.08337,0.02452
2911.02320,0.02435
2908.96303,0.02413
2906.90286,0.02384
2904.84268,0.02357
2902.78251,0.02338
2900.72234,0.02321
2898.66217,0.02318
2896.60200,0.02331
2894.54182,0.02336
2892.48165,0.02311
2890.42148,0.02280
2888.36131,0.02266
2886.30114,0.02259
2884.24096,0.02262
2882.18079,0.02267
2880.12062,0.02246
2878.06045,0.02206
2876.00028,0.02177
2873.94010,0.02165
2871.87993,0.02142
2869.81976,0.02095
2867.75959,0.02044
2865.69941,0.02007
2863.63924,0.01975
2861.57907,0.01934
2859.51890,0.01890
2857.45873,0.01857
2855.39855,0.01840
2853.33838,0.01828
2851.27821,0.01796
2849.21804,0.01745
2847.15787,0.01704
2845.09769,0.01683
2843.03752,0.01672
2840.97735,0.01663
2838.91718,0.01640
2836.85700,0.01607
2834.79683,0.01581
2832.73666,0.01562
2830.67649,0.01540
2828.61632,0.01513
2826.55614,0.01487
2824.49597,0.01477
2822.43580,0.01469
2820.37563,0.01450
2818.31546,0.01435
2816.25528,0.01421
2814.19511,0.01402
2812.13494,0.01391
2810.07477,0.01390
2808.01460,0.01377
2805.95442,0.01359
2803.89425,0.01351
2801.83408,0.01344
2799.77391,0.01329
2797.71373,0.01312
2795.65356,0.01303
2793.59339,0.01300
2791.53322,0.01296
2789.47305,0.01287
2787.41287,0.01262
2785.35270,0.01234
2783.29253,0.01222
2781.23236,0.01222
2779.17219,0.01223
2777.11201,0.01219
2775.05184,0.01203
2772.99167,0.01180
2770.93150,0.01165
2768.87133,0.01161
2766.81115,0.01163
2764.75098,0.01157
2762.69081,0.01157
2760.63064,0.01164
2758.57046,0.01162
2756.51029,0.01147
2754.45012,0.01129
2752.38995,0.01117
2750.32978,0.01125
2748.26960,0.01137
2746.20943,0.01136
2744.14926,0.01121
2742.08909,0.01094
2740.02892,0.01079
2737.96874,0.01102
2735.90857,0.01122
2733.84840,0.01103
2731.78823,0.01075
2729.72805,0.01062
2727.66788,0.01058
2725.60771,0.01058
2723.54754,0.01064
2721.48737,0.01067
2719.42719,0.01061
2717.36702,0.01048
2715.30685,0.01032
2713.24668,0.01022
2711.18651,0.01019
2709.12633,0.01017
2707.06616,0.01008
2705.00599,0.00996
2702.94582,0.00993
2700.88565,0.00988
2698.82547,0.00978
2696.76530,0.00966
2694.70513,0.00955
2692.64496,0.00947
2690.58478,0.00944
2688.52461,0.00940
2686.46444,0.00935
2684.40427,0.00933
2682.34410,0.00931
2680.28392,0.00926
2678.22375,0.00914
2676.16358,0.00906
2674.10341,0.00906
2672.04324,0.00892
2669.98306,0.00873
2667.92289,0.00870
2665.86272,0.00875
2663.80255,0.00870
2661.74238,0.00861
2659.68220,0.00855
2657.62203,0.00857
2655.56186,0.00859
2653.50169,0.00855
2651.44151,0.00857
2649.38134,0.00865
2647.32117,0.00852
2645.26100,0.00817
2643.20083,0.00784
2641.14065,0.00779
2639.08048,0.00800
2637.02031,0.00808
2634.96014,0.00793
2632.89997,0.00780
2630.83979,0.00772
2628.77962,0.00764
2626.71945,0.00756
2624.65928,0.00753
2622.59910,0.00750
2620.53893,0.00737
2618.47876,0.00727
2616.41859,0.00714
2614.35842,0.00684
2612.29824,0.00658
2610.23807,0.00657
2608.17790,0.00654
2606.11773,0.00644
2604.05756,0.00651
2601.99738,0.00653
2599.93721,0.00644
2597.87704,0.00644
2595.81687,0.00627
2593.75670,0.00593
2591.69652,0.00580
2589.63635,0.00573
2587.57618,0.00546
2585.51601,0.00536
2583.45583,0.00552
2581.39566,0.00569
2579.33549,0.00600
2577.27532,0.00637
2575.21515,0.00633
2573.15497,0.00607
2571.09480,0.00609
2569.03463,0.00614
2566.97446,0.00585
2564.91429,0.00540
2562.85411,0.00515
2560.79394,0.00523
2558.73377,0.00547
2556.67360,0.00556
2554.61342,0.00542
2552.55325,0.00520
2550.49308,0.00503
2548.43291,0.00494
2546.37274,0.00484
2544.31256,0.00480
2542.25239,0.00490
2540.19222,0.00494
2538.13205,0.00499
2536.07188,0.00525
2534.01170,0.00543
2531.95153,0.00539
2529.89136,0.00542
2527.83119,0.00562
2525.77102,0.00562
2523.71084,0.00519
2521.65067,0.00490
2519.59050,0.00499
2517.53033,0.00512
2515.47015,0.00505
2513.40998,0.00486
2511.34981,0.00485
2509.28964,0.00491
2507.22947,0.00480
2505.16929,0.00469
2503.10912,0.00455
2501.04895,0.00443
2498.98878,0.00462
2496.92861,0.00497
2494.86843,0.00517
2492.80826,0.00518
2490.74809,0.00511
2488.68792,0.00490
2486.62775,0.00452
2484.56757,0.00421
2482.50740,0.00404
2480.44723,0.00398
2478.38706,0.00390
2476.32688,0.00373
2474.26671,0.00366
2472.20654,0.00392
2470.14637,0.00419
2468.08620,0.00402
2466.02602,0.00384
2463.96585,0.00405
2461.90568,0.00433
2459.84551,0.00427
2457.78534,0.00395
2455.72516,0.00368
2453.66499,0.00375
2451.60482,0.00415
2449.54465,0.00435
2447.48447,0.00412
2445.42430,0.00378
2443.36413,0.00354
2441.30396,0.00350
2439.24379,0.00351
2437.18361,0.00340
2435.12344,0.00337
2433.06327,0.00345
2431.00310,0.00348
2428.94293,0.00350
2426.88275,0.00342
2424.82258,0.00330
2422.76241,0.00339
2420.70224,0.00352
2418.64207,0.00364
2416.58189,0.00382
2414.52172,0.00382
2412.46155,0.00375
2410.40138,0.00377
2408.34120,0.00355
2406.28103,0.00307
2404.22086,0.00284
2402.16069,0.00298
2400.10052,0.00314
2398.04034,0.00318
2395.98017,0.00327
2393.92000,0.00333
2391.85983,0.00333
2389.79966,0.00334
2387.73948,0.00338
2385.67931,0.00340
2383.61914,0.00336
2381.55897,0.00329
2379.49880,0.00345
2377.43862,0.00371
2375.37845,0.00349
2373.31828,0.00314
2371.25811,0.00345
2369.19793,0.00432
2367.13776,0.00472
2365.07759,0.00410
2363.01742,0.00323
2360.95725,0.00357
2358.89707,0.00375
2356.83690,0.00367
2354.77673,0.00354
2352.71656,0.00332
2350.65639,0.00418
2348.59621,0.00506
2346.53604,0.00418
2344.47587,0.00422
2342.41570,0.00440
2340.35552,0.00390
2338.29535,0.00345
2336.23518,0.00332
2334.17501,0.00344
2332.11484,0.00371
2330.05466,0.00409
2327.99449,0.00436
2325.93432,0.00497
2323.87415,0.00512
2321.81398,0.00475
2319.75380,0.00397
2317.69363,0.00363
2315.63346,0.00357
2313.57329,0.00372
2311.51312,0.00377
2309.45294,0.00361
2307.39277,0.00374
2305.33260,0.00406
2303.27243,0.00415
2301.21225,0.00402
2299.15208,0.00411
2297.09191,0.00436
2295.03174,0.00457
2292.97157,0.00457
2290.91139,0.00434
2288.85122,0.00418
2286.79105,0.00424
2284.73088,0.00425
2282.67071,0.00400
2280.61053,0.00387
2278.55036,0.00422
2276.49019,0.00484
2274.43002,0.00513
2272.36984,0.00448
2270.30967,0.00338
2268.24950,0.00323
2266.18933,0.00392
2264.12916,0.00404
2262.06898,0.00352
2260.00881,0.00337
2257.94864,0.00372
2255.88847,0.00379
2253.82830,0.00343
2251.76812,0.00333
2249.70795,0.00357
2247.64778,0.00356
2245.58761,0.00337
2243.52744,0.00319
2241.46726,0.00312
2239.40709,0.00342
2237.34692,0.00359
2235.28675,0.00343
2233.22657,0.00323
2231.16640,0.00318
2229.10623,0.00329
2227.04606,0.00344
2224.98589,0.00355
2222.92571,0.00352
2220.86554,0.00359
2218.80537,0.00382
2216.74520,0.00378
2214.68503,0.00390
2212.62485,0.00413
2210.56468,0.00357
2208.50451,0.00270
2206.44434,0.00229
2204.38417,0.00248
2202.32399,0.00311
2200.26382,0.00325
2198.20365,0.00280
2196.14348,0.00271
2194.08330,0.00290
2192.02313,0.00298
2189.96296,0.00372
2187.90279,0.00485
2185.84262,0.00469
2183.78244,0.00361
2181.72227,0.00296
2179.66210,0.00286
2177.60193,0.00306
2175.54176,0.00296
2173.48158,0.00304
2171.42141,0.00391
2169.36124,0.00420
2167.30107,0.00364
2165.24089,0.00351
2163.18072,0.00370
2161.12055,0.00241
2159.06038,0.00038
2157.00021,0.00027
2154.94003,0.00165
2152.87986,0.00305
2150.81969,0.00340
2148.75952,0.00281
2146.69935,0.00215
2144.63917,0.00165
2142.57900,0.00138
2140.51883,0.00152
2138.45866,0.00203
2136.39849,0.00239
2134.33831,0.00268
2132.27814,0.00316
2130.21797,0.00320
2128.15780,0.00270
2126.09762,0.00238
2124.03745,0.00254
2121.97728,0.00288
2119.91711,0.00323
2117.85694,0.00378
2115.79676,0.00443
2113.73659,0.00491
2111.67642,0.00498
2109.61625,0.00459
2107.55608,0.00418
2105.49590,0.00389
2103.43573,0.00366
2101.37556,0.00358
2099.31539,0.00361
2097.25521,0.00386
2095.19504,0.00420
2093.13487,0.00410
2091.07470,0.00334
2089.01453,0.00294
2086.95435,0.00356
2084.89418,0.00404
2082.83401,0.00364
2080.77384,0.00321
2078.71367,0.00339
2076.65349,0.00396
2074.59332,0.00442
2072.53315,0.00443
2070.47298,0.00422
2068.41281,0.00403
2066.35263,0.00381
2064.29246,0.00382
2062.23229,0.00412
2060.17212,0.00444
2058.11194,0.00455
2056.05177,0.00438
2053.99160,0.00440
2051.93143,0.00460
2049.87126,0.00425
2047.81108,0.00367
2045.75091,0.00347
2043.69074,0.00339
2041.63057,0.00335
2039.57040,0.00326
2037.51022,0.00282
2035.45005,0.00260
2033.38988,0.00345
2031.32971,0.00450
2029.26954,0.00408
2027.20936,0.00267
2025.14919,0.00227
2023.08902,0.00289
2021.02885,0.00291
2018.96867,0.00252
2016.90850,0.00305
2014.84833,0.00416
2012.78816,0.00485
2010.72799,0.00471
2008.66781,0.00363
2006.60764,0.00211
2004.54747,0.00139
2002.48730,0.00204
2000.42713,0.00312
1998.36695,0.00336
1996.30678,0.00254
1994.24661,0.00187
1992.18644,0.00211
1990.12626,0.00243
1988.06609,0.00240
1986.00592,0.00285
1983.94575,0.00383
1981.88558,0.00423
1979.82540,0.00364
1977.76523,0.00307
1975.70506,0.00318
1973.64489,0.00313
1971.58472,0.00239
1969.52454,0.00125
1967.46437,0.00022
1965.40420,0.00000
1963.34403,0.00049
1961.28386,0.00096
1959.22368,0.00118
1957.16351,0.00130
1955.10334,0.00129
1953.04317,0.00104
1950.98299,0.00071
1948.92282,0.00080
1946.86265,0.00146
1944.80248,0.00198
1942.74231,0.00175
1940.68213,0.00106
1938.62196,0.00059
1936.56179,0.00065
1934.50162,0.00095
1932.44145,0.00127
1930.38127,0.00167
1928.32110,0.00187
1926.26093,0.00192
1924.20076,0.00221
1922.14059,0.00230
1920.08041,0.00171
1918.02024,0.00100
1915.96007,0.00075
1913.89990,0.00092
1911.83972,0.00126
1909.77955,0.00141
1907.71938,0.00111
1905.65921,0.00073
1903.59904,0.00080
1901.53886,0.00114
1899.47869,0.00122
1897.41852,0.00101
1895.35835,0.00079
1893.29818,0.00065
1891.23800,0.00064
1889.17783,0.00092
1887.11766,0.00126
1885.05749,0.00137
1882.99731,0.00137
1880.93714,0.00130
1878.87697,0.00104
1876.81680,0.00078
1874.75663,0.00075
1872.69645,0.00090
1870.63628,0.00085
1868.57611,0.00068
1866.51594,0.00077
1864.45577,0.00089
1862.39559,0.00086
1860.33542,0.00083
1858.27525,0.00083
1856.21508,0.00088
1854.15491,0.00096
1852.09473,0.00093
1850.03456,0.00064
1847.97439,0.00023
1845.91422,0.00000
1843.85404,0.00002
1841.79387,0.00010
1839.73370,0.00016
1837.67353,0.00021
1835.61336,0.00029
1833.55318,0.00035
1831.49301,0.00035
1829.43284,0.00025
1827.37267,0.00014
1825.31250,0.00012
1823.25232,0.00024
1821.19215,0.00032
1819.13198,0.00024
1817.07181,0.00018
1815.01163,0.00021
1812.95146,0.00012
1810.89129,-0.00003
1808.83112,0.00007
1806.77095,0.00038
1804.71077,0.00050
1802.65060,0.00024
1800.59043,-0.00006
1798.53026,-0.00015
1796.47009,-0.00022
1794.40991,-0.00039
1792.34974,-0.00051
1790.28957,-0.00037
1788.22940,-0.00006
1786.16923,0.00018
1784.10905,0.00026
1782.04888,0.00025
1779.98871,0.00021
1777.92854,0.00024
1775.86836,0.00038
1773.80819,0.00051
1771.74802,0.00053
1769.68785,0.00064
1767.62768,0.00112
1765.56750,0.00186
1763.50733,0.00255
1761.44716,0.00313
1759.38699,0.00382
1757.32682,0.00477
1755.26664,0.00576
1753.20647,0.00652
1751.14630,0.00719
1749.08613,0.00810
1747.02596,0.00920
1744.96578,0.01020
1742.90561,0.01101
1740.84544,0.01169
1738.78527,0.01224
1736.72509,0.01255
1734.66492,0.01270
1732.60475,0.01299
1730.54458,0.01339
1728.48441,0.01365
1726.42423,0.01363
1724.36406,0.01334
1722.30389,0.01287
1720.24372,0.01225
1718.18355,0.01133
1716.12337,0.01030
1714.06320,0.00955
1712.00303,0.00910
1709.94286,0.00873
1707.88268,0.00824
1705.82251,0.00762
1703.76234,0.00714
1701.70217,0.00665
1699.64200,0.00602
1697.58182,0.00574
1695.52165,0.00605
1693.46148,0.00666
1691.40131,0.00729
1689.34114,0.00782
1687.28096,0.00819
1685.22079,0.00855
1683.16062,0.00932
1681.10045,0.01029
1679.04028,0.01109
1676.98010,0.01185
1674.91993,0.01278
1672.85976,0.01375
1670.79959,0.01478
1668.73941,0.01601
1666.67924,0.01706
1664.61907,0.01787
1662.55890,0.01879
1660.49873,0.01986
1658.43855,0.02084
1656.37838,0.02159
1654.31821,0.02221
1652.25804,0.02294
1650.19787,0.02351
1648.13769,0.02392
1646.07752,0.02468
1644.01735,0.02570
1641.95718,0.02647
1639.89701,0.02684
1637.83683,0.02696
1635.77666,0.02717
1633.71649,0.02764
1631.65632,0.02802
1629.59614,0.02825
1627.53597,0.02839
1625.47580,0.02838
1623.41563,0.02829
1621.35546,0.02832
1619.29528,0.02841
1617.23511,0.02853
1615.17494,0.02870
1613.11477,0.02874
1611.05460,0.02855
1608.99442,0.02815
1606.93425,0.02758
1604.87408,0.02683
1602.81391,0.02587
1600.75373,0.02479
1598.69356,0.02359
1596.63339,0.02221
1594.57322,0.02076
1592.51305,0.01927
1590.45287,0.01774
1588.39270,0.01635
1586.33253,0.01516
1584.27236,0.01401
1582.21219,0.01276
1580.15201,0.01145
1578.09184,0.01009
1576.03167,0.00887
1573.97150,0.00816
1571.91133,0.00769
1569.85115,0.00694
1567.79098,0.00617
1565.73081,0.00577
1563.67064,0.00555
1561.61046,0.00509
1559.55029,0.00409
1557.49012,0.00312
1555.42995,0.00293
1553.36978,0.00303
1551.30960,0.00298
1549.24943,0.00276
1547.18926,0.00245
1545.12909,0.00202
1543.06892,0.00144
1541.00874,0.00096
1538.94857,0.00092
1536.88840,0.00102
1534.82823,0.00083
1532.76805,0.00059
1530.70788,0.00061
1528.64771,0.00054
1526.58754,0.00022
1524.52737,0.00000
1522.46719,0.00005
1520.40702,0.00030
1518.34685,0.00040
1516.28668,0.00035
1514.22651,0.00044
1512.16633,0.00053
1510.10616,0.00031
1508.04599,-0.00006
1505.98582,-0.00001
1503.92565,0.00047
1501.86547,0.00083
1499.80530,0.00084
1497.74513,0.00070
1495.68496,0.00079
1493.62478,0.00109
1491.56461,0.00129
1489.50444,0.00139
1487.44427,0.00170
1485.38410,0.00227
1483.32392,0.00292
1481.26375,0.00358
1479.20358,0.00421
1477.14341,0.00470
1475.08324,0.00508
1473.02306,0.00573
1470.96289,0.00683
1468.90272,0.00789
1466.84255,0.00868
1464.78238,0.00938
1462.72220,0.00998
1460.66203,0.01025
1458.60186,0.01047
1456.54169,0.01118
1454.48151,0.01213
1452.42134,0.01281
1450.36117,0.01330
1448.30100,0.01379
1446.24083,0.01434
1444.18065,0.01487
1442.12048,0.01532
1440.06031,0.01565
1438.00014,0.01591
1435.93997,0.01640
1433.87979,0.01719
1431.81962,0.01803
1429.75945,0.01892
1427.69928,0.01981
1425.63910,0.02058
1423.57893,0.02125
1421.51876,0.02189
1419.45859,0.02255
1417.39842,0.02311
1415.33824,0.02338
1413.27807,0.02344
1411.21790,0.02339
1409.15773,0.02322
1407.09756,0.02284
1405.03738,0.02226
1402.97721,0.02157
1400.91704,0.02079
1398.85687,0.01991
1396.79670,0.01908
1394.73652,0.01852
1392.67635,0.01833
1390.61618,0.01841
1388.55601,0.01862
1386.49583,0.01902
1384.43566,0.01957
1382.37549,0.02011
1380.31532,0.02058
1378.25515,0.02103
1376.19497,0.02150
1374.13480,0.02199
1372.07463,0.02241
1370.01446,0.02253
1367.95429,0.02233
1365.89411,0.02187
1363.83394,0.02117
1361.77377,0.02049
1359.71360,0.02011
1357.65343,0.01993
1355.59325,0.01981
1353.53308,0.01967
1351.47291,0.01951
1349.41274,0.01928
1347.35256,0.01889
1345.29239,0.01838
1343.23222,0.01786
1341.17205,0.01750
1339.11188,0.01737
1337.05170,0.01733
1334.99153,0.01730
1332.93136,0.01738
1330.87119,0.01756
1328.81102,0.01769
1326.75084,0.01769
1324.69067,0.01765
1322.63050,0.01762
1320.57033,0.01758
1318.51015,0.01762
1316.44998,0.01776
1314.38981,0.01776
1312.32964,0.01758
1310.26947,0.01732
1308.20929,0.01697
1306.14912,0.01650
1304.08895,0.01597
1302.02878,0.01543
1299.96861,0.01494
1297.90843,0.01464
1295.84826,0.01453
1293.78809,0.01445
1291.72792,0.01439
1289.66775,0.01437
1287.60757,0.01433
1285.54740,0.01426
1283.48723,0.01418
1281.42706,0.01410
1279.36688,0.01406
1277.30671,0.01427
1275.24654,0.01479
1273.18637,0.01545
1271.12620,0.01608
1269.06602,0.01675
1267.00585,0.01762
1264.94568,0.01876
1262.88551,0.02000
1260.82534,0.02124
1258.76516,0.02243
1256.70499,0.02354
1254.64482,0.02447
1252.58465,0.02508
1250.52447,0.02543
1248.46430,0.02563
1246.40413,0.02566
1244.34396,0.02552
1242.28379,0.02530
1240.22361,0.02491
1238.16344,0.02424
1236.10327,0.02340
1234.04310,0.02249
1231.98293,0.02149
1229.92275,0.02054
1227.86258,0.01962
1225.80241,0.01856
1223.74224,0.01737
1221.68207,0.01617
1219.62189,0.01502
1217.56172,0.01391
1215.50155,0.01284
1213.44138,0.01178
1211.38120,0.01058
1209.32103,0.00922
1207.26086,0.00784
1205.20069,0.00640
1203.14052,0.00492
1201.08034,0.00353
1199.02017,0.00238
1196.96000,0.00154
1194.89983,0.00086
1192.83966,0.00032
1190.77948,0.00000
1188.71931,-0.00011
1186.65914,-0.00000
1184.59897,0.00018
1182.53880,0.00055
1180.47862,0.00126
1178.41845,0.00231
1176.35828,0.00372
1174.29811,0.00532
1172.23793,0.00696
1170.17776,0.00879
1168.11759,0.01081
1166.05742,0.01281
1163.99725,0.01471
1161.93707,0.01647
1159.87690,0.01806
1157.81673,0.01952
1155.75656,0.02090
1153.69639,0.02224
1151.63621,0.02352
1149.57604,0.02460
1147.51587,0.02546
1145.45570,0.02613
1143.39552,0.02674
1141.33535,0.02730
1139.27518,0.02761
1137.21501,0.02770
1135.15484,0.02790
1133.09466,0.02841
1131.03449,0.02927
1128.97432,0.03039
1126.91415,0.03163
1124.85398,0.03296
1122.79380,0.03430
1120.73363,0.03551
1118.67346,0.03656
1116.61329,0.03741
1114.55312,0.03821
1112.49294,0.03922
1110.43277,0.04037
1108.37260,0.04154
1106.31243,0.04282
1104.25225,0.04435
1102.19208,0.04609
1100.13191,0.04809
1098.07174,0.05051
1096.01157,0.05306
1093.95139,0.05546
1091.89122,0.05774
1089.83105,0.05979
1087.77088,0.06147
1085.71071,0.06300
1083.65053,0.06457
1081.59036,0.06628
1079.53019,0.06823
1077.47002,0.07036
1075.40985,0.07255
1073.34967,0.07460
1071.28950,0.07641
1069.22933,0.07801
1067.16916,0.07918
1065.10898,0.07989
1063.04881,0.08062
1060.98864,0.08162
1058.92847,0.08273
1056.86830,0.08401
1054.80812,0.08538
1052.74795,0.08669
1050.68778,0.08818
1048.62761,0.08992
1046.56744,0.09158
1044.50726,0.09312
1042.44709,0.09473
1040.38692,0.09621
1038.32675,0.09739
1036.26657,0.09828
1034.20640,0.09861
1032.14623,0.09839
1030.08606,0.09794
1028.02589,0.09730
1025.96571,0.09672
1023.90554,0.09644
1021.84537,0.09615
1019.78520,0.09578
1017.72503,0.09566
1015.66485,0.09579
1013.60468,0.09573
1011.54451,0.09528
1009.48434,0.09462
1007.42417,0.09376
1005.36399,0.09248
1003.30382,0.09079
1001.24365,0.08879
999.18348,0.08659
997.12330,0.08434
995.06313,0.08232
993.00296,0.08064
990.94279,0.07913
988.88262,0.07767
986.82244,0.07645
984.76227,0.07540
982.70210,0.07422
980.64193,0.07312
978.58176,0.07220
976.52158,0.07119
974.46141,0.06993
972.40124,0.06843
970.34107,0.06682
968.28089,0.06503
966.22072,0.06302
964.16055,0.06127
962.10038,0.05983
960.04021,0.05822
957.98003,0.05649
955.91986,0.05485
953.85969,0.05325
951.79952,0.05158
949.73935,0.04979
947.67917,0.04793
945.61900,0.04573
943.55883,0.04280
941.49866,0.03910
939.43849,0.03497
937.37831,0.03102
935.31814,0.02758
933.25797,0.02453
931.19780,0.02183
929.13762,0.01954
927.07745,0.01766
925.01728,0.01626
922.95711,0.01495
920.89694,0.01345
918.83676,0.01208
916.77659,0.01093
914.71642,0.00980
912.65625,0.00877
910.59608,0.00794
908.53590,0.00736
906.47573,0.00708
904.41556,0.00715
902.35539,0.00757
900.29522,0.00835
898.23504,0.00926
896.17487,0.00990
894.11470,0.01029
892.05453,0.01040
889.99435,0.01006
887.93418,0.00942
885.87401,0.00877
883.81384,0.00816
881.75367,0.00719
879.69349,0.00578
877.63332,0.00450
875.57315,0.00370
873.51298,0.00323
871.45281,0.00271
869.39263,0.00220
867.33246,0.00201
865.27229,0.00191
863.21212,0.00186
861.15194,0.00186
859.09177,0.00174
857.03160,0.00165
854.97143,0.00137
852.91126,0.00086
850.85108,0.00070
848.79091,0.00070
846.73074,0.00036
844.67057,0.00000
842.61040,-0.00030
840.55022,-0.00062
838.49005,-0.00100
836.42988,-0.00125
834.36971,-0.00146
832.30954,-0.00182
830.24936,-0.00215
828.18919,-0.00210
826.12902,-0.00174
824.06885,-0.00146
822.00867,-0.00160
819.94850,-0.00155
817.88833,-0.00070
815.82816,0.00023
813.76799,0.00069
811.70781,0.00089
809.64764,0.00109
807.58747,0.00137
805.52730,0.00148
803.46713,0.00151
801.40695,0.00154
799.34678,0.00127
797.28661,0.00066
795.22644,0.00000
793.16627,-0.00032
791.10609,-0.00023
789.04592,-0.00028
786.98575,-0.00042
784.92558,-0.00020
782.86540,-0.00003
780.80523,-0.00015
778.74506,-0.00015
776.68489,0.00018
774.62472,0.00056
772.56454,0.00031
770.50437,-0.00027
768.44420,-0.00036
766.38403,-0.00022
764.32386,-0.00035
762.26368,-0.00055
760.20351,-0.00037
758.14334,0.00001
756.08317,-0.00009
754.02299,-0.00040
751.96282,0.00000
749.90265,0.00046
747.84248,0.00011
745.78231,-0.00073
743.72213,-0.00145
741.66196,-0.00190
739.60179,-0.00196
737.54162,-0.00174
735.48145,-0.00162
733.42127,-0.00171
731.36110,-0.00176
729.30093,-0.00159
727.24076,-0.00152
725.18059,-0.00153
723.12041,-0.00114
721.06024,-0.00109
719.00007,-0.00099
716.93990,-0.00045
714.87972,0.00037
712.81955,0.00118
710.75938,0.00200
708.69921,0.00265
706.63904,0.00281
704.57886,0.00267
702.51869,0.00251
700.45852,0.00238
698.39835,0.00249
696.33818,0.00307
694.27800,0.00370
692.21783,0.00367
690.15766,0.00287
688.09749,0.00180
686.03731,0.00092
683.97714,0.00035
681.91697,0.00008
679.85680,0.00004
677.79663,0.00006
675.73645,0.00009
673.67628,0.00027
671.61611,0.00081
669.55594,0.00002
667.49577,-0.00069
665.43559,0.00205
663.37542,0.00096
661.31525,-0.00069
659.25508,-0.00110
657.19491,-0.00065
655.13473,-0.00036
653.07456,-0.00051
651.01439,-0.00042
648.95422,0.00000
646.89404,-0.00005
644.83387,-0.00028
642.77370,0.00045
640.71353,0.00130
638.65336,0.00089
636.59318,-0.00018
634.53301,-0.00061
632.47284,-0.00040
630.41267,-0.00014
628.35250,0.00022
626.29232,0.00079
624.23215,0.00027
622.17198,-0.00170
620.11181,-0.00238
618.05164,-0.00152
615.99146,-0.00157
613.93129,-0.00158
611.87112,-0.00006
609.81095,0.00114
607.75077,0.00076
605.69060,0.00038
603.63043,0.00007
601.57026,-0.00033
599.51009,0.00000
