3996.73391,0.00065
3994.67373,0.00034
3992.61356,0.00051
3990.55339,0.00103
3988.49322,0.00106
3986.43305,0.00045
3984.37287,0.00002
3982.31270,0.00000
3980.25253,0.00013
3978.19236,0.00040
3976.13219,0.00078
3974.07201,0.00106
3972.01184,0.00096
3969.95167,0.00059
3967.89150,0.00033
3965.83133,0.00038
3963.77115,0.00051
3961.71098,0.00051
3959.65081,0.00063
3957.59064,0.00090
3955.53046,0.00081
3953.47029,0.00045
3951.41012,0.00053
3949.34995,0.00092
3947.28978,0.00088
3945.22960,0.00032
3943.16943,0.00009
3941.10926,0.00073
3939.04909,0.00164
3936.98892,0.00195
3934.92874,0.00166
3932.86857,0.00145
3930.80840,0.00169
3928.74823,0.00206
3926.68805,0.00226
3924.62788,0.00246
3922.56771,0.00263
3920.50754,0.00253
3918.44737,0.00217
3916.38719,0.00167
3914.32702,0.00124
3912.26685,0.00109
3910.20668,0.00103
3908.14651,0.00081
3906.08633,0.00054
3904.02616,0.00050
3901.96599,0.00098
3899.90582,0.00166
3897.84565,0.00184
3895.78547,0.00167
3893.72530,0.00164
3891.66513,0.00186
3889.60496,0.00195
3887.54478,0.00147
3885.48461,0.00060
3883.42444,0.00000
3881.36427,0.00020
3879.30410,0.00103
3877.24392,0.00176
3875.18375,0.00203
3873.12358,0.00182
3871.06341,0.00141
3869.00324,0.00110
3866.94306,0.00101
3864.88289,0.00134
3862.82272,0.00165
3860.76255,0.00159
3858.70237,0.00168
3856.64220,0.00193
3854.58203,0.00169
3852.52186,0.00128
3850.46169,0.00141
3848.40151,0.00140
3846.34134,0.00101
3844.28117,0.00071
3842.22100,0.00065
3840.16083,0.00066
3838.10065,0.00093
3836.04048,0.00154
3833.98031,0.00197
3831.92014,0.00184
3829.85997,0.00135
3827.79979,0.00106
3825.73962,0.00125
3823.67945,0.00154
3821.61928,0.00158
3819.55910,0.00158
3817.49893,0.00168
3815.43876,0.00152
3813.37859,0.00107
3811.31842,0.00089
3809.25824,0.00105
3807.19807,0.00121
3805.13790,0.00137
3803.07773,0.00176
3801.01756,0.00240
3798.95738,0.00286
3796.89721,0.00291
3794.83704,0.00273
3792.77687,0.00245
3790.71670,0.00204
3788.65652,0.00138
3786.59635,0.00068
3784.53618,0.00056
3782.47601,0.00113
3780.41583,0.00147
3778.35566,0.00100
3776.29549,0.00040
3774.23532,0.00029
3772.17515,0.00058
3770.11497,0.00072
3768.05480,0.00050
3765.99463,0.00036
3763.93446,0.00047
3761.87429,0.00078
3759.81411,0.00123
3757.75394,0.00154
3755.69377,0.00129
3753.63360,0.00066
3751.57342,0.00009
3749.51325,0.00000
3747.45308,0.00044
3745.39291,0.00059
3743.33274,0.00045
3741.27256,0.00091
3739.21239,0.00183
3737.15222,0.00280
3735.09205,0.00353
3733.03188,0.00374
3730.97170,0.00332
3728.91153,0.00254
3726.85136,0.00221
3724.79119,0.00263
3722.73102,0.00298
3720.67084,0.00265
3718.61067,0.00218
3716.55050,0.00205
3714.49033,0.00216
3712.43015,0.00252
3710.36998,0.00279
3708.30981,0.00240
3706.24964,0.00201
3704.18947,0.00225
3702.12929,0.00272
3700.06912,0.00277
3698.00895,0.00226
3695.94878,0.00162
3693.88861,0.00110
3691.82843,0.00056
3689.76826,0.00030
3687.70809,0.00088
3685.64792,0.00169
3683.58775,0.00208
3681.52757,0.00220
3679.46740,0.00219
3677.40723,0.00198
3675.34706,0.00177
3673.28688,0.00199
3671.22671,0.00298
3669.16654,0.00403
3667.10637,0.00395
3665.04620,0.00314
3662.98602,0.00229
3660.92585,0.00179
3658.86568,0.00204
3656.80551,0.00285
3654.74534,0.00355
3652.68516,0.00384
3650.62499,0.00356
3648.56482,0.00284
3646.50465,0.00258
3644.44447,0.00307
3642.38430,0.00358
3640.32413,0.00355
3638.26396,0.00342
3636.20379,0.00365
3634.14361,0.00399
3632.08344,0.00434
3630.02327,0.00491
3627.96310,0.00528
3625.90293,0.00520
3623.84275,0.00508
3621.78258,0.00516
3619.72241,0.00564
3617.66224,0.00630
3615.60207,0.00649
3613.54189,0.00596
3611.48172,0.00534
3609.42155,0.00576
3607.36138,0.00708
3605.30120,0.00795
3603.24103,0.00808
3601.18086,0.00820
3599.12069,0.00851
3597.06052,0.00857
3595.00034,0.00837
3592.94017,0.00836
3590.88000,0.00863
3588.81983,0.00884
3586.75966,0.00876
3584.69948,0.00864
3582.63931,0.00884
3580.57914,0.00938
3578.51897,0.00995
3576.45879,0.01007
3574.39862,0.00985
3572.33845,0.00994
3570.27828,0.01046
3568.21811,0.01139
3566.15793,0.01261
3564.09776,0.01326
3562.03759,0.01311
3559.97742,0.01298
3557.91725,0.01321
3555.85707,0.01356
3553.79690,0.01413
3551.73673,0.01521
3549.67656,0.01642
3547.61639,0.01720
3545.55621,0.01740
3543.49604,0.01742
3541.43587,0.01757
3539.37570,0.01777
3537.31552,0.01796
3535.25535,0.01813
3533.19518,0.01835
3531.13501,0.01877
3529.07484,0.01939
3527.01466,0.01989
3524.95449,0.02001
3522.89432,0.02018
3520.83415,0.02079
3518.77398,0.02129
3516.71380,0.02138
3514.65363,0.02179
3512.59346,0.02288
3510.53329,0.02396
3508.47312,0.02435
3506.41294,0.02436
3504.35277,0.02463
3502.29260,0.02535
3500.23243,0.02608
3498.17225,0.02637
3496.11208,0.02634
3494.05191,0.02630
3491.99174,0.02671
3489.93157,0.02761
3487.87139,0.02825
3485.81122,0.02832
3483.75105,0.02832
3481.69088,0.02852
3479.63071,0.02879
3477.57053,0.02909
3475.51036,0.02969
3473.45019,0.03059
3471.39002,0.03131
3469.32984,0.03173
3467.26967,0.03215
3465.20950,0.03262
3463.14933,0.03281
3461.08916,0.03280
3459.02898,0.03304
3456.96881,0.03359
3454.90864,0.03419
3452.84847,0.03469
3450.78830,0.03503
3448.72812,0.03527
3446.66795,0.03536
3444.60778,0.03541
3442.54761,0.03582
3440.48744,0.03642
3438.42726,0.03679
3436.36709,0.03687
3434.30692,0.03738
3432.24675,0.03862
3430.18657,0.03941
3428.12640,0.03960
3426.06623,0.03996
3424.00606,0.04008
3421.94589,0.03988
3419.88571,0.03985
3417.82554,0.04007
3415.76537,0.04061
3413.70520,0.04096
3411.64503,0.04099
3409.58485,0.04131
3407.52468,0.04170
3405.46451,0.04200
3403.40434,0.04228
3401.34416,0.04218
3399.28399,0.04217
3397.22382,0.04278
3395.16365,0.04353
3393.10348,0.04410
3391.04330,0.04435
3388.98313,0.04409
3386.92296,0.04367
3384.86279,0.04369
3382.80262,0.04430
3380.74244,0.04528
3378.68227,0.04606
3376.62210,0.04616
3374.56193,0.04601
3372.50176,0.04628
3370.44158,0.04670
3368.38141,0.04678
3366.32124,0.04676
3364.26107,0.04716
3362.20089,0.04770
3360.14072,0.04782
3358.08055,0.04771
3356.02038,0.04770
3353.96021,0.04769
3351.90003,0.04745
3349.83986,0.04709
3347.77969,0.04726
3345.71952,0.04783
3343.65935,0.04828
3341.59917,0.04877
3339.53900,0.04920
3337.47883,0.04931
3335.41866,0.04937
3333.35849,0.04941
3331.29831,0.04940
3329.23814,0.04949
3327.17797,0.04946
3325.11780,0.04919
3323.05762,0.04900
3320.99745,0.04900
3318.93728,0.04906
3316.87711,0.04914
3314.81694,0.04908
3312.75676,0.04876
3310.69659,0.04863
3308.63642,0.04921
3306.57625,0.05005
3304.51608,0.05014
3302.45590,0.04965
3300.39573,0.04954
3298.33556,0.04979
3296.27539,0.04991
3294.21521,0.04978
3292.15504,0.04966
3290.09487,0.05000
3288.03470,0.05061
3285.97453,0.05062
3283.91435,0.04981
3281.85418,0.04916
3279.79401,0.04942
3277.73384,0.04994
3275.67367,0.04999
3273.61349,0.04984
3271.55332,0.04973
3269.49315,0.04946
3267.43298,0.04928
3265.37281,0.04943
3263.31263,0.04949
3261.25246,0.04918
3259.19229,0.04883
3257.13212,0.04889
3255.07194,0.04906
3253.01177,0.04912
3250.95160,0.04907
3248.89143,0.04857
3246.83126,0.04788
3244.77108,0.04756
3242.71091,0.04774
3240.65074,0.04824
3238.59057,0.04844
3236.53040,0.04821
3234.47022,0.04821
3232.41005,0.04861
3230.34988,0.04881
3228.28971,0.04868
3226.22954,0.04843
3224.16936,0.04788
3222.10919,0.04735
3220.04902,0.04740
3217.98885,0.04754
3215.92867,0.04721
3213.86850,0.04657
3211.80833,0.04603
3209.74816,0.04605
3207.68799,0.04631
3205.62781,0.04631
3203.56764,0.04638
3201.50747,0.04663
3199.44730,0.04643
3197.38713,0.04572
3195.32695,0.04503
3193.26678,0.04452
3191.20661,0.04429
3189.14644,0.04430
3187.08626,0.04428
3185.02609,0.04426
3182.96592,0.04426
3180.90575,0.04434
3178.84558,0.04456
3176.78540,0.04478
3174.72523,0.04456
3172.66506,0.04363
3170.60489,0.04266
3168.54472,0.04237
3166.48454,0.04241
3164.42437,0.04230
3162.36420,0.04197
3160.30403,0.04168
3158.24386,0.04134
3156.18368,0.04073
3154.12351,0.04028
3152.06334,0.04014
3150.00317,0.03981
3147.94299,0.03931
3145.88282,0.03904
3143.82265,0.03874
3141.76248,0.03808
3139.70231,0.03775
3137.64213,0.03816
3135.58196,0.03848
3133.52179,0.03821
3131.46162,0.03780
3129.40145,0.03753
3127.34127,0.03704
3125.28110,0.03640
3123.22093,0.03624
3121.16076,0.03640
3119.10058,0.03649
3117.04041,0.03647
3114.98024,0.03628
3112.92007,0.03607
3110.85990,0.03583
3108.79972,0.03555
3106.73955,0.03520
3104.67938,0.03460
3102.61921,0.03391
3100.55904,0.03342
3098.49886,0.03335
3096.43869,0.03346
3094.37852,0.03317
3092.31835,0.03263
3090.25818,0.03237
3088.19800,0.03237
3086.13783,0.03234
3084.07766,0.03228
3082.01749,0.03211
3079.95731,0.03167
3077.89714,0.03134
3075.83697,0.03146
3073.77680,0.03157
3071.71663,0.03125
3069.65645,0.03087
3067.59628,0.03062
3065.53611,0.03028
3063.47594,0.02987
3061.41577,0.02945
3059.35559,0.02894
3057.29542,0.02860
3055.23525,0.02850
3053.17508,0.02838
3051.11491,0.02817
3049.05473,0.02787
3046.99456,0.02755
3044.93439,0.02726
3042.87422,0.02697
3040.81404,0.02656
3038.75387,0.02612
3036.69370,0.02620
3034.63353,0.02664
3032.57336,0.02672
3030.51318,0.02648
3028.45301,0.02629
3026.39284,0.02606
3024.33267,0.02575
3022.27250,0.02565
3020.21232,0.02580
3018.15215,0.02580
3016.09198,0.02546
3014.03181,0.02502
3011.97163,0.02481
3009.91146,0.02491
3007.85129,0.02509
3005.79112,0.02489
3003.73095,0.02438
3001.67077,0.02406
2999.61060,0.02387
2997.55043,0.02368
2995.49026,0.02359
2993.43009,0.02350
2991.36991,0.02341
2989.30974,0.02338
2987.24957,0.02345
2985.18940,0.02346
2983.12923,0.02325
2981.06905,0.02325
2979.00888,0.02377
2976.94871,0.02463
2974.88854,0.02566
2972.82836,0.02650
2970.76819,0.02683
2968.70802,0.02711
2966.64785,0.02800
2964.58768,0.02950
2962.52750,0.03126
2960.46733,0.03299
2958.40716,0.03448
2956.34699,0.03574
2954.28682,0.03712
2952.22664,0.03883
2950.16647,0.04057
2948.10630,0.04213
2946.04613,0.04379
2943.98596,0.04585
2941.92578,0.04827
2939.86561,0.05055
2937.80544,0.05246
2935.74527,0.05455
2933.68509,0.05700
2931.62492,0.05923
2929.56475,0.06074
2927.50458,0.06180
2925.44441,0.06297
2923.38423,0.06420
2921.32406,0.06509
2919.26389,0.06526
2917.20372,0.06446
2915.14355,0.06257
2913.08337,0.05993
2911.02320,0.05757
2908.96303,0.05586
2906.90286,0.05423
2904.84268,0.05263
2902.78251,0.05114
2900.72234,0.04942
2898.66217,0.04766
2896.60200,0.04634
2894.54182,0.04542
2892.48165,0.04443
2890.42148,0.04309
2888.36131,0.04189
2886.30114,0.04128
2884.24096,0.04091
2882.18079,0.04055
2880.12062,0.04033
2878.06045,0.04011
2876.00028,0.03998
2873.94010,0.04020
2871.87993,0.04059
2869.81976,0.04078
2867.75959,0.04089
2865.69941,0.04147
2863.63924,0.04268
2861.57907,0.04427
2859.51890,0.04598
2857.45873,0.04777
2855.39855,0.04966
2853.33838,0.05115
2851.27821,0.05154
2849.21804,0.05038
2847.15787,0.04794
2845.09769,0.04500
2843.03752,0.04186
2840.97735,0.03884
2838.91718,0.03652
2836.85700,0.03489
2834.79683,0.03377
2832.73666,0.03282
2830.67649,0.03169
2828.61632,0.03058
2826.55614,0.02991
2824.49597,0.02964
2822.43580,0.02940
2820.37563,0.02897
2818.31546,0.02838
2816.25528,0.02770
2814.19511,0.02724
2812.13494,0.02712
2810.07477,0.02704
2808.01460,0.02673
2805.95442,0.02639
2803.89425,0.02610
2801.83408,0.02565
2799.77391,0.02526
2797.71373,0.02510
2795.65356,0.02492
2793.59339,0.02459
2791.53322,0.02422
2789.47305,0.02393
2787.41287,0.02374
2785.35270,0.02367
2783.29253,0.02352
2781.23236,0.02331
2779.17219,0.02325
2777.11201,0.02316
2775.05184,0.02279
2772.99167,0.02237
2770.93150,0.02237
2768.87133,0.02272
2766.81115,0.02286
2764.75098,0.02254
2762.69081,0.02210
2760.63064,0.02200
2758.57046,0.02221
2756.51029,0.02240
2754.45012,0.02251
2752.38995,0.02252
2750.32978,0.02243
2748.26960,0.02233
2746.20943,0.02220
2744.14926,0.02209
2742.08909,0.02196
2740.02892,0.02177
2737.96874,0.02171
2735.90857,0.02177
2733.84840,0.02174
2731.78823,0.02169
2729.72805,0.02171
2727.66788,0.02165
2725.60771,0.02132
2723.54754,0.02076
2721.48737,0.02054
2719.42719,0.02098
2717.36702,0.02153
2715.30685,0.02153
2713.24668,0.02116
2711.18651,0.02091
2709.12633,0.02059
2707.06616,0.02016
2705.00599,0.02014
2702.94582,0.02050
2700.88565,0.02088
2698.82547,0.02101
2696.76530,0.02095
2694.70513,0.02091
2692.64496,0.02074
2690.58478,0.02057
2688.52461,0.02064
2686.46444,0.02064
2684.40427,0.02061
2682.34410,0.02071
2680.28392,0.02085
2678.22375,0.02098
2676.16358,0.02098
2674.10341,0.02078
2672.04324,0.02030
2669.98306,0.01988
2667.92289,0.01994
2665.86272,0.02028
2663.80255,0.02047
2661.74238,0.02033
2659.68220,0.01988
2657.62203,0.01945
2655.56186,0.01922
2653.50169,0.01914
2651.44151,0.01916
2649.38134,0.01918
2647.32117,0.01924
2645.26100,0.01932
2643.20083,0.01929
2641.14065,0.01896
2639.08048,0.01847
2637.02031,0.01825
2634.96014,0.01816
2632.89997,0.01800
2630.83979,0.01817
2628.77962,0.01875
2626.71945,0.01902
2624.65928,0.01863
2622.59910,0.01813
2620.53893,0.01785
2618.47876,0.01772
2616.41859,0.01775
2614.35842,0.01779
2612.29824,0.01783
2610.23807,0.01801
2608.17790,0.01788
2606.11773,0.01721
2604.05756,0.01685
2601.99738,0.01689
2599.93721,0.01674
2597.87704,0.01684
2595.81687,0.01712
2593.75670,0.01692
2591.69652,0.01651
2589.63635,0.01625
2587.57618,0.01596
2585.51601,0.01588
2583.45583,0.01633
2581.39566,0.01700
2579.33549,0.01736
2577.27532,0.01723
2575.21515,0.01653
2573.15497,0.01558
2571.09480,0.01521
2569.03463,0.01538
2566.97446,0.01545
2564.91429,0.01568
2562.85411,0.01594
2560.79394,0.01565
2558.73377,0.01513
2556.67360,0.01480
2554.61342,0.01462
2552.55325,0.01455
2550.49308,0.01451
2548.43291,0.01468
2546.37274,0.01511
2544.31256,0.01538
2542.25239,0.01521
2540.19222,0.01482
2538.13205,0.01470
2536.07188,0.01509
2534.01170,0.01564
2531.95153,0.01573
2529.89136,0.01557
2527.83119,0.01572
2525.77102,0.01564
2523.71084,0.01512
2521.65067,0.01476
2519.59050,0.01488
2517.53033,0.01518
2515.47015,0.01499
2513.40998,0.01450
2511.34981,0.01414
2509.28964,0.01422
2507.22947,0.01464
2505.16929,0.01461
2503.10912,0.01440
2501.04895,0.01459
2498.98878,0.01483
2496.92861,0.01498
2494.86843,0.01485
2492.80826,0.01463
2490.74809,0.01466
2488.68792,0.01470
2486.62775,0.01464
2484.56757,0.01477
2482.50740,0.01487
2480.44723,0.01452
2478.38706,0.01412
2476.32688,0.01401
2474.26671,0.01387
2472.20654,0.01389
2470.14637,0.01440
2468.08620,0.01447
2466.02602,0.01385
2463.96585,0.01356
2461.90568,0.01353
2459.84551,0.01351
2457.78534,0.01373
2455.72516,0.01365
2453.66499,0.01316
2451.60482,0.01325
2449.54465,0.01439
2447.48447,0.01540
2445.42430,0.01510
2443.36413,0.01433
2441.30396,0.01400
2439.24379,0.01354
2437.18361,0.01297
2435.12344,0.01273
2433.06327,0.01292
2431.00310,0.01345
2428.94293,0.01408
2426.88275,0.01437
2424.82258,0.01388
2422.76241,0.01286
2420.70224,0.01214
2418.64207,0.01232
2416.58189,0.01325
2414.52172,0.01408
2412.46155,0.01407
2410.40138,0.01341
2408.34120,0.01286
2406.28103,0.01279
2404.22086,0.01303
2402.16069,0.01335
2400.10052,0.01355
2398.04034,0.01360
2395.98017,0.01357
2393.92000,0.01359
2391.85983,0.01353
2389.79966,0.01326
2387.73948,0.01311
2385.67931,0.01329
2383.61914,0.01331
2381.55897,0.01308
2379.49880,0.01318
2377.43862,0.01321
2375.37845,0.01211
2373.31828,0.01095
2371.25811,0.01207
2369.19793,0.01461
2367.13776,0.01494
2365.07759,0.01245
2363.01742,0.00952
2360.95725,0.00629
2358.89707,0.00349
2356.83690,0.00449
2354.77673,0.00899
2352.71656,0.01295
2350.65639,0.01369
2348.59621,0.01194
2346.53604,0.01008
2344.47587,0.01069
2342.41570,0.01393
2340.35552,0.01691
2338.29535,0.01785
2336.23518,0.01615
2334.17501,0.01318
2332.11484,0.01231
2330.05466,0.01459
2327.99449,0.01722
2325.93432,0.01797
2323.87415,0.01682
2321.81398,0.01474
2319.75380,0.01329
2317.69363,0.01299
2315.63346,0.01312
2313.57329,0.01335
2311.51312,0.01385
2309.45294,0.01438
2307.39277,0.01404
2305.33260,0.01285
2303.27243,0.01194
2301.21225,0.01218
2299.15208,0.01320
2297.09191,0.01379
2295.03174,0.01347
2292.97157,0.01294
2290.91139,0.01288
2288.85122,0.01315
2286.79105,0.01340
2284.73088,0.01371
2282.67071,0.01381
2280.61053,0.01296
2278.55036,0.01173
2276.49019,0.01162
2274.43002,0.01215
2272.36984,0.01188
2270.30967,0.01145
2268.24950,0.01169
2266.18933,0.01187
2264.12916,0.01164
2262.06898,0.01149
2260.00881,0.01148
2257.94864,0.01095
2255.88847,0.01002
2253.82830,0.01028
2251.76812,0.01185
2249.70795,0.01236
2247.64778,0.01059
2245.58761,0.00944
2243.52744,0.01048
2241.46726,0.01112
2239.40709,0.01051
2237.34692,0.00960
2235.28675,0.00904
2233.22657,0.00959
2231.16640,0.01056
2229.10623,0.01111
2227.04606,0.01076
2224.98589,0.00970
2222.92571,0.00979
2220.86554,0.01162
2218.80537,0.01286
2216.74520,0.01141
2214.68503,0.00859
2212.62485,0.00756
2210.56468,0.00865
2208.50451,0.00881
2206.44434,0.00738
2204.38417,0.00735
2202.32399,0.00972
2200.26382,0.01236
2198.20365,0.01339
2196.14348,0.01296
2194.08330,0.01134
2192.02313,0.00889
2189.96296,0.00761
2187.90279,0.00795
2185.84262,0.00895
2183.78244,0.01078
2181.72227,0.01256
2179.66210,0.01247
2177.60193,0.01039
2175.54176,0.00838
2173.48158,0.00759
2171.42141,0.00673
2169.36124,0.00696
2167.30107,0.00959
2165.24089,0.01156
2163.18072,0.01109
2161.12055,0.00873
2159.06038,0.00488
2157.00021,0.00162
2154.94003,0.00000
2152.87986,0.00053
2150.81969,0.00354
2148.75952,0.00678
2146.69935,0.00830
2144.63917,0.00850
2142.57900,0.00884
2140.51883,0.00901
2138.45866,0.00782
2136.39849,0.00665
2134.33831,0.00705
2132.27814,0.00872
2130.21797,0.01084
2128.15780,0.01170
2126.09762,0.01075
2124.03745,0.01005
2121.97728,0.01051
2119.91711,0.01102
2117.85694,0.01118
2115.79676,0.01110
2113.73659,0.01086
2111.67642,0.01053
2109.61625,0.00988
2107.55608,0.00929
2105.49590,0.00924
2103.43573,0.00968
2101.37556,0.01072
2099.31539,0.01118
2097.25521,0.01004
2095.19504,0.00891
2093.13487,0.00877
2091.07470,0.00878
2089.01453,0.00891
2086.95435,0.00946
2084.89418,0.01013
2082.83401,0.01046
2080.77384,0.01043
2078.71367,0.01008
2076.65349,0.00915
2074.59332,0.00801
2072.53315,0.00802
2070.47298,0.00885
2068.41281,0.00888
2066.35263,0.00885
2064.29246,0.00914
2062.23229,0.00880
2060.17212,0.00839
2058.11194,0.00823
2056.05177,0.00810
2053.99160,0.00844
2051.93143,0.00888
2049.87126,0.00846
2047.81108,0.00805
2045.75091,0.00855
2043.69074,0.00876
2041.63057,0.00800
2039.57040,0.00719
2037.51022,0.00638
2035.45005,0.00650
2033.38988,0.00761
2031.32971,0.00720
2029.26954,0.00679
2027.20936,0.00811
2025.14919,0.00869
2023.08902,0.00802
2021.02885,0.00756
2018.96867,0.00787
2016.90850,0.00888
2014.84833,0.00889
2012.78816,0.00720
2010.72799,0.00636
2008.66781,0.00742
2006.60764,0.00850
2004.54747,0.00818
2002.48730,0.00757
2000.42713,0.00797
1998.36695,0.00822
1996.30678,0.00711
1994.24661,0.00615
1992.18644,0.00718
1990.12626,0.00881
1988.06609,0.00933
1986.00592,0.00914
1983.94575,0.00878
1981.88558,0.00793
1979.82540,0.00571
1977.76523,0.00264
1975.70506,0.00044
1973.64489,0.00000
1971.58472,0.00112
1969.52454,0.00307
1967.46437,0.00475
1965.40420,0.00562
1963.34403,0.00590
1961.28386,0.00590
1959.22368,0.00647
1957.16351,0.00782
1955.10334,0.00883
1953.04317,0.00853
1950.98299,0.00718
1948.92282,0.00621
1946.86265,0.00608
1944.80248,0.00644
1942.74231,0.00738
1940.68213,0.00745
1938.62196,0.00533
1936.56179,0.00313
1934.50162,0.00319
1932.44145,0.00459
1930.38127,0.00519
1928.32110,0.00477
1926.26093,0.00423
1924.20076,0.00380
1922.14059,0.00350
1920.08041,0.00359
1918.02024,0.00378
1915.96007,0.00369
1913.89990,0.00345
1911.83972,0.00307
1909.77955,0.00291
1907.71938,0.00343
1905.65921,0.00398
1903.59904,0.00371
1901.53886,0.00321
1899.47869,0.00347
1897.41852,0.00436
1895.35835,0.00498
1893.29818,0.00474
1891.23800,0.00421
1889.17783,0.00391
1887.11766,0.00367
1885.05749,0.00364
1882.99731,0.00375
1880.93714,0.00370
1878.87697,0.00383
1876.81680,0.00410
1874.75663,0.00392
1872.69645,0.00357
1870.63628,0.00355
1868.57611,0.00350
1866.51594,0.00316
1864.45577,0.00280
1862.39559,0.00271
1860.33542,0.00284
1858.27525,0.00268
1856.21508,0.00220
1854.15491,0.00201
1852.09473,0.00232
1850.03456,0.00247
1847.97439,0.00207
1845.91422,0.00183
1843.85404,0.00245
1841.79387,0.00315
1839.73370,0.00320
1837.67353,0.00298
1835.61336,0.00279
1833.55318,0.00240
1831.49301,0.00170
1829.43284,0.00132
1827.37267,0.00176
1825.31250,0.00234
1823.25232,0.00247
1821.19215,0.00232
1819.13198,0.00197
1817.07181,0.00156
1815.01163,0.00146
1812.95146,0.00171
1810.89129,0.00177
1808.83112,0.00142
1806.77095,0.00115
1804.71077,0.00123
1802.65060,0.00149
1800.59043,0.00176
1798.53026,0.00195
1796.47009,0.00206
1794.40991,0.00198
1792.34974,0.00159
1790.28957,0.00112
1788.22940,0.00088
1786.16923,0.00063
1784.10905,0.00022
1782.04888,0.00000
1779.98871,0.00013
1777.92854,0.00041
1775.86836,0.00065
1773.80819,0.00074
1771.74802,0.00072
1769.68785,0.00095
1767.62768,0.00132
1765.56750,0.00155
1763.50733,0.00192
1761.44716,0.00290
1759.38699,0.00445
1757.32682,0.00602
1755.26664,0.00711
1753.20647,0.00802
1751.14630,0.00956
1749.08613,0.01177
1747.02596,0.01376
1744.96578,0.01501
1742.90561,0.01552
1740.84544,0.01562
1738.78527,0.01561
1736.72509,0.01551
1734.66492,0.01524
1732.60475,0.01517
1730.54458,0.01551
1728.48441,0.01580
1726.42423,0.01584
1724.36406,0.01577
1722.30389,0.01567
1720.24372,0.01567
1718.18355,0.01587
1716.12337,0.01623
1714.06320,0.01655
1712.00303,0.01665
1709.94286,0.01650
1707.88268,0.01612
1705.82251,0.01546
1703.76234,0.01473
1701.70217,0.01447
1699.64200,0.01501
1697.58182,0.01581
1695.52165,0.01630
1693.46148,0.01679
1691.40131,0.01770
1689.34114,0.01912
1687.28096,0.02087
1685.22079,0.02314
1683.16062,0.02569
1681.10045,0.02740
1679.04028,0.02860
1676.98010,0.02988
1674.91993,0.03102
1672.85976,0.03159
1670.79959,0.03158
1668.73941,0.03103
1666.67924,0.03014
1664.61907,0.02934
1662.55890,0.02885
1660.49873,0.02844
1658.43855,0.02798
1656.37838,0.02756
1654.31821,0.02727
1652.25804,0.02731
1650.19787,0.02748
1648.13769,0.02733
1646.07752,0.02688
1644.01735,0.02669
1641.95718,0.02710
1639.89701,0.02777
1637.83683,0.02833
1635.77666,0.02896
1633.71649,0.02979
1631.65632,0.03036
1629.59614,0.03068
1627.53597,0.03104
1625.47580,0.03146
1623.41563,0.03173
1621.35546,0.03186
1619.29528,0.03225
1617.23511,0.03295
1615.17494,0.03345
1613.11477,0.03380
1611.05460,0.03457
1608.99442,0.03589
1606.93425,0.03708
1604.87408,0.03755
1602.81391,0.03719
1600.75373,0.03606
1598.69356,0.03446
1596.63339,0.03281
1594.57322,0.03136
1592.51305,0.03032
1590.45287,0.02954
1588.39270,0.02870
1586.33253,0.02778
1584.27236,0.02691
1582.21219,0.02614
1580.15201,0.02540
1578.09184,0.02463
1576.03167,0.02380
1573.97150,0.02293
1571.91133,0.02203
1569.85115,0.02116
1567.79098,0.02037
1565.73081,0.01951
1563.67064,0.01868
1561.61046,0.01802
1559.55029,0.01706
1557.49012,0.01572
1555.42995,0.01485
1553.36978,0.01435
1551.30960,0.01379
1549.24943,0.01303
1547.18926,0.01227
1545.12909,0.01164
1543.06892,0.01090
1541.00874,0.00981
1538.94857,0.00881
1536.88840,0.00830
1534.82823,0.00792
1532.76805,0.00751
1530.70788,0.00721
1528.64771,0.00698
1526.58754,0.00680
1524.52737,0.00702
1522.46719,0.00805
1520.40702,0.00956
1518.34685,0.01087
1516.28668,0.01190
1514.22651,0.01235
1512.16633,0.01183
1510.10616,0.01062
1508.04599,0.00928
1505.98582,0.00786
1503.92565,0.00654
1501.86547,0.00547
1499.80530,0.00438
1497.74513,0.00316
1495.68496,0.00214
1493.62478,0.00167
1491.56461,0.00150
1489.50444,0.00132
1487.44427,0.00115
1485.38410,0.00115
1483.32392,0.00132
1481.26375,0.00157
1479.20358,0.00190
1477.14341,0.00260
1475.08324,0.00415
1473.02306,0.00657
1470.96289,0.00890
1468.90272,0.01053
1466.84255,0.01209
1464.78238,0.01388
1462.72220,0.01535
1460.66203,0.01651
1458.60186,0.01779
1456.54169,0.01894
1454.48151,0.01960
1452.42134,0.02007
1450.36117,0.02067
1448.30100,0.02145
1446.24083,0.02222
1444.18065,0.02285
1442.12048,0.02348
1440.06031,0.02437
1438.00014,0.02547
1435.93997,0.02637
1433.87979,0.02669
1431.81962,0.02656
1429.75945,0.02640
1427.69928,0.02645
1425.63910,0.02676
1423.57893,0.02717
1421.51876,0.02730
1419.45859,0.02706
1417.39842,0.02681
1415.33824,0.02675
1413.27807,0.02661
1411.21790,0.02616
1409.15773,0.02561
1407.09756,0.02510
1405.03738,0.02433
1402.97721,0.02345
1400.91704,0.02291
1398.85687,0.02245
1396.79670,0.02153
1394.73652,0.02040
1392.67635,0.01974
1390.61618,0.01968
1388.55601,0.01993
1386.49583,0.02026
1384.43566,0.02076
1382.37549,0.02152
1380.31532,0.02248
1378.25515,0.02343
1376.19497,0.02393
1374.13480,0.02394
1372.07463,0.02385
1370.01446,0.02388
1367.95429,0.02390
1365.89411,0.02375
1363.83394,0.02328
1361.77377,0.02260
1359.71360,0.02214
1357.65343,0.02191
1355.59325,0.02159
1353.53308,0.02131
1351.47291,0.02135
1349.41274,0.02147
1347.35256,0.02132
1345.29239,0.02102
1343.23222,0.02078
1341.17205,0.02063
1339.11188,0.02052
1337.05170,0.02044
1334.99153,0.02049
1332.93136,0.02067
1330.87119,0.02079
1328.81102,0.02090
1326.75084,0.02109
1324.69067,0.02119
1322.63050,0.02115
1320.57033,0.02117
1318.51015,0.02131
1316.44998,0.02141
1314.38981,0.02136
1312.32964,0.02102
1310.26947,0.02035
1308.20929,0.01969
1306.14912,0.01922
1304.08895,0.01865
1302.02878,0.01780
1299.96861,0.01706
1297.90843,0.01661
1295.84826,0.01634
1293.78809,0.01628
1291.72792,0.01640
1289.66775,0.01673
1287.60757,0.01720
1285.54740,0.01765
1283.48723,0.01811
1281.42706,0.01835
1279.36688,0.01823
1277.30671,0.01820
1275.24654,0.01851
1273.18637,0.01894
1271.12620,0.01938
1269.06602,0.01987
1267.00585,0.02048
1264.94568,0.02123
1262.88551,0.02204
1260.82534,0.02292
1258.76516,0.02383
1256.70499,0.02457
1254.64482,0.02499
1252.58465,0.02508
1250.52447,0.02508
1248.46430,0.02552
1246.40413,0.02622
1244.34396,0.02658
1242.28379,0.02662
1240.22361,0.02656
1238.16344,0.02630
1236.10327,0.02573
1234.04310,0.02505
1231.98293,0.02446
1229.92275,0.02393
1227.86258,0.02327
1225.80241,0.02231
1223.74224,0.02100
1221.68207,0.01933
1219.62189,0.01754
1217.56172,0.01599
1215.50155,0.01484
1213.44138,0.01398
1211.38120,0.01313
1209.32103,0.01207
1207.26086,0.01074
1205.20069,0.00921
1203.14052,0.00756
1201.08034,0.00584
1199.02017,0.00432
1196.96000,0.00311
1194.89983,0.00200
1192.83966,0.00104
1190.77948,0.00046
1188.71931,0.00022
1186.65914,0.00011
1184.59897,0.00000
1182.53880,0.00000
1180.47862,0.00021
1178.41845,0.00059
1176.35828,0.00173
1174.29811,0.00395
1172.23793,0.00659
1170.17776,0.00913
1168.11759,0.01116
1166.05742,0.01218
1163.99725,0.01266
1161.93707,0.01347
1159.87690,0.01454
1157.81673,0.01523
1155.75656,0.01555
1153.69639,0.01612
1151.63621,0.01689
1149.57604,0.01774
1147.51587,0.01904
1145.45570,0.02044
1143.39552,0.02143
1141.33535,0.02232
1139.27518,0.02324
1137.21501,0.02390
1135.15484,0.02439
1133.09466,0.02499
1131.03449,0.02580
1128.97432,0.02698
1126.91415,0.02834
1124.85398,0.02944
1122.79380,0.03038
1120.73363,0.03141
1118.67346,0.03265
1116.61329,0.03408
1114.55312,0.03559
1112.49294,0.03691
1110.43277,0.03774
1108.37260,0.03830
1106.31243,0.03945
1104.25225,0.04116
1102.19208,0.04258
1100.13191,0.04395
1098.07174,0.04560
1096.01157,0.04716
1093.95139,0.04893
1091.89122,0.05123
1089.83105,0.05348
1087.77088,0.05539
1085.71071,0.05718
1083.65053,0.05888
1081.59036,0.06054
1079.53019,0.06237
1077.47002,0.06437
1075.40985,0.06637
1073.34967,0.06843
1071.28950,0.07066
1069.22933,0.07272
1067.16916,0.07438
1065.10898,0.07561
1063.04881,0.07687
1060.98864,0.07856
1058.92847,0.08030
1056.86830,0.08186
1054.80812,0.08333
1052.74795,0.08491
1050.68778,0.08690
1048.62761,0.08940
1046.56744,0.09185
1044.50726,0.09368
1042.44709,0.09532
1040.38692,0.09755
1038.32675,0.09987
1036.26657,0.10146
1034.20640,0.10236
1032.14623,0.10271
1030.08606,0.10284
1028.02589,0.10305
1025.96571,0.10304
1023.90554,0.10271
1021.84537,0.10232
1019.78520,0.10181
1017.72503,0.10145
1015.66485,0.10135
1013.60468,0.10105
1011.54451,0.10074
1009.48434,0.10103
1007.42417,0.10164
1005.36399,0.10172
1003.30382,0.10100
1001.24365,0.09995
999.18348,0.09872
997.12330,0.09737
995.06313,0.09598
993.00296,0.09436
990.94279,0.09230
988.88262,0.09021
986.82244,0.08876
984.76227,0.08780
982.70210,0.08632
980.64193,0.08428
978.58176,0.08265
976.52158,0.08142
974.46141,0.08003
972.40124,0.07873
970.34107,0.07763
968.28089,0.07605
966.22072,0.07373
964.16055,0.07149
962.10038,0.06988
960.04021,0.06848
957.98003,0.06670
955.91986,0.06478
953.85969,0.06317
951.79952,0.06193
949.73935,0.06111
947.67917,0.06043
945.61900,0.05908
943.55883,0.05673
941.49866,0.05414
939.43849,0.05127
937.37831,0.04751
935.31814,0.04381
933.25797,0.04065
931.19780,0.03761
929.13762,0.03477
927.07745,0.03276
925.01728,0.03139
922.95711,0.02951
920.89694,0.02712
918.83676,0.02521
916.77659,0.02359
914.71642,0.02190
912.65625,0.02056
910.59608,0.01937
908.53590,0.01758
906.47573,0.01559
904.41556,0.01487
902.35539,0.01572
900.29522,0.01669
898.23504,0.01676
896.17487,0.01653
894.11470,0.01612
892.05453,0.01558
889.99435,0.01537
887.93418,0.01509
885.87401,0.01463
883.81384,0.01387
881.75367,0.01243
879.69349,0.01096
877.63332,0.00998
875.57315,0.00919
873.51298,0.00843
871.45281,0.00798
869.39263,0.00799
867.33246,0.00844
865.27229,0.00874
863.21212,0.00816
861.15194,0.00735
859.09177,0.00740
857.03160,0.00793
854.97143,0.00820
852.91126,0.00788
850.85108,0.00751
848.79091,0.00769
846.73074,0.00767
844.67057,0.00761
842.61040,0.00785
840.55022,0.00722
838.49005,0.00610
836.42988,0.00571
834.36971,0.00563
832.30954,0.00560
830.24936,0.00627
828.18919,0.00733
826.12902,0.00701
824.06885,0.00522
822.00867,0.00389
819.94850,0.00343
817.88833,0.00307
815.82816,0.00305
813.76799,0.00412
811.70781,0.00538
809.64764,0.00530
807.58747,0.00450
805.52730,0.00406
803.46713,0.00377
801.40695,0.00361
799.34678,0.00317
797.28661,0.00193
795.22644,0.00056
793.16627,0.00000
791.10609,0.00018
789.04592,0.00087
786.98575,0.00198
784.92558,0.00280
782.86540,0.00280
780.80523,0.00295
778.74506,0.00336
776.68489,0.00275
774.62472,0.00188
772.56454,0.00160
770.50437,0.00169
768.44420,0.00253
766.38403,0.00359
764.32386,0.00384
762.26368,0.00316
760.20351,0.00272
758.14334,0.00304
756.08317,0.00200
754.02299,-0.00001
751.96282,0.00000
749.90265,0.00103
747.84248,0.00145
745.78231,0.00159
743.72213,0.00118
741.66196,0.00039
739.60179,0.00003
737.54162,0.00051
735.48145,0.00124
733.42127,0.00133
731.36110,0.00130
729.30093,0.00198
727.24076,0.00256
725.18059,0.00214
723.12041,0.00185
721.06024,0.00220
719.00007,0.00226
716.93990,0.00218
714.87972,0.00322
712.81955,0.00508
710.75938,0.00657
708.69921,0.00731
706.63904,0.00768
704.57886,0.00790
702.51869,0.00789
700.45852,0.00775
698.39835,0.00753
696.33818,0.00652
694.27800,0.00471
692.21783,0.00350
690.15766,0.00337
688.09749,0.00371
686.03731,0.00477
683.97714,0.00662
681.91697,0.00730
679.85680,0.00570
677.79663,0.00379
675.73645,0.00331
673.67628,0.00428
671.61611,0.00685
669.55594,0.00973
667.49577,0.00956
665.43559,0.00710
663.37542,0.00600
661.31525,0.00723
659.25508,0.00876
657.19491,0.00897
655.13473,0.00837
653.07456,0.00705
651.01439,0.00605
648.95422,0.00792
646.89404,0.01170
644.83387,0.01307
642.77370,0.01141
640.71353,0.00935
638.65336,0.00598
636.59318,0.00102
634.53301,0.00000
632.47284,0.00485
630.41267,0.01001
628.35250,0.01037
626.29232,0.00706
624.23215,0.00556
622.17198,0.00913
620.11181,0.01566
618.05164,0.01792
615.99146,0.01449
613.93129,0.01236
611.87112,0.01381
609.81095,0.01439
607.75077,0.01251
605.69060,0.00959
603.63043,0.00841
601.57026,0.00826
599.51009,0.00000
