3996.73391,0.00028
3994.67373,-0.00001
3992.61356,0.00000
3990.55339,0.00015
3988.49322,0.00010
3986.43305,0.00018
3984.37287,0.00071
3982.31270,0.00130
3980.25253,0.00145
3978.19236,0.00115
3976.13219,0.00090
3974.07201,0.00105
3972.01184,0.00136
3969.95167,0.00143
3967.89150,0.00128
3965.83133,0.00102
3963.77115,0.00072
3961.71098,0.00066
3959.65081,0.00088
3957.59064,0.00120
3955.53046,0.00186
3953.47029,0.00258
3951.41012,0.00269
3949.34995,0.00237
3947.28978,0.00248
3945.22960,0.00258
3943.16943,0.00220
3941.10926,0.00205
3939.04909,0.00207
3936.98892,0.00209
3934.92874,0.00199
3932.86857,0.00161
3930.80840,0.00178
3928.74823,0.00244
3926.68805,0.00243
3924.62788,0.00214
3922.56771,0.00227
3920.50754,0.00212
3918.44737,0.00206
3916.38719,0.00243
3914.32702,0.00269
3912.26685,0.00268
3910.20668,0.00256
3908.14651,0.00205
3906.08633,0.00137
3904.02616,0.00161
3901.96599,0.00228
3899.90582,0.00229
3897.84565,0.00265
3895.78547,0.00297
3893.72530,0.00221
3891.66513,0.00186
3889.60496,0.00322
3887.54478,0.00354
3885.48461,0.00276
3883.42444,0.00271
3881.36427,0.00204
3879.30410,0.00243
3877.24392,0.00365
3875.18375,0.00331
3873.12358,0.00251
3871.06341,0.00166
3869.00324,0.00215
3866.94306,0.00359
3864.88289,0.00376
3862.82272,0.00404
3860.76255,0.00464
3858.70237,0.00460
3856.64220,0.00311
3854.58203,0.00077
3852.52186,0.00116
3850.46169,0.00330
3848.40151,0.00389
3846.34134,0.00365
3844.28117,0.00359
3842.22100,0.00347
3840.16083,0.00248
3838.10065,0.00220
3836.04048,0.00377
3833.98031,0.00470
3831.92014,0.00441
3829.85997,0.00413
3827.79979,0.00349
3825.73962,0.00296
3823.67945,0.00226
3821.61928,0.00158
3819.55910,0.00306
3817.49893,0.00335
3815.43876,0.00267
3813.37859,0.00322
3811.31842,0.00327
3809.25824,0.00235
3807.19807,0.00218
3805.13790,0.00352
3803.07773,0.00271
3801.01756,0.00152
3798.95738,0.00279
3796.89721,0.00323
3794.83704,0.00322
3792.77687,0.00333
3790.71670,0.00325
3788.65652,0.00334
3786.59635,0.00341
3784.53618,0.00372
3782.47601,0.00401
3780.41583,0.00341
3778.35566,0.00340
3776.29549,0.00418
3774.23532,0.00412
3772.17515,0.00289
3770.11497,0.00183
3768.05480,0.00229
3765.99463,0.00305
3763.93446,0.00384
3761.87429,0.00375
3759.81411,0.00309
3757.75394,0.00415
3755.69377,0.00578
3753.63360,0.00507
3751.57342,0.00283
3749.51325,0.00289
3747.45308,0.00395
3745.39291,0.00298
3743.33274,0.00318
3741.27256,0.00439
3739.21239,0.00375
3737.15222,0.00155
3735.09205,0.00000
3733.03188,0.00102
3730.97170,0.00341
3728.91153,0.00439
3726.85136,0.00344
3724.79119,0.00277
3722.73102,0.00291
3720.67084,0.00364
3718.61067,0.00475
3716.55050,0.00572
3714.49033,0.00563
3712.43015,0.00471
3710.36998,0.00485
3708.30981,0.00550
3706.24964,0.00512
3704.18947,0.00402
3702.12929,0.00327
3700.06912,0.00357
3698.00895,0.00389
3695.94878,0.00386
3693.88861,0.00373
3691.82843,0.00314
3689.76826,0.00274
3687.70809,0.00371
3685.64792,0.00470
3683.58775,0.00411
3681.52757,0.00302
3679.46740,0.00216
3677.40723,0.00075
3675.34706,0.00074
3673.28688,0.00346
3671.22671,0.00338
3669.16654,0.00243
3667.10637,0.00349
3665.04620,0.00379
3662.98602,0.00308
3660.92585,0.00279
3658.86568,0.00305
3656.80551,0.00398
3654.74534,0.00619
3652.68516,0.00656
3650.62499,0.00422
3648.56482,0.00330
3646.50465,0.00421
3644.44447,0.00439
3642.38430,0.00365
3640.32413,0.00352
3638.26396,0.00432
3636.20379,0.00519
3634.14361,0.00575
3632.08344,0.00580
3630.02327,0.00446
3627.96310,0.00428
3625.90293,0.00582
3623.84275,0.00580
3621.78258,0.00398
3619.72241,0.00301
3617.66224,0.00530
3615.60207,0.00787
3613.54189,0.00822
3611.48172,0.00759
3609.42155,0.00641
3607.36138,0.00556
3605.30120,0.00577
3603.24103,0.00595
3601.18086,0.00569
3599.12069,0.00561
3597.06052,0.00598
3595.00034,0.00678
3592.94017,0.00787
3590.88000,0.00828
3588.81983,0.00759
3586.75966,0.00763
3584.69948,0.00878
3582.63931,0.00938
3580.57914,0.00953
3578.51897,0.00985
3576.45879,0.01028
3574.39862,0.01081
3572.33845,0.01149
3570.27828,0.01153
3568.21811,0.01064
3566.15793,0.01065
3564.09776,0.01168
3562.03759,0.01212
3559.97742,0.01252
3557.91725,0.01340
3555.85707,0.01388
3553.79690,0.01346
3551.73673,0.01315
3549.67656,0.01333
3547.61639,0.01303
3545.55621,0.01248
3543.49604,0.01282
3541.43587,0.01411
3539.37570,0.01525
3537.31552,0.01557
3535.25535,0.01586
3533.19518,0.01662
3531.13501,0.01746
3529.07484,0.01816
3527.01466,0.01872
3524.95449,0.01909
3522.89432,0.01917
3520.83415,0.01901
3518.77398,0.01871
3516.71380,0.01842
3514.65363,0.01820
3512.59346,0.01832
3510.53329,0.01903
3508.47312,0.02029
3506.41294,0.02128
3504.35277,0.02161
3502.29260,0.02221
3500.23243,0.02287
3498.17225,0.02266
3496.11208,0.02221
3494.05191,0.02239
3491.99174,0.02281
3489.93157,0.02300
3487.87139,0.02315
3485.81122,0.02345
3483.75105,0.02368
3481.69088,0.02406
3479.63071,0.02491
3477.57053,0.02565
3475.51036,0.02603
3473.45019,0.02625
3471.39002,0.02623
3469.32984,0.02599
3467.26967,0.02577
3465.20950,0.02580
3463.14933,0.02593
3461.08916,0.02605
3459.02898,0.02653
3456.96881,0.02761
3454.90864,0.02879
3452.84847,0.02944
3450.78830,0.02948
3448.72812,0.02888
3446.66795,0.02826
3444.60778,0.02860
3442.54761,0.02950
3440.48744,0.03032
3438.42726,0.03096
3436.36709,0.03149
3434.30692,0.03165
3432.24675,0.03167
3430.18657,0.03167
3428.12640,0.03138
3426.06623,0.03144
3424.00606,0.03210
3421.94589,0.03231
3419.88571,0.03214
3417.82554,0.03258
3415.76537,0.03351
3413.70520,0.03409
3411.64503,0.03404
3409.58485,0.03398
3407.52468,0.03424
3405.46451,0.03487
3403.40434,0.03570
3401.34416,0.03614
3399.28399,0.03608
3397.22382,0.03581
3395.16365,0.03561
3393.10348,0.03581
3391.04330,0.03616
3388.98313,0.03603
3386.92296,0.03604
3384.86279,0.03656
3382.80262,0.03684
3380.74244,0.03678
3378.68227,0.03703
3376.62210,0.03739
3374.56193,0.03734
3372.50176,0.03746
3370.44158,0.03818
3368.38141,0.03873
3366.32124,0.03868
3364.26107,0.03839
3362.20089,0.03826
3360.14072,0.03876
3358.08055,0.03959
3356.02038,0.03998
3353.96021,0.03996
3351.90003,0.04002
3349.83986,0.04016
3347.77969,0.04029
3345.71952,0.04059
3343.65935,0.04085
3341.59917,0.04098
3339.53900,0.04114
3337.47883,0.04114
3335.41866,0.04082
3333.35849,0.04031
3331.29831,0.03987
3329.23814,0.03978
3327.17797,0.04018
3325.11780,0.04079
3323.05762,0.04093
3320.99745,0.04040
3318.93728,0.04009
3316.87711,0.04049
3314.81694,0.04096
3312.75676,0.04110
3310.69659,0.04092
3308.63642,0.04082
3306.57625,0.04128
3304.51608,0.04172
3302.45590,0.04175
3300.39573,0.04194
3298.33556,0.04215
3296.27539,0.04197
3294.21521,0.04175
3292.15504,0.04149
3290.09487,0.04113
3288.03470,0.04115
3285.97453,0.04165
3283.91435,0.04182
3281.85418,0.04144
3279.79401,0.04129
3277.73384,0.04138
3275.67367,0.04123
3273.61349,0.04092
3271.55332,0.04070
3269.49315,0.04046
3267.43298,0.04026
3265.37281,0.04028
3263.31263,0.04040
3261.25246,0.04066
3259.19229,0.04113
3257.13212,0.04166
3255.07194,0.04192
3253.01177,0.04164
3250.95160,0.04103
3248.89143,0.04062
3246.83126,0.04070
3244.77108,0.04095
3242.71091,0.04093
3240.65074,0.04058
3238.59057,0.04001
3236.53040,0.03948
3234.47022,0.03953
3232.41005,0.03997
3230.34988,0.04020
3228.28971,0.04023
3226.22954,0.03999
3224.16936,0.03954
3222.10919,0.03948
3220.04902,0.03960
3217.98885,0.03972
3215.92867,0.03985
3213.86850,0.03949
3211.80833,0.03882
3209.74816,0.03851
3207.68799,0.03865
3205.62781,0.03903
3203.56764,0.03935
3201.50747,0.03889
3199.44730,0.03760
3197.38713,0.03660
3195.32695,0.03646
3193.26678,0.03690
3191.20661,0.03746
3189.14644,0.03746
3187.08626,0.03691
3185.02609,0.03660
3182.96592,0.03686
3180.90575,0.03701
3178.84558,0.03661
3176.78540,0.03631
3174.72523,0.03627
3172.66506,0.03599
3170.60489,0.03554
3168.54472,0.03505
3166.48454,0.03451
3164.42437,0.03420
3162.36420,0.03438
3160.30403,0.03483
3158.24386,0.03500
3156.18368,0.03456
3154.12351,0.03400
3152.06334,0.03377
3150.00317,0.03376
3147.94299,0.03387
3145.88282,0.03393
3143.82265,0.03375
3141.76248,0.03351
3139.70231,0.03345
3137.64213,0.03334
3135.58196,0.03300
3133.52179,0.03267
3131.46162,0.03242
3129.40145,0.03200
3127.34127,0.03158
3125.28110,0.03136
3123.22093,0.03113
3121.16076,0.03102
3119.10058,0.03110
3117.04041,0.03096
3114.98024,0.03030
3112.92007,0.02943
3110.85990,0.02904
3108.79972,0.02917
3106.73955,0.02937
3104.67938,0.02955
3102.61921,0.02951
3100.55904,0.02912
3098.49886,0.02864
3096.43869,0.02835
3094.37852,0.02825
3092.31835,0.02806
3090.25818,0.02782
3088.19800,0.02766
3086.13783,0.02739
3084.07766,0.02707
3082.01749,0.02705
3079.95731,0.02700
3077.89714,0.02649
3075.83697,0.02604
3073.77680,0.02621
3071.71663,0.02657
3069.65645,0.02632
3067.59628,0.02572
3065.53611,0.02557
3063.47594,0.02552
3061.41577,0.02530
3059.35559,0.02532
3057.29542,0.02525
3055.23525,0.02479
3053.17508,0.02435
3051.11491,0.02408
3049.05473,0.02368
3046.99456,0.02335
3044.93439,0.02350
3042.87422,0.02358
3040.81404,0.02312
3038.75387,0.02264
3036.69370,0.02255
3034.63353,0.02259
3032.57336,0.02251
3030.51318,0.02237
3028.45301,0.02210
3026.39284,0.02179
3024.33267,0.02170
3022.27250,0.02176
3020.21232,0.02204
3018.15215,0.02223
3016.09198,0.02192
3014.03181,0.02146
3011.97163,0.02131
3009.91146,0.02124
3007.85129,0.02089
3005.79112,0.02060
3003.73095,0.02072
3001.67077,0.02076
2999.61060,0.02052
2997.55043,0.02023
2995.49026,0.01980
2993.43009,0.01973
2991.36991,0.02028
2989.30974,0.02055
2987.24957,0.02018
2985.18940,0.01984
2983.12923,0.02002
2981.06905,0.02075
2979.00888,0.02142
2976.94871,0.02166
2974.88854,0.02175
2972.82836,0.02178
2970.76819,0.02212
2968.70802,0.02309
2966.64785,0.02424
2964.58768,0.02493
2962.52750,0.02536
2960.46733,0.02631
2958.40716,0.02801
2956.34699,0.02983
2954.28682,0.03113
2952.22664,0.03199
2950.16647,0.03295
2948.10630,0.03412
2946.04613,0.03546
2943.98596,0.03723
2941.92578,0.03931
2939.86561,0.04151
2937.80544,0.04344
2935.74527,0.04491
2933.68509,0.04637
2931.62492,0.04796
2929.56475,0.04946
2927.50458,0.05078
2925.44441,0.05212
2923.38423,0.05353
2921.32406,0.05458
2919.26389,0.05498
2917.20372,0.05455
2915.14355,0.05351
2913.08337,0.05181
2911.02320,0.04920
2908.96303,0.04648
2906.90286,0.04453
2904.84268,0.04336
2902.78251,0.04262
2900.72234,0.04189
2898.66217,0.04110
2896.60200,0.04025
2894.54182,0.03935
2892.48165,0.03875
2890.42148,0.03831
2888.36131,0.03732
2886.30114,0.03608
2884.24096,0.03539
2882.18079,0.03490
2880.12062,0.03425
2878.06045,0.03402
2876.00028,0.03434
2873.94010,0.03457
2871.87993,0.03466
2869.81976,0.03498
2867.75959,0.03542
2865.69941,0.03598
2863.63924,0.03686
2861.57907,0.03809
2859.51890,0.03948
2857.45873,0.04076
2855.39855,0.04189
2853.33838,0.04303
2851.27821,0.04404
2849.21804,0.04402
2847.15787,0.04225
2845.09769,0.03947
2843.03752,0.03681
2840.97735,0.03443
2838.91718,0.03243
2836.85700,0.03120
2834.79683,0.03019
2832.73666,0.02897
2830.67649,0.02801
2828.61632,0.02746
2826.55614,0.02690
2824.49597,0.02627
2822.43580,0.02595
2820.37563,0.02592
2818.31546,0.02565
2816.25528,0.02490
2814.19511,0.02440
2812.13494,0.02447
2810.07477,0.02463
2808.01460,0.02458
2805.95442,0.02413
2803.89425,0.02347
2801.83408,0.02302
2799.77391,0.02275
2797.71373,0.02244
2795.65356,0.02192
2793.59339,0.02135
2791.53322,0.02142
2789.47305,0.02209
2787.41287,0.02233
2785.35270,0.02198
2783.29253,0.02164
2781.23236,0.02129
2779.17219,0.02085
2777.11201,0.02053
2775.05184,0.02044
2772.99167,0.02055
2770.93150,0.02062
2768.87133,0.02036
2766.81115,0.01987
2764.75098,0.01973
2762.69081,0.01995
2760.63064,0.01991
2758.57046,0.01962
2756.51029,0.01954
2754.45012,0.01972
2752.38995,0.01985
2750.32978,0.01979
2748.26960,0.01968
2746.20943,0.01981
2744.14926,0.02012
2742.08909,0.02001
2740.02892,0.01956
2737.96874,0.01941
2735.90857,0.01951
2733.84840,0.01936
2731.78823,0.01915
2729.72805,0.01901
2727.66788,0.01869
2725.60771,0.01837
2723.54754,0.01849
2721.48737,0.01880
2719.42719,0.01876
2717.36702,0.01859
2715.30685,0.01849
2713.24668,0.01833
2711.18651,0.01834
2709.12633,0.01859
2707.06616,0.01878
2705.00599,0.01876
2702.94582,0.01870
2700.88565,0.01863
2698.82547,0.01868
2696.76530,0.01882
2694.70513,0.01865
2692.64496,0.01838
2690.58478,0.01842
2688.52461,0.01843
2686.46444,0.01814
2684.40427,0.01788
2682.34410,0.01789
2680.28392,0.01809
2678.22375,0.01838
2676.16358,0.01851
2674.10341,0.01826
2672.04324,0.01796
2669.98306,0.01770
2667.92289,0.01746
2665.86272,0.01756
2663.80255,0.01778
2661.74238,0.01771
2659.68220,0.01746
2657.62203,0.01732
2655.56186,0.01747
2653.50169,0.01774
2651.44151,0.01783
2649.38134,0.01782
2647.32117,0.01788
2645.26100,0.01747
2643.20083,0.01646
2641.14065,0.01573
2639.08048,0.01578
2637.02031,0.01651
2634.96014,0.01730
2632.89997,0.01719
2630.83979,0.01653
2628.77962,0.01642
2626.71945,0.01675
2624.65928,0.01675
2622.59910,0.01623
2620.53893,0.01579
2618.47876,0.01582
2616.41859,0.01600
2614.35842,0.01616
2612.29824,0.01634
2610.23807,0.01631
2608.17790,0.01615
2606.11773,0.01597
2604.05756,0.01557
2601.99738,0.01519
2599.93721,0.01523
2597.87704,0.01548
2595.81687,0.01539
2593.75670,0.01496
2591.69652,0.01463
2589.63635,0.01460
2587.57618,0.01503
2585.51601,0.01567
2583.45583,0.01569
2581.39566,0.01523
2579.33549,0.01494
2577.27532,0.01475
2575.21515,0.01455
2573.15497,0.01426
2571.09480,0.01383
2569.03463,0.01349
2566.97446,0.01316
2564.91429,0.01298
2562.85411,0.01315
2560.79394,0.01312
2558.73377,0.01282
2556.67360,0.01304
2554.61342,0.01373
2552.55325,0.01451
2550.49308,0.01523
2548.43291,0.01538
2546.37274,0.01486
2544.31256,0.01421
2542.25239,0.01376
2540.19222,0.01344
2538.13205,0.01341
2536.07188,0.01357
2534.01170,0.01321
2531.95153,0.01271
2529.89136,0.01292
2527.83119,0.01341
2525.77102,0.01343
2523.71084,0.01306
2521.65067,0.01267
2519.59050,0.01233
2517.53033,0.01193
2515.47015,0.01165
2513.40998,0.01163
2511.34981,0.01169
2509.28964,0.01165
2507.22947,0.01179
2505.16929,0.01257
2503.10912,0.01323
2501.04895,0.01326
2498.98878,0.01317
2496.92861,0.01310
2494.86843,0.01291
2492.80826,0.01250
2490.74809,0.01188
2488.68792,0.01137
2486.62775,0.01127
2484.56757,0.01158
2482.50740,0.01207
2480.44723,0.01206
2478.38706,0.01165
2476.32688,0.01145
2474.26671,0.01148
2472.20654,0.01159
2470.14637,0.01192
2468.08620,0.01239
2466.02602,0.01254
2463.96585,0.01251
2461.90568,0.01257
2459.84551,0.01269
2457.78534,0.01255
2455.72516,0.01182
2453.66499,0.01104
2451.60482,0.01063
2449.54465,0.01033
2447.48447,0.01014
2445.42430,0.01018
2443.36413,0.01008
2441.30396,0.01013
2439.24379,0.01075
2437.18361,0.01120
2435.12344,0.01107
2433.06327,0.01100
2431.00310,0.01086
2428.94293,0.01038
2426.88275,0.01015
2424.82258,0.01053
2422.76241,0.01114
2420.70224,0.01112
2418.64207,0.01079
2416.58189,0.01089
2414.52172,0.01099
2412.46155,0.01080
2410.40138,0.01038
2408.34120,0.00984
2406.28103,0.00964
2404.22086,0.00997
2402.16069,0.01043
2400.10052,0.01061
2398.04034,0.01091
2395.98017,0.01126
2393.92000,0.01124
2391.85983,0.01085
2389.79966,0.01065
2387.73948,0.01081
2385.67931,0.01112
2383.61914,0.01131
2381.55897,0.01106
2379.49880,0.01059
2377.43862,0.01026
2375.37845,0.01008
2373.31828,0.01067
2371.25811,0.01249
2369.19793,0.01379
2367.13776,0.01191
2365.07759,0.00722
2363.01742,0.00520
2360.95725,0.00885
2358.89707,0.01234
2356.83690,0.01205
2354.77673,0.01203
2352.71656,0.01336
2350.65639,0.01292
2348.59621,0.01122
2346.53604,0.01115
2344.47587,0.01283
2342.41570,0.01271
2340.35552,0.01007
2338.29535,0.00855
2336.23518,0.01009
2334.17501,0.01334
2332.11484,0.01536
2330.05466,0.01508
2327.99449,0.01422
2325.93432,0.01363
2323.87415,0.01251
2321.81398,0.01107
2319.75380,0.01024
2317.69363,0.01023
2315.63346,0.01051
2313.57329,0.01052
2311.51312,0.01042
2309.45294,0.01062
2307.39277,0.01113
2305.33260,0.01153
2303.27243,0.01141
2301.21225,0.01111
2299.15208,0.01115
2297.09191,0.01148
2295.03174,0.01174
2292.97157,0.01158
2290.91139,0.01108
2288.85122,0.01081
2286.79105,0.01104
2284.73088,0.01138
2282.67071,0.01101
2280.61053,0.00995
2278.55036,0.00912
2276.49019,0.00881
2274.43002,0.00885
2272.36984,0.00902
2270.30967,0.00869
2268.24950,0.00802
2266.18933,0.00779
2264.12916,0.00791
2262.06898,0.00809
2260.00881,0.00861
2257.94864,0.00913
2255.88847,0.00886
2253.82830,0.00803
2251.76812,0.00770
2249.70795,0.00817
2247.64778,0.00900
2245.58761,0.00938
2243.52744,0.00867
2241.46726,0.00760
2239.40709,0.00714
2237.34692,0.00676
2235.28675,0.00577
2233.22657,0.00492
2231.16640,0.00533
2229.10623,0.00702
2227.04606,0.00818
2224.98589,0.00688
2222.92571,0.00423
2220.86554,0.00326
2218.80537,0.00454
2216.74520,0.00621
2214.68503,0.00586
2212.62485,0.00456
2210.56468,0.00552
2208.50451,0.00766
2206.44434,0.00841
2204.38417,0.00737
2202.32399,0.00584
2200.26382,0.00538
2198.20365,0.00604
2196.14348,0.00657
2194.08330,0.00721
2192.02313,0.00890
2189.96296,0.00998
2187.90279,0.00946
2185.84262,0.00901
2183.78244,0.00837
2181.72227,0.00733
2179.66210,0.00720
2177.60193,0.00696
2175.54176,0.00678
2173.48158,0.00747
2171.42141,0.00788
2169.36124,0.00713
2167.30107,0.00398
2165.24089,0.00012
2163.18072,0.00102
2161.12055,0.00505
2159.06038,0.00581
2157.00021,0.00403
2154.94003,0.00320
2152.87986,0.00359
2150.81969,0.00475
2148.75952,0.00713
2146.69935,0.00946
2144.63917,0.00982
2142.57900,0.00805
2140.51883,0.00649
2138.45866,0.00691
2136.39849,0.00733
2134.33831,0.00620
2132.27814,0.00518
2130.21797,0.00577
2128.15780,0.00710
2126.09762,0.00820
2124.03745,0.00871
2121.97728,0.00841
2119.91711,0.00764
2117.85694,0.00675
2115.79676,0.00648
2113.73659,0.00686
2111.67642,0.00670
2109.61625,0.00616
2107.55608,0.00614
2105.49590,0.00607
2103.43573,0.00596
2101.37556,0.00595
2099.31539,0.00557
2097.25521,0.00518
2095.19504,0.00551
2093.13487,0.00633
2091.07470,0.00656
2089.01453,0.00619
2086.95435,0.00611
2084.89418,0.00661
2082.83401,0.00660
2080.77384,0.00570
2078.71367,0.00534
2076.65349,0.00572
2074.59332,0.00610
2072.53315,0.00626
2070.47298,0.00605
2068.41281,0.00610
2066.35263,0.00594
2064.29246,0.00523
2062.23229,0.00562
2060.17212,0.00686
2058.11194,0.00736
2056.05177,0.00633
2053.99160,0.00419
2051.93143,0.00308
2049.87126,0.00469
2047.81108,0.00717
2045.75091,0.00731
2043.69074,0.00490
2041.63057,0.00311
2039.57040,0.00403
2037.51022,0.00585
2035.45005,0.00662
2033.38988,0.00578
2031.32971,0.00473
2029.26954,0.00418
2027.20936,0.00351
2025.14919,0.00446
2023.08902,0.00594
2021.02885,0.00458
2018.96867,0.00230
2016.90850,0.00222
2014.84833,0.00343
2012.78816,0.00373
2010.72799,0.00329
2008.66781,0.00441
2006.60764,0.00645
2004.54747,0.00678
2002.48730,0.00616
2000.42713,0.00691
1998.36695,0.00799
1996.30678,0.00643
1994.24661,0.00327
1992.18644,0.00214
1990.12626,0.00393
1988.06609,0.00601
1986.00592,0.00625
1983.94575,0.00506
1981.88558,0.00474
1979.82540,0.00525
1977.76523,0.00442
1975.70506,0.00242
1973.64489,0.00064
1971.58472,0.00031
1969.52454,0.00206
1967.46437,0.00387
1965.40420,0.00344
1963.34403,0.00136
1961.28386,0.00000
1959.22368,0.00058
1957.16351,0.00202
1955.10334,0.00373
1953.04317,0.00549
1950.98299,0.00589
1948.92282,0.00483
1946.86265,0.00368
1944.80248,0.00278
1942.74231,0.00232
1940.68213,0.00343
1938.62196,0.00480
1936.56179,0.00483
1934.50162,0.00401
1932.44145,0.00343
1930.38127,0.00348
1928.32110,0.00386
1926.26093,0.00405
1924.20076,0.00415
1922.14059,0.00469
1920.08041,0.00432
1918.02024,0.00310
1915.96007,0.00363
1913.89990,0.00496
1911.83972,0.00513
1909.77955,0.00428
1907.71938,0.00352
1905.65921,0.00299
1903.59904,0.00266
1901.53886,0.00303
1899.47869,0.00388
1897.41852,0.00440
1895.35835,0.00485
1893.29818,0.00549
1891.23800,0.00513
1889.17783,0.00439
1887.11766,0.00456
1885.05749,0.00476
1882.99731,0.00445
1880.93714,0.00392
1878.87697,0.00384
1876.81680,0.00430
1874.75663,0.00465
1872.69645,0.00456
1870.63628,0.00401
1868.57611,0.00374
1866.51594,0.00406
1864.45577,0.00393
1862.39559,0.00331
1860.33542,0.00290
1858.27525,0.00273
1856.21508,0.00263
1854.15491,0.00264
1852.09473,0.00258
1850.03456,0.00234
1847.97439,0.00246
1845.91422,0.00261
1843.85404,0.00260
1841.79387,0.00315
1839.73370,0.00324
1837.67353,0.00273
1835.61336,0.00237
1833.55318,0.00213
1831.49301,0.00155
1829.43284,0.00162
1827.37267,0.00245
1825.31250,0.00252
1823.25232,0.00258
1821.19215,0.00260
1819.13198,0.00202
1817.07181,0.00148
1815.01163,0.00146
1812.95146,0.00129
1810.89129,0.00075
1808.83112,0.00069
1806.77095,0.00125
1804.71077,0.00150
1802.65060,0.00077
1800.59043,0.00022
1798.53026,0.00093
1796.47009,0.00164
1794.40991,0.00121
1792.34974,0.00061
1790.28957,0.00126
1788.22940,0.00172
1786.16923,0.00132
1784.10905,0.00138
1782.04888,0.00176
1779.98871,0.00190
1777.92854,0.00211
1775.86836,0.00188
1773.80819,0.00073
1771.74802,0.00000
1769.68785,0.00054
1767.62768,0.00142
1765.56750,0.00264
1763.50733,0.00312
1761.44716,0.00340
1759.38699,0.00428
1757.32682,0.00490
1755.26664,0.00621
1753.20647,0.00737
1751.14630,0.00768
1749.08613,0.00879
1747.02596,0.01056
1744.96578,0.01168
1742.90561,0.01190
1740.84544,0.01211
1738.78527,0.01359
1736.72509,0.01438
1734.66492,0.01243
1732.60475,0.01169
1730.54458,0.01251
1728.48441,0.01324
1726.42423,0.01390
1724.36406,0.01435
1722.30389,0.01498
1720.24372,0.01457
1718.18355,0.01319
1716.12337,0.01377
1714.06320,0.01518
1712.00303,0.01560
1709.94286,0.01524
1707.88268,0.01436
1705.82251,0.01384
1703.76234,0.01453
1701.70217,0.01404
1699.64200,0.01352
1697.58182,0.01387
1695.52165,0.01372
1693.46148,0.01524
1691.40131,0.01662
1689.34114,0.01780
1687.28096,0.01872
1685.22079,0.01794
1683.16062,0.01942
1681.10045,0.02312
1679.04028,0.02530
1676.98010,0.02597
1674.91993,0.02674
1672.85976,0.02766
1670.79959,0.02648
1668.73941,0.02593
1666.67924,0.02704
1664.61907,0.02620
1662.55890,0.02439
1660.49873,0.02461
1658.43855,0.02539
1656.37838,0.02444
1654.31821,0.02196
1652.25804,0.02320
1650.19787,0.02596
1648.13769,0.02410
1646.07752,0.02212
1644.01735,0.02317
1641.95718,0.02417
1639.89701,0.02438
1637.83683,0.02335
1635.77666,0.02250
1633.71649,0.02494
1631.65632,0.02703
1629.59614,0.02697
1627.53597,0.02709
1625.47580,0.02762
1623.41563,0.02791
1621.35546,0.02909
1619.29528,0.02918
1617.23511,0.02789
1615.17494,0.02873
1613.11477,0.03037
1611.05460,0.03096
1608.99442,0.03185
1606.93425,0.03327
1604.87408,0.03373
1602.81391,0.03297
1600.75373,0.03200
1598.69356,0.03091
1596.63339,0.02943
1594.57322,0.02812
1592.51305,0.02734
1590.45287,0.02672
1588.39270,0.02614
1586.33253,0.02557
1584.27236,0.02493
1582.21219,0.02451
1580.15201,0.02416
1578.09184,0.02262
1576.03167,0.02119
1573.97150,0.02200
1571.91133,0.02151
1569.85115,0.01952
1567.79098,0.01945
1565.73081,0.01986
1563.67064,0.01982
1561.61046,0.01766
1559.55029,0.01329
1557.49012,0.01388
1555.42995,0.01568
1553.36978,0.01502
1551.30960,0.01357
1549.24943,0.01284
1547.18926,0.01287
1545.12909,0.01193
1543.06892,0.00980
1541.00874,0.00721
1538.94857,0.00797
1536.88840,0.01034
1534.82823,0.00915
1532.76805,0.00760
1530.70788,0.00824
1528.64771,0.00797
1526.58754,0.00717
1524.52737,0.00692
1522.46719,0.00640
1520.40702,0.00778
1518.34685,0.00996
1516.28668,0.01091
1514.22651,0.01186
1512.16633,0.01214
1510.10616,0.01084
1508.04599,0.00726
1505.98582,0.00548
1503.92565,0.00704
1501.86547,0.00698
1499.80530,0.00484
1497.74513,0.00280
1495.68496,0.00287
1493.62478,0.00385
1491.56461,0.00270
1489.50444,0.00090
1487.44427,0.00118
1485.38410,0.00214
1483.32392,0.00213
1481.26375,0.00188
1479.20358,0.00248
1477.14341,0.00321
1475.08324,0.00354
1473.02306,0.00428
1470.96289,0.00727
1468.90272,0.01028
1466.84255,0.01111
1464.78238,0.01193
1462.72220,0.01415
1460.66203,0.01513
1458.60186,0.01418
1456.54169,0.01481
1454.48151,0.01728
1452.42134,0.01810
1450.36117,0.01781
1448.30100,0.01804
1446.24083,0.01929
1444.18065,0.02057
1442.12048,0.02144
1440.06031,0.02185
1438.00014,0.02106
1435.93997,0.02110
1433.87979,0.02262
1431.81962,0.02290
1429.75945,0.02254
1427.69928,0.02285
1425.63910,0.02309
1423.57893,0.02354
1421.51876,0.02360
1419.45859,0.02263
1417.39842,0.02310
1415.33824,0.02413
1413.27807,0.02395
1411.21790,0.02330
1409.15773,0.02284
1407.09756,0.02200
1405.03738,0.02104
1402.97721,0.02082
1400.91704,0.02012
1398.85687,0.01889
1396.79670,0.01819
1394.73652,0.01793
1392.67635,0.01850
1390.61618,0.01879
1388.55601,0.01826
1386.49583,0.01834
1384.43566,0.01909
1382.37549,0.01941
1380.31532,0.01972
1378.25515,0.02046
1376.19497,0.02100
1374.13480,0.02147
1372.07463,0.02244
1370.01446,0.02281
1367.95429,0.02250
1365.89411,0.02193
1363.83394,0.02076
1361.77377,0.02005
1359.71360,0.02019
1357.65343,0.02014
1355.59325,0.01975
1353.53308,0.01953
1351.47291,0.01953
1349.41274,0.01954
1347.35256,0.01963
1345.29239,0.01982
1343.23222,0.01988
1341.17205,0.01942
1339.11188,0.01899
1337.05170,0.01916
1334.99153,0.01934
1332.93136,0.01935
1330.87119,0.01938
1328.81102,0.01945
1326.75084,0.01954
1324.69067,0.01972
1322.63050,0.01986
1320.57033,0.01965
1318.51015,0.01927
1316.44998,0.01912
1314.38981,0.01909
1312.32964,0.01919
1310.26947,0.01928
1308.20929,0.01895
1306.14912,0.01813
1304.08895,0.01707
1302.02878,0.01611
1299.96861,0.01548
1297.90843,0.01508
1295.84826,0.01494
1293.78809,0.01533
1291.72792,0.01594
1289.66775,0.01627
1287.60757,0.01641
1285.54740,0.01649
1283.48723,0.01654
1281.42706,0.01668
1279.36688,0.01683
1277.30671,0.01701
1275.24654,0.01723
1273.18637,0.01730
1271.12620,0.01745
1269.06602,0.01800
1267.00585,0.01881
1264.94568,0.01950
1262.88551,0.01984
1260.82534,0.02009
1258.76516,0.02073
1256.70499,0.02167
1254.64482,0.02250
1252.58465,0.02302
1250.52447,0.02328
1248.46430,0.02339
1246.40413,0.02356
1244.34396,0.02404
1242.28379,0.02444
1240.22361,0.02435
1238.16344,0.02403
1236.10327,0.02366
1234.04310,0.02313
1231.98293,0.02242
1229.92275,0.02158
1227.86258,0.02080
1225.80241,0.02016
1223.74224,0.01935
1221.68207,0.01821
1219.62189,0.01690
1217.56172,0.01556
1215.50155,0.01427
1213.44138,0.01308
1211.38120,0.01219
1209.32103,0.01160
1207.26086,0.01088
1205.20069,0.00982
1203.14052,0.00857
1201.08034,0.00719
1199.02017,0.00568
1196.96000,0.00409
1194.89983,0.00267
1192.83966,0.00158
1190.77948,0.00086
1188.71931,0.00037
1186.65914,0.00000
1184.59897,-0.00014
1182.53880,0.00010
1180.47862,0.00071
1178.41845,0.00144
1176.35828,0.00225
1174.29811,0.00353
1172.23793,0.00533
1170.17776,0.00734
1168.11759,0.00903
1166.05742,0.00998
1163.99725,0.01058
1161.93707,0.01111
1159.87690,0.01164
1157.81673,0.01217
1155.75656,0.01255
1153.69639,0.01317
1151.63621,0.01410
1149.57604,0.01491
1147.51587,0.01579
1145.45570,0.01665
1143.39552,0.01737
1141.33535,0.01842
1139.27518,0.01967
1137.21501,0.02047
1135.15484,0.02108
1133.09466,0.02177
1131.03449,0.02243
1128.97432,0.02336
1126.91415,0.02449
1124.85398,0.02524
1122.79380,0.02568
1120.73363,0.02655
1118.67346,0.02790
1116.61329,0.02924
1114.55312,0.03041
1112.49294,0.03137
1110.43277,0.03194
1108.37260,0.03236
1106.31243,0.03316
1104.25225,0.03434
1102.19208,0.03571
1100.13191,0.03740
1098.07174,0.03930
1096.01157,0.04105
1093.95139,0.04272
1091.89122,0.04447
1089.83105,0.04630
1087.77088,0.04809
1085.71071,0.04943
1083.65053,0.05057
1081.59036,0.05227
1079.53019,0.05458
1077.47002,0.05696
1075.40985,0.05890
1073.34967,0.06060
1071.28950,0.06235
1069.22933,0.06380
1067.16916,0.06492
1065.10898,0.06595
1063.04881,0.06714
1060.98864,0.06858
1058.92847,0.06974
1056.86830,0.07069
1054.80812,0.07234
1052.74795,0.07454
1050.68778,0.07660
1048.62761,0.07879
1046.56744,0.08117
1044.50726,0.08353
1042.44709,0.08572
1040.38692,0.08755
1038.32675,0.08912
1036.26657,0.09032
1034.20640,0.09092
1032.14623,0.09109
1030.08606,0.09115
1028.02589,0.09103
1025.96571,0.09076
1023.90554,0.09054
1021.84537,0.09051
1019.78520,0.09073
1017.72503,0.09083
1015.66485,0.09064
1013.60468,0.09045
1011.54451,0.09045
1009.48434,0.09026
1007.42417,0.08996
1005.36399,0.09024
1003.30382,0.09072
1001.24365,0.09047
999.18348,0.08931
997.12330,0.08760
995.06313,0.08568
993.00296,0.08403
990.94279,0.08263
988.88262,0.08122
986.82244,0.07992
984.76227,0.07842
982.70210,0.07686
980.64193,0.07571
978.58176,0.07471
976.52158,0.07359
974.46141,0.07243
972.40124,0.07099
970.34107,0.06918
968.28089,0.06738
966.22072,0.06547
964.16055,0.06369
962.10038,0.06237
960.04021,0.06085
957.98003,0.05907
955.91986,0.05750
953.85969,0.05635
951.79952,0.05551
949.73935,0.05449
947.67917,0.05342
945.61900,0.05263
943.55883,0.05129
941.49866,0.04867
939.43849,0.04568
937.37831,0.04349
935.31814,0.04132
933.25797,0.03803
931.19780,0.03479
929.13762,0.03278
927.07745,0.03121
925.01728,0.02904
922.95711,0.02677
920.89694,0.02535
918.83676,0.02467
916.77659,0.02430
914.71642,0.02377
912.65625,0.02257
910.59608,0.02083
908.53590,0.01908
906.47573,0.01764
904.41556,0.01690
902.35539,0.01682
900.29522,0.01675
898.23504,0.01629
896.17487,0.01611
894.11470,0.01654
892.05453,0.01698
889.99435,0.01710
887.93418,0.01671
885.87401,0.01558
883.81384,0.01426
881.75367,0.01307
879.69349,0.01154
877.63332,0.01030
875.57315,0.01011
873.51298,0.00982
871.45281,0.00872
869.39263,0.00779
867.33246,0.00784
865.27229,0.00851
863.21212,0.00877
861.15194,0.00828
859.09177,0.00770
857.03160,0.00757
854.97143,0.00752
852.91126,0.00686
850.85108,0.00597
848.79091,0.00596
846.73074,0.00657
844.67057,0.00689
842.61040,0.00709
840.55022,0.00705
838.49005,0.00638
836.42988,0.00611
834.36971,0.00688
832.30954,0.00778
830.24936,0.00782
828.18919,0.00646
826.12902,0.00398
824.06885,0.00192
822.00867,0.00099
819.94850,0.00117
817.88833,0.00233
815.82816,0.00314
813.76799,0.00302
811.70781,0.00258
809.64764,0.00194
807.58747,0.00173
805.52730,0.00227
803.46713,0.00247
801.40695,0.00187
799.34678,0.00159
797.28661,0.00245
795.22644,0.00361
793.16627,0.00376
791.10609,0.00301
789.04592,0.00223
786.98575,0.00279
784.92558,0.00492
782.86540,0.00615
780.80523,0.00474
778.74506,0.00264
776.68489,0.00219
774.62472,0.00281
772.56454,0.00314
770.50437,0.00296
768.44420,0.00283
766.38403,0.00276
764.32386,0.00211
762.26368,0.00165
760.20351,0.00163
758.14334,0.00155
756.08317,0.00212
754.02299,0.00294
751.96282,0.00273
749.90265,0.00220
747.84248,0.00237
745.78231,0.00283
743.72213,0.00264
741.66196,0.00123
739.60179,0.00000
737.54162,0.00041
735.48145,0.00172
733.42127,0.00281
731.36110,0.00429
729.30093,0.00580
727.24076,0.00586
725.18059,0.00459
723.12041,0.00373
721.06024,0.00385
719.00007,0.00405
716.93990,0.00338
714.87972,0.00251
712.81955,0.00309
710.75938,0.00516
708.69921,0.00796
706.63904,0.01055
704.57886,0.01137
702.51869,0.01050
700.45852,0.01004
698.39835,0.01019
696.33818,0.00937
694.27800,0.00829
692.21783,0.00884
690.15766,0.01024
688.09749,0.01065
686.03731,0.01080
683.97714,0.01143
681.91697,0.01128
679.85680,0.00972
677.79663,0.00793
675.73645,0.00682
673.67628,0.00479
671.61611,0.00117
669.55594,0.00014
667.49577,0.00460
665.43559,0.00815
663.37542,0.00788
661.31525,0.00751
659.25508,0.00919
657.19491,0.01138
655.13473,0.01122
653.07456,0.00735
651.01439,0.00238
648.95422,0.00000
646.89404,-0.00049
644.83387,0.00048
642.77370,0.00285
640.71353,0.00507
638.65336,0.00651
636.59318,0.00729
634.53301,0.00711
632.47284,0.00608
630.41267,0.00490
628.35250,0.00462
626.29232,0.00371
624.23215,0.00119
622.17198,0.00238
620.11181,0.00675
618.05164,0.01057
615.99146,0.00877
613.93129,0.00205
611.87112,-0.00033
609.81095,0.00335
607.75077,0.00634
605.69060,0.00741
603.63043,0.00611
601.57026,0.00170
599.51009,0.00000
