3996.73391,0.00098
3994.67373,0.00097
3992.61356,0.00088
3990.55339,0.00055
3988.49322,0.00015
3986.43305,0.00027
3984.37287,0.00081
3982.31270,0.00087
3980.25253,0.00032
3978.19236,-0.00001
3976.13219,0.00037
3974.07201,0.00114
3972.01184,0.00170
3969.95167,0.00172
3967.89150,0.00127
3965.83133,0.00053
3963.77115,0.00000
3961.71098,0.00016
3959.65081,0.00075
3957.59064,0.00117
3955.53046,0.00132
3953.47029,0.00156
3951.41012,0.00189
3949.34995,0.00183
3947.28978,0.00126
3945.22960,0.00071
3943.16943,0.00061
3941.10926,0.00085
3939.04909,0.00104
3936.98892,0.00116
3934.92874,0.00140
3932.86857,0.00161
3930.80840,0.00153
3928.74823,0.00122
3926.68805,0.00106
3924.62788,0.00128
3922.56771,0.00154
3920.50754,0.00147
3918.44737,0.00161
3916.38719,0.00219
3914.32702,0.00252
3912.26685,0.00244
3910.20668,0.00212
3908.14651,0.00159
3906.08633,0.00147
3904.02616,0.00196
3901.96599,0.00219
3899.90582,0.00211
3897.84565,0.00224
3895.78547,0.00227
3893.72530,0.00187
3891.66513,0.00138
3889.60496,0.00129
3887.54478,0.00152
3885.48461,0.00195
3883.42444,0.00225
3881.36427,0.00207
3879.30410,0.00165
3877.24392,0.00134
3875.18375,0.00121
3873.12358,0.00103
3871.06341,0.00067
3869.00324,0.00048
3866.94306,0.00069
3864.88289,0.00113
3862.82272,0.00155
3860.76255,0.00156
3858.70237,0.00118
3856.64220,0.00089
3854.58203,0.00118
3852.52186,0.00200
3850.46169,0.00238
3848.40151,0.00209
3846.34134,0.00194
3844.28117,0.00227
3842.22100,0.00261
3840.16083,0.00278
3838.10065,0.00311
3836.04048,0.00347
3833.98031,0.00327
3831.92014,0.00261
3829.85997,0.00207
3827.79979,0.00178
3825.73962,0.00172
3823.67945,0.00213
3821.61928,0.00279
3819.55910,0.00300
3817.49893,0.00278
3815.43876,0.00246
3813.37859,0.00192
3811.31842,0.00129
3809.25824,0.00102
3807.19807,0.00131
3805.13790,0.00161
3803.07773,0.00125
3801.01756,0.00084
3798.95738,0.00131
3796.89721,0.00223
3794.83704,0.00287
3792.77687,0.00274
3790.71670,0.00213
3788.65652,0.00189
3786.59635,0.00220
3784.53618,0.00246
3782.47601,0.00252
3780.41583,0.00254
3778.35566,0.00232
3776.29549,0.00203
3774.23532,0.00200
3772.17515,0.00191
3770.11497,0.00155
3768.05480,0.00118
3765.99463,0.00106
3763.93446,0.00138
3761.87429,0.00191
3759.81411,0.00230
3757.75394,0.00275
3755.69377,0.00334
3753.63360,0.00345
3751.57342,0.00268
3749.51325,0.00198
3747.45308,0.00213
3745.39291,0.00234
3743.33274,0.00224
3741.27256,0.00228
3739.21239,0.00237
3737.15222,0.00208
3735.09205,0.00126
3733.03188,0.00066
3730.97170,0.00109
3728.91153,0.00194
3726.85136,0.00235
3724.79119,0.00252
3722.73102,0.00280
3720.67084,0.00296
3718.61067,0.00280
3716.55050,0.00245
3714.49033,0.00233
3712.43015,0.00280
3710.36998,0.00338
3708.30981,0.00329
3706.24964,0.00274
3704.18947,0.00256
3702.12929,0.00269
3700.06912,0.00222
3698.00895,0.00135
3695.94878,0.00097
3693.88861,0.00135
3691.82843,0.00229
3689.76826,0.00330
3687.70809,0.00378
3685.64792,0.00361
3683.58775,0.00275
3681.52757,0.00148
3679.46740,0.00038
3677.40723,0.00000
3675.34706,0.00075
3673.28688,0.00182
3671.22671,0.00207
3669.16654,0.00192
3667.10637,0.00209
3665.04620,0.00255
3662.98602,0.00287
3660.92585,0.00270
3658.86568,0.00239
3656.80551,0.00268
3654.74534,0.00366
3652.68516,0.00474
3650.62499,0.00563
3648.56482,0.00569
3646.50465,0.00462
3644.44447,0.00363
3642.38430,0.00314
3640.32413,0.00295
3638.26396,0.00304
3636.20379,0.00324
3634.14361,0.00350
3632.08344,0.00381
3630.02327,0.00391
3627.96310,0.00385
3625.90293,0.00398
3623.84275,0.00409
3621.78258,0.00390
3619.72241,0.00380
3617.66224,0.00446
3615.60207,0.00532
3613.54189,0.00543
3611.48172,0.00500
3609.42155,0.00475
3607.36138,0.00475
3605.30120,0.00491
3603.24103,0.00546
3601.18086,0.00595
3599.12069,0.00587
3597.06052,0.00585
3595.00034,0.00625
3592.94017,0.00641
3590.88000,0.00632
3588.81983,0.00660
3586.75966,0.00705
3584.69948,0.00713
3582.63931,0.00741
3580.57914,0.00829
3578.51897,0.00916
3576.45879,0.00953
3574.39862,0.00964
3572.33845,0.00994
3570.27828,0.01044
3568.21811,0.01082
3566.15793,0.01099
3564.09776,0.01111
3562.03759,0.01139
3559.97742,0.01166
3557.91725,0.01181
3555.85707,0.01199
3553.79690,0.01217
3551.73673,0.01234
3549.67656,0.01253
3547.61639,0.01255
3545.55621,0.01254
3543.49604,0.01298
3541.43587,0.01383
3539.37570,0.01460
3537.31552,0.01502
3535.25535,0.01521
3533.19518,0.01566
3531.13501,0.01676
3529.07484,0.01791
3527.01466,0.01829
3524.95449,0.01824
3522.89432,0.01820
3520.83415,0.01813
3518.77398,0.01797
3516.71380,0.01765
3514.65363,0.01749
3512.59346,0.01793
3510.53329,0.01886
3508.47312,0.01970
3506.41294,0.02016
3504.35277,0.02070
3502.29260,0.02165
3500.23243,0.02242
3498.17225,0.02238
3496.11208,0.02192
3494.05191,0.02194
3491.99174,0.02263
3489.93157,0.02336
3487.87139,0.02358
3485.81122,0.02350
3483.75105,0.02363
3481.69088,0.02402
3479.63071,0.02455
3477.57053,0.02498
3475.51036,0.02504
3473.45019,0.02514
3471.39002,0.02567
3469.32984,0.02616
3467.26967,0.02619
3465.20950,0.02612
3463.14933,0.02637
3461.08916,0.02681
3459.02898,0.02725
3456.96881,0.02779
3454.90864,0.02837
3452.84847,0.02873
3450.78830,0.02885
3448.72812,0.02884
3446.66795,0.02896
3444.60778,0.02956
3442.54761,0.03038
3440.48744,0.03073
3438.42726,0.03083
3436.36709,0.03128
3434.30692,0.03171
3432.24675,0.03190
3430.18657,0.03214
3428.12640,0.03237
3426.06623,0.03268
3424.00606,0.03311
3421.94589,0.03303
3419.88571,0.03253
3417.82554,0.03283
3415.76537,0.03393
3413.70520,0.03465
3411.64503,0.03480
3409.58485,0.03505
3407.52468,0.03544
3405.46451,0.03572
3403.40434,0.03604
3401.34416,0.03627
3399.28399,0.03641
3397.22382,0.03669
3395.16365,0.03685
3393.10348,0.03695
3391.04330,0.03706
3388.98313,0.03688
3386.92296,0.03672
3384.86279,0.03704
3382.80262,0.03769
3380.74244,0.03843
3378.68227,0.03904
3376.62210,0.03911
3374.56193,0.03854
3372.50176,0.03819
3370.44158,0.03862
3368.38141,0.03924
3366.32124,0.03961
3364.26107,0.03981
3362.20089,0.03983
3360.14072,0.03980
3358.08055,0.03988
3356.02038,0.04025
3353.96021,0.04081
3351.90003,0.04113
3349.83986,0.04096
3347.77969,0.04074
3345.71952,0.04100
3343.65935,0.04132
3341.59917,0.04145
3339.53900,0.04158
3337.47883,0.04142
3335.41866,0.04078
3333.35849,0.04024
3331.29831,0.04044
3329.23814,0.04125
3327.17797,0.04187
3325.11780,0.04196
3323.05762,0.04182
3320.99745,0.04151
3318.93728,0.04107
3316.87711,0.04091
3314.81694,0.04117
3312.75676,0.04153
3310.69659,0.04177
3308.63642,0.04196
3306.57625,0.04212
3304.51608,0.04209
3302.45590,0.04188
3300.39573,0.04188
3298.33556,0.04218
3296.27539,0.04233
3294.21521,0.04214
3292.15504,0.04173
3290.09487,0.04124
3288.03470,0.04106
3285.97453,0.04148
3283.91435,0.04209
3281.85418,0.04245
3279.79401,0.04286
3277.73384,0.04313
3275.67367,0.04274
3273.61349,0.04211
3271.55332,0.04169
3269.49315,0.04154
3267.43298,0.04164
3265.37281,0.04167
3263.31263,0.04149
3261.25246,0.04140
3259.19229,0.04144
3257.13212,0.04154
3255.07194,0.04174
3253.01177,0.04186
3250.95160,0.04184
3248.89143,0.04181
3246.83126,0.04173
3244.77108,0.04156
3242.71091,0.04153
3240.65074,0.04164
3238.59057,0.04146
3236.53040,0.04094
3234.47022,0.04046
3232.41005,0.04029
3230.34988,0.04018
3228.28971,0.04007
3226.22954,0.04007
3224.16936,0.04001
3222.10919,0.03997
3220.04902,0.04001
3217.98885,0.04011
3215.92867,0.04033
3213.86850,0.04040
3211.80833,0.04011
3209.74816,0.03964
3207.68799,0.03936
3205.62781,0.03940
3203.56764,0.03967
3201.50747,0.03960
3199.44730,0.03884
3197.38713,0.03808
3195.32695,0.03793
3193.26678,0.03813
3191.20661,0.03829
3189.14644,0.03819
3187.08626,0.03792
3185.02609,0.03771
3182.96592,0.03759
3180.90575,0.03727
3178.84558,0.03672
3176.78540,0.03628
3174.72523,0.03615
3172.66506,0.03615
3170.60489,0.03594
3168.54472,0.03578
3166.48454,0.03577
3164.42437,0.03543
3162.36420,0.03501
3160.30403,0.03511
3158.24386,0.03507
3156.18368,0.03433
3154.12351,0.03367
3152.06334,0.03371
3150.00317,0.03405
3147.94299,0.03405
3145.88282,0.03357
3143.82265,0.03320
3141.76248,0.03326
3139.70231,0.03331
3137.64213,0.03297
3135.58196,0.03275
3133.52179,0.03281
3131.46162,0.03253
3129.40145,0.03194
3127.34127,0.03156
3125.28110,0.03135
3123.22093,0.03096
3121.16076,0.03063
3119.10058,0.03074
3117.04041,0.03098
3114.98024,0.03086
3112.92007,0.03040
3110.85990,0.02987
3108.79972,0.02945
3106.73955,0.02944
3104.67938,0.02976
3102.61921,0.02982
3100.55904,0.02953
3098.49886,0.02923
3096.43869,0.02901
3094.37852,0.02866
3092.31835,0.02837
3090.25818,0.02843
3088.19800,0.02842
3086.13783,0.02794
3084.07766,0.02740
3082.01749,0.02739
3079.95731,0.02750
3077.89714,0.02697
3075.83697,0.02641
3073.77680,0.02646
3071.71663,0.02650
3069.65645,0.02610
3067.59628,0.02582
3065.53611,0.02591
3063.47594,0.02576
3061.41577,0.02526
3059.35559,0.02488
3057.29542,0.02466
3055.23525,0.02441
3053.17508,0.02411
3051.11491,0.02380
3049.05473,0.02354
3046.99456,0.02355
3044.93439,0.02384
3042.87422,0.02395
3040.81404,0.02358
3038.75387,0.02308
3036.69370,0.02280
3034.63353,0.02250
3032.57336,0.02217
3030.51318,0.02218
3028.45301,0.02237
3026.39284,0.02243
3024.33267,0.02235
3022.27250,0.02223
3020.21232,0.02205
3018.15215,0.02174
3016.09198,0.02144
3014.03181,0.02130
3011.97163,0.02138
3009.91146,0.02139
3007.85129,0.02101
3005.79112,0.02059
3003.73095,0.02044
3001.67077,0.02046
2999.61060,0.02061
2997.55043,0.02063
2995.49026,0.02033
2993.43009,0.02022
2991.36991,0.02032
2989.30974,0.02007
2987.24957,0.01955
2985.18940,0.01927
2983.12923,0.01958
2981.06905,0.02035
2979.00888,0.02092
2976.94871,0.02120
2974.88854,0.02150
2972.82836,0.02175
2970.76819,0.02214
2968.70802,0.02306
2966.64785,0.02414
2964.58768,0.02473
2962.52750,0.02516
2960.46733,0.02623
2958.40716,0.02802
2956.34699,0.02989
2954.28682,0.03130
2952.22664,0.03256
2950.16647,0.03389
2948.10630,0.03509
2946.04613,0.03635
2943.98596,0.03809
2941.92578,0.04031
2939.86561,0.04260
2937.80544,0.04446
2935.74527,0.04602
2933.68509,0.04778
2931.62492,0.04963
2929.56475,0.05135
2927.50458,0.05290
2925.44441,0.05419
2923.38423,0.05528
2921.32406,0.05612
2919.26389,0.05650
2917.20372,0.05619
2915.14355,0.05507
2913.08337,0.05303
2911.02320,0.05042
2908.96303,0.04817
2906.90286,0.04644
2904.84268,0.04496
2902.78251,0.04378
2900.72234,0.04281
2898.66217,0.04185
2896.60200,0.04085
2894.54182,0.03993
2892.48165,0.03924
2890.42148,0.03859
2888.36131,0.03758
2886.30114,0.03646
2884.24096,0.03584
2882.18079,0.03546
2880.12062,0.03484
2878.06045,0.03456
2876.00028,0.03485
2873.94010,0.03499
2871.87993,0.03509
2869.81976,0.03551
2867.75959,0.03603
2865.69941,0.03666
2863.63924,0.03770
2861.57907,0.03893
2859.51890,0.04011
2857.45873,0.04141
2855.39855,0.04281
2853.33838,0.04406
2851.27821,0.04490
2849.21804,0.04466
2847.15787,0.04286
2845.09769,0.04001
2843.03752,0.03704
2840.97735,0.03463
2838.91718,0.03287
2836.85700,0.03162
2834.79683,0.03062
2832.73666,0.02955
2830.67649,0.02853
2828.61632,0.02773
2826.55614,0.02702
2824.49597,0.02649
2822.43580,0.02625
2820.37563,0.02620
2818.31546,0.02601
2816.25528,0.02532
2814.19511,0.02435
2812.13494,0.02381
2810.07477,0.02385
2808.01460,0.02396
2805.95442,0.02368
2803.89425,0.02317
2801.83408,0.02282
2799.77391,0.02269
2797.71373,0.02256
2795.65356,0.02216
2793.59339,0.02185
2791.53322,0.02192
2789.47305,0.02187
2787.41287,0.02153
2785.35270,0.02138
2783.29253,0.02145
2781.23236,0.02133
2779.17219,0.02102
2777.11201,0.02074
2775.05184,0.02047
2772.99167,0.02041
2770.93150,0.02040
2768.87133,0.02000
2766.81115,0.01952
2764.75098,0.01955
2762.69081,0.01982
2760.63064,0.01974
2758.57046,0.01949
2756.51029,0.01941
2754.45012,0.01940
2752.38995,0.01945
2750.32978,0.01961
2748.26960,0.01970
2746.20943,0.01973
2744.14926,0.01986
2742.08909,0.01983
2740.02892,0.01941
2737.96874,0.01902
2735.90857,0.01910
2733.84840,0.01935
2731.78823,0.01940
2729.72805,0.01933
2727.66788,0.01934
2725.60771,0.01937
2723.54754,0.01922
2721.48737,0.01895
2719.42719,0.01877
2717.36702,0.01861
2715.30685,0.01832
2713.24668,0.01801
2711.18651,0.01790
2709.12633,0.01818
2707.06616,0.01860
2705.00599,0.01879
2702.94582,0.01876
2700.88565,0.01875
2698.82547,0.01879
2696.76530,0.01872
2694.70513,0.01857
2692.64496,0.01852
2690.58478,0.01848
2688.52461,0.01825
2686.46444,0.01792
2684.40427,0.01771
2682.34410,0.01766
2680.28392,0.01778
2678.22375,0.01797
2676.16358,0.01795
2674.10341,0.01775
2672.04324,0.01767
2669.98306,0.01760
2667.92289,0.01749
2665.86272,0.01760
2663.80255,0.01766
2661.74238,0.01738
2659.68220,0.01710
2657.62203,0.01706
2655.56186,0.01712
2653.50169,0.01720
2651.44151,0.01718
2649.38134,0.01704
2647.32117,0.01702
2645.26100,0.01700
2643.20083,0.01676
2641.14065,0.01654
2639.08048,0.01648
2637.02031,0.01663
2634.96014,0.01692
2632.89997,0.01690
2630.83979,0.01656
2628.77962,0.01649
2626.71945,0.01670
2624.65928,0.01664
2622.59910,0.01639
2620.53893,0.01625
2618.47876,0.01618
2616.41859,0.01609
2614.35842,0.01584
2612.29824,0.01551
2610.23807,0.01555
2608.17790,0.01600
2606.11773,0.01625
2604.05756,0.01583
2601.99738,0.01535
2599.93721,0.01529
2597.87704,0.01523
2595.81687,0.01500
2593.75670,0.01471
2591.69652,0.01455
2589.63635,0.01464
2587.57618,0.01493
2585.51601,0.01517
2583.45583,0.01511
2581.39566,0.01470
2579.33549,0.01420
2577.27532,0.01398
2575.21515,0.01389
2573.15497,0.01388
2571.09480,0.01405
2569.03463,0.01414
2566.97446,0.01381
2564.91429,0.01325
2562.85411,0.01305
2560.79394,0.01318
2558.73377,0.01319
2556.67360,0.01309
2554.61342,0.01311
2552.55325,0.01352
2550.49308,0.01425
2548.43291,0.01467
2546.37274,0.01426
2544.31256,0.01352
2542.25239,0.01338
2540.19222,0.01352
2538.13205,0.01350
2536.07188,0.01339
2534.01170,0.01313
2531.95153,0.01306
2529.89136,0.01332
2527.83119,0.01334
2525.77102,0.01331
2523.71084,0.01344
2521.65067,0.01318
2519.59050,0.01265
2517.53033,0.01226
2515.47015,0.01227
2513.40998,0.01223
2511.34981,0.01163
2509.28964,0.01131
2507.22947,0.01179
2505.16929,0.01244
2503.10912,0.01267
2501.04895,0.01255
2498.98878,0.01239
2496.92861,0.01218
2494.86843,0.01208
2492.80826,0.01214
2490.74809,0.01167
2488.68792,0.01088
2486.62775,0.01088
2484.56757,0.01148
2482.50740,0.01185
2480.44723,0.01205
2478.38706,0.01242
2476.32688,0.01253
2474.26671,0.01223
2472.20654,0.01214
2470.14637,0.01242
2468.08620,0.01286
2466.02602,0.01320
2463.96585,0.01319
2461.90568,0.01295
2459.84551,0.01244
2457.78534,0.01171
2455.72516,0.01114
2453.66499,0.01106
2451.60482,0.01113
2449.54465,0.01080
2447.48447,0.01042
2445.42430,0.01038
2443.36413,0.01026
2441.30396,0.00995
2439.24379,0.00988
2437.18361,0.00994
2435.12344,0.01014
2433.06327,0.01062
2431.00310,0.01091
2428.94293,0.01077
2426.88275,0.01048
2424.82258,0.01039
2422.76241,0.01051
2420.70224,0.01047
2418.64207,0.01057
2416.58189,0.01103
2414.52172,0.01111
2412.46155,0.01064
2410.40138,0.01011
2408.34120,0.00973
2406.28103,0.00952
2404.22086,0.00949
2402.16069,0.00984
2400.10052,0.01008
2398.04034,0.00992
2395.98017,0.00985
2393.92000,0.00988
2391.85983,0.00976
2389.79966,0.00980
2387.73948,0.01020
2385.67931,0.01058
2383.61914,0.01066
2381.55897,0.01062
2379.49880,0.01082
2377.43862,0.01137
2375.37845,0.01208
2373.31828,0.01283
2371.25811,0.01285
2369.19793,0.01134
2367.13776,0.00978
2365.07759,0.00907
2363.01742,0.00780
2360.95725,0.00640
2358.89707,0.00659
2356.83690,0.00743
2354.77673,0.00742
2352.71656,0.00791
2350.65639,0.00908
2348.59621,0.00965
2346.53604,0.00931
2344.47587,0.00842
2342.41570,0.00697
2340.35552,0.00564
2338.29535,0.00623
2336.23518,0.00877
2334.17501,0.01093
2332.11484,0.01103
2330.05466,0.01044
2327.99449,0.01038
2325.93432,0.00992
2323.87415,0.00914
2321.81398,0.00920
2319.75380,0.00969
2317.69363,0.01005
2315.63346,0.01055
2313.57329,0.01111
2311.51312,0.01124
2309.45294,0.01080
2307.39277,0.01039
2305.33260,0.01050
2303.27243,0.01099
2301.21225,0.01142
2299.15208,0.01151
2297.09191,0.01124
2295.03174,0.01064
2292.97157,0.00997
2290.91139,0.00978
2288.85122,0.01012
2286.79105,0.01033
2284.73088,0.00994
2282.67071,0.00918
2280.61053,0.00861
2278.55036,0.00857
2276.49019,0.00893
2274.43002,0.00907
2272.36984,0.00860
2270.30967,0.00805
2268.24950,0.00818
2266.18933,0.00884
2264.12916,0.00922
2262.06898,0.00918
2260.00881,0.00910
2257.94864,0.00880
2255.88847,0.00809
2253.82830,0.00758
2251.76812,0.00758
2249.70795,0.00786
2247.64778,0.00867
2245.58761,0.00946
2243.52744,0.00892
2241.46726,0.00773
2239.40709,0.00720
2237.34692,0.00717
2235.28675,0.00680
2233.22657,0.00603
2231.16640,0.00586
2229.10623,0.00664
2227.04606,0.00661
2224.98589,0.00502
2222.92571,0.00414
2220.86554,0.00462
2218.80537,0.00564
2216.74520,0.00684
2214.68503,0.00694
2212.62485,0.00666
2210.56468,0.00716
2208.50451,0.00785
2206.44434,0.00869
2204.38417,0.00873
2202.32399,0.00694
2200.26382,0.00520
2198.20365,0.00499
2196.14348,0.00489
2194.08330,0.00485
2192.02313,0.00644
2189.96296,0.00816
2187.90279,0.00803
2185.84262,0.00711
2183.78244,0.00649
2181.72227,0.00626
2179.66210,0.00642
2177.60193,0.00618
2175.54176,0.00593
2173.48158,0.00741
2171.42141,0.00920
2169.36124,0.00825
2167.30107,0.00471
2165.24089,0.00225
2163.18072,0.00391
2161.12055,0.00688
2159.06038,0.00674
2157.00021,0.00488
2154.94003,0.00452
2152.87986,0.00538
2150.81969,0.00634
2148.75952,0.00674
2146.69935,0.00625
2144.63917,0.00587
2142.57900,0.00609
2140.51883,0.00620
2138.45866,0.00604
2136.39849,0.00620
2134.33831,0.00669
2132.27814,0.00674
2130.21797,0.00572
2128.15780,0.00505
2126.09762,0.00627
2124.03745,0.00764
2121.97728,0.00740
2119.91711,0.00652
2117.85694,0.00633
2115.79676,0.00671
2113.73659,0.00721
2111.67642,0.00732
2109.61625,0.00713
2107.55608,0.00752
2105.49590,0.00810
2103.43573,0.00808
2101.37556,0.00775
2099.31539,0.00721
2097.25521,0.00653
2095.19504,0.00653
2093.13487,0.00714
2091.07470,0.00739
2089.01453,0.00696
2086.95435,0.00658
2084.89418,0.00681
2082.83401,0.00662
2080.77384,0.00562
2078.71367,0.00496
2076.65349,0.00476
2074.59332,0.00455
2072.53315,0.00477
2070.47298,0.00541
2068.41281,0.00542
2066.35263,0.00439
2064.29246,0.00392
2062.23229,0.00514
2060.17212,0.00682
2058.11194,0.00772
2056.05177,0.00689
2053.99160,0.00431
2051.93143,0.00280
2049.87126,0.00384
2047.81108,0.00454
2045.75091,0.00294
2043.69074,0.00098
2041.63057,0.00135
2039.57040,0.00313
2037.51022,0.00398
2035.45005,0.00487
2033.38988,0.00656
2031.32971,0.00756
2029.26954,0.00706
2027.20936,0.00560
2025.14919,0.00477
2023.08902,0.00463
2021.02885,0.00370
2018.96867,0.00261
2016.90850,0.00211
2014.84833,0.00294
2012.78816,0.00502
2010.72799,0.00628
2008.66781,0.00668
2006.60764,0.00627
2004.54747,0.00500
2002.48730,0.00448
2000.42713,0.00505
1998.36695,0.00549
1996.30678,0.00477
1994.24661,0.00355
1992.18644,0.00297
1990.12626,0.00317
1988.06609,0.00391
1986.00592,0.00464
1983.94575,0.00511
1981.88558,0.00577
1979.82540,0.00631
1977.76523,0.00581
1975.70506,0.00364
1973.64489,0.00105
1971.58472,0.00000
1969.52454,0.00051
1967.46437,0.00151
1965.40420,0.00152
1963.34403,0.00049
1961.28386,0.00026
1959.22368,0.00161
1957.16351,0.00306
1955.10334,0.00380
1953.04317,0.00426
1950.98299,0.00414
1948.92282,0.00343
1946.86265,0.00278
1944.80248,0.00241
1942.74231,0.00250
1940.68213,0.00333
1938.62196,0.00455
1936.56179,0.00546
1934.50162,0.00548
1932.44145,0.00475
1930.38127,0.00452
1928.32110,0.00508
1926.26093,0.00532
1924.20076,0.00504
1922.14059,0.00463
1920.08041,0.00412
1918.02024,0.00390
1915.96007,0.00423
1913.89990,0.00465
1911.83972,0.00476
1909.77955,0.00470
1907.71938,0.00469
1905.65921,0.00432
1903.59904,0.00355
1901.53886,0.00325
1899.47869,0.00340
1897.41852,0.00312
1895.35835,0.00276
1893.29818,0.00306
1891.23800,0.00362
1889.17783,0.00382
1887.11766,0.00344
1885.05749,0.00285
1882.99731,0.00269
1880.93714,0.00314
1878.87697,0.00379
1876.81680,0.00420
1874.75663,0.00407
1872.69645,0.00335
1870.63628,0.00247
1868.57611,0.00201
1866.51594,0.00201
1864.45577,0.00196
1862.39559,0.00187
1860.33542,0.00212
1858.27525,0.00243
1856.21508,0.00237
1854.15491,0.00224
1852.09473,0.00226
1850.03456,0.00212
1847.97439,0.00180
1845.91422,0.00154
1843.85404,0.00133
1841.79387,0.00114
1839.73370,0.00133
1837.67353,0.00186
1835.61336,0.00203
1833.55318,0.00172
1831.49301,0.00136
1829.43284,0.00113
1827.37267,0.00097
1825.31250,0.00099
1823.25232,0.00142
1821.19215,0.00183
1819.13198,0.00172
1817.07181,0.00147
1815.01163,0.00157
1812.95146,0.00175
1810.89129,0.00153
1808.83112,0.00105
1806.77095,0.00082
1804.71077,0.00068
1802.65060,0.00045
1800.59043,0.00057
1798.53026,0.00094
1796.47009,0.00080
1794.40991,0.00026
1792.34974,0.00000
1790.28957,0.00013
1788.22940,0.00038
1786.16923,0.00051
1784.10905,0.00058
1782.04888,0.00065
1779.98871,0.00055
1777.92854,0.00043
1775.86836,0.00051
1773.80819,0.00059
1771.74802,0.00037
1769.68785,0.00010
1767.62768,0.00021
1765.56750,0.00078
1763.50733,0.00157
1761.44716,0.00240
1759.38699,0.00327
1757.32682,0.00427
1755.26664,0.00529
1753.20647,0.00617
1751.14630,0.00735
1749.08613,0.00906
1747.02596,0.01049
1744.96578,0.01113
1742.90561,0.01144
1740.84544,0.01196
1738.78527,0.01273
1736.72509,0.01326
1734.66492,0.01305
1732.60475,0.01246
1730.54458,0.01236
1728.48441,0.01268
1726.42423,0.01315
1724.36406,0.01361
1722.30389,0.01376
1720.24372,0.01353
1718.18355,0.01337
1716.12337,0.01357
1714.06320,0.01374
1712.00303,0.01362
1709.94286,0.01347
1707.88268,0.01352
1705.82251,0.01374
1703.76234,0.01398
1701.70217,0.01409
1699.64200,0.01385
1697.58182,0.01343
1695.52165,0.01358
1693.46148,0.01443
1691.40131,0.01544
1689.34114,0.01639
1687.28096,0.01730
1685.22079,0.01863
1683.16062,0.02085
1681.10045,0.02302
1679.04028,0.02457
1676.98010,0.02589
1674.91993,0.02719
1672.85976,0.02777
1670.79959,0.02732
1668.73941,0.02657
1666.67924,0.02603
1664.61907,0.02540
1662.55890,0.02463
1660.49873,0.02406
1658.43855,0.02371
1656.37838,0.02343
1654.31821,0.02324
1652.25804,0.02294
1650.19787,0.02236
1648.13769,0.02195
1646.07752,0.02214
1644.01735,0.02261
1641.95718,0.02306
1639.89701,0.02348
1637.83683,0.02388
1635.77666,0.02446
1633.71649,0.02521
1631.65632,0.02578
1629.59614,0.02626
1627.53597,0.02671
1625.47580,0.02704
1623.41563,0.02736
1621.35546,0.02765
1619.29528,0.02794
1617.23511,0.02847
1615.17494,0.02912
1613.11477,0.02980
1611.05460,0.03082
1608.99442,0.03216
1606.93425,0.03327
1604.87408,0.03360
1602.81391,0.03310
1600.75373,0.03211
1598.69356,0.03094
1596.63339,0.02974
1594.57322,0.02856
1592.51305,0.02762
1590.45287,0.02689
1588.39270,0.02617
1586.33253,0.02542
1584.27236,0.02466
1582.21219,0.02391
1580.15201,0.02319
1578.09184,0.02254
1576.03167,0.02186
1573.97150,0.02111
1571.91133,0.02038
1569.85115,0.01977
1567.79098,0.01932
1565.73081,0.01866
1563.67064,0.01767
1561.61046,0.01671
1559.55029,0.01586
1557.49012,0.01495
1555.42995,0.01421
1553.36978,0.01350
1551.30960,0.01270
1549.24943,0.01201
1547.18926,0.01162
1545.12909,0.01125
1543.06892,0.01037
1541.00874,0.00892
1538.94857,0.00773
1536.88840,0.00718
1534.82823,0.00703
1532.76805,0.00704
1530.70788,0.00683
1528.64771,0.00638
1526.58754,0.00611
1524.52737,0.00626
1522.46719,0.00693
1520.40702,0.00815
1518.34685,0.00949
1516.28668,0.01053
1514.22651,0.01092
1512.16633,0.01062
1510.10616,0.00992
1508.04599,0.00879
1505.98582,0.00708
1503.92565,0.00557
1501.86547,0.00457
1499.80530,0.00384
1497.74513,0.00312
1495.68496,0.00235
1493.62478,0.00183
1491.56461,0.00161
1489.50444,0.00147
1487.44427,0.00127
1485.38410,0.00104
1483.32392,0.00080
1481.26375,0.00074
1479.20358,0.00109
1477.14341,0.00191
1475.08324,0.00314
1473.02306,0.00477
1470.96289,0.00668
1468.90272,0.00853
1466.84255,0.01043
1464.78238,0.01221
1462.72220,0.01334
1460.66203,0.01409
1458.60186,0.01521
1456.54169,0.01649
1454.48151,0.01699
1452.42134,0.01708
1450.36117,0.01751
1448.30100,0.01842
1446.24083,0.01953
1444.18065,0.02054
1442.12048,0.02139
1440.06031,0.02193
1438.00014,0.02227
1435.93997,0.02268
1433.87979,0.02299
1431.81962,0.02307
1429.75945,0.02310
1427.69928,0.02332
1425.63910,0.02371
1423.57893,0.02391
1421.51876,0.02389
1419.45859,0.02401
1417.39842,0.02421
1415.33824,0.02417
1413.27807,0.02395
1411.21790,0.02363
1409.15773,0.02323
1407.09756,0.02266
1405.03738,0.02191
1402.97721,0.02106
1400.91704,0.02019
1398.85687,0.01943
1396.79670,0.01890
1394.73652,0.01848
1392.67635,0.01814
1390.61618,0.01812
1388.55601,0.01841
1386.49583,0.01888
1384.43566,0.01943
1382.37549,0.02003
1380.31532,0.02068
1378.25515,0.02128
1376.19497,0.02169
1374.13480,0.02194
1372.07463,0.02214
1370.01446,0.02225
1367.95429,0.02212
1365.89411,0.02174
1363.83394,0.02135
1361.77377,0.02104
1359.71360,0.02060
1357.65343,0.02003
1355.59325,0.01966
1353.53308,0.01974
1351.47291,0.02002
1349.41274,0.02006
1347.35256,0.01986
1345.29239,0.01973
1343.23222,0.01978
1341.17205,0.01982
1339.11188,0.01970
1337.05170,0.01953
1334.99153,0.01951
1332.93136,0.01955
1330.87119,0.01955
1328.81102,0.01961
1326.75084,0.01977
1324.69067,0.01992
1322.63050,0.01997
1320.57033,0.01989
1318.51015,0.01964
1316.44998,0.01936
1314.38981,0.01917
1312.32964,0.01908
1310.26947,0.01901
1308.20929,0.01870
1306.14912,0.01802
1304.08895,0.01723
1302.02878,0.01665
1299.96861,0.01619
1297.90843,0.01563
1295.84826,0.01518
1293.78809,0.01530
1291.72792,0.01589
1289.66775,0.01638
1287.60757,0.01667
1285.54740,0.01673
1283.48723,0.01662
1281.42706,0.01665
1279.36688,0.01687
1277.30671,0.01717
1275.24654,0.01739
1273.18637,0.01745
1271.12620,0.01753
1269.06602,0.01782
1267.00585,0.01833
1264.94568,0.01898
1262.88551,0.01968
1260.82534,0.02056
1258.76516,0.02161
1256.70499,0.02249
1254.64482,0.02316
1252.58465,0.02363
1250.52447,0.02383
1248.46430,0.02395
1246.40413,0.02423
1244.34396,0.02446
1242.28379,0.02447
1240.22361,0.02450
1238.16344,0.02448
1236.10327,0.02417
1234.04310,0.02375
1231.98293,0.02334
1229.92275,0.02251
1227.86258,0.02133
1225.80241,0.02024
1223.74224,0.01928
1221.68207,0.01834
1219.62189,0.01717
1217.56172,0.01568
1215.50155,0.01438
1213.44138,0.01331
1211.38120,0.01237
1209.32103,0.01163
1207.26086,0.01079
1205.20069,0.00979
1203.14052,0.00859
1201.08034,0.00698
1199.02017,0.00514
1196.96000,0.00347
1194.89983,0.00226
1192.83966,0.00155
1190.77948,0.00096
1188.71931,0.00042
1186.65914,0.00013
1184.59897,0.00000
1182.53880,0.00005
1180.47862,0.00049
1178.41845,0.00115
1176.35828,0.00209
1174.29811,0.00351
1172.23793,0.00547
1170.17776,0.00777
1168.11759,0.00960
1166.05742,0.01033
1163.99725,0.01060
1161.93707,0.01114
1159.87690,0.01184
1157.81673,0.01240
1155.75656,0.01288
1153.69639,0.01361
1151.63621,0.01455
1149.57604,0.01541
1147.51587,0.01632
1145.45570,0.01728
1143.39552,0.01802
1141.33535,0.01891
1139.27518,0.01995
1137.21501,0.02066
1135.15484,0.02142
1133.09466,0.02252
1131.03449,0.02353
1128.97432,0.02429
1126.91415,0.02503
1124.85398,0.02583
1122.79380,0.02673
1120.73363,0.02794
1118.67346,0.02934
1116.61329,0.03065
1114.55312,0.03181
1112.49294,0.03267
1110.43277,0.03310
1108.37260,0.03367
1106.31243,0.03495
1104.25225,0.03653
1102.19208,0.03775
1100.13191,0.03890
1098.07174,0.04057
1096.01157,0.04258
1093.95139,0.04445
1091.89122,0.04613
1089.83105,0.04797
1087.77088,0.04968
1085.71071,0.05091
1083.65053,0.05243
1081.59036,0.05456
1079.53019,0.05684
1077.47002,0.05895
1075.40985,0.06077
1073.34967,0.06263
1071.28950,0.06459
1069.22933,0.06628
1067.16916,0.06754
1065.10898,0.06858
1063.04881,0.06999
1060.98864,0.07182
1058.92847,0.07328
1056.86830,0.07419
1054.80812,0.07547
1052.74795,0.07762
1050.68778,0.07996
1048.62761,0.08212
1046.56744,0.08439
1044.50726,0.08681
1042.44709,0.08910
1040.38692,0.09096
1038.32675,0.09230
1036.26657,0.09328
1034.20640,0.09393
1032.14623,0.09433
1030.08606,0.09452
1028.02589,0.09445
1025.96571,0.09439
1023.90554,0.09449
1021.84537,0.09431
1019.78520,0.09384
1017.72503,0.09342
1015.66485,0.09316
1013.60468,0.09329
1011.54451,0.09397
1009.48434,0.09429
1007.42417,0.09365
1005.36399,0.09323
1003.30382,0.09318
1001.24365,0.09264
999.18348,0.09174
997.12330,0.09039
995.06313,0.08872
993.00296,0.08731
990.94279,0.08592
988.88262,0.08421
986.82244,0.08256
984.76227,0.08128
982.70210,0.07996
980.64193,0.07842
978.58176,0.07696
976.52158,0.07574
974.46141,0.07452
972.40124,0.07304
970.34107,0.07181
968.28089,0.07093
966.22072,0.06942
964.16055,0.06752
962.10038,0.06586
960.04021,0.06399
957.98003,0.06201
955.91986,0.06051
953.85969,0.05918
951.79952,0.05759
949.73935,0.05610
947.67917,0.05499
945.61900,0.05399
943.55883,0.05274
941.49866,0.05086
939.43849,0.04818
937.37831,0.04525
935.31814,0.04268
933.25797,0.03997
931.19780,0.03687
929.13762,0.03413
927.07745,0.03210
925.01728,0.03018
922.95711,0.02810
920.89694,0.02618
918.83676,0.02464
916.77659,0.02342
914.71642,0.02247
912.65625,0.02144
910.59608,0.01998
908.53590,0.01826
906.47573,0.01679
904.41556,0.01585
902.35539,0.01525
900.29522,0.01484
898.23504,0.01496
896.17487,0.01553
894.11470,0.01590
892.05453,0.01615
889.99435,0.01623
887.93418,0.01548
885.87401,0.01427
883.81384,0.01352
881.75367,0.01301
879.69349,0.01188
877.63332,0.01061
875.57315,0.01005
873.51298,0.00967
871.45281,0.00900
869.39263,0.00844
867.33246,0.00792
865.27229,0.00751
863.21212,0.00770
861.15194,0.00778
859.09177,0.00760
857.03160,0.00762
854.97143,0.00742
852.91126,0.00700
850.85108,0.00667
848.79091,0.00633
846.73074,0.00635
844.67057,0.00664
842.61040,0.00669
840.55022,0.00654
838.49005,0.00619
836.42988,0.00593
834.36971,0.00603
832.30954,0.00654
830.24936,0.00703
828.18919,0.00619
826.12902,0.00416
824.06885,0.00246
822.00867,0.00179
819.94850,0.00219
817.88833,0.00282
815.82816,0.00250
813.76799,0.00179
811.70781,0.00153
809.64764,0.00140
807.58747,0.00121
805.52730,0.00127
803.46713,0.00148
801.40695,0.00121
799.34678,0.00067
797.28661,0.00108
795.22644,0.00203
793.16627,0.00181
791.10609,0.00098
789.04592,0.00075
786.98575,0.00107
784.92558,0.00172
782.86540,0.00211
780.80523,0.00173
778.74506,0.00118
776.68489,0.00166
774.62472,0.00285
772.56454,0.00307
770.50437,0.00222
768.44420,0.00196
766.38403,0.00199
764.32386,0.00116
762.26368,0.00079
760.20351,0.00140
758.14334,0.00141
756.08317,0.00096
754.02299,0.00136
751.96282,0.00185
749.90265,0.00165
747.84248,0.00194
745.78231,0.00278
743.72213,0.00269
741.66196,0.00183
739.60179,0.00085
737.54162,0.00000
735.48145,-0.00024
733.42127,0.00066
731.36110,0.00231
729.30093,0.00368
727.24076,0.00400
725.18059,0.00325
723.12041,0.00280
721.06024,0.00345
719.00007,0.00443
716.93990,0.00423
714.87972,0.00274
712.81955,0.00201
710.75938,0.00352
708.69921,0.00619
706.63904,0.00833
704.57886,0.00958
702.51869,0.01062
700.45852,0.01153
698.39835,0.01132
696.33818,0.00951
694.27800,0.00780
692.21783,0.00825
690.15766,0.00960
688.09749,0.00916
686.03731,0.00730
683.97714,0.00628
681.91697,0.00713
679.85680,0.00829
677.79663,0.00763
675.73645,0.00520
673.67628,0.00205
671.61611,0.00000
669.55594,0.00191
667.49577,0.00652
665.43559,0.00647
663.37542,0.00322
661.31525,0.00232
659.25508,0.00473
657.19491,0.00717
655.13473,0.00709
653.07456,0.00451
651.01439,0.00143
648.95422,0.00000
646.89404,-0.00002
644.83387,0.00055
642.77370,0.00128
640.71353,0.00168
638.65336,0.00232
636.59318,0.00385
634.53301,0.00541
632.47284,0.00630
630.41267,0.00637
628.35250,0.00560
626.29232,0.00485
624.23215,0.00541
622.17198,0.00670
620.11181,0.00883
618.05164,0.01333
615.99146,0.01554
613.93129,0.01115
611.87112,0.00544
609.81095,0.00345
607.75077,0.00525
605.69060,0.00898
603.63043,0.00964
601.57026,0.00518
599.51009,0.00000
