3996.73391,0.00025
3994.67373,0.00015
3992.61356,0.00015
3990.55339,0.00018
3988.49322,0.00008
3986.43305,-0.00008
3984.37287,-0.00008
3982.31270,0.00005
3980.25253,0.00020
3978.19236,0.00029
3976.13219,0.00040
3974.07201,0.00067
3972.01184,0.00086
3969.95167,0.00081
3967.89150,0.00072
3965.83133,0.00059
3963.77115,0.00030
3961.71098,0.00002
3959.65081,0.00000
3957.59064,0.00041
3955.53046,0.00110
3953.47029,0.00171
3951.41012,0.00206
3949.34995,0.00208
3947.28978,0.00183
3945.22960,0.00145
3943.16943,0.00097
3941.10926,0.00067
3939.04909,0.00080
3936.98892,0.00120
3934.92874,0.00151
3932.86857,0.00140
3930.80840,0.00104
3928.74823,0.00092
3926.68805,0.00111
3924.62788,0.00128
3922.56771,0.00121
3920.50754,0.00104
3918.44737,0.00128
3916.38719,0.00179
3914.32702,0.00182
3912.26685,0.00141
3910.20668,0.00096
3908.14651,0.00057
3906.08633,0.00070
3904.02616,0.00157
3901.96599,0.00208
3899.90582,0.00185
3897.84565,0.00159
3895.78547,0.00135
3893.72530,0.00098
3891.66513,0.00093
3889.60496,0.00147
3887.54478,0.00191
3885.48461,0.00174
3883.42444,0.00114
3881.36427,0.00064
3879.30410,0.00056
3877.24392,0.00074
3875.18375,0.00083
3873.12358,0.00063
3871.06341,0.00028
3869.00324,0.00024
3866.94306,0.00058
3864.88289,0.00095
3862.82272,0.00126
3860.76255,0.00141
3858.70237,0.00131
3856.64220,0.00132
3854.58203,0.00161
3852.52186,0.00182
3850.46169,0.00184
3848.40151,0.00178
3846.34134,0.00187
3844.28117,0.00228
3842.22100,0.00251
3840.16083,0.00227
3838.10065,0.00213
3836.04048,0.00231
3833.98031,0.00243
3831.92014,0.00248
3829.85997,0.00241
3827.79979,0.00202
3825.73962,0.00163
3823.67945,0.00166
3821.61928,0.00205
3819.55910,0.00247
3817.49893,0.00268
3815.43876,0.00252
3813.37859,0.00213
3811.31842,0.00185
3809.25824,0.00164
3807.19807,0.00134
3805.13790,0.00095
3803.07773,0.00039
3801.01756,0.00000
3798.95738,0.00041
3796.89721,0.00136
3794.83704,0.00215
3792.77687,0.00225
3790.71670,0.00185
3788.65652,0.00166
3786.59635,0.00189
3784.53618,0.00208
3782.47601,0.00198
3780.41583,0.00187
3778.35566,0.00194
3776.29549,0.00209
3774.23532,0.00217
3772.17515,0.00202
3770.11497,0.00166
3768.05480,0.00142
3765.99463,0.00148
3763.93446,0.00174
3761.87429,0.00183
3759.81411,0.00175
3757.75394,0.00188
3755.69377,0.00210
3753.63360,0.00186
3751.57342,0.00125
3749.51325,0.00115
3747.45308,0.00162
3745.39291,0.00185
3743.33274,0.00172
3741.27256,0.00165
3739.21239,0.00162
3737.15222,0.00122
3735.09205,0.00042
3733.03188,0.00000
3730.97170,0.00041
3728.91153,0.00111
3726.85136,0.00157
3724.79119,0.00191
3722.73102,0.00235
3720.67084,0.00260
3718.61067,0.00253
3716.55050,0.00218
3714.49033,0.00184
3712.43015,0.00200
3710.36998,0.00256
3708.30981,0.00273
3706.24964,0.00228
3704.18947,0.00207
3702.12929,0.00217
3700.06912,0.00181
3698.00895,0.00105
3695.94878,0.00064
3693.88861,0.00083
3691.82843,0.00128
3689.76826,0.00170
3687.70809,0.00216
3685.64792,0.00255
3683.58775,0.00241
3681.52757,0.00167
3679.46740,0.00070
3677.40723,0.00023
3675.34706,0.00073
3673.28688,0.00144
3671.22671,0.00144
3669.16654,0.00109
3667.10637,0.00112
3665.04620,0.00157
3662.98602,0.00192
3660.92585,0.00178
3658.86568,0.00140
3656.80551,0.00152
3654.74534,0.00238
3652.68516,0.00328
3650.62499,0.00376
3648.56482,0.00372
3646.50465,0.00331
3644.44447,0.00295
3642.38430,0.00268
3640.32413,0.00261
3638.26396,0.00276
3636.20379,0.00283
3634.14361,0.00282
3632.08344,0.00297
3630.02327,0.00316
3627.96310,0.00307
3625.90293,0.00304
3623.84275,0.00325
3621.78258,0.00316
3619.72241,0.00269
3617.66224,0.00271
3615.60207,0.00338
3613.54189,0.00403
3611.48172,0.00441
3609.42155,0.00437
3607.36138,0.00416
3605.30120,0.00428
3603.24103,0.00461
3601.18086,0.00472
3599.12069,0.00474
3597.06052,0.00519
3595.00034,0.00575
3592.94017,0.00592
3590.88000,0.00591
3588.81983,0.00624
3586.75966,0.00661
3584.69948,0.00658
3582.63931,0.00667
3580.57914,0.00735
3578.51897,0.00822
3576.45879,0.00861
3574.39862,0.00863
3572.33845,0.00897
3570.27828,0.00957
3568.21811,0.00974
3566.15793,0.00950
3564.09776,0.00949
3562.03759,0.01003
3559.97742,0.01088
3557.91725,0.01147
3555.85707,0.01159
3553.79690,0.01149
3551.73673,0.01158
3549.67656,0.01191
3547.61639,0.01208
3545.55621,0.01198
3543.49604,0.01219
3541.43587,0.01306
3539.37570,0.01403
3537.31552,0.01452
3535.25535,0.01470
3533.19518,0.01512
3531.13501,0.01597
3529.07484,0.01680
3527.01466,0.01721
3524.95449,0.01751
3522.89432,0.01789
3520.83415,0.01802
3518.77398,0.01785
3516.71380,0.01752
3514.65363,0.01723
3512.59346,0.01733
3510.53329,0.01801
3508.47312,0.01882
3506.41294,0.01917
3504.35277,0.01954
3502.29260,0.02060
3500.23243,0.02168
3498.17225,0.02175
3496.11208,0.02119
3494.05191,0.02132
3491.99174,0.02238
3489.93157,0.02329
3487.87139,0.02335
3485.81122,0.02315
3483.75105,0.02341
3481.69088,0.02412
3479.63071,0.02496
3477.57053,0.02557
3475.51036,0.02576
3473.45019,0.02585
3471.39002,0.02605
3469.32984,0.02617
3467.26967,0.02593
3465.20950,0.02553
3463.14933,0.02563
3461.08916,0.02626
3459.02898,0.02701
3456.96881,0.02786
3454.90864,0.02858
3452.84847,0.02892
3450.78830,0.02904
3448.72812,0.02897
3446.66795,0.02886
3444.60778,0.02911
3442.54761,0.02963
3440.48744,0.03009
3438.42726,0.03061
3436.36709,0.03134
3434.30692,0.03193
3432.24675,0.03212
3430.18657,0.03207
3428.12640,0.03201
3426.06623,0.03231
3424.00606,0.03300
3421.94589,0.03323
3419.88571,0.03298
3417.82554,0.03340
3415.76537,0.03441
3413.70520,0.03483
3411.64503,0.03470
3409.58485,0.03485
3407.52468,0.03523
3405.46451,0.03538
3403.40434,0.03539
3401.34416,0.03567
3399.28399,0.03631
3397.22382,0.03672
3395.16365,0.03666
3393.10348,0.03656
3391.04330,0.03650
3388.98313,0.03649
3386.92296,0.03685
3384.86279,0.03740
3382.80262,0.03778
3380.74244,0.03801
3378.68227,0.03836
3376.62210,0.03862
3374.56193,0.03832
3372.50176,0.03803
3370.44158,0.03844
3368.38141,0.03907
3366.32124,0.03948
3364.26107,0.03973
3362.20089,0.03968
3360.14072,0.03954
3358.08055,0.03956
3356.02038,0.03970
3353.96021,0.04011
3351.90003,0.04066
3349.83986,0.04079
3347.77969,0.04055
3345.71952,0.04053
3343.65935,0.04082
3341.59917,0.04120
3339.53900,0.04162
3337.47883,0.04184
3335.41866,0.04150
3333.35849,0.04088
3331.29831,0.04084
3329.23814,0.04149
3327.17797,0.04209
3325.11780,0.04213
3323.05762,0.04176
3320.99745,0.04121
3318.93728,0.04077
3316.87711,0.04080
3314.81694,0.04127
3312.75676,0.04174
3310.69659,0.04188
3308.63642,0.04181
3306.57625,0.04180
3304.51608,0.04185
3302.45590,0.04190
3300.39573,0.04207
3298.33556,0.04228
3296.27539,0.04224
3294.21521,0.04200
3292.15504,0.04192
3290.09487,0.04203
3288.03470,0.04222
3285.97453,0.04256
3283.91435,0.04285
3281.85418,0.04279
3279.79401,0.04259
3277.73384,0.04245
3275.67367,0.04231
3273.61349,0.04212
3271.55332,0.04167
3269.49315,0.04129
3267.43298,0.04139
3265.37281,0.04162
3263.31263,0.04148
3261.25246,0.04129
3259.19229,0.04144
3257.13212,0.04163
3255.07194,0.04173
3253.01177,0.04180
3250.95160,0.04166
3248.89143,0.04141
3246.83126,0.04132
3244.77108,0.04141
3242.71091,0.04154
3240.65074,0.04158
3238.59057,0.04143
3236.53040,0.04102
3234.47022,0.04084
3232.41005,0.04113
3230.34988,0.04123
3228.28971,0.04086
3226.22954,0.04041
3224.16936,0.04008
3222.10919,0.03984
3220.04902,0.03961
3217.98885,0.03954
3215.92867,0.03977
3213.86850,0.03988
3211.80833,0.03962
3209.74816,0.03936
3207.68799,0.03924
3205.62781,0.03923
3203.56764,0.03926
3201.50747,0.03898
3199.44730,0.03837
3197.38713,0.03796
3195.32695,0.03780
3193.26678,0.03765
3191.20661,0.03763
3189.14644,0.03768
3187.08626,0.03754
3185.02609,0.03742
3182.96592,0.03744
3180.90575,0.03725
3178.84558,0.03677
3176.78540,0.03628
3174.72523,0.03594
3172.66506,0.03575
3170.60489,0.03557
3168.54472,0.03541
3166.48454,0.03529
3164.42437,0.03502
3162.36420,0.03480
3160.30403,0.03486
3158.24386,0.03470
3156.18368,0.03416
3154.12351,0.03374
3152.06334,0.03369
3150.00317,0.03391
3147.94299,0.03414
3145.88282,0.03382
3143.82265,0.03326
3141.76248,0.03318
3139.70231,0.03330
3137.64213,0.03310
3135.58196,0.03280
3133.52179,0.03254
3131.46162,0.03208
3129.40145,0.03151
3127.34127,0.03119
3125.28110,0.03104
3123.22093,0.03069
3121.16076,0.03033
3119.10058,0.03036
3117.04041,0.03055
3114.98024,0.03035
3112.92007,0.02970
3110.85990,0.02917
3108.79972,0.02889
3106.73955,0.02885
3104.67938,0.02914
3102.61921,0.02938
3100.55904,0.02917
3098.49886,0.02861
3096.43869,0.02801
3094.37852,0.02757
3092.31835,0.02744
3090.25818,0.02752
3088.19800,0.02750
3086.13783,0.02728
3084.07766,0.02709
3082.01749,0.02704
3079.95731,0.02672
3077.89714,0.02609
3075.83697,0.02579
3073.77680,0.02592
3071.71663,0.02585
3069.65645,0.02554
3067.59628,0.02553
3065.53611,0.02584
3063.47594,0.02581
3061.41577,0.02550
3059.35559,0.02539
3057.29542,0.02519
3055.23525,0.02463
3053.17508,0.02401
3051.11491,0.02353
3049.05473,0.02320
3046.99456,0.02314
3044.93439,0.02325
3042.87422,0.02305
3040.81404,0.02250
3038.75387,0.02213
3036.69370,0.02216
3034.63353,0.02218
3032.57336,0.02205
3030.51318,0.02190
3028.45301,0.02172
3026.39284,0.02157
3024.33267,0.02143
3022.27250,0.02135
3020.21232,0.02136
3018.15215,0.02128
3016.09198,0.02099
3014.03181,0.02066
3011.97163,0.02049
3009.91146,0.02036
3007.85129,0.02018
3005.79112,0.02000
3003.73095,0.01989
3001.67077,0.01991
2999.61060,0.02010
2997.55043,0.02029
2995.49026,0.02022
2993.43009,0.02007
2991.36991,0.01997
2989.30974,0.01974
2987.24957,0.01938
2985.18940,0.01912
2983.12923,0.01937
2981.06905,0.02012
2979.00888,0.02061
2976.94871,0.02084
2974.88854,0.02125
2972.82836,0.02159
2970.76819,0.02191
2968.70802,0.02273
2966.64785,0.02384
2964.58768,0.02457
2962.52750,0.02516
2960.46733,0.02639
2958.40716,0.02819
2956.34699,0.02998
2954.28682,0.03134
2952.22664,0.03230
2950.16647,0.03343
2948.10630,0.03495
2946.04613,0.03656
2943.98596,0.03828
2941.92578,0.04043
2939.86561,0.04282
2937.80544,0.04475
2935.74527,0.04629
2933.68509,0.04801
2931.62492,0.04986
2929.56475,0.05160
2927.50458,0.05317
2925.44441,0.05453
2923.38423,0.05575
2921.32406,0.05662
2919.26389,0.05684
2917.20372,0.05637
2915.14355,0.05530
2913.08337,0.05350
2911.02320,0.05111
2908.96303,0.04874
2906.90286,0.04676
2904.84268,0.04520
2902.78251,0.04404
2900.72234,0.04305
2898.66217,0.04191
2896.60200,0.04079
2894.54182,0.03993
2892.48165,0.03925
2890.42148,0.03853
2888.36131,0.03766
2886.30114,0.03686
2884.24096,0.03628
2882.18079,0.03569
2880.12062,0.03513
2878.06045,0.03501
2876.00028,0.03523
2873.94010,0.03528
2871.87993,0.03532
2869.81976,0.03564
2867.75959,0.03598
2865.69941,0.03639
2863.63924,0.03731
2861.57907,0.03868
2859.51890,0.04019
2857.45873,0.04165
2855.39855,0.04283
2853.33838,0.04389
2851.27821,0.04479
2849.21804,0.04470
2847.15787,0.04311
2845.09769,0.04041
2843.03752,0.03741
2840.97735,0.03486
2838.91718,0.03306
2836.85700,0.03178
2834.79683,0.03065
2832.73666,0.02936
2830.67649,0.02821
2828.61632,0.02747
2826.55614,0.02689
2824.49597,0.02626
2822.43580,0.02576
2820.37563,0.02554
2818.31546,0.02541
2816.25528,0.02503
2814.19511,0.02428
2812.13494,0.02365
2810.07477,0.02358
2808.01460,0.02373
2805.95442,0.02353
2803.89425,0.02300
2801.83408,0.02256
2799.77391,0.02228
2797.71373,0.02199
2795.65356,0.02173
2793.59339,0.02169
2791.53322,0.02183
2789.47305,0.02183
2787.41287,0.02144
2785.35270,0.02099
2783.29253,0.02084
2781.23236,0.02070
2779.17219,0.02043
2777.11201,0.02018
2775.05184,0.02002
2772.99167,0.01999
2770.93150,0.02002
2768.87133,0.01978
2766.81115,0.01934
2764.75098,0.01918
2762.69081,0.01944
2760.63064,0.01967
2758.57046,0.01958
2756.51029,0.01937
2754.45012,0.01924
2752.38995,0.01920
2750.32978,0.01926
2748.26960,0.01926
2746.20943,0.01922
2744.14926,0.01921
2742.08909,0.01910
2740.02892,0.01892
2737.96874,0.01879
2735.90857,0.01879
2733.84840,0.01887
2731.78823,0.01894
2729.72805,0.01900
2727.66788,0.01903
2725.60771,0.01887
2723.54754,0.01854
2721.48737,0.01836
2719.42719,0.01847
2717.36702,0.01856
2715.30685,0.01826
2713.24668,0.01782
2711.18651,0.01765
2709.12633,0.01777
2707.06616,0.01802
2705.00599,0.01825
2702.94582,0.01833
2700.88565,0.01824
2698.82547,0.01814
2696.76530,0.01808
2694.70513,0.01795
2692.64496,0.01791
2690.58478,0.01791
2688.52461,0.01763
2686.46444,0.01728
2684.40427,0.01724
2682.34410,0.01735
2680.28392,0.01751
2678.22375,0.01772
2676.16358,0.01776
2674.10341,0.01757
2672.04324,0.01743
2669.98306,0.01736
2667.92289,0.01728
2665.86272,0.01739
2663.80255,0.01748
2661.74238,0.01718
2659.68220,0.01676
2657.62203,0.01654
2655.56186,0.01663
2653.50169,0.01693
2651.44151,0.01708
2649.38134,0.01713
2647.32117,0.01726
2645.26100,0.01708
2643.20083,0.01649
2641.14065,0.01606
2639.08048,0.01594
2637.02031,0.01609
2634.96014,0.01635
2632.89997,0.01614
2630.83979,0.01572
2628.77962,0.01593
2626.71945,0.01626
2624.65928,0.01600
2622.59910,0.01564
2620.53893,0.01555
2618.47876,0.01543
2616.41859,0.01521
2614.35842,0.01503
2612.29824,0.01487
2610.23807,0.01480
2608.17790,0.01499
2606.11773,0.01527
2604.05756,0.01514
2601.99738,0.01480
2599.93721,0.01472
2597.87704,0.01474
2595.81687,0.01458
2593.75670,0.01441
2591.69652,0.01438
2589.63635,0.01438
2587.57618,0.01463
2585.51601,0.01496
2583.45583,0.01458
2581.39566,0.01360
2579.33549,0.01309
2577.27532,0.01343
2575.21515,0.01378
2573.15497,0.01364
2571.09480,0.01348
2569.03463,0.01338
2566.97446,0.01295
2564.91429,0.01244
2562.85411,0.01240
2560.79394,0.01258
2558.73377,0.01273
2556.67360,0.01310
2554.61342,0.01354
2552.55325,0.01390
2550.49308,0.01427
2548.43291,0.01417
2546.37274,0.01336
2544.31256,0.01264
2542.25239,0.01269
2540.19222,0.01296
2538.13205,0.01304
2536.07188,0.01307
2534.01170,0.01287
2531.95153,0.01264
2529.89136,0.01257
2527.83119,0.01240
2525.77102,0.01223
2523.71084,0.01224
2521.65067,0.01219
2519.59050,0.01203
2517.53033,0.01189
2515.47015,0.01190
2513.40998,0.01169
2511.34981,0.01110
2509.28964,0.01090
2507.22947,0.01128
2505.16929,0.01187
2503.10912,0.01237
2501.04895,0.01252
2498.98878,0.01237
2496.92861,0.01199
2494.86843,0.01151
2492.80826,0.01103
2490.74809,0.01053
2488.68792,0.01041
2486.62775,0.01088
2484.56757,0.01126
2482.50740,0.01125
2480.44723,0.01122
2478.38706,0.01134
2476.32688,0.01128
2474.26671,0.01103
2472.20654,0.01102
2470.14637,0.01129
2468.08620,0.01162
2466.02602,0.01197
2463.96585,0.01213
2461.90568,0.01199
2459.84551,0.01161
2457.78534,0.01104
2455.72516,0.01045
2453.66499,0.01039
2451.60482,0.01089
2449.54465,0.01099
2447.48447,0.01064
2445.42430,0.01041
2443.36413,0.01005
2441.30396,0.00977
2439.24379,0.01008
2437.18361,0.01035
2435.12344,0.01017
2433.06327,0.01010
2431.00310,0.01012
2428.94293,0.01007
2426.88275,0.01020
2424.82258,0.01040
2422.76241,0.01039
2420.70224,0.01018
2418.64207,0.01008
2416.58189,0.01013
2414.52172,0.01006
2412.46155,0.00989
2410.40138,0.00981
2408.34120,0.00964
2406.28103,0.00924
2404.22086,0.00920
2402.16069,0.00987
2400.10052,0.01027
2398.04034,0.01010
2395.98017,0.01016
2393.92000,0.01043
2391.85983,0.01030
2389.79966,0.00987
2387.73948,0.00967
2385.67931,0.00977
2383.61914,0.00995
2381.55897,0.01010
2379.49880,0.01035
2377.43862,0.01059
2375.37845,0.01113
2373.31828,0.01206
2371.25811,0.01285
2369.19793,0.01288
2367.13776,0.01069
2365.07759,0.00595
2363.01742,0.00227
2360.95725,0.00115
2358.89707,0.00413
2356.83690,0.00813
2354.77673,0.01069
2352.71656,0.01212
2350.65639,0.01020
2348.59621,0.00845
2346.53604,0.01080
2344.47587,0.01050
2342.41570,0.00880
2340.35552,0.00809
2338.29535,0.00873
2336.23518,0.01117
2334.17501,0.01375
2332.11484,0.01464
2330.05466,0.01368
2327.99449,0.01280
2325.93432,0.01108
2323.87415,0.00954
2321.81398,0.00930
2319.75380,0.01021
2317.69363,0.01023
2315.63346,0.01021
2313.57329,0.01053
2311.51312,0.01060
2309.45294,0.01011
2307.39277,0.00944
2305.33260,0.00924
2303.27243,0.00963
2301.21225,0.01030
2299.15208,0.01037
2297.09191,0.00989
2295.03174,0.00951
2292.97157,0.00947
2290.91139,0.00969
2288.85122,0.00998
2286.79105,0.01001
2284.73088,0.00954
2282.67071,0.00898
2280.61053,0.00880
2278.55036,0.00883
2276.49019,0.00865
2274.43002,0.00828
2272.36984,0.00790
2270.30967,0.00744
2268.24950,0.00742
2266.18933,0.00820
2264.12916,0.00882
2262.06898,0.00865
2260.00881,0.00830
2257.94864,0.00799
2255.88847,0.00753
2253.82830,0.00719
2251.76812,0.00722
2249.70795,0.00770
2247.64778,0.00891
2245.58761,0.00980
2243.52744,0.00867
2241.46726,0.00682
2239.40709,0.00618
2237.34692,0.00628
2235.28675,0.00619
2233.22657,0.00586
2231.16640,0.00569
2229.10623,0.00634
2227.04606,0.00691
2224.98589,0.00567
2222.92571,0.00424
2220.86554,0.00498
2218.80537,0.00717
2216.74520,0.00854
2214.68503,0.00769
2212.62485,0.00598
2210.56468,0.00567
2208.50451,0.00649
2206.44434,0.00703
2204.38417,0.00660
2202.32399,0.00513
2200.26382,0.00410
2198.20365,0.00459
2196.14348,0.00539
2194.08330,0.00582
2192.02313,0.00657
2189.96296,0.00713
2187.90279,0.00665
2185.84262,0.00564
2183.78244,0.00499
2181.72227,0.00535
2179.66210,0.00600
2177.60193,0.00590
2175.54176,0.00636
2173.48158,0.00784
2171.42141,0.00866
2169.36124,0.00779
2167.30107,0.00494
2165.24089,0.00211
2163.18072,0.00209
2161.12055,0.00369
2159.06038,0.00456
2157.00021,0.00464
2154.94003,0.00465
2152.87986,0.00493
2150.81969,0.00534
2148.75952,0.00575
2146.69935,0.00599
2144.63917,0.00623
2142.57900,0.00632
2140.51883,0.00608
2138.45866,0.00564
2136.39849,0.00550
2134.33831,0.00567
2132.27814,0.00542
2130.21797,0.00511
2128.15780,0.00543
2126.09762,0.00620
2124.03745,0.00658
2121.97728,0.00594
2119.91711,0.00494
2117.85694,0.00489
2115.79676,0.00599
2113.73659,0.00691
2111.67642,0.00668
2109.61625,0.00632
2107.55608,0.00666
2105.49590,0.00659
2103.43573,0.00566
2101.37556,0.00499
2099.31539,0.00533
2097.25521,0.00587
2095.19504,0.00622
2093.13487,0.00691
2091.07470,0.00709
2089.01453,0.00617
2086.95435,0.00540
2084.89418,0.00555
2082.83401,0.00552
2080.77384,0.00502
2078.71367,0.00481
2076.65349,0.00465
2074.59332,0.00442
2072.53315,0.00483
2070.47298,0.00580
2068.41281,0.00613
2066.35263,0.00534
2064.29246,0.00490
2062.23229,0.00575
2060.17212,0.00676
2058.11194,0.00725
2056.05177,0.00674
2053.99160,0.00469
2051.93143,0.00301
2049.87126,0.00365
2047.81108,0.00517
2045.75091,0.00483
2043.69074,0.00230
2041.63057,0.00026
2039.57040,0.00033
2037.51022,0.00116
2035.45005,0.00216
2033.38988,0.00371
2031.32971,0.00527
2029.26954,0.00536
2027.20936,0.00363
2025.14919,0.00285
2023.08902,0.00374
2021.02885,0.00340
2018.96867,0.00172
2016.90850,0.00064
2014.84833,0.00121
2012.78816,0.00267
2010.72799,0.00348
2008.66781,0.00397
2006.60764,0.00391
2004.54747,0.00317
2002.48730,0.00326
2000.42713,0.00465
1998.36695,0.00590
1996.30678,0.00493
1994.24661,0.00194
1992.18644,0.00000
1990.12626,0.00131
1988.06609,0.00408
1986.00592,0.00522
1983.94575,0.00518
1981.88558,0.00613
1979.82540,0.00665
1977.76523,0.00470
1975.70506,0.00217
1973.64489,0.00163
1971.58472,0.00235
1969.52454,0.00266
1967.46437,0.00265
1965.40420,0.00208
1963.34403,0.00082
1961.28386,0.00011
1959.22368,0.00059
1957.16351,0.00143
1955.10334,0.00241
1953.04317,0.00357
1950.98299,0.00385
1948.92282,0.00333
1946.86265,0.00286
1944.80248,0.00240
1942.74231,0.00232
1940.68213,0.00325
1938.62196,0.00420
1936.56179,0.00427
1934.50162,0.00369
1932.44145,0.00292
1930.38127,0.00265
1928.32110,0.00330
1926.26093,0.00416
1924.20076,0.00451
1922.14059,0.00429
1920.08041,0.00375
1918.02024,0.00345
1915.96007,0.00379
1913.89990,0.00442
1911.83972,0.00456
1909.77955,0.00410
1907.71938,0.00368
1905.65921,0.00343
1903.59904,0.00298
1901.53886,0.00269
1899.47869,0.00280
1897.41852,0.00286
1895.35835,0.00291
1893.29818,0.00325
1891.23800,0.00345
1889.17783,0.00335
1887.11766,0.00318
1885.05749,0.00297
1882.99731,0.00268
1880.93714,0.00249
1878.87697,0.00265
1876.81680,0.00297
1874.75663,0.00298
1872.69645,0.00247
1870.63628,0.00166
1868.57611,0.00115
1866.51594,0.00129
1864.45577,0.00164
1862.39559,0.00183
1860.33542,0.00197
1858.27525,0.00206
1856.21508,0.00197
1854.15491,0.00185
1852.09473,0.00185
1850.03456,0.00189
1847.97439,0.00194
1845.91422,0.00208
1843.85404,0.00218
1841.79387,0.00208
1839.73370,0.00212
1837.67353,0.00240
1835.61336,0.00255
1833.55318,0.00237
1831.49301,0.00196
1829.43284,0.00155
1827.37267,0.00128
1825.31250,0.00117
1823.25232,0.00136
1821.19215,0.00154
1819.13198,0.00135
1817.07181,0.00114
1815.01163,0.00131
1812.95146,0.00157
1810.89129,0.00144
1808.83112,0.00105
1806.77095,0.00085
1804.71077,0.00069
1802.65060,0.00025
1800.59043,0.00000
1798.53026,0.00014
1796.47009,0.00026
1794.40991,0.00016
1792.34974,-0.00007
1790.28957,-0.00024
1788.22940,-0.00021
1786.16923,-0.00014
1784.10905,-0.00000
1782.04888,0.00018
1779.98871,0.00020
1777.92854,0.00015
1775.86836,0.00022
1773.80819,0.00019
1771.74802,-0.00014
1769.68785,-0.00038
1767.62768,-0.00003
1765.56750,0.00072
1763.50733,0.00145
1761.44716,0.00209
1759.38699,0.00280
1757.32682,0.00379
1755.26664,0.00504
1753.20647,0.00605
1751.14630,0.00687
1749.08613,0.00801
1747.02596,0.00939
1744.96578,0.01042
1742.90561,0.01100
1740.84544,0.01152
1738.78527,0.01231
1736.72509,0.01313
1734.66492,0.01334
1732.60475,0.01300
1730.54458,0.01286
1728.48441,0.01305
1726.42423,0.01333
1724.36406,0.01368
1722.30389,0.01393
1720.24372,0.01372
1718.18355,0.01317
1716.12337,0.01313
1714.06320,0.01363
1712.00303,0.01390
1709.94286,0.01387
1707.88268,0.01382
1705.82251,0.01383
1703.76234,0.01382
1701.70217,0.01375
1699.64200,0.01364
1697.58182,0.01365
1695.52165,0.01392
1693.46148,0.01447
1691.40131,0.01534
1689.34114,0.01644
1687.28096,0.01732
1685.22079,0.01823
1683.16062,0.02010
1681.10045,0.02245
1679.04028,0.02439
1676.98010,0.02592
1674.91993,0.02704
1672.85976,0.02740
1670.79959,0.02700
1668.73941,0.02641
1666.67924,0.02603
1664.61907,0.02559
1662.55890,0.02503
1660.49873,0.02466
1658.43855,0.02431
1656.37838,0.02378
1654.31821,0.02338
1652.25804,0.02317
1650.19787,0.02260
1648.13769,0.02199
1646.07752,0.02209
1644.01735,0.02273
1641.95718,0.02324
1639.89701,0.02347
1637.83683,0.02354
1635.77666,0.02400
1633.71649,0.02506
1631.65632,0.02595
1629.59614,0.02652
1627.53597,0.02696
1625.47580,0.02726
1623.41563,0.02749
1621.35546,0.02772
1619.29528,0.02800
1617.23511,0.02847
1615.17494,0.02918
1613.11477,0.03002
1611.05460,0.03116
1608.99442,0.03263
1606.93425,0.03389
1604.87408,0.03431
1602.81391,0.03384
1600.75373,0.03284
1598.69356,0.03154
1596.63339,0.03011
1594.57322,0.02883
1592.51305,0.02788
1590.45287,0.02716
1588.39270,0.02649
1586.33253,0.02578
1584.27236,0.02498
1582.21219,0.02412
1580.15201,0.02320
1578.09184,0.02222
1576.03167,0.02141
1573.97150,0.02080
1571.91133,0.02009
1569.85115,0.01945
1567.79098,0.01920
1565.73081,0.01892
1563.67064,0.01817
1561.61046,0.01703
1559.55029,0.01569
1557.49012,0.01448
1555.42995,0.01368
1553.36978,0.01308
1551.30960,0.01254
1549.24943,0.01199
1547.18926,0.01130
1545.12909,0.01038
1543.06892,0.00942
1541.00874,0.00880
1538.94857,0.00845
1536.88840,0.00801
1534.82823,0.00749
1532.76805,0.00705
1530.70788,0.00660
1528.64771,0.00602
1526.58754,0.00563
1524.52737,0.00567
1522.46719,0.00616
1520.40702,0.00737
1518.34685,0.00904
1516.28668,0.01036
1514.22651,0.01078
1512.16633,0.01036
1510.10616,0.00942
1508.04599,0.00811
1505.98582,0.00659
1503.92565,0.00534
1501.86547,0.00435
1499.80530,0.00347
1497.74513,0.00268
1495.68496,0.00204
1493.62478,0.00162
1491.56461,0.00118
1489.50444,0.00067
1487.44427,0.00054
1485.38410,0.00072
1483.32392,0.00082
1481.26375,0.00091
1479.20358,0.00122
1477.14341,0.00179
1475.08324,0.00260
1473.02306,0.00406
1470.96289,0.00635
1468.90272,0.00861
1466.84255,0.01051
1464.78238,0.01216
1462.72220,0.01329
1460.66203,0.01390
1458.60186,0.01458
1456.54169,0.01573
1454.48151,0.01671
1452.42134,0.01734
1450.36117,0.01800
1448.30100,0.01885
1446.24083,0.01984
1444.18065,0.02083
1442.12048,0.02167
1440.06031,0.02213
1438.00014,0.02235
1435.93997,0.02272
1433.87979,0.02311
1431.81962,0.02330
1429.75945,0.02343
1427.69928,0.02365
1425.63910,0.02398
1423.57893,0.02422
1421.51876,0.02420
1419.45859,0.02419
1417.39842,0.02439
1415.33824,0.02451
1413.27807,0.02438
1411.21790,0.02404
1409.15773,0.02355
1407.09756,0.02291
1405.03738,0.02222
1402.97721,0.02152
1400.91704,0.02065
1398.85687,0.01968
1396.79670,0.01897
1394.73652,0.01859
1392.67635,0.01835
1390.61618,0.01820
1388.55601,0.01828
1386.49583,0.01877
1384.43566,0.01953
1382.37549,0.02025
1380.31532,0.02088
1378.25515,0.02145
1376.19497,0.02186
1374.13480,0.02217
1372.07463,0.02251
1370.01446,0.02273
1367.95429,0.02264
1365.89411,0.02225
1363.83394,0.02172
1361.77377,0.02122
1359.71360,0.02085
1357.65343,0.02056
1355.59325,0.02033
1353.53308,0.02032
1351.47291,0.02044
1349.41274,0.02047
1347.35256,0.02041
1345.29239,0.02040
1343.23222,0.02037
1341.17205,0.02014
1339.11188,0.01977
1337.05170,0.01960
1334.99153,0.01977
1332.93136,0.02007
1330.87119,0.02025
1328.81102,0.02037
1326.75084,0.02050
1324.69067,0.02056
1322.63050,0.02045
1320.57033,0.02021
1318.51015,0.02005
1316.44998,0.01996
1314.38981,0.01977
1312.32964,0.01951
1310.26947,0.01932
1308.20929,0.01909
1306.14912,0.01862
1304.08895,0.01789
1302.02878,0.01714
1299.96861,0.01660
1297.90843,0.01618
1295.84826,0.01578
1293.78809,0.01575
1291.72792,0.01613
1289.66775,0.01644
1287.60757,0.01659
1285.54740,0.01676
1283.48723,0.01701
1281.42706,0.01732
1279.36688,0.01755
1277.30671,0.01770
1275.24654,0.01780
1273.18637,0.01792
1271.12620,0.01832
1269.06602,0.01901
1267.00585,0.01970
1264.94568,0.02030
1262.88551,0.02081
1260.82534,0.02132
1258.76516,0.02203
1256.70499,0.02289
1254.64482,0.02354
1252.58465,0.02394
1250.52447,0.02428
1248.46430,0.02448
1246.40413,0.02454
1244.34396,0.02460
1242.28379,0.02476
1240.22361,0.02498
1238.16344,0.02501
1236.10327,0.02472
1234.04310,0.02422
1231.98293,0.02353
1229.92275,0.02261
1227.86258,0.02157
1225.80241,0.02058
1223.74224,0.01962
1221.68207,0.01872
1219.62189,0.01768
1217.56172,0.01632
1215.50155,0.01503
1213.44138,0.01392
1211.38120,0.01290
1209.32103,0.01206
1207.26086,0.01121
1205.20069,0.01013
1203.14052,0.00889
1201.08034,0.00742
1199.02017,0.00572
1196.96000,0.00408
1194.89983,0.00273
1192.83966,0.00170
1190.77948,0.00092
1188.71931,0.00041
1186.65914,0.00012
1184.59897,0.00000
1182.53880,0.00010
1180.47862,0.00055
1178.41845,0.00125
1176.35828,0.00235
1174.29811,0.00400
1172.23793,0.00602
1170.17776,0.00826
1168.11759,0.01020
1166.05742,0.01118
1163.99725,0.01149
1161.93707,0.01184
1159.87690,0.01236
1157.81673,0.01288
1155.75656,0.01338
1153.69639,0.01413
1151.63621,0.01516
1149.57604,0.01617
1147.51587,0.01716
1145.45570,0.01814
1143.39552,0.01887
1141.33535,0.01964
1139.27518,0.02060
1137.21501,0.02136
1135.15484,0.02203
1133.09466,0.02299
1131.03449,0.02406
1128.97432,0.02501
1126.91415,0.02597
1124.85398,0.02678
1122.79380,0.02746
1120.73363,0.02853
1118.67346,0.03008
1116.61329,0.03162
1114.55312,0.03281
1112.49294,0.03351
1110.43277,0.03381
1108.37260,0.03437
1106.31243,0.03575
1104.25225,0.03739
1102.19208,0.03857
1100.13191,0.03976
1098.07174,0.04161
1096.01157,0.04380
1093.95139,0.04588
1091.89122,0.04758
1089.83105,0.04910
1087.77088,0.05070
1085.71071,0.05211
1083.65053,0.05372
1081.59036,0.05600
1079.53019,0.05862
1077.47002,0.06083
1075.40985,0.06252
1073.34967,0.06433
1071.28950,0.06631
1069.22933,0.06816
1067.16916,0.06962
1065.10898,0.07065
1063.04881,0.07188
1060.98864,0.07340
1058.92847,0.07449
1056.86830,0.07542
1054.80812,0.07708
1052.74795,0.07939
1050.68778,0.08170
1048.62761,0.08404
1046.56744,0.08654
1044.50726,0.08888
1042.44709,0.09101
1040.38692,0.09282
1038.32675,0.09441
1036.26657,0.09608
1034.20640,0.09740
1032.14623,0.09777
1030.08606,0.09746
1028.02589,0.09706
1025.96571,0.09682
1023.90554,0.09663
1021.84537,0.09633
1019.78520,0.09596
1017.72503,0.09558
1015.66485,0.09536
1013.60468,0.09550
1011.54451,0.09603
1009.48434,0.09636
1007.42417,0.09600
1005.36399,0.09575
1003.30382,0.09568
1001.24365,0.09513
999.18348,0.09402
997.12330,0.09255
995.06313,0.09100
993.00296,0.08950
990.94279,0.08797
988.88262,0.08639
986.82244,0.08486
984.76227,0.08342
982.70210,0.08210
980.64193,0.08083
978.58176,0.07940
976.52158,0.07793
974.46141,0.07669
972.40124,0.07542
970.34107,0.07391
968.28089,0.07237
966.22072,0.07067
964.16055,0.06896
962.10038,0.06727
960.04021,0.06520
957.98003,0.06320
955.91986,0.06176
953.85969,0.06051
951.79952,0.05927
949.73935,0.05806
947.67917,0.05675
945.61900,0.05545
943.55883,0.05413
941.49866,0.05217
939.43849,0.04945
937.37831,0.04649
935.31814,0.04349
933.25797,0.04033
931.19780,0.03731
929.13762,0.03498
927.07745,0.03309
925.01728,0.03105
922.95711,0.02914
920.89694,0.02761
918.83676,0.02609
916.77659,0.02452
914.71642,0.02326
912.65625,0.02204
910.59608,0.02052
908.53590,0.01883
906.47573,0.01727
904.41556,0.01632
902.35539,0.01610
900.29522,0.01613
898.23504,0.01633
896.17487,0.01684
894.11470,0.01733
892.05453,0.01761
889.99435,0.01753
887.93418,0.01671
885.87401,0.01550
883.81384,0.01450
881.75367,0.01355
879.69349,0.01219
877.63332,0.01088
875.57315,0.01016
873.51298,0.00973
871.45281,0.00929
869.39263,0.00889
867.33246,0.00860
865.27229,0.00855
863.21212,0.00857
861.15194,0.00836
859.09177,0.00798
857.03160,0.00781
854.97143,0.00793
852.91126,0.00754
850.85108,0.00674
848.79091,0.00671
846.73074,0.00736
844.67057,0.00764
842.61040,0.00735
840.55022,0.00676
838.49005,0.00592
836.42988,0.00537
834.36971,0.00557
832.30954,0.00630
830.24936,0.00690
828.18919,0.00635
826.12902,0.00454
824.06885,0.00290
822.00867,0.00218
819.94850,0.00205
817.88833,0.00245
815.82816,0.00293
813.76799,0.00305
811.70781,0.00298
809.64764,0.00283
807.58747,0.00256
805.52730,0.00224
803.46713,0.00171
801.40695,0.00061
799.34678,0.00000
797.28661,0.00114
795.22644,0.00271
793.16627,0.00266
791.10609,0.00147
789.04592,0.00078
786.98575,0.00123
784.92558,0.00235
782.86540,0.00309
780.80523,0.00278
778.74506,0.00169
776.68489,0.00119
774.62472,0.00192
772.56454,0.00244
770.50437,0.00185
768.44420,0.00123
766.38403,0.00091
764.32386,0.00031
762.26368,0.00031
760.20351,0.00137
758.14334,0.00191
756.08317,0.00146
754.02299,0.00116
751.96282,0.00087
749.90265,0.00000
747.84248,-0.00009
745.78231,0.00140
743.72213,0.00203
741.66196,0.00040
739.60179,-0.00139
737.54162,-0.00148
735.48145,-0.00048
733.42127,0.00074
731.36110,0.00196
729.30093,0.00262
727.24076,0.00244
725.18059,0.00205
723.12041,0.00199
721.06024,0.00269
719.00007,0.00307
716.93990,0.00297
714.87972,0.00240
712.81955,0.00227
710.75938,0.00339
708.69921,0.00572
706.63904,0.00894
704.57886,0.01170
702.51869,0.01302
700.45852,0.01306
698.39835,0.01222
696.33818,0.01093
694.27800,0.00984
692.21783,0.00970
690.15766,0.00998
688.09749,0.00962
686.03731,0.00885
683.97714,0.00851
681.91697,0.00875
679.85680,0.00829
677.79663,0.00647
675.73645,0.00455
673.67628,0.00227
671.61611,0.00000
669.55594,0.00479
667.49577,0.01138
665.43559,0.00691
663.37542,0.00643
661.31525,0.00799
659.25508,0.00900
657.19491,0.00791
655.13473,0.00598
653.07456,0.00519
651.01439,0.00540
648.95422,0.00477
646.89404,0.00230
644.83387,0.00118
642.77370,0.00233
640.71353,0.00322
638.65336,0.00389
636.59318,0.00534
634.53301,0.00599
632.47284,0.00521
630.41267,0.00434
628.35250,0.00476
626.29232,0.00592
624.23215,0.00600
622.17198,0.00653
620.11181,0.00859
618.05164,0.01079
615.99146,0.01000
613.93129,0.00737
611.87112,0.00633
609.81095,0.00701
607.75077,0.00818
605.69060,0.00864
603.63043,0.00629
601.57026,0.00214
599.51009,0.00000
