3996.73391,0.00026
3994.67373,0.00000
3992.61356,-0.00000
3990.55339,-0.00001
3988.49322,-0.00017
3986.43305,-0.00024
3984.37287,-0.00007
3982.31270,0.00003
3980.25253,-0.00003
3978.19236,-0.00009
3976.13219,0.00008
3974.07201,0.00054
3972.01184,0.00078
3969.95167,0.00065
3967.89150,0.00056
3965.83133,0.00059
3963.77115,0.00038
3961.71098,0.00006
3959.65081,0.00000
3957.59064,0.00016
3955.53046,0.00057
3953.47029,0.00117
3951.41012,0.00153
3949.34995,0.00146
3947.28978,0.00140
3945.22960,0.00114
3943.16943,0.00056
3941.10926,0.00058
3939.04909,0.00095
3936.98892,0.00120
3934.92874,0.00126
3932.86857,0.00088
3930.80840,0.00063
3928.74823,0.00074
3926.68805,0.00055
3924.62788,0.00041
3922.56771,0.00076
3920.50754,0.00069
3918.44737,0.00061
3916.38719,0.00126
3914.32702,0.00185
3912.26685,0.00172
3910.20668,0.00156
3908.14651,0.00143
3906.08633,0.00093
3904.02616,0.00079
3901.96599,0.00090
3899.90582,0.00065
3897.84565,0.00142
3895.78547,0.00232
3893.72530,0.00151
3891.66513,0.00058
3889.60496,0.00165
3887.54478,0.00221
3885.48461,0.00181
3883.42444,0.00167
3881.36427,0.00047
3879.30410,0.00047
3877.24392,0.00150
3875.18375,0.00108
3873.12358,0.00056
3871.06341,0.00012
3869.00324,0.00071
3866.94306,0.00166
3864.88289,0.00110
3862.82272,0.00112
3860.76255,0.00197
3858.70237,0.00256
3856.64220,0.00204
3854.58203,0.00058
3852.52186,0.00133
3850.46169,0.00329
3848.40151,0.00327
3846.34134,0.00241
3844.28117,0.00213
3842.22100,0.00237
3840.16083,0.00190
3838.10065,0.00157
3836.04048,0.00256
3833.98031,0.00312
3831.92014,0.00287
3829.85997,0.00275
3827.79979,0.00223
3825.73962,0.00205
3823.67945,0.00185
3821.61928,0.00142
3819.55910,0.00287
3817.49893,0.00277
3815.43876,0.00159
3813.37859,0.00203
3811.31842,0.00208
3809.25824,0.00100
3807.19807,0.00051
3805.13790,0.00169
3803.07773,0.00110
3801.01756,0.00028
3798.95738,0.00153
3796.89721,0.00191
3794.83704,0.00213
3792.77687,0.00224
3790.71670,0.00199
3788.65652,0.00202
3786.59635,0.00210
3784.53618,0.00218
3782.47601,0.00206
3780.41583,0.00123
3778.35566,0.00125
3776.29549,0.00222
3774.23532,0.00262
3772.17515,0.00183
3770.11497,0.00068
3768.05480,0.00072
3765.99463,0.00136
3763.93446,0.00253
3761.87429,0.00297
3759.81411,0.00248
3757.75394,0.00309
3755.69377,0.00398
3753.63360,0.00279
3751.57342,0.00058
3749.51325,0.00125
3747.45308,0.00296
3745.39291,0.00200
3743.33274,0.00194
3741.27256,0.00331
3739.21239,0.00316
3737.15222,0.00145
3735.09205,0.00000
3733.03188,0.00036
3730.97170,0.00192
3728.91153,0.00274
3726.85136,0.00216
3724.79119,0.00180
3722.73102,0.00173
3720.67084,0.00197
3718.61067,0.00276
3716.55050,0.00376
3714.49033,0.00374
3712.43015,0.00265
3710.36998,0.00236
3708.30981,0.00284
3706.24964,0.00304
3704.18947,0.00274
3702.12929,0.00238
3700.06912,0.00233
3698.00895,0.00190
3695.94878,0.00156
3693.88861,0.00180
3691.82843,0.00166
3689.76826,0.00147
3687.70809,0.00265
3685.64792,0.00375
3683.58775,0.00327
3681.52757,0.00244
3679.46740,0.00187
3677.40723,0.00068
3675.34706,0.00061
3673.28688,0.00289
3671.22671,0.00228
3669.16654,0.00113
3667.10637,0.00221
3665.04620,0.00264
3662.98602,0.00227
3660.92585,0.00210
3658.86568,0.00192
3656.80551,0.00218
3654.74534,0.00406
3652.68516,0.00455
3650.62499,0.00218
3648.56482,0.00077
3646.50465,0.00193
3644.44447,0.00342
3642.38430,0.00369
3640.32413,0.00354
3638.26396,0.00341
3636.20379,0.00313
3634.14361,0.00311
3632.08344,0.00330
3630.02327,0.00213
3627.96310,0.00179
3625.90293,0.00322
3623.84275,0.00352
3621.78258,0.00219
3619.72241,0.00112
3617.66224,0.00259
3615.60207,0.00429
3613.54189,0.00434
3611.48172,0.00419
3609.42155,0.00383
3607.36138,0.00359
3605.30120,0.00417
3603.24103,0.00471
3601.18086,0.00476
3599.12069,0.00492
3597.06052,0.00523
3595.00034,0.00557
3592.94017,0.00624
3590.88000,0.00674
3588.81983,0.00659
3586.75966,0.00703
3584.69948,0.00788
3582.63931,0.00797
3580.57914,0.00798
3578.51897,0.00830
3576.45879,0.00840
3574.39862,0.00854
3572.33845,0.00922
3570.27828,0.00943
3568.21811,0.00882
3566.15793,0.00927
3564.09776,0.01048
3562.03759,0.01065
3559.97742,0.01052
3557.91725,0.01102
3555.85707,0.01161
3553.79690,0.01167
3551.73673,0.01184
3549.67656,0.01232
3547.61639,0.01224
3545.55621,0.01213
3543.49604,0.01290
3541.43587,0.01399
3539.37570,0.01454
3537.31552,0.01468
3535.25535,0.01516
3533.19518,0.01610
3531.13501,0.01698
3529.07484,0.01753
3527.01466,0.01772
3524.95449,0.01763
3522.89432,0.01761
3520.83415,0.01777
3518.77398,0.01774
3516.71380,0.01753
3514.65363,0.01752
3512.59346,0.01793
3510.53329,0.01876
3508.47312,0.01976
3506.41294,0.02007
3504.35277,0.01978
3502.29260,0.02051
3500.23243,0.02180
3498.17225,0.02182
3496.11208,0.02107
3494.05191,0.02102
3491.99174,0.02176
3489.93157,0.02246
3487.87139,0.02292
3485.81122,0.02335
3483.75105,0.02352
3481.69088,0.02380
3479.63071,0.02463
3477.57053,0.02526
3475.51036,0.02538
3473.45019,0.02548
3471.39002,0.02582
3469.32984,0.02618
3467.26967,0.02626
3465.20950,0.02623
3463.14933,0.02621
3461.08916,0.02629
3459.02898,0.02673
3456.96881,0.02749
3454.90864,0.02811
3452.84847,0.02847
3450.78830,0.02881
3448.72812,0.02872
3446.66795,0.02855
3444.60778,0.02913
3442.54761,0.02979
3440.48744,0.03013
3438.42726,0.03051
3436.36709,0.03125
3434.30692,0.03185
3432.24675,0.03192
3430.18657,0.03198
3428.12640,0.03209
3426.06623,0.03222
3424.00606,0.03257
3421.94589,0.03260
3419.88571,0.03246
3417.82554,0.03303
3415.76537,0.03407
3413.70520,0.03474
3411.64503,0.03492
3409.58485,0.03499
3407.52468,0.03508
3405.46451,0.03525
3403.40434,0.03552
3401.34416,0.03601
3399.28399,0.03661
3397.22382,0.03668
3395.16365,0.03617
3393.10348,0.03587
3391.04330,0.03629
3388.98313,0.03682
3386.92296,0.03701
3384.86279,0.03715
3382.80262,0.03766
3380.74244,0.03826
3378.68227,0.03854
3376.62210,0.03845
3374.56193,0.03811
3372.50176,0.03797
3370.44158,0.03831
3368.38141,0.03891
3366.32124,0.03953
3364.26107,0.03994
3362.20089,0.03987
3360.14072,0.03969
3358.08055,0.03981
3356.02038,0.04002
3353.96021,0.04025
3351.90003,0.04052
3349.83986,0.04050
3347.77969,0.04023
3345.71952,0.04029
3343.65935,0.04071
3341.59917,0.04136
3339.53900,0.04196
3337.47883,0.04203
3335.41866,0.04157
3333.35849,0.04107
3331.29831,0.04092
3329.23814,0.04123
3327.17797,0.04151
3325.11780,0.04146
3323.05762,0.04141
3320.99745,0.04119
3318.93728,0.04074
3316.87711,0.04066
3314.81694,0.04119
3312.75676,0.04178
3310.69659,0.04196
3308.63642,0.04197
3306.57625,0.04204
3304.51608,0.04208
3302.45590,0.04217
3300.39573,0.04225
3298.33556,0.04216
3296.27539,0.04206
3294.21521,0.04206
3292.15504,0.04198
3290.09487,0.04179
3288.03470,0.04191
3285.97453,0.04252
3283.91435,0.04306
3281.85418,0.04313
3279.79401,0.04299
3277.73384,0.04263
3275.67367,0.04208
3273.61349,0.04167
3271.55332,0.04146
3269.49315,0.04131
3267.43298,0.04130
3265.37281,0.04137
3263.31263,0.04129
3261.25246,0.04115
3259.19229,0.04130
3257.13212,0.04174
3255.07194,0.04213
3253.01177,0.04216
3250.95160,0.04177
3248.89143,0.04139
3246.83126,0.04133
3244.77108,0.04135
3242.71091,0.04131
3240.65074,0.04132
3238.59057,0.04134
3236.53040,0.04106
3234.47022,0.04080
3232.41005,0.04102
3230.34988,0.04120
3228.28971,0.04091
3226.22954,0.04040
3224.16936,0.03998
3222.10919,0.03969
3220.04902,0.03942
3217.98885,0.03943
3215.92867,0.03971
3213.86850,0.03977
3211.80833,0.03956
3209.74816,0.03937
3207.68799,0.03945
3205.62781,0.03978
3203.56764,0.03991
3201.50747,0.03935
3199.44730,0.03840
3197.38713,0.03787
3195.32695,0.03792
3193.26678,0.03807
3191.20661,0.03804
3189.14644,0.03787
3187.08626,0.03765
3185.02609,0.03751
3182.96592,0.03743
3180.90575,0.03709
3178.84558,0.03646
3176.78540,0.03601
3174.72523,0.03588
3172.66506,0.03592
3170.60489,0.03586
3168.54472,0.03553
3166.48454,0.03521
3164.42437,0.03499
3162.36420,0.03486
3160.30403,0.03492
3158.24386,0.03484
3156.18368,0.03443
3154.12351,0.03406
3152.06334,0.03396
3150.00317,0.03410
3147.94299,0.03415
3145.88282,0.03361
3143.82265,0.03294
3141.76248,0.03298
3139.70231,0.03334
3137.64213,0.03316
3135.58196,0.03275
3133.52179,0.03255
3131.46162,0.03228
3129.40145,0.03190
3127.34127,0.03168
3125.28110,0.03138
3123.22093,0.03073
3121.16076,0.03031
3119.10058,0.03056
3117.04041,0.03095
3114.98024,0.03080
3112.92007,0.03029
3110.85990,0.02989
3108.79972,0.02952
3106.73955,0.02929
3104.67938,0.02928
3102.61921,0.02906
3100.55904,0.02865
3098.49886,0.02844
3096.43869,0.02830
3094.37852,0.02803
3092.31835,0.02780
3090.25818,0.02769
3088.19800,0.02760
3086.13783,0.02746
3084.07766,0.02736
3082.01749,0.02736
3079.95731,0.02716
3077.89714,0.02649
3075.83697,0.02599
3073.77680,0.02615
3071.71663,0.02633
3069.65645,0.02603
3067.59628,0.02569
3065.53611,0.02577
3063.47594,0.02581
3061.41577,0.02550
3059.35559,0.02513
3057.29542,0.02478
3055.23525,0.02438
3053.17508,0.02391
3051.11491,0.02336
3049.05473,0.02294
3046.99456,0.02291
3044.93439,0.02318
3042.87422,0.02321
3040.81404,0.02283
3038.75387,0.02248
3036.69370,0.02247
3034.63353,0.02249
3032.57336,0.02222
3030.51318,0.02185
3028.45301,0.02173
3026.39284,0.02183
3024.33267,0.02178
3022.27250,0.02147
3020.21232,0.02139
3018.15215,0.02146
3016.09198,0.02128
3014.03181,0.02099
3011.97163,0.02087
3009.91146,0.02090
3007.85129,0.02088
3005.79112,0.02066
3003.73095,0.02037
3001.67077,0.02027
2999.61060,0.02040
2997.55043,0.02044
2995.49026,0.02020
2993.43009,0.02003
2991.36991,0.02005
2989.30974,0.01983
2987.24957,0.01934
2985.18940,0.01908
2983.12923,0.01945
2981.06905,0.02021
2979.00888,0.02070
2976.94871,0.02097
2974.88854,0.02140
2972.82836,0.02181
2970.76819,0.02211
2968.70802,0.02276
2966.64785,0.02390
2964.58768,0.02485
2962.52750,0.02546
2960.46733,0.02645
2958.40716,0.02811
2956.34699,0.03003
2954.28682,0.03151
2952.22664,0.03251
2950.16647,0.03370
2948.10630,0.03516
2946.04613,0.03669
2943.98596,0.03843
2941.92578,0.04064
2939.86561,0.04312
2937.80544,0.04500
2935.74527,0.04616
2933.68509,0.04759
2931.62492,0.04962
2929.56475,0.05175
2927.50458,0.05346
2925.44441,0.05467
2923.38423,0.05575
2921.32406,0.05683
2919.26389,0.05725
2917.20372,0.05672
2915.14355,0.05549
2913.08337,0.05347
2911.02320,0.05078
2908.96303,0.04824
2906.90286,0.04644
2904.84268,0.04514
2902.78251,0.04396
2900.72234,0.04288
2898.66217,0.04190
2896.60200,0.04091
2894.54182,0.04007
2892.48165,0.03951
2890.42148,0.03896
2888.36131,0.03802
2886.30114,0.03691
2884.24096,0.03609
2882.18079,0.03546
2880.12062,0.03491
2878.06045,0.03479
2876.00028,0.03508
2873.94010,0.03523
2871.87993,0.03529
2869.81976,0.03553
2867.75959,0.03589
2865.69941,0.03651
2863.63924,0.03765
2861.57907,0.03899
2859.51890,0.04027
2857.45873,0.04166
2855.39855,0.04293
2853.33838,0.04391
2851.27821,0.04470
2849.21804,0.04470
2847.15787,0.04324
2845.09769,0.04058
2843.03752,0.03759
2840.97735,0.03501
2838.91718,0.03306
2836.85700,0.03176
2834.79683,0.03070
2832.73666,0.02946
2830.67649,0.02840
2828.61632,0.02765
2826.55614,0.02695
2824.49597,0.02623
2822.43580,0.02578
2820.37563,0.02575
2818.31546,0.02571
2816.25528,0.02516
2814.19511,0.02430
2812.13494,0.02368
2810.07477,0.02358
2808.01460,0.02356
2805.95442,0.02312
2803.89425,0.02252
2801.83408,0.02220
2799.77391,0.02212
2797.71373,0.02209
2795.65356,0.02197
2793.59339,0.02172
2791.53322,0.02163
2789.47305,0.02172
2787.41287,0.02157
2785.35270,0.02130
2783.29253,0.02117
2781.23236,0.02091
2779.17219,0.02046
2777.11201,0.02021
2775.05184,0.02033
2772.99167,0.02048
2770.93150,0.02031
2768.87133,0.01987
2766.81115,0.01954
2764.75098,0.01969
2762.69081,0.02001
2760.63064,0.01994
2758.57046,0.01964
2756.51029,0.01949
2754.45012,0.01938
2752.38995,0.01925
2750.32978,0.01940
2748.26960,0.01956
2746.20943,0.01954
2744.14926,0.01961
2742.08909,0.01963
2740.02892,0.01936
2737.96874,0.01904
2735.90857,0.01900
2733.84840,0.01913
2731.78823,0.01917
2729.72805,0.01911
2727.66788,0.01905
2725.60771,0.01898
2723.54754,0.01889
2721.48737,0.01879
2719.42719,0.01866
2717.36702,0.01858
2715.30685,0.01839
2713.24668,0.01802
2711.18651,0.01784
2709.12633,0.01804
2707.06616,0.01833
2705.00599,0.01839
2702.94582,0.01837
2700.88565,0.01842
2698.82547,0.01839
2696.76530,0.01825
2694.70513,0.01809
2692.64496,0.01806
2690.58478,0.01811
2688.52461,0.01795
2686.46444,0.01758
2684.40427,0.01727
2682.34410,0.01711
2680.28392,0.01717
2678.22375,0.01751
2676.16358,0.01774
2674.10341,0.01756
2672.04324,0.01739
2669.98306,0.01739
2667.92289,0.01738
2665.86272,0.01752
2663.80255,0.01763
2661.74238,0.01734
2659.68220,0.01682
2657.62203,0.01659
2655.56186,0.01677
2653.50169,0.01692
2651.44151,0.01693
2649.38134,0.01706
2647.32117,0.01722
2645.26100,0.01697
2643.20083,0.01634
2641.14065,0.01593
2639.08048,0.01597
2637.02031,0.01636
2634.96014,0.01682
2632.89997,0.01671
2630.83979,0.01635
2628.77962,0.01655
2626.71945,0.01677
2624.65928,0.01637
2622.59910,0.01588
2620.53893,0.01567
2618.47876,0.01558
2616.41859,0.01562
2614.35842,0.01568
2612.29824,0.01543
2610.23807,0.01505
2608.17790,0.01509
2606.11773,0.01528
2604.05756,0.01502
2601.99738,0.01459
2599.93721,0.01449
2597.87704,0.01452
2595.81687,0.01448
2593.75670,0.01451
2591.69652,0.01453
2589.63635,0.01444
2587.57618,0.01468
2585.51601,0.01513
2583.45583,0.01496
2581.39566,0.01422
2579.33549,0.01380
2577.27532,0.01385
2575.21515,0.01376
2573.15497,0.01347
2571.09480,0.01346
2569.03463,0.01353
2566.97446,0.01326
2564.91429,0.01280
2562.85411,0.01248
2560.79394,0.01224
2558.73377,0.01198
2556.67360,0.01204
2554.61342,0.01249
2552.55325,0.01321
2550.49308,0.01409
2548.43291,0.01436
2546.37274,0.01353
2544.31256,0.01256
2542.25239,0.01246
2540.19222,0.01273
2538.13205,0.01288
2536.07188,0.01298
2534.01170,0.01272
2531.95153,0.01243
2529.89136,0.01259
2527.83119,0.01280
2525.77102,0.01280
2523.71084,0.01283
2521.65067,0.01277
2519.59050,0.01236
2517.53033,0.01183
2515.47015,0.01153
2513.40998,0.01122
2511.34981,0.01071
2509.28964,0.01055
2507.22947,0.01109
2505.16929,0.01190
2503.10912,0.01220
2501.04895,0.01197
2498.98878,0.01174
2496.92861,0.01164
2494.86843,0.01151
2492.80826,0.01130
2490.74809,0.01114
2488.68792,0.01114
2486.62775,0.01137
2484.56757,0.01151
2482.50740,0.01129
2480.44723,0.01126
2478.38706,0.01173
2476.32688,0.01198
2474.26671,0.01180
2472.20654,0.01178
2470.14637,0.01174
2468.08620,0.01166
2466.02602,0.01201
2463.96585,0.01235
2461.90568,0.01198
2459.84551,0.01131
2457.78534,0.01082
2455.72516,0.01042
2453.66499,0.01050
2451.60482,0.01113
2449.54465,0.01139
2447.48447,0.01118
2445.42430,0.01102
2443.36413,0.01077
2441.30396,0.01047
2439.24379,0.01045
2437.18361,0.01049
2435.12344,0.01050
2433.06327,0.01067
2431.00310,0.01083
2428.94293,0.01070
2426.88275,0.01040
2424.82258,0.01019
2422.76241,0.01028
2420.70224,0.01050
2418.64207,0.01075
2416.58189,0.01086
2414.52172,0.01056
2412.46155,0.01016
2410.40138,0.00988
2408.34120,0.00960
2406.28103,0.00934
2404.22086,0.00933
2402.16069,0.00965
2400.10052,0.00985
2398.04034,0.00969
2395.98017,0.00975
2393.92000,0.01000
2391.85983,0.00991
2389.79966,0.00970
2387.73948,0.00989
2385.67931,0.01040
2383.61914,0.01065
2381.55897,0.01057
2379.49880,0.01062
2377.43862,0.01090
2375.37845,0.01089
2373.31828,0.01074
2371.25811,0.01058
2369.19793,0.00971
2367.13776,0.00837
2365.07759,0.00718
2363.01742,0.00573
2360.95725,0.00500
2358.89707,0.00526
2356.83690,0.00769
2354.77673,0.01030
2352.71656,0.01141
2350.65639,0.01226
2348.59621,0.01157
2346.53604,0.00820
2344.47587,0.00635
2342.41570,0.00575
2340.35552,0.00620
2338.29535,0.00781
2336.23518,0.00948
2334.17501,0.01072
2332.11484,0.01072
2330.05466,0.01047
2327.99449,0.01107
2325.93432,0.01161
2323.87415,0.01052
2321.81398,0.00942
2319.75380,0.00906
2317.69363,0.00956
2315.63346,0.01009
2313.57329,0.01015
2311.51312,0.00981
2309.45294,0.00947
2307.39277,0.00934
2305.33260,0.00940
2303.27243,0.00971
2301.21225,0.01031
2299.15208,0.01092
2297.09191,0.01087
2295.03174,0.01011
2292.97157,0.00941
2290.91139,0.00928
2288.85122,0.00953
2286.79105,0.00969
2284.73088,0.00952
2282.67071,0.00912
2280.61053,0.00891
2278.55036,0.00896
2276.49019,0.00878
2274.43002,0.00838
2272.36984,0.00812
2270.30967,0.00810
2268.24950,0.00846
2266.18933,0.00895
2264.12916,0.00912
2262.06898,0.00940
2260.00881,0.00994
2257.94864,0.00979
2255.88847,0.00870
2253.82830,0.00790
2251.76812,0.00792
2249.70795,0.00817
2247.64778,0.00891
2245.58761,0.00955
2243.52744,0.00850
2241.46726,0.00743
2239.40709,0.00756
2237.34692,0.00771
2235.28675,0.00732
2233.22657,0.00621
2231.16640,0.00523
2229.10623,0.00599
2227.04606,0.00737
2224.98589,0.00630
2222.92571,0.00410
2220.86554,0.00432
2218.80537,0.00664
2216.74520,0.00844
2214.68503,0.00795
2212.62485,0.00653
2210.56468,0.00653
2208.50451,0.00742
2206.44434,0.00744
2204.38417,0.00645
2202.32399,0.00568
2200.26382,0.00583
2198.20365,0.00577
2196.14348,0.00500
2194.08330,0.00510
2192.02313,0.00659
2189.96296,0.00755
2187.90279,0.00701
2185.84262,0.00628
2183.78244,0.00610
2181.72227,0.00661
2179.66210,0.00705
2177.60193,0.00652
2175.54176,0.00660
2173.48158,0.00770
2171.42141,0.00815
2169.36124,0.00721
2167.30107,0.00474
2165.24089,0.00249
2163.18072,0.00328
2161.12055,0.00550
2159.06038,0.00643
2157.00021,0.00644
2154.94003,0.00645
2152.87986,0.00718
2150.81969,0.00840
2148.75952,0.00792
2146.69935,0.00599
2144.63917,0.00585
2142.57900,0.00644
2140.51883,0.00591
2138.45866,0.00558
2136.39849,0.00610
2134.33831,0.00645
2132.27814,0.00570
2130.21797,0.00465
2128.15780,0.00435
2126.09762,0.00483
2124.03745,0.00550
2121.97728,0.00580
2119.91711,0.00566
2117.85694,0.00569
2115.79676,0.00629
2113.73659,0.00658
2111.67642,0.00598
2109.61625,0.00560
2107.55608,0.00645
2105.49590,0.00725
2103.43573,0.00680
2101.37556,0.00599
2099.31539,0.00579
2097.25521,0.00588
2095.19504,0.00640
2093.13487,0.00728
2091.07470,0.00737
2089.01453,0.00678
2086.95435,0.00635
2084.89418,0.00616
2082.83401,0.00566
2080.77384,0.00476
2078.71367,0.00459
2076.65349,0.00484
2074.59332,0.00455
2072.53315,0.00475
2070.47298,0.00565
2068.41281,0.00582
2066.35263,0.00509
2064.29246,0.00472
2062.23229,0.00516
2060.17212,0.00574
2058.11194,0.00649
2056.05177,0.00653
2053.99160,0.00476
2051.93143,0.00338
2049.87126,0.00454
2047.81108,0.00582
2045.75091,0.00463
2043.69074,0.00232
2041.63057,0.00149
2039.57040,0.00215
2037.51022,0.00238
2035.45005,0.00223
2033.38988,0.00316
2031.32971,0.00530
2029.26954,0.00641
2027.20936,0.00492
2025.14919,0.00400
2023.08902,0.00570
2021.02885,0.00619
2018.96867,0.00336
2016.90850,0.00087
2014.84833,0.00160
2012.78816,0.00333
2010.72799,0.00395
2008.66781,0.00405
2006.60764,0.00383
2004.54747,0.00388
2002.48730,0.00438
2000.42713,0.00454
1998.36695,0.00463
1996.30678,0.00431
1994.24661,0.00295
1992.18644,0.00184
1990.12626,0.00266
1988.06609,0.00398
1986.00592,0.00402
1983.94575,0.00387
1981.88558,0.00519
1979.82540,0.00620
1977.76523,0.00471
1975.70506,0.00236
1973.64489,0.00159
1971.58472,0.00255
1969.52454,0.00360
1967.46437,0.00328
1965.40420,0.00161
1963.34403,0.00000
1961.28386,0.00041
1959.22368,0.00251
1957.16351,0.00400
1955.10334,0.00429
1953.04317,0.00411
1950.98299,0.00372
1948.92282,0.00336
1946.86265,0.00313
1944.80248,0.00260
1942.74231,0.00224
1940.68213,0.00337
1938.62196,0.00473
1936.56179,0.00522
1934.50162,0.00492
1932.44145,0.00403
1930.38127,0.00350
1928.32110,0.00383
1926.26093,0.00449
1924.20076,0.00492
1922.14059,0.00519
1920.08041,0.00455
1918.02024,0.00352
1915.96007,0.00396
1913.89990,0.00439
1911.83972,0.00385
1909.77955,0.00344
1907.71938,0.00394
1905.65921,0.00424
1903.59904,0.00364
1901.53886,0.00336
1899.47869,0.00397
1897.41852,0.00430
1895.35835,0.00405
1893.29818,0.00422
1891.23800,0.00410
1889.17783,0.00358
1887.11766,0.00353
1885.05749,0.00340
1882.99731,0.00317
1880.93714,0.00330
1878.87697,0.00391
1876.81680,0.00457
1874.75663,0.00458
1872.69645,0.00370
1870.63628,0.00217
1868.57611,0.00133
1866.51594,0.00203
1864.45577,0.00276
1862.39559,0.00295
1860.33542,0.00302
1858.27525,0.00284
1856.21508,0.00240
1854.15491,0.00219
1852.09473,0.00227
1850.03456,0.00227
1847.97439,0.00223
1845.91422,0.00196
1843.85404,0.00185
1841.79387,0.00267
1839.73370,0.00310
1837.67353,0.00299
1835.61336,0.00297
1833.55318,0.00271
1831.49301,0.00160
1829.43284,0.00113
1827.37267,0.00190
1825.31250,0.00211
1823.25232,0.00235
1821.19215,0.00252
1819.13198,0.00199
1817.07181,0.00155
1815.01163,0.00177
1812.95146,0.00186
1810.89129,0.00159
1808.83112,0.00163
1806.77095,0.00183
1804.71077,0.00154
1802.65060,0.00052
1800.59043,0.00000
1798.53026,0.00076
1796.47009,0.00142
1794.40991,0.00086
1792.34974,0.00003
1790.28957,0.00072
1788.22940,0.00139
1786.16923,0.00089
1784.10905,0.00058
1782.04888,0.00072
1779.98871,0.00090
1777.92854,0.00137
1775.86836,0.00147
1773.80819,0.00059
1771.74802,0.00000
1769.68785,0.00057
1767.62768,0.00122
1765.56750,0.00200
1763.50733,0.00195
1761.44716,0.00202
1759.38699,0.00316
1757.32682,0.00426
1755.26664,0.00606
1753.20647,0.00722
1751.14630,0.00719
1749.08613,0.00818
1747.02596,0.01007
1744.96578,0.01136
1742.90561,0.01182
1740.84544,0.01208
1738.78527,0.01344
1736.72509,0.01428
1734.66492,0.01260
1732.60475,0.01247
1730.54458,0.01357
1728.48441,0.01391
1726.42423,0.01396
1724.36406,0.01409
1722.30389,0.01490
1720.24372,0.01460
1718.18355,0.01265
1716.12337,0.01274
1714.06320,0.01443
1712.00303,0.01523
1709.94286,0.01495
1707.88268,0.01432
1705.82251,0.01445
1703.76234,0.01557
1701.70217,0.01466
1699.64200,0.01341
1697.58182,0.01359
1695.52165,0.01369
1693.46148,0.01548
1691.40131,0.01683
1689.34114,0.01794
1687.28096,0.01883
1685.22079,0.01800
1683.16062,0.01982
1681.10045,0.02410
1679.04028,0.02660
1676.98010,0.02715
1674.91993,0.02756
1672.85976,0.02841
1670.79959,0.02726
1668.73941,0.02659
1666.67924,0.02768
1664.61907,0.02691
1662.55890,0.02510
1660.49873,0.02523
1658.43855,0.02588
1656.37838,0.02484
1654.31821,0.02203
1652.25804,0.02266
1650.19787,0.02490
1648.13769,0.02286
1646.07752,0.02156
1644.01735,0.02361
1641.95718,0.02496
1639.89701,0.02504
1637.83683,0.02391
1635.77666,0.02318
1633.71649,0.02565
1631.65632,0.02755
1629.59614,0.02737
1627.53597,0.02748
1625.47580,0.02781
1623.41563,0.02772
1621.35546,0.02888
1619.29528,0.02923
1617.23511,0.02825
1615.17494,0.02937
1613.11477,0.03108
1611.05460,0.03172
1608.99442,0.03266
1606.93425,0.03400
1604.87408,0.03451
1602.81391,0.03387
1600.75373,0.03282
1598.69356,0.03160
1596.63339,0.03012
1594.57322,0.02885
1592.51305,0.02815
1590.45287,0.02763
1588.39270,0.02699
1586.33253,0.02625
1584.27236,0.02546
1582.21219,0.02487
1580.15201,0.02430
1578.09184,0.02252
1576.03167,0.02103
1573.97150,0.02212
1571.91133,0.02179
1569.85115,0.01977
1567.79098,0.01970
1565.73081,0.01998
1563.67064,0.01988
1561.61046,0.01800
1559.55029,0.01396
1557.49012,0.01447
1555.42995,0.01589
1553.36978,0.01509
1551.30960,0.01373
1549.24943,0.01296
1547.18926,0.01275
1545.12909,0.01174
1543.06892,0.01008
1541.00874,0.00777
1538.94857,0.00788
1536.88840,0.00976
1534.82823,0.00867
1532.76805,0.00739
1530.70788,0.00793
1528.64771,0.00726
1526.58754,0.00639
1524.52737,0.00667
1522.46719,0.00670
1520.40702,0.00818
1518.34685,0.01017
1516.28668,0.01109
1514.22651,0.01223
1512.16633,0.01245
1510.10616,0.01083
1508.04599,0.00693
1505.98582,0.00513
1503.92565,0.00672
1501.86547,0.00658
1499.80530,0.00452
1497.74513,0.00270
1495.68496,0.00269
1493.62478,0.00326
1491.56461,0.00180
1489.50444,0.00008
1487.44427,0.00053
1485.38410,0.00150
1483.32392,0.00150
1481.26375,0.00140
1479.20358,0.00212
1477.14341,0.00275
1475.08324,0.00288
1473.02306,0.00355
1470.96289,0.00670
1468.90272,0.00998
1466.84255,0.01099
1464.78238,0.01191
1462.72220,0.01437
1460.66203,0.01550
1458.60186,0.01435
1456.54169,0.01484
1454.48151,0.01760
1452.42134,0.01869
1450.36117,0.01845
1448.30100,0.01851
1446.24083,0.01972
1444.18065,0.02128
1442.12048,0.02247
1440.06031,0.02302
1438.00014,0.02223
1435.93997,0.02226
1433.87979,0.02380
1431.81962,0.02407
1429.75945,0.02381
1427.69928,0.02433
1425.63910,0.02471
1423.57893,0.02503
1421.51876,0.02487
1419.45859,0.02375
1417.39842,0.02420
1415.33824,0.02521
1413.27807,0.02501
1411.21790,0.02444
1409.15773,0.02411
1407.09756,0.02327
1405.03738,0.02217
1402.97721,0.02184
1400.91704,0.02112
1398.85687,0.01995
1396.79670,0.01925
1394.73652,0.01867
1392.67635,0.01884
1390.61618,0.01896
1388.55601,0.01843
1386.49583,0.01871
1384.43566,0.01988
1382.37549,0.02059
1380.31532,0.02098
1378.25515,0.02148
1376.19497,0.02166
1374.13480,0.02177
1372.07463,0.02253
1370.01446,0.02284
1367.95429,0.02258
1365.89411,0.02224
1363.83394,0.02151
1361.77377,0.02117
1359.71360,0.02130
1357.65343,0.02093
1355.59325,0.02032
1353.53308,0.02015
1351.47291,0.02032
1349.41274,0.02038
1347.35256,0.02035
1345.29239,0.02041
1343.23222,0.02050
1341.17205,0.02009
1339.11188,0.01960
1337.05170,0.01979
1334.99153,0.02014
1332.93136,0.02026
1330.87119,0.02026
1328.81102,0.02032
1326.75084,0.02045
1324.69067,0.02055
1322.63050,0.02047
1320.57033,0.02017
1318.51015,0.02000
1316.44998,0.02001
1314.38981,0.01978
1312.32964,0.01952
1310.26947,0.01941
1308.20929,0.01905
1306.14912,0.01846
1304.08895,0.01773
1302.02878,0.01699
1299.96861,0.01647
1297.90843,0.01612
1295.84826,0.01583
1293.78809,0.01581
1291.72792,0.01612
1289.66775,0.01637
1287.60757,0.01644
1285.54740,0.01651
1283.48723,0.01672
1281.42706,0.01718
1279.36688,0.01768
1277.30671,0.01796
1275.24654,0.01801
1273.18637,0.01796
1271.12620,0.01815
1269.06602,0.01875
1267.00585,0.01941
1264.94568,0.01993
1262.88551,0.02032
1260.82534,0.02084
1258.76516,0.02178
1256.70499,0.02277
1254.64482,0.02351
1252.58465,0.02409
1250.52447,0.02447
1248.46430,0.02463
1246.40413,0.02470
1244.34396,0.02483
1242.28379,0.02507
1240.22361,0.02522
1238.16344,0.02508
1236.10327,0.02471
1234.04310,0.02422
1231.98293,0.02355
1229.92275,0.02263
1227.86258,0.02158
1225.80241,0.02064
1223.74224,0.01984
1221.68207,0.01906
1219.62189,0.01795
1217.56172,0.01636
1215.50155,0.01485
1213.44138,0.01363
1211.38120,0.01260
1209.32103,0.01178
1207.26086,0.01083
1205.20069,0.00967
1203.14052,0.00853
1201.08034,0.00728
1199.02017,0.00576
1196.96000,0.00414
1194.89983,0.00273
1192.83966,0.00172
1190.77948,0.00103
1188.71931,0.00052
1186.65914,0.00015
1184.59897,0.00000
1182.53880,0.00021
1180.47862,0.00078
1178.41845,0.00144
1176.35828,0.00241
1174.29811,0.00391
1172.23793,0.00581
1170.17776,0.00800
1168.11759,0.01000
1166.05742,0.01103
1163.99725,0.01131
1161.93707,0.01163
1159.87690,0.01216
1157.81673,0.01269
1155.75656,0.01321
1153.69639,0.01391
1151.63621,0.01484
1149.57604,0.01586
1147.51587,0.01693
1145.45570,0.01801
1143.39552,0.01905
1141.33535,0.02014
1139.27518,0.02108
1137.21501,0.02148
1135.15484,0.02177
1133.09466,0.02254
1131.03449,0.02351
1128.97432,0.02443
1126.91415,0.02551
1124.85398,0.02649
1122.79380,0.02726
1120.73363,0.02825
1118.67346,0.02960
1116.61329,0.03103
1114.55312,0.03215
1112.49294,0.03286
1110.43277,0.03342
1108.37260,0.03412
1106.31243,0.03534
1104.25225,0.03688
1102.19208,0.03818
1100.13191,0.03951
1098.07174,0.04117
1096.01157,0.04307
1093.95139,0.04518
1091.89122,0.04717
1089.83105,0.04890
1087.77088,0.05033
1085.71071,0.05143
1083.65053,0.05296
1081.59036,0.05524
1079.53019,0.05774
1077.47002,0.05999
1075.40985,0.06197
1073.34967,0.06399
1071.28950,0.06587
1069.22933,0.06743
1067.16916,0.06878
1065.10898,0.06984
1063.04881,0.07100
1060.98864,0.07259
1058.92847,0.07407
1056.86830,0.07538
1054.80812,0.07698
1052.74795,0.07879
1050.68778,0.08067
1048.62761,0.08294
1046.56744,0.08564
1044.50726,0.08821
1042.44709,0.09035
1040.38692,0.09216
1038.32675,0.09370
1036.26657,0.09499
1034.20640,0.09581
1032.14623,0.09592
1030.08606,0.09573
1028.02589,0.09571
1025.96571,0.09576
1023.90554,0.09580
1021.84537,0.09572
1019.78520,0.09523
1017.72503,0.09442
1015.66485,0.09398
1013.60468,0.09420
1011.54451,0.09479
1009.48434,0.09515
1007.42417,0.09489
1005.36399,0.09460
1003.30382,0.09461
1001.24365,0.09422
999.18348,0.09305
997.12330,0.09150
995.06313,0.09002
993.00296,0.08873
990.94279,0.08727
988.88262,0.08546
986.82244,0.08368
984.76227,0.08221
982.70210,0.08102
980.64193,0.07989
978.58176,0.07843
976.52158,0.07683
974.46141,0.07569
972.40124,0.07451
970.34107,0.07267
968.28089,0.07081
966.22072,0.06923
964.16055,0.06774
962.10038,0.06606
960.04021,0.06414
957.98003,0.06265
955.91986,0.06156
953.85969,0.06017
951.79952,0.05834
949.73935,0.05672
947.67917,0.05572
945.61900,0.05504
943.55883,0.05396
941.49866,0.05166
939.43849,0.04829
937.37831,0.04496
935.31814,0.04212
933.25797,0.03920
931.19780,0.03629
929.13762,0.03417
927.07745,0.03259
925.01728,0.03072
922.95711,0.02865
920.89694,0.02693
918.83676,0.02544
916.77659,0.02385
914.71642,0.02253
912.65625,0.02143
910.59608,0.01981
908.53590,0.01780
906.47573,0.01612
904.41556,0.01534
902.35539,0.01525
900.29522,0.01517
898.23504,0.01524
896.17487,0.01574
894.11470,0.01606
892.05453,0.01577
889.99435,0.01535
887.93418,0.01489
885.87401,0.01402
883.81384,0.01322
881.75367,0.01291
879.69349,0.01206
877.63332,0.01041
875.57315,0.00933
873.51298,0.00912
871.45281,0.00878
869.39263,0.00811
867.33246,0.00759
865.27229,0.00746
863.21212,0.00764
861.15194,0.00746
859.09177,0.00704
857.03160,0.00708
854.97143,0.00719
852.91126,0.00677
850.85108,0.00645
848.79091,0.00659
846.73074,0.00677
844.67057,0.00671
842.61040,0.00646
840.55022,0.00607
838.49005,0.00558
836.42988,0.00517
834.36971,0.00493
832.30954,0.00514
830.24936,0.00552
828.18919,0.00455
826.12902,0.00231
824.06885,0.00081
822.00867,0.00037
819.94850,0.00006
817.88833,0.00044
815.82816,0.00135
813.76799,0.00167
811.70781,0.00136
809.64764,0.00050
807.58747,-0.00015
805.52730,0.00056
803.46713,0.00164
801.40695,0.00118
799.34678,0.00000
797.28661,-0.00005
795.22644,0.00110
793.16627,0.00191
791.10609,0.00101
789.04592,-0.00061
786.98575,-0.00084
784.92558,0.00035
782.86540,0.00129
780.80523,0.00051
778.74506,-0.00118
776.68489,-0.00095
774.62472,0.00129
772.56454,0.00239
770.50437,0.00142
768.44420,0.00037
766.38403,0.00015
764.32386,-0.00001
762.26368,-0.00033
760.20351,-0.00023
758.14334,0.00032
756.08317,0.00053
754.02299,0.00026
751.96282,0.00000
749.90265,-0.00018
747.84248,0.00006
745.78231,0.00050
743.72213,0.00021
741.66196,-0.00067
739.60179,-0.00130
737.54162,-0.00150
735.48145,-0.00131
733.42127,-0.00077
731.36110,0.00007
729.30093,0.00087
727.24076,0.00087
725.18059,0.00025
723.12041,-0.00010
721.06024,-0.00020
719.00007,0.00062
716.93990,0.00141
714.87972,0.00134
712.81955,0.00150
710.75938,0.00283
708.69921,0.00511
706.63904,0.00740
704.57886,0.00900
702.51869,0.00975
700.45852,0.00905
698.39835,0.00700
696.33818,0.00523
694.27800,0.00530
692.21783,0.00700
690.15766,0.00827
688.09749,0.00753
686.03731,0.00550
683.97714,0.00445
681.91697,0.00551
679.85680,0.00685
677.79663,0.00662
675.73645,0.00540
673.67628,0.00385
671.61611,0.00222
669.55594,0.00000
667.49577,0.00005
665.43559,0.00303
663.37542,0.00119
661.31525,0.00094
659.25508,0.00422
657.19491,0.00714
655.13473,0.00682
653.07456,0.00440
651.01439,0.00232
648.95422,0.00097
646.89404,0.00000
644.83387,-0.00025
642.77370,0.00118
640.71353,0.00301
638.65336,0.00447
636.59318,0.00567
634.53301,0.00566
632.47284,0.00449
630.41267,0.00402
628.35250,0.00351
626.29232,-0.00010
624.23215,-0.00326
622.17198,-0.00091
620.11181,0.00357
618.05164,0.00732
615.99146,0.00905
613.93129,0.00808
611.87112,0.00504
609.81095,0.00109
607.75077,-0.00168
605.69060,-0.00211
603.63043,-0.00253
601.57026,-0.00224
599.51009,0.00000
