3996.73391,0.00068
3994.67373,0.00025
3992.61356,0.00000
3990.55339,0.00007
3988.49322,0.00038
3986.43305,0.00078
3984.37287,0.00118
3982.31270,0.00157
3980.25253,0.00182
3978.19236,0.00175
3976.13219,0.00141
3974.07201,0.00098
3972.01184,0.00080
3969.95167,0.00094
3967.89150,0.00115
3965.83133,0.00131
3963.77115,0.00137
3961.71098,0.00109
3959.65081,0.00066
3957.59064,0.00078
3955.53046,0.00129
3953.47029,0.00136
3951.41012,0.00095
3949.34995,0.00089
3947.28978,0.00139
3945.22960,0.00186
3943.16943,0.00200
3941.10926,0.00184
3939.04909,0.00149
3936.98892,0.00139
3934.92874,0.00171
3932.86857,0.00201
3930.80840,0.00200
3928.74823,0.00188
3926.68805,0.00184
3924.62788,0.00201
3922.56771,0.00236
3920.50754,0.00242
3918.44737,0.00187
3916.38719,0.00123
3914.32702,0.00107
3912.26685,0.00132
3910.20668,0.00167
3908.14651,0.00171
3906.08633,0.00126
3904.02616,0.00084
3901.96599,0.00116
3899.90582,0.00168
3897.84565,0.00159
3895.78547,0.00132
3893.72530,0.00133
3891.66513,0.00142
3889.60496,0.00146
3887.54478,0.00150
3885.48461,0.00168
3883.42444,0.00193
3881.36427,0.00210
3879.30410,0.00227
3877.24392,0.00242
3875.18375,0.00223
3873.12358,0.00172
3871.06341,0.00156
3869.00324,0.00208
3866.94306,0.00253
3864.88289,0.00240
3862.82272,0.00191
3860.76255,0.00149
3858.70237,0.00133
3856.64220,0.00155
3854.58203,0.00230
3852.52186,0.00286
3850.46169,0.00257
3848.40151,0.00212
3846.34134,0.00202
3844.28117,0.00212
3842.22100,0.00206
3840.16083,0.00188
3838.10065,0.00176
3836.04048,0.00168
3833.98031,0.00172
3831.92014,0.00187
3829.85997,0.00206
3827.79979,0.00219
3825.73962,0.00204
3823.67945,0.00177
3821.61928,0.00167
3819.55910,0.00164
3817.49893,0.00168
3815.43876,0.00204
3813.37859,0.00246
3811.31842,0.00240
3809.25824,0.00185
3807.19807,0.00141
3805.13790,0.00159
3803.07773,0.00199
3801.01756,0.00209
3798.95738,0.00207
3796.89721,0.00220
3794.83704,0.00223
3792.77687,0.00204
3790.71670,0.00173
3788.65652,0.00125
3786.59635,0.00073
3784.53618,0.00073
3782.47601,0.00143
3780.41583,0.00227
3778.35566,0.00277
3776.29549,0.00302
3774.23532,0.00303
3772.17515,0.00259
3770.11497,0.00192
3768.05480,0.00164
3765.99463,0.00181
3763.93446,0.00201
3761.87429,0.00195
3759.81411,0.00177
3757.75394,0.00166
3755.69377,0.00169
3753.63360,0.00193
3751.57342,0.00243
3749.51325,0.00274
3747.45308,0.00255
3745.39291,0.00253
3743.33274,0.00296
3741.27256,0.00291
3739.21239,0.00235
3737.15222,0.00172
3735.09205,0.00138
3733.03188,0.00147
3730.97170,0.00146
3728.91153,0.00126
3726.85136,0.00140
3724.79119,0.00172
3722.73102,0.00148
3720.67084,0.00090
3718.61067,0.00076
3716.55050,0.00086
3714.49033,0.00056
3712.43015,0.00000
3710.36998,0.00015
3708.30981,0.00117
3706.24964,0.00197
3704.18947,0.00197
3702.12929,0.00132
3700.06912,0.00066
3698.00895,0.00045
3695.94878,0.00055
3693.88861,0.00051
3691.82843,0.00013
3689.76826,-0.00001
3687.70809,0.00059
3685.64792,0.00159
3683.58775,0.00236
3681.52757,0.00247
3679.46740,0.00207
3677.40723,0.00175
3675.34706,0.00180
3673.28688,0.00198
3671.22671,0.00161
3669.16654,0.00075
3667.10637,0.00047
3665.04620,0.00086
3662.98602,0.00125
3660.92585,0.00145
3658.86568,0.00159
3656.80551,0.00155
3654.74534,0.00113
3652.68516,0.00079
3650.62499,0.00151
3648.56482,0.00329
3646.50465,0.00401
3644.44447,0.00298
3642.38430,0.00183
3640.32413,0.00170
3638.26396,0.00217
3636.20379,0.00248
3634.14361,0.00252
3632.08344,0.00235
3630.02327,0.00203
3627.96310,0.00204
3625.90293,0.00258
3623.84275,0.00300
3621.78258,0.00306
3619.72241,0.00306
3617.66224,0.00300
3615.60207,0.00286
3613.54189,0.00318
3611.48172,0.00399
3609.42155,0.00441
3607.36138,0.00414
3605.30120,0.00366
3603.24103,0.00347
3601.18086,0.00356
3599.12069,0.00358
3597.06052,0.00375
3595.00034,0.00425
3592.94017,0.00459
3590.88000,0.00451
3588.81983,0.00436
3586.75966,0.00439
3584.69948,0.00469
3582.63931,0.00513
3580.57914,0.00551
3578.51897,0.00584
3576.45879,0.00627
3574.39862,0.00689
3572.33845,0.00755
3570.27828,0.00765
3568.21811,0.00699
3566.15793,0.00658
3564.09776,0.00689
3562.03759,0.00741
3559.97742,0.00791
3557.91725,0.00830
3555.85707,0.00851
3553.79690,0.00860
3551.73673,0.00885
3549.67656,0.00932
3547.61639,0.00948
3545.55621,0.00944
3543.49604,0.00995
3541.43587,0.01082
3539.37570,0.01142
3537.31552,0.01165
3535.25535,0.01163
3533.19518,0.01150
3531.13501,0.01162
3529.07484,0.01222
3527.01466,0.01294
3524.95449,0.01339
3522.89432,0.01355
3520.83415,0.01350
3518.77398,0.01367
3516.71380,0.01432
3514.65363,0.01507
3512.59346,0.01547
3510.53329,0.01556
3508.47312,0.01586
3506.41294,0.01645
3504.35277,0.01677
3502.29260,0.01675
3500.23243,0.01683
3498.17225,0.01706
3496.11208,0.01737
3494.05191,0.01785
3491.99174,0.01847
3489.93157,0.01900
3487.87139,0.01922
3485.81122,0.01922
3483.75105,0.01921
3481.69088,0.01945
3479.63071,0.02010
3477.57053,0.02088
3475.51036,0.02132
3473.45019,0.02138
3471.39002,0.02133
3469.32984,0.02148
3467.26967,0.02196
3465.20950,0.02250
3463.14933,0.02275
3461.08916,0.02294
3459.02898,0.02329
3456.96881,0.02363
3454.90864,0.02377
3452.84847,0.02380
3450.78830,0.02403
3448.72812,0.02444
3446.66795,0.02492
3444.60778,0.02549
3442.54761,0.02599
3440.48744,0.02638
3438.42726,0.02667
3436.36709,0.02702
3434.30692,0.02757
3432.24675,0.02794
3430.18657,0.02791
3428.12640,0.02785
3426.06623,0.02815
3424.00606,0.02883
3421.94589,0.02946
3419.88571,0.02948
3417.82554,0.02933
3415.76537,0.02951
3413.70520,0.02963
3411.64503,0.02968
3409.58485,0.03011
3407.52468,0.03071
3405.46451,0.03122
3403.40434,0.03198
3401.34416,0.03264
3399.28399,0.03253
3397.22382,0.03223
3395.16365,0.03229
3393.10348,0.03247
3391.04330,0.03278
3388.98313,0.03311
3386.92296,0.03309
3384.86279,0.03294
3382.80262,0.03306
3380.74244,0.03339
3378.68227,0.03364
3376.62210,0.03377
3374.56193,0.03397
3372.50176,0.03414
3370.44158,0.03415
3368.38141,0.03436
3366.32124,0.03465
3364.26107,0.03450
3362.20089,0.03443
3360.14072,0.03499
3358.08055,0.03572
3356.02038,0.03619
3353.96021,0.03646
3351.90003,0.03658
3349.83986,0.03654
3347.77969,0.03643
3345.71952,0.03639
3343.65935,0.03647
3341.59917,0.03658
3339.53900,0.03654
3337.47883,0.03659
3335.41866,0.03669
3333.35849,0.03652
3331.29831,0.03648
3329.23814,0.03693
3327.17797,0.03735
3325.11780,0.03736
3323.05762,0.03728
3320.99745,0.03737
3318.93728,0.03756
3316.87711,0.03757
3314.81694,0.03749
3312.75676,0.03772
3310.69659,0.03800
3308.63642,0.03798
3306.57625,0.03807
3304.51608,0.03845
3302.45590,0.03864
3300.39573,0.03852
3298.33556,0.03834
3296.27539,0.03825
3294.21521,0.03825
3292.15504,0.03831
3290.09487,0.03841
3288.03470,0.03860
3285.97453,0.03870
3283.91435,0.03856
3281.85418,0.03846
3279.79401,0.03839
3277.73384,0.03824
3275.67367,0.03813
3273.61349,0.03817
3271.55332,0.03845
3269.49315,0.03885
3267.43298,0.03898
3265.37281,0.03892
3263.31263,0.03912
3261.25246,0.03947
3259.19229,0.03944
3257.13212,0.03879
3255.07194,0.03805
3253.01177,0.03788
3250.95160,0.03804
3248.89143,0.03813
3246.83126,0.03819
3244.77108,0.03822
3242.71091,0.03808
3240.65074,0.03778
3238.59057,0.03757
3236.53040,0.03770
3234.47022,0.03803
3232.41005,0.03809
3230.34988,0.03775
3228.28971,0.03739
3226.22954,0.03738
3224.16936,0.03760
3222.10919,0.03761
3220.04902,0.03722
3217.98885,0.03678
3215.92867,0.03668
3213.86850,0.03679
3211.80833,0.03665
3209.74816,0.03622
3207.68799,0.03583
3205.62781,0.03588
3203.56764,0.03614
3201.50747,0.03611
3199.44730,0.03597
3197.38713,0.03596
3195.32695,0.03589
3193.26678,0.03565
3191.20661,0.03545
3189.14644,0.03544
3187.08626,0.03540
3185.02609,0.03500
3182.96592,0.03447
3180.90575,0.03418
3178.84558,0.03408
3176.78540,0.03413
3174.72523,0.03421
3172.66506,0.03397
3170.60489,0.03366
3168.54472,0.03382
3166.48454,0.03388
3164.42437,0.03332
3162.36420,0.03300
3160.30403,0.03314
3158.24386,0.03320
3156.18368,0.03317
3154.12351,0.03297
3152.06334,0.03253
3150.00317,0.03239
3147.94299,0.03252
3145.88282,0.03241
3143.82265,0.03215
3141.76248,0.03191
3139.70231,0.03173
3137.64213,0.03157
3135.58196,0.03122
3133.52179,0.03081
3131.46162,0.03057
3129.40145,0.03043
3127.34127,0.03040
3125.28110,0.03024
3123.22093,0.02973
3121.16076,0.02952
3119.10058,0.02974
3117.04041,0.02970
3114.98024,0.02928
3112.92007,0.02899
3110.85990,0.02889
3108.79972,0.02869
3106.73955,0.02851
3104.67938,0.02847
3102.61921,0.02836
3100.55904,0.02823
3098.49886,0.02822
3096.43869,0.02816
3094.37852,0.02804
3092.31835,0.02793
3090.25818,0.02773
3088.19800,0.02739
3086.13783,0.02697
3084.07766,0.02677
3082.01749,0.02682
3079.95731,0.02668
3077.89714,0.02623
3075.83697,0.02587
3073.77680,0.02560
3071.71663,0.02526
3069.65645,0.02516
3067.59628,0.02524
3065.53611,0.02496
3063.47594,0.02439
3061.41577,0.02385
3059.35559,0.02358
3057.29542,0.02377
3055.23525,0.02401
3053.17508,0.02400
3051.11491,0.02385
3049.05473,0.02362
3046.99456,0.02336
3044.93439,0.02304
3042.87422,0.02272
3040.81404,0.02276
3038.75387,0.02300
3036.69370,0.02289
3034.63353,0.02253
3032.57336,0.02234
3030.51318,0.02236
3028.45301,0.02223
3026.39284,0.02191
3024.33267,0.02148
3022.27250,0.02095
3020.21232,0.02075
3018.15215,0.02096
3016.09198,0.02100
3014.03181,0.02076
3011.97163,0.02049
3009.91146,0.02013
3007.85129,0.01964
3005.79112,0.01915
3003.73095,0.01889
3001.67077,0.01895
2999.61060,0.01913
2997.55043,0.01914
2995.49026,0.01894
2993.43009,0.01891
2991.36991,0.01912
2989.30974,0.01913
2987.24957,0.01915
2985.18940,0.01917
2983.12923,0.01888
2981.06905,0.01878
2979.00888,0.01924
2976.94871,0.01961
2974.88854,0.01960
2972.82836,0.01977
2970.76819,0.02056
2968.70802,0.02155
2966.64785,0.02208
2964.58768,0.02262
2962.52750,0.02375
2960.46733,0.02481
2958.40716,0.02551
2956.34699,0.02638
2954.28682,0.02764
2952.22664,0.02907
2950.16647,0.03056
2948.10630,0.03184
2946.04613,0.03286
2943.98596,0.03427
2941.92578,0.03619
2939.86561,0.03814
2937.80544,0.04013
2935.74527,0.04225
2933.68509,0.04421
2931.62492,0.04572
2929.56475,0.04682
2927.50458,0.04770
2925.44441,0.04873
2923.38423,0.04998
2921.32406,0.05107
2919.26389,0.05168
2917.20372,0.05168
2915.14355,0.05092
2913.08337,0.04946
2911.02320,0.04767
2908.96303,0.04583
2906.90286,0.04416
2904.84268,0.04300
2902.78251,0.04214
2900.72234,0.04124
2898.66217,0.04031
2896.60200,0.03934
2894.54182,0.03830
2892.48165,0.03746
2890.42148,0.03694
2888.36131,0.03650
2886.30114,0.03613
2884.24096,0.03569
2882.18079,0.03504
2880.12062,0.03451
2878.06045,0.03421
2876.00028,0.03410
2873.94010,0.03398
2871.87993,0.03373
2869.81976,0.03380
2867.75959,0.03422
2865.69941,0.03475
2863.63924,0.03557
2861.57907,0.03681
2859.51890,0.03821
2857.45873,0.03962
2855.39855,0.04114
2853.33838,0.04236
2851.27821,0.04282
2849.21804,0.04253
2847.15787,0.04130
2845.09769,0.03917
2843.03752,0.03688
2840.97735,0.03508
2838.91718,0.03373
2836.85700,0.03235
2834.79683,0.03106
2832.73666,0.03037
2830.67649,0.02990
2828.61632,0.02921
2826.55614,0.02861
2824.49597,0.02816
2822.43580,0.02759
2820.37563,0.02716
2818.31546,0.02697
2816.25528,0.02658
2814.19511,0.02599
2812.13494,0.02547
2810.07477,0.02506
2808.01460,0.02483
2805.95442,0.02476
2803.89425,0.02473
2801.83408,0.02456
2799.77391,0.02419
2797.71373,0.02394
2795.65356,0.02394
2793.59339,0.02383
2791.53322,0.02342
2789.47305,0.02302
2787.41287,0.02292
2785.35270,0.02285
2783.29253,0.02266
2781.23236,0.02267
2779.17219,0.02282
2777.11201,0.02276
2775.05184,0.02250
2772.99167,0.02226
2770.93150,0.02194
2768.87133,0.02141
2766.81115,0.02108
2764.75098,0.02126
2762.69081,0.02155
2760.63064,0.02146
2758.57046,0.02122
2756.51029,0.02121
2754.45012,0.02117
2752.38995,0.02105
2750.32978,0.02106
2748.26960,0.02103
2746.20943,0.02105
2744.14926,0.02120
2742.08909,0.02116
2740.02892,0.02093
2737.96874,0.02076
2735.90857,0.02076
2733.84840,0.02074
2731.78823,0.02073
2729.72805,0.02082
2727.66788,0.02074
2725.60771,0.02054
2723.54754,0.02031
2721.48737,0.02006
2719.42719,0.01987
2717.36702,0.01988
2715.30685,0.02012
2713.24668,0.02028
2711.18651,0.02005
2709.12633,0.01970
2707.06616,0.01961
2705.00599,0.01966
2702.94582,0.01972
2700.88565,0.01993
2698.82547,0.02024
2696.76530,0.02044
2694.70513,0.02047
2692.64496,0.02035
2690.58478,0.02015
2688.52461,0.02003
2686.46444,0.01986
2684.40427,0.01966
2682.34410,0.01983
2680.28392,0.02006
2678.22375,0.01992
2676.16358,0.01980
2674.10341,0.01981
2672.04324,0.01964
2669.98306,0.01953
2667.92289,0.01951
2665.86272,0.01927
2663.80255,0.01903
2661.74238,0.01907
2659.68220,0.01919
2657.62203,0.01925
2655.56186,0.01939
2653.50169,0.01942
2651.44151,0.01920
2649.38134,0.01910
2647.32117,0.01911
2645.26100,0.01884
2643.20083,0.01855
2641.14065,0.01864
2639.08048,0.01889
2637.02031,0.01878
2634.96014,0.01854
2632.89997,0.01862
2630.83979,0.01870
2628.77962,0.01839
2626.71945,0.01793
2624.65928,0.01767
2622.59910,0.01759
2620.53893,0.01749
2618.47876,0.01710
2616.41859,0.01666
2614.35842,0.01650
2612.29824,0.01654
2610.23807,0.01669
2608.17790,0.01696
2606.11773,0.01725
2604.05756,0.01730
2601.99738,0.01691
2599.93721,0.01651
2597.87704,0.01670
2595.81687,0.01725
2593.75670,0.01760
2591.69652,0.01760
2589.63635,0.01729
2587.57618,0.01692
2585.51601,0.01654
2583.45583,0.01616
2581.39566,0.01595
2579.33549,0.01581
2577.27532,0.01582
2575.21515,0.01608
2573.15497,0.01627
2571.09480,0.01618
2569.03463,0.01596
2566.97446,0.01595
2564.91429,0.01603
2562.85411,0.01599
2560.79394,0.01597
2558.73377,0.01620
2556.67360,0.01642
2554.61342,0.01602
2552.55325,0.01538
2550.49308,0.01532
2548.43291,0.01543
2546.37274,0.01520
2544.31256,0.01499
2542.25239,0.01517
2540.19222,0.01564
2538.13205,0.01601
2536.07188,0.01621
2534.01170,0.01628
2531.95153,0.01613
2529.89136,0.01576
2527.83119,0.01514
2525.77102,0.01462
2523.71084,0.01456
2521.65067,0.01489
2519.59050,0.01528
2517.53033,0.01528
2515.47015,0.01478
2513.40998,0.01410
2511.34981,0.01379
2509.28964,0.01427
2507.22947,0.01526
2505.16929,0.01560
2503.10912,0.01480
2501.04895,0.01398
2498.98878,0.01399
2496.92861,0.01432
2494.86843,0.01463
2492.80826,0.01495
2490.74809,0.01504
2488.68792,0.01467
2486.62775,0.01412
2484.56757,0.01389
2482.50740,0.01389
2480.44723,0.01380
2478.38706,0.01364
2476.32688,0.01347
2474.26671,0.01325
2472.20654,0.01331
2470.14637,0.01362
2468.08620,0.01361
2466.02602,0.01351
2463.96585,0.01399
2461.90568,0.01424
2459.84551,0.01357
2457.78534,0.01305
2455.72516,0.01324
2453.66499,0.01344
2451.60482,0.01339
2449.54465,0.01309
2447.48447,0.01257
2445.42430,0.01249
2443.36413,0.01291
2441.30396,0.01299
2439.24379,0.01280
2437.18361,0.01277
2435.12344,0.01253
2433.06327,0.01225
2431.00310,0.01242
2428.94293,0.01254
2426.88275,0.01230
2424.82258,0.01220
2422.76241,0.01247
2420.70224,0.01274
2418.64207,0.01271
2416.58189,0.01272
2414.52172,0.01315
2412.46155,0.01343
2410.40138,0.01310
2408.34120,0.01277
2406.28103,0.01252
2404.22086,0.01223
2402.16069,0.01222
2400.10052,0.01248
2398.04034,0.01245
2395.98017,0.01246
2393.92000,0.01245
2391.85983,0.01243
2389.79966,0.01257
2387.73948,0.01296
2385.67931,0.01328
2383.61914,0.01318
2381.55897,0.01277
2379.49880,0.01240
2377.43862,0.01212
2375.37845,0.01179
2373.31828,0.01125
2371.25811,0.01119
2369.19793,0.01265
2367.13776,0.01410
2365.07759,0.01239
2363.01742,0.00860
2360.95725,0.00651
2358.89707,0.00909
2356.83690,0.01339
2354.77673,0.01483
2352.71656,0.01313
2350.65639,0.01112
2348.59621,0.01143
2346.53604,0.01411
2344.47587,0.01420
2342.41570,0.01226
2340.35552,0.01041
2338.29535,0.00918
2336.23518,0.00903
2334.17501,0.01000
2332.11484,0.01184
2330.05466,0.01336
2327.99449,0.01370
2325.93432,0.01269
2323.87415,0.01204
2321.81398,0.01259
2319.75380,0.01416
2317.69363,0.01483
2315.63346,0.01428
2313.57329,0.01308
2311.51312,0.01205
2309.45294,0.01163
2307.39277,0.01154
2305.33260,0.01141
2303.27243,0.01119
2301.21225,0.01143
2299.15208,0.01217
2297.09191,0.01276
2295.03174,0.01263
2292.97157,0.01191
2290.91139,0.01126
2288.85122,0.01088
2286.79105,0.01059
2284.73088,0.01041
2282.67071,0.01023
2280.61053,0.01016
2278.55036,0.01049
2276.49019,0.01107
2274.43002,0.01144
2272.36984,0.01152
2270.30967,0.01157
2268.24950,0.01169
2266.18933,0.01153
2264.12916,0.01100
2262.06898,0.01069
2260.00881,0.01086
2257.94864,0.01058
2255.88847,0.00976
2253.82830,0.00919
2251.76812,0.00924
2249.70795,0.01015
2247.64778,0.01111
2245.58761,0.01039
2243.52744,0.00915
2241.46726,0.00879
2239.40709,0.00919
2237.34692,0.00970
2235.28675,0.00973
2233.22657,0.00936
2231.16640,0.00854
2229.10623,0.00745
2227.04606,0.00730
2224.98589,0.00891
2222.92571,0.01049
2220.86554,0.01030
2218.80537,0.00973
2216.74520,0.00958
2214.68503,0.00929
2212.62485,0.00905
2210.56468,0.00923
2208.50451,0.00971
2206.44434,0.00981
2204.38417,0.00996
2202.32399,0.01078
2200.26382,0.01139
2198.20365,0.01098
2196.14348,0.00977
2194.08330,0.00878
2192.02313,0.00848
2189.96296,0.00795
2187.90279,0.00671
2185.84262,0.00627
2183.78244,0.00688
2181.72227,0.00697
2179.66210,0.00717
2177.60193,0.00790
2175.54176,0.00771
2173.48158,0.00730
2171.42141,0.00866
2169.36124,0.01017
2167.30107,0.00896
2165.24089,0.00689
2163.18072,0.00694
2161.12055,0.00660
2159.06038,0.00476
2157.00021,0.00404
2154.94003,0.00401
2152.87986,0.00492
2150.81969,0.00602
2148.75952,0.00666
2146.69935,0.00845
2144.63917,0.00946
2142.57900,0.00817
2140.51883,0.00631
2138.45866,0.00570
2136.39849,0.00652
2134.33831,0.00743
2132.27814,0.00729
2130.21797,0.00617
2128.15780,0.00552
2126.09762,0.00607
2124.03745,0.00691
2121.97728,0.00705
2119.91711,0.00689
2117.85694,0.00712
2115.79676,0.00728
2113.73659,0.00727
2111.67642,0.00730
2109.61625,0.00733
2107.55608,0.00687
2105.49590,0.00593
2103.43573,0.00586
2101.37556,0.00724
2099.31539,0.00918
2097.25521,0.01033
2095.19504,0.01001
2093.13487,0.00902
2091.07470,0.00825
2089.01453,0.00738
2086.95435,0.00644
2084.89418,0.00636
2082.83401,0.00723
2080.77384,0.00801
2078.71367,0.00824
2076.65349,0.00834
2074.59332,0.00831
2072.53315,0.00833
2070.47298,0.00884
2068.41281,0.00909
2066.35263,0.00837
2064.29246,0.00773
2062.23229,0.00807
2060.17212,0.00876
2058.11194,0.00853
2056.05177,0.00720
2053.99160,0.00672
2051.93143,0.00792
2049.87126,0.00877
2047.81108,0.00789
2045.75091,0.00654
2043.69074,0.00636
2041.63057,0.00711
2039.57040,0.00717
2037.51022,0.00631
2035.45005,0.00573
2033.38988,0.00584
2031.32971,0.00613
2029.26954,0.00554
2027.20936,0.00408
2025.14919,0.00314
2023.08902,0.00307
2021.02885,0.00342
2018.96867,0.00447
2016.90850,0.00622
2014.84833,0.00720
2012.78816,0.00639
2010.72799,0.00541
2008.66781,0.00587
2006.60764,0.00684
2004.54747,0.00688
2002.48730,0.00574
2000.42713,0.00477
1998.36695,0.00542
1996.30678,0.00681
1994.24661,0.00705
1992.18644,0.00602
1990.12626,0.00524
1988.06609,0.00552
1986.00592,0.00634
1983.94575,0.00667
1981.88558,0.00513
1979.82540,0.00192
1977.76523,0.00000
1975.70506,0.00056
1973.64489,0.00220
1971.58472,0.00408
1969.52454,0.00521
1967.46437,0.00492
1965.40420,0.00411
1963.34403,0.00419
1961.28386,0.00551
1959.22368,0.00648
1957.16351,0.00578
1955.10334,0.00442
1953.04317,0.00359
1950.98299,0.00401
1948.92282,0.00570
1946.86265,0.00681
1944.80248,0.00626
1942.74231,0.00521
1940.68213,0.00482
1938.62196,0.00447
1936.56179,0.00408
1934.50162,0.00447
1932.44145,0.00518
1930.38127,0.00564
1928.32110,0.00581
1926.26093,0.00527
1924.20076,0.00422
1922.14059,0.00363
1920.08041,0.00341
1918.02024,0.00314
1915.96007,0.00304
1913.89990,0.00326
1911.83972,0.00372
1909.77955,0.00438
1907.71938,0.00486
1905.65921,0.00475
1903.59904,0.00437
1901.53886,0.00430
1899.47869,0.00443
1897.41852,0.00450
1895.35835,0.00438
1893.29818,0.00408
1891.23800,0.00378
1889.17783,0.00369
1887.11766,0.00371
1885.05749,0.00385
1882.99731,0.00419
1880.93714,0.00445
1878.87697,0.00473
1876.81680,0.00534
1874.75663,0.00579
1872.69645,0.00559
1870.63628,0.00528
1868.57611,0.00506
1866.51594,0.00453
1864.45577,0.00397
1862.39559,0.00384
1860.33542,0.00389
1858.27525,0.00373
1856.21508,0.00363
1854.15491,0.00382
1852.09473,0.00385
1850.03456,0.00351
1847.97439,0.00307
1845.91422,0.00282
1843.85404,0.00288
1841.79387,0.00299
1839.73370,0.00291
1837.67353,0.00269
1835.61336,0.00246
1833.55318,0.00232
1831.49301,0.00238
1829.43284,0.00258
1827.37267,0.00276
1825.31250,0.00288
1823.25232,0.00283
1821.19215,0.00259
1819.13198,0.00250
1817.07181,0.00265
1815.01163,0.00281
1812.95146,0.00276
1810.89129,0.00245
1808.83112,0.00203
1806.77095,0.00171
1804.71077,0.00146
1802.65060,0.00129
1800.59043,0.00144
1798.53026,0.00181
1796.47009,0.00184
1794.40991,0.00122
1792.34974,0.00049
1790.28957,0.00047
1788.22940,0.00081
1786.16923,0.00093
1784.10905,0.00095
1782.04888,0.00104
1779.98871,0.00107
1777.92854,0.00098
1775.86836,0.00068
1773.80819,0.00024
1771.74802,0.00000
1769.68785,0.00012
1767.62768,0.00042
1765.56750,0.00069
1763.50733,0.00113
1761.44716,0.00195
1759.38699,0.00293
1757.32682,0.00375
1755.26664,0.00436
1753.20647,0.00488
1751.14630,0.00562
1749.08613,0.00667
1747.02596,0.00746
1744.96578,0.00777
1742.90561,0.00814
1740.84544,0.00901
1738.78527,0.01004
1736.72509,0.01070
1734.66492,0.01102
1732.60475,0.01119
1730.54458,0.01129
1728.48441,0.01150
1726.42423,0.01170
1724.36406,0.01181
1722.30389,0.01197
1720.24372,0.01231
1718.18355,0.01290
1716.12337,0.01353
1714.06320,0.01374
1712.00303,0.01367
1709.94286,0.01355
1707.88268,0.01326
1705.82251,0.01273
1703.76234,0.01233
1701.70217,0.01232
1699.64200,0.01241
1697.58182,0.01245
1695.52165,0.01277
1693.46148,0.01335
1691.40131,0.01400
1689.34114,0.01481
1687.28096,0.01595
1685.22079,0.01780
1683.16062,0.02037
1681.10045,0.02237
1679.04028,0.02351
1676.98010,0.02445
1674.91993,0.02543
1672.85976,0.02608
1670.79959,0.02609
1668.73941,0.02566
1666.67924,0.02524
1664.61907,0.02480
1662.55890,0.02420
1660.49873,0.02373
1658.43855,0.02339
1656.37838,0.02279
1654.31821,0.02207
1652.25804,0.02201
1650.19787,0.02243
1648.13769,0.02236
1646.07752,0.02194
1644.01735,0.02192
1641.95718,0.02227
1639.89701,0.02260
1637.83683,0.02297
1635.77666,0.02376
1633.71649,0.02458
1631.65632,0.02490
1629.59614,0.02501
1627.53597,0.02540
1625.47580,0.02606
1623.41563,0.02652
1621.35546,0.02658
1619.29528,0.02657
1617.23511,0.02693
1615.17494,0.02769
1613.11477,0.02848
1611.05460,0.02943
1608.99442,0.03082
1606.93425,0.03222
1604.87408,0.03292
1602.81391,0.03268
1600.75373,0.03184
1598.69356,0.03082
1596.63339,0.02972
1594.57322,0.02861
1592.51305,0.02765
1590.45287,0.02695
1588.39270,0.02644
1586.33253,0.02588
1584.27236,0.02510
1582.21219,0.02420
1580.15201,0.02351
1578.09184,0.02318
1576.03167,0.02305
1573.97150,0.02280
1571.91133,0.02244
1569.85115,0.02201
1567.79098,0.02136
1565.73081,0.02052
1563.67064,0.01978
1561.61046,0.01920
1559.55029,0.01830
1557.49012,0.01696
1555.42995,0.01608
1553.36978,0.01559
1551.30960,0.01506
1549.24943,0.01427
1547.18926,0.01340
1545.12909,0.01262
1543.06892,0.01174
1541.00874,0.01071
1538.94857,0.01001
1536.88840,0.00969
1534.82823,0.00931
1532.76805,0.00884
1530.70788,0.00854
1528.64771,0.00836
1526.58754,0.00805
1524.52737,0.00777
1522.46719,0.00821
1520.40702,0.00969
1518.34685,0.01123
1516.28668,0.01205
1514.22651,0.01222
1512.16633,0.01201
1510.10616,0.01135
1508.04599,0.00990
1505.98582,0.00795
1503.92565,0.00673
1501.86547,0.00602
1499.80530,0.00515
1497.74513,0.00411
1495.68496,0.00328
1493.62478,0.00279
1491.56461,0.00248
1489.50444,0.00231
1487.44427,0.00207
1485.38410,0.00161
1483.32392,0.00126
1481.26375,0.00135
1479.20358,0.00174
1477.14341,0.00229
1475.08324,0.00315
1473.02306,0.00473
1470.96289,0.00666
1468.90272,0.00815
1466.84255,0.00942
1464.78238,0.01085
1462.72220,0.01208
1460.66203,0.01282
1458.60186,0.01344
1456.54169,0.01425
1454.48151,0.01503
1452.42134,0.01578
1450.36117,0.01664
1448.30100,0.01750
1446.24083,0.01838
1444.18065,0.01933
1442.12048,0.02008
1440.06031,0.02053
1438.00014,0.02104
1435.93997,0.02191
1433.87979,0.02277
1431.81962,0.02326
1429.75945,0.02339
1427.69928,0.02331
1425.63910,0.02325
1423.57893,0.02336
1421.51876,0.02352
1419.45859,0.02364
1417.39842,0.02370
1415.33824,0.02361
1413.27807,0.02335
1411.21790,0.02296
1409.15773,0.02251
1407.09756,0.02206
1405.03738,0.02158
1402.97721,0.02108
1400.91704,0.02069
1398.85687,0.02026
1396.79670,0.01955
1394.73652,0.01873
1392.67635,0.01810
1390.61618,0.01784
1388.55601,0.01807
1386.49583,0.01870
1384.43566,0.01937
1382.37549,0.01990
1380.31532,0.02039
1378.25515,0.02084
1376.19497,0.02120
1374.13480,0.02155
1372.07463,0.02191
1370.01446,0.02213
1367.95429,0.02213
1365.89411,0.02198
1363.83394,0.02171
1361.77377,0.02127
1359.71360,0.02072
1357.65343,0.02033
1355.59325,0.02024
1353.53308,0.02033
1351.47291,0.02035
1349.41274,0.02029
1347.35256,0.02029
1345.29239,0.02033
1343.23222,0.02027
1341.17205,0.02012
1339.11188,0.01992
1337.05170,0.01971
1334.99153,0.01967
1332.93136,0.01986
1330.87119,0.02008
1328.81102,0.02019
1326.75084,0.02019
1324.69067,0.02024
1322.63050,0.02038
1320.57033,0.02042
1318.51015,0.02025
1316.44998,0.02006
1314.38981,0.01994
1312.32964,0.01983
1310.26947,0.01965
1308.20929,0.01914
1306.14912,0.01839
1304.08895,0.01787
1302.02878,0.01756
1299.96861,0.01715
1297.90843,0.01664
1295.84826,0.01618
1293.78809,0.01591
1291.72792,0.01598
1289.66775,0.01622
1287.60757,0.01632
1285.54740,0.01648
1283.48723,0.01684
1281.42706,0.01711
1279.36688,0.01714
1277.30671,0.01702
1275.24654,0.01689
1273.18637,0.01707
1271.12620,0.01760
1269.06602,0.01807
1267.00585,0.01840
1264.94568,0.01906
1262.88551,0.02001
1260.82534,0.02056
1258.76516,0.02089
1256.70499,0.02142
1254.64482,0.02204
1252.58465,0.02266
1250.52447,0.02316
1248.46430,0.02352
1246.40413,0.02377
1244.34396,0.02376
1242.28379,0.02363
1240.22361,0.02373
1238.16344,0.02404
1236.10327,0.02418
1234.04310,0.02396
1231.98293,0.02356
1229.92275,0.02298
1227.86258,0.02203
1225.80241,0.02085
1223.74224,0.01977
1221.68207,0.01881
1219.62189,0.01787
1217.56172,0.01698
1215.50155,0.01595
1213.44138,0.01473
1211.38120,0.01342
1209.32103,0.01209
1207.26086,0.01100
1205.20069,0.01009
1203.14052,0.00900
1201.08034,0.00779
1199.02017,0.00649
1196.96000,0.00496
1194.89983,0.00345
1192.83966,0.00224
1190.77948,0.00139
1188.71931,0.00093
1186.65914,0.00063
1184.59897,0.00025
1182.53880,0.00000
1180.47862,0.00005
1178.41845,0.00035
1176.35828,0.00102
1174.29811,0.00247
1172.23793,0.00441
1170.17776,0.00627
1168.11759,0.00782
1166.05742,0.00889
1163.99725,0.00947
1161.93707,0.00988
1159.87690,0.01020
1157.81673,0.01041
1155.75656,0.01090
1153.69639,0.01173
1151.63621,0.01248
1149.57604,0.01312
1147.51587,0.01405
1145.45570,0.01506
1143.39552,0.01568
1141.33535,0.01621
1139.27518,0.01707
1137.21501,0.01803
1135.15484,0.01876
1133.09466,0.01941
1131.03449,0.02010
1128.97432,0.02093
1126.91415,0.02199
1124.85398,0.02303
1122.79380,0.02415
1120.73363,0.02565
1118.67346,0.02721
1116.61329,0.02841
1114.55312,0.02937
1112.49294,0.03017
1110.43277,0.03085
1108.37260,0.03168
1106.31243,0.03272
1104.25225,0.03380
1102.19208,0.03486
1100.13191,0.03613
1098.07174,0.03764
1096.01157,0.03944
1093.95139,0.04136
1091.89122,0.04332
1089.83105,0.04541
1087.77088,0.04714
1085.71071,0.04837
1083.65053,0.04982
1081.59036,0.05175
1079.53019,0.05375
1077.47002,0.05581
1075.40985,0.05815
1073.34967,0.06052
1071.28950,0.06242
1069.22933,0.06382
1067.16916,0.06526
1065.10898,0.06672
1063.04881,0.06792
1060.98864,0.06888
1058.92847,0.06977
1056.86830,0.07106
1054.80812,0.07303
1052.74795,0.07524
1050.68778,0.07725
1048.62761,0.07927
1046.56744,0.08156
1044.50726,0.08417
1042.44709,0.08700
1040.38692,0.08958
1038.32675,0.09151
1036.26657,0.09290
1034.20640,0.09392
1032.14623,0.09446
1030.08606,0.09448
1028.02589,0.09409
1025.96571,0.09369
1023.90554,0.09367
1021.84537,0.09387
1019.78520,0.09376
1017.72503,0.09344
1015.66485,0.09329
1013.60468,0.09336
1011.54451,0.09360
1009.48434,0.09380
1007.42417,0.09395
1005.36399,0.09418
1003.30382,0.09417
1001.24365,0.09341
999.18348,0.09208
997.12330,0.09070
995.06313,0.08944
993.00296,0.08814
990.94279,0.08655
988.88262,0.08510
986.82244,0.08434
984.76227,0.08337
982.70210,0.08160
980.64193,0.08005
978.58176,0.07907
976.52158,0.07802
974.46141,0.07662
972.40124,0.07501
970.34107,0.07351
968.28089,0.07203
966.22072,0.07055
964.16055,0.06900
962.10038,0.06720
960.04021,0.06570
957.98003,0.06495
955.91986,0.06402
953.85969,0.06232
951.79952,0.06089
949.73935,0.06008
947.67917,0.05890
945.61900,0.05704
943.55883,0.05509
941.49866,0.05330
939.43849,0.05147
937.37831,0.04926
935.31814,0.04647
933.25797,0.04336
931.19780,0.04044
929.13762,0.03821
927.07745,0.03665
925.01728,0.03508
922.95711,0.03306
920.89694,0.03115
918.83676,0.02964
916.77659,0.02795
914.71642,0.02630
912.65625,0.02491
910.59608,0.02332
908.53590,0.02189
906.47573,0.02120
904.41556,0.02082
902.35539,0.02032
900.29522,0.01987
898.23504,0.01964
896.17487,0.01971
894.11470,0.01986
892.05453,0.01983
889.99435,0.02001
887.93418,0.02003
885.87401,0.01925
883.81384,0.01834
881.75367,0.01722
879.69349,0.01547
877.63332,0.01409
875.57315,0.01352
873.51298,0.01302
871.45281,0.01244
869.39263,0.01195
867.33246,0.01142
865.27229,0.01080
863.21212,0.01026
861.15194,0.01008
859.09177,0.01038
857.03160,0.01053
854.97143,0.01011
852.91126,0.00987
850.85108,0.01003
848.79091,0.01005
846.73074,0.00974
844.67057,0.00912
842.61040,0.00899
840.55022,0.00968
838.49005,0.01036
836.42988,0.01034
834.36971,0.00977
832.30954,0.00921
830.24936,0.00871
828.18919,0.00781
826.12902,0.00666
824.06885,0.00593
822.00867,0.00579
819.94850,0.00590
817.88833,0.00576
815.82816,0.00522
813.76799,0.00522
811.70781,0.00603
809.64764,0.00622
807.58747,0.00530
805.52730,0.00459
803.46713,0.00460
801.40695,0.00451
799.34678,0.00405
797.28661,0.00363
795.22644,0.00315
793.16627,0.00230
791.10609,0.00112
789.04592,0.00000
786.98575,-0.00004
784.92558,0.00134
782.86540,0.00244
780.80523,0.00265
778.74506,0.00309
776.68489,0.00335
774.62472,0.00288
772.56454,0.00259
770.50437,0.00236
768.44420,0.00156
766.38403,0.00102
764.32386,0.00110
762.26368,0.00118
760.20351,0.00164
758.14334,0.00236
756.08317,0.00279
754.02299,0.00326
751.96282,0.00340
749.90265,0.00281
747.84248,0.00175
745.78231,0.00059
743.72213,0.00000
741.66196,0.00018
739.60179,0.00102
737.54162,0.00226
735.48145,0.00306
733.42127,0.00244
731.36110,0.00129
729.30093,0.00120
727.24076,0.00185
725.18059,0.00263
723.12041,0.00403
721.06024,0.00489
719.00007,0.00453
716.93990,0.00391
714.87972,0.00329
712.81955,0.00321
710.75938,0.00438
708.69921,0.00591
706.63904,0.00680
704.57886,0.00741
702.51869,0.00835
700.45852,0.00925
698.39835,0.00936
696.33818,0.00868
694.27800,0.00868
692.21783,0.00984
690.15766,0.01034
688.09749,0.00972
686.03731,0.00890
683.97714,0.00680
681.91697,0.00340
679.85680,0.00150
677.79663,0.00216
675.73645,0.00369
673.67628,0.00327
671.61611,0.00000
669.55594,-0.00072
667.49577,0.00282
665.43559,0.00321
663.37542,0.00468
661.31525,0.00419
659.25508,0.00292
657.19491,0.00299
655.13473,0.00308
653.07456,0.00211
651.01439,0.00199
648.95422,0.00444
646.89404,0.00708
644.83387,0.00668
642.77370,0.00387
640.71353,0.00184
638.65336,0.00231
636.59318,0.00430
634.53301,0.00517
632.47284,0.00341
630.41267,0.00030
628.35250,-0.00178
626.29232,-0.00241
624.23215,-0.00247
622.17198,-0.00255
620.11181,-0.00248
618.05164,0.00121
615.99146,0.00563
613.93129,0.00670
611.87112,0.00675
609.81095,0.00475
607.75077,0.00087
605.69060,0.00051
603.63043,0.00473
601.57026,0.00566
599.51009,0.00000
