3996.73391,0.00073
3994.67373,0.00034
3992.61356,0.00022
3990.55339,0.00024
3988.49322,0.00056
3986.43305,0.00091
3984.37287,0.00101
3982.31270,0.00107
3980.25253,0.00116
3978.19236,0.00104
3976.13219,0.00095
3974.07201,0.00121
3972.01184,0.00121
3969.95167,0.00055
3967.89150,0.00000
3965.83133,0.00015
3963.77115,0.00061
3961.71098,0.00080
3959.65081,0.00046
3957.59064,0.00013
3955.53046,0.00032
3953.47029,0.00055
3951.41012,0.00058
3949.34995,0.00105
3947.28978,0.00210
3945.22960,0.00249
3943.16943,0.00220
3941.10926,0.00227
3939.04909,0.00240
3936.98892,0.00250
3934.92874,0.00264
3932.86857,0.00246
3930.80840,0.00236
3928.74823,0.00243
3926.68805,0.00210
3924.62788,0.00195
3922.56771,0.00257
3920.50754,0.00277
3918.44737,0.00222
3916.38719,0.00188
3914.32702,0.00218
3912.26685,0.00261
3910.20668,0.00289
3908.14651,0.00258
3906.08633,0.00149
3904.02616,0.00083
3901.96599,0.00106
3899.90582,0.00114
3897.84565,0.00184
3895.78547,0.00302
3893.72530,0.00295
3891.66513,0.00225
3889.60496,0.00264
3887.54478,0.00253
3885.48461,0.00233
3883.42444,0.00326
3881.36427,0.00302
3879.30410,0.00282
3877.24392,0.00327
3875.18375,0.00284
3873.12358,0.00244
3871.06341,0.00227
3869.00324,0.00347
3866.94306,0.00464
3864.88289,0.00347
3862.82272,0.00258
3860.76255,0.00306
3858.70237,0.00368
3856.64220,0.00327
3854.58203,0.00204
3852.52186,0.00280
3850.46169,0.00442
3848.40151,0.00426
3846.34134,0.00352
3844.28117,0.00336
3842.22100,0.00345
3840.16083,0.00280
3838.10065,0.00214
3836.04048,0.00238
3833.98031,0.00260
3831.92014,0.00257
3829.85997,0.00286
3827.79979,0.00317
3825.73962,0.00355
3823.67945,0.00286
3821.61928,0.00169
3819.55910,0.00319
3817.49893,0.00397
3815.43876,0.00364
3813.37859,0.00435
3811.31842,0.00434
3809.25824,0.00306
3807.19807,0.00228
3805.13790,0.00327
3803.07773,0.00310
3801.01756,0.00265
3798.95738,0.00358
3796.89721,0.00345
3794.83704,0.00298
3792.77687,0.00257
3790.71670,0.00209
3788.65652,0.00174
3786.59635,0.00132
3784.53618,0.00156
3782.47601,0.00246
3780.41583,0.00268
3778.35566,0.00303
3776.29549,0.00402
3774.23532,0.00444
3772.17515,0.00372
3770.11497,0.00283
3768.05480,0.00293
3765.99463,0.00323
3763.93446,0.00394
3761.87429,0.00400
3759.81411,0.00286
3757.75394,0.00255
3755.69377,0.00329
3753.63360,0.00316
3751.57342,0.00246
3749.51325,0.00377
3747.45308,0.00508
3745.39291,0.00400
3743.33274,0.00447
3741.27256,0.00599
3739.21239,0.00554
3737.15222,0.00388
3735.09205,0.00254
3733.03188,0.00208
3730.97170,0.00234
3728.91153,0.00255
3726.85136,0.00250
3724.79119,0.00271
3722.73102,0.00216
3720.67084,0.00163
3718.61067,0.00248
3716.55050,0.00360
3714.49033,0.00279
3712.43015,0.00097
3710.36998,0.00178
3708.30981,0.00414
3706.24964,0.00477
3704.18947,0.00356
3702.12929,0.00216
3700.06912,0.00210
3698.00895,0.00249
3695.94878,0.00268
3693.88861,0.00259
3691.82843,0.00135
3689.76826,0.00000
3687.70809,0.00092
3685.64792,0.00310
3683.58775,0.00441
3681.52757,0.00488
3679.46740,0.00499
3677.40723,0.00446
3675.34706,0.00453
3673.28688,0.00589
3671.22671,0.00424
3669.16654,0.00208
3667.10637,0.00281
3665.04620,0.00383
3662.98602,0.00401
3660.92585,0.00377
3658.86568,0.00305
3656.80551,0.00241
3654.74534,0.00311
3652.68516,0.00307
3650.62499,0.00174
3648.56482,0.00251
3646.50465,0.00469
3644.44447,0.00517
3642.38430,0.00416
3640.32413,0.00334
3638.26396,0.00311
3636.20379,0.00352
3634.14361,0.00448
3632.08344,0.00490
3630.02327,0.00342
3627.96310,0.00301
3625.90293,0.00480
3623.84275,0.00552
3621.78258,0.00451
3619.72241,0.00332
3617.66224,0.00360
3615.60207,0.00408
3613.54189,0.00425
3611.48172,0.00514
3609.42155,0.00547
3607.36138,0.00538
3605.30120,0.00589
3603.24103,0.00614
3601.18086,0.00601
3599.12069,0.00608
3597.06052,0.00639
3595.00034,0.00701
3592.94017,0.00783
3590.88000,0.00779
3588.81983,0.00697
3586.75966,0.00723
3584.69948,0.00809
3582.63931,0.00763
3580.57914,0.00676
3578.51897,0.00652
3576.45879,0.00668
3574.39862,0.00743
3572.33845,0.00864
3570.27828,0.00899
3568.21811,0.00803
3566.15793,0.00784
3564.09776,0.00886
3562.03759,0.00929
3559.97742,0.00924
3557.91725,0.00929
3555.85707,0.00931
3553.79690,0.00932
3551.73673,0.00993
3549.67656,0.01073
3547.61639,0.01058
3545.55621,0.01021
3543.49604,0.01086
3541.43587,0.01179
3539.37570,0.01214
3537.31552,0.01217
3535.25535,0.01250
3533.19518,0.01306
3531.13501,0.01339
3529.07484,0.01348
3527.01466,0.01355
3524.95449,0.01389
3522.89432,0.01438
3520.83415,0.01459
3518.77398,0.01484
3516.71380,0.01589
3514.65363,0.01709
3512.59346,0.01735
3510.53329,0.01696
3508.47312,0.01721
3506.41294,0.01812
3504.35277,0.01868
3502.29260,0.01908
3500.23243,0.01935
3498.17225,0.01914
3496.11208,0.01918
3494.05191,0.01989
3491.99174,0.02046
3489.93157,0.02055
3487.87139,0.02063
3485.81122,0.02088
3483.75105,0.02080
3481.69088,0.02064
3479.63071,0.02115
3477.57053,0.02177
3475.51036,0.02188
3473.45019,0.02182
3471.39002,0.02189
3469.32984,0.02194
3467.26967,0.02218
3465.20950,0.02276
3463.14933,0.02342
3461.08916,0.02418
3459.02898,0.02473
3456.96881,0.02459
3454.90864,0.02427
3452.84847,0.02455
3450.78830,0.02521
3448.72812,0.02532
3446.66795,0.02533
3444.60778,0.02597
3442.54761,0.02669
3440.48744,0.02732
3438.42726,0.02753
3436.36709,0.02750
3434.30692,0.02788
3432.24675,0.02837
3430.18657,0.02856
3428.12640,0.02864
3426.06623,0.02902
3424.00606,0.02974
3421.94589,0.03023
3419.88571,0.03021
3417.82554,0.02997
3415.76537,0.02997
3413.70520,0.02999
3411.64503,0.02966
3409.58485,0.02959
3407.52468,0.03000
3405.46451,0.03056
3403.40434,0.03149
3401.34416,0.03259
3399.28399,0.03285
3397.22382,0.03259
3395.16365,0.03265
3393.10348,0.03280
3391.04330,0.03303
3388.98313,0.03358
3386.92296,0.03402
3384.86279,0.03395
3382.80262,0.03374
3380.74244,0.03379
3378.68227,0.03377
3376.62210,0.03360
3374.56193,0.03374
3372.50176,0.03414
3370.44158,0.03454
3368.38141,0.03499
3366.32124,0.03515
3364.26107,0.03474
3362.20089,0.03447
3360.14072,0.03490
3358.08055,0.03549
3356.02038,0.03578
3353.96021,0.03612
3351.90003,0.03659
3349.83986,0.03695
3347.77969,0.03715
3345.71952,0.03735
3343.65935,0.03771
3341.59917,0.03778
3339.53900,0.03748
3337.47883,0.03770
3335.41866,0.03811
3333.35849,0.03772
3331.29831,0.03702
3329.23814,0.03706
3327.17797,0.03749
3325.11780,0.03735
3323.05762,0.03699
3320.99745,0.03717
3318.93728,0.03762
3316.87711,0.03770
3314.81694,0.03748
3312.75676,0.03747
3310.69659,0.03751
3308.63642,0.03744
3306.57625,0.03782
3304.51608,0.03867
3302.45590,0.03911
3300.39573,0.03902
3298.33556,0.03908
3296.27539,0.03921
3294.21521,0.03902
3292.15504,0.03882
3290.09487,0.03877
3288.03470,0.03881
3285.97453,0.03868
3283.91435,0.03813
3281.85418,0.03784
3279.79401,0.03814
3277.73384,0.03832
3275.67367,0.03838
3273.61349,0.03862
3271.55332,0.03887
3269.49315,0.03897
3267.43298,0.03884
3265.37281,0.03883
3263.31263,0.03932
3261.25246,0.03987
3259.19229,0.03979
3257.13212,0.03889
3255.07194,0.03794
3253.01177,0.03791
3250.95160,0.03842
3248.89143,0.03857
3246.83126,0.03821
3244.77108,0.03790
3242.71091,0.03787
3240.65074,0.03788
3238.59057,0.03801
3236.53040,0.03839
3234.47022,0.03863
3232.41005,0.03843
3230.34988,0.03813
3228.28971,0.03810
3226.22954,0.03806
3224.16936,0.03754
3222.10919,0.03682
3220.04902,0.03648
3217.98885,0.03671
3215.92867,0.03698
3213.86850,0.03692
3211.80833,0.03676
3209.74816,0.03661
3207.68799,0.03662
3205.62781,0.03680
3203.56764,0.03691
3201.50747,0.03665
3199.44730,0.03616
3197.38713,0.03584
3195.32695,0.03563
3193.26678,0.03544
3191.20661,0.03544
3189.14644,0.03567
3187.08626,0.03593
3185.02609,0.03590
3182.96592,0.03548
3180.90575,0.03508
3178.84558,0.03511
3176.78540,0.03527
3174.72523,0.03505
3172.66506,0.03471
3170.60489,0.03450
3168.54472,0.03439
3166.48454,0.03424
3164.42437,0.03403
3162.36420,0.03406
3160.30403,0.03404
3158.24386,0.03373
3156.18368,0.03370
3154.12351,0.03371
3152.06334,0.03325
3150.00317,0.03310
3147.94299,0.03336
3145.88282,0.03311
3143.82265,0.03250
3141.76248,0.03222
3139.70231,0.03239
3137.64213,0.03266
3135.58196,0.03271
3133.52179,0.03240
3131.46162,0.03176
3129.40145,0.03133
3127.34127,0.03159
3125.28110,0.03159
3123.22093,0.03050
3121.16076,0.02975
3119.10058,0.03015
3117.04041,0.03042
3114.98024,0.03002
3112.92007,0.02972
3110.85990,0.02974
3108.79972,0.02969
3106.73955,0.02944
3104.67938,0.02913
3102.61921,0.02888
3100.55904,0.02871
3098.49886,0.02845
3096.43869,0.02824
3094.37852,0.02860
3092.31835,0.02905
3090.25818,0.02887
3088.19800,0.02837
3086.13783,0.02792
3084.07766,0.02765
3082.01749,0.02766
3079.95731,0.02759
3077.89714,0.02722
3075.83697,0.02679
3073.77680,0.02639
3071.71663,0.02599
3069.65645,0.02587
3067.59628,0.02613
3065.53611,0.02631
3063.47594,0.02591
3061.41577,0.02512
3059.35559,0.02471
3057.29542,0.02477
3055.23525,0.02485
3053.17508,0.02492
3051.11491,0.02504
3049.05473,0.02500
3046.99456,0.02468
3044.93439,0.02429
3042.87422,0.02408
3040.81404,0.02415
3038.75387,0.02424
3036.69370,0.02408
3034.63353,0.02379
3032.57336,0.02367
3030.51318,0.02371
3028.45301,0.02367
3026.39284,0.02354
3024.33267,0.02325
3022.27250,0.02259
3020.21232,0.02216
3018.15215,0.02221
3016.09198,0.02209
3014.03181,0.02176
3011.97163,0.02155
3009.91146,0.02125
3007.85129,0.02090
3005.79112,0.02071
3003.73095,0.02048
3001.67077,0.02014
2999.61060,0.01999
2997.55043,0.01992
2995.49026,0.01972
2993.43009,0.01985
2991.36991,0.02034
2989.30974,0.02052
2987.24957,0.02044
2985.18940,0.02039
2983.12923,0.02023
2981.06905,0.01993
2979.00888,0.01976
2976.94871,0.01990
2974.88854,0.02017
2972.82836,0.02053
2970.76819,0.02099
2968.70802,0.02147
2966.64785,0.02198
2964.58768,0.02275
2962.52750,0.02397
2960.46733,0.02520
2958.40716,0.02624
2956.34699,0.02740
2954.28682,0.02860
2952.22664,0.02989
2950.16647,0.03113
2948.10630,0.03181
2946.04613,0.03241
2943.98596,0.03382
2941.92578,0.03579
2939.86561,0.03775
2937.80544,0.03974
2935.74527,0.04186
2933.68509,0.04368
2931.62492,0.04498
2929.56475,0.04593
2927.50458,0.04675
2925.44441,0.04774
2923.38423,0.04887
2921.32406,0.04984
2919.26389,0.05045
2917.20372,0.05064
2915.14355,0.04995
2913.08337,0.04835
2911.02320,0.04695
2908.96303,0.04590
2906.90286,0.04430
2904.84268,0.04261
2902.78251,0.04148
2900.72234,0.04072
2898.66217,0.04010
2896.60200,0.03940
2894.54182,0.03864
2892.48165,0.03795
2890.42148,0.03728
2888.36131,0.03655
2886.30114,0.03593
2884.24096,0.03533
2882.18079,0.03463
2880.12062,0.03423
2878.06045,0.03419
2876.00028,0.03422
2873.94010,0.03415
2871.87993,0.03398
2869.81976,0.03419
2867.75959,0.03482
2865.69941,0.03555
2863.63924,0.03652
2861.57907,0.03764
2859.51890,0.03844
2857.45873,0.03915
2855.39855,0.04045
2853.33838,0.04206
2851.27821,0.04290
2849.21804,0.04258
2847.15787,0.04139
2845.09769,0.03944
2843.03752,0.03709
2840.97735,0.03504
2838.91718,0.03353
2836.85700,0.03225
2834.79683,0.03115
2832.73666,0.03062
2830.67649,0.03038
2828.61632,0.02980
2826.55614,0.02919
2824.49597,0.02880
2822.43580,0.02828
2820.37563,0.02794
2818.31546,0.02803
2816.25528,0.02793
2814.19511,0.02729
2812.13494,0.02643
2810.07477,0.02584
2808.01460,0.02567
2805.95442,0.02569
2803.89425,0.02566
2801.83408,0.02547
2799.77391,0.02511
2797.71373,0.02482
2795.65356,0.02470
2793.59339,0.02466
2791.53322,0.02469
2789.47305,0.02457
2787.41287,0.02425
2785.35270,0.02397
2783.29253,0.02359
2781.23236,0.02319
2779.17219,0.02317
2777.11201,0.02330
2775.05184,0.02311
2772.99167,0.02283
2770.93150,0.02282
2768.87133,0.02271
2766.81115,0.02226
2764.75098,0.02222
2762.69081,0.02275
2760.63064,0.02295
2758.57046,0.02266
2756.51029,0.02246
2754.45012,0.02229
2752.38995,0.02205
2750.32978,0.02189
2748.26960,0.02171
2746.20943,0.02179
2744.14926,0.02226
2742.08909,0.02251
2740.02892,0.02231
2737.96874,0.02198
2735.90857,0.02190
2733.84840,0.02187
2731.78823,0.02164
2729.72805,0.02155
2727.66788,0.02167
2725.60771,0.02162
2723.54754,0.02135
2721.48737,0.02102
2719.42719,0.02078
2717.36702,0.02078
2715.30685,0.02109
2713.24668,0.02128
2711.18651,0.02090
2709.12633,0.02055
2707.06616,0.02072
2705.00599,0.02082
2702.94582,0.02076
2700.88565,0.02088
2698.82547,0.02114
2696.76530,0.02137
2694.70513,0.02138
2692.64496,0.02126
2690.58478,0.02137
2688.52461,0.02143
2686.46444,0.02088
2684.40427,0.02021
2682.34410,0.02030
2680.28392,0.02073
2678.22375,0.02073
2676.16358,0.02064
2674.10341,0.02069
2672.04324,0.02066
2669.98306,0.02071
2667.92289,0.02077
2665.86272,0.02051
2663.80255,0.02008
2661.74238,0.01991
2659.68220,0.01995
2657.62203,0.02011
2655.56186,0.02035
2653.50169,0.02041
2651.44151,0.02029
2649.38134,0.02045
2647.32117,0.02056
2645.26100,0.02024
2643.20083,0.01993
2641.14065,0.01991
2639.08048,0.01994
2637.02031,0.01979
2634.96014,0.01967
2632.89997,0.01977
2630.83979,0.01963
2628.77962,0.01929
2626.71945,0.01935
2624.65928,0.01953
2622.59910,0.01940
2620.53893,0.01918
2618.47876,0.01885
2616.41859,0.01840
2614.35842,0.01819
2612.29824,0.01809
2610.23807,0.01779
2608.17790,0.01763
2606.11773,0.01794
2604.05756,0.01824
2601.99738,0.01811
2599.93721,0.01761
2597.87704,0.01741
2595.81687,0.01791
2593.75670,0.01835
2591.69652,0.01812
2589.63635,0.01764
2587.57618,0.01744
2585.51601,0.01751
2583.45583,0.01797
2581.39566,0.01863
2579.33549,0.01837
2577.27532,0.01751
2575.21515,0.01727
2573.15497,0.01741
2571.09480,0.01726
2569.03463,0.01689
2566.97446,0.01663
2564.91429,0.01668
2562.85411,0.01674
2560.79394,0.01671
2558.73377,0.01714
2556.67360,0.01744
2554.61342,0.01662
2552.55325,0.01595
2550.49308,0.01630
2548.43291,0.01647
2546.37274,0.01580
2544.31256,0.01503
2542.25239,0.01520
2540.19222,0.01629
2538.13205,0.01697
2536.07188,0.01698
2534.01170,0.01738
2531.95153,0.01790
2529.89136,0.01748
2527.83119,0.01639
2525.77102,0.01560
2523.71084,0.01546
2521.65067,0.01590
2519.59050,0.01634
2517.53033,0.01608
2515.47015,0.01556
2513.40998,0.01500
2511.34981,0.01452
2509.28964,0.01503
2507.22947,0.01621
2505.16929,0.01631
2503.10912,0.01508
2501.04895,0.01434
2498.98878,0.01495
2496.92861,0.01579
2494.86843,0.01643
2492.80826,0.01696
2490.74809,0.01680
2488.68792,0.01590
2486.62775,0.01513
2484.56757,0.01499
2482.50740,0.01487
2480.44723,0.01440
2478.38706,0.01412
2476.32688,0.01403
2474.26671,0.01399
2472.20654,0.01414
2470.14637,0.01436
2468.08620,0.01467
2466.02602,0.01497
2463.96585,0.01523
2461.90568,0.01526
2459.84551,0.01475
2457.78534,0.01442
2455.72516,0.01477
2453.66499,0.01496
2451.60482,0.01485
2449.54465,0.01485
2447.48447,0.01445
2445.42430,0.01394
2443.36413,0.01390
2441.30396,0.01380
2439.24379,0.01377
2437.18361,0.01412
2435.12344,0.01420
2433.06327,0.01376
2431.00310,0.01364
2428.94293,0.01409
2426.88275,0.01434
2424.82258,0.01423
2422.76241,0.01417
2420.70224,0.01427
2418.64207,0.01442
2416.58189,0.01459
2414.52172,0.01501
2412.46155,0.01509
2410.40138,0.01422
2408.34120,0.01343
2406.28103,0.01327
2404.22086,0.01332
2402.16069,0.01375
2400.10052,0.01422
2398.04034,0.01406
2395.98017,0.01364
2393.92000,0.01330
2391.85983,0.01304
2389.79966,0.01304
2387.73948,0.01360
2385.67931,0.01437
2383.61914,0.01467
2381.55897,0.01459
2379.49880,0.01465
2377.43862,0.01469
2375.37845,0.01390
2373.31828,0.01206
2371.25811,0.01095
2369.19793,0.01268
2367.13776,0.01520
2365.07759,0.01333
2363.01742,0.00755
2360.95725,0.00450
2358.89707,0.00575
2356.83690,0.00888
2354.77673,0.01210
2352.71656,0.01344
2350.65639,0.01357
2348.59621,0.01436
2346.53604,0.01643
2344.47587,0.01831
2342.41570,0.01777
2340.35552,0.01536
2338.29535,0.01315
2336.23518,0.01226
2334.17501,0.01263
2332.11484,0.01378
2330.05466,0.01510
2327.99449,0.01540
2325.93432,0.01460
2323.87415,0.01376
2321.81398,0.01349
2319.75380,0.01406
2317.69363,0.01501
2315.63346,0.01530
2313.57329,0.01483
2311.51312,0.01417
2309.45294,0.01346
2307.39277,0.01321
2305.33260,0.01348
2303.27243,0.01335
2301.21225,0.01284
2299.15208,0.01287
2297.09191,0.01348
2295.03174,0.01392
2292.97157,0.01384
2290.91139,0.01354
2288.85122,0.01320
2286.79105,0.01286
2284.73088,0.01247
2282.67071,0.01178
2280.61053,0.01124
2278.55036,0.01141
2276.49019,0.01207
2274.43002,0.01274
2272.36984,0.01296
2270.30967,0.01291
2268.24950,0.01325
2266.18933,0.01367
2264.12916,0.01346
2262.06898,0.01285
2260.00881,0.01242
2257.94864,0.01171
2255.88847,0.00993
2253.82830,0.00809
2251.76812,0.00837
2249.70795,0.01086
2247.64778,0.01252
2245.58761,0.01179
2243.52744,0.01042
2241.46726,0.00994
2239.40709,0.01067
2237.34692,0.01135
2235.28675,0.01158
2233.22657,0.01204
2231.16640,0.01196
2229.10623,0.01107
2227.04606,0.01076
2224.98589,0.01147
2222.92571,0.01207
2220.86554,0.01197
2218.80537,0.01139
2216.74520,0.00964
2214.68503,0.00786
2212.62485,0.00855
2210.56468,0.01025
2208.50451,0.01070
2206.44434,0.01017
2204.38417,0.01008
2202.32399,0.01184
2200.26382,0.01426
2198.20365,0.01445
2196.14348,0.01282
2194.08330,0.01235
2192.02313,0.01260
2189.96296,0.01188
2187.90279,0.01114
2185.84262,0.01105
2183.78244,0.01067
2181.72227,0.01013
2179.66210,0.01022
2177.60193,0.00994
2175.54176,0.00805
2173.48158,0.00739
2171.42141,0.01120
2169.36124,0.01547
2167.30107,0.01525
2165.24089,0.01317
2163.18072,0.01258
2161.12055,0.01154
2159.06038,0.01016
2157.00021,0.00941
2154.94003,0.00754
2152.87986,0.00653
2150.81969,0.00631
2148.75952,0.00614
2146.69935,0.00824
2144.63917,0.00973
2142.57900,0.00849
2140.51883,0.00753
2138.45866,0.00761
2136.39849,0.00782
2134.33831,0.00869
2132.27814,0.00934
2130.21797,0.00821
2128.15780,0.00713
2126.09762,0.00717
2124.03745,0.00723
2121.97728,0.00726
2119.91711,0.00768
2117.85694,0.00823
2115.79676,0.00869
2113.73659,0.00910
2111.67642,0.00904
2109.61625,0.00879
2107.55608,0.00837
2105.49590,0.00782
2103.43573,0.00814
2101.37556,0.00922
2099.31539,0.01054
2097.25521,0.01153
2095.19504,0.01162
2093.13487,0.01110
2091.07470,0.01028
2089.01453,0.00928
2086.95435,0.00860
2084.89418,0.00835
2082.83401,0.00909
2080.77384,0.01063
2078.71367,0.01112
2076.65349,0.01075
2074.59332,0.01124
2072.53315,0.01263
2070.47298,0.01417
2068.41281,0.01452
2066.35263,0.01242
2064.29246,0.01020
2062.23229,0.01012
2060.17212,0.01019
2058.11194,0.00899
2056.05177,0.00752
2053.99160,0.00732
2051.93143,0.00849
2049.87126,0.00901
2047.81108,0.00798
2045.75091,0.00719
2043.69074,0.00762
2041.63057,0.00851
2039.57040,0.00890
2037.51022,0.00810
2035.45005,0.00721
2033.38988,0.00759
2031.32971,0.00836
2029.26954,0.00835
2027.20936,0.00735
2025.14919,0.00601
2023.08902,0.00537
2021.02885,0.00500
2018.96867,0.00502
2016.90850,0.00677
2014.84833,0.00928
2012.78816,0.01019
2010.72799,0.01027
2008.66781,0.01053
2006.60764,0.00983
2004.54747,0.00893
2002.48730,0.00937
2000.42713,0.01022
1998.36695,0.01015
1996.30678,0.00942
1994.24661,0.00823
1992.18644,0.00670
1990.12626,0.00613
1988.06609,0.00675
1986.00592,0.00853
1983.94575,0.01035
1981.88558,0.00872
1979.82540,0.00357
1977.76523,0.00000
1975.70506,0.00079
1973.64489,0.00440
1971.58472,0.00802
1969.52454,0.00891
1967.46437,0.00744
1965.40420,0.00628
1963.34403,0.00599
1961.28386,0.00639
1959.22368,0.00714
1957.16351,0.00782
1955.10334,0.00808
1953.04317,0.00717
1950.98299,0.00725
1948.92282,0.00942
1946.86265,0.01043
1944.80248,0.00868
1942.74231,0.00630
1940.68213,0.00530
1938.62196,0.00465
1936.56179,0.00433
1934.50162,0.00505
1932.44145,0.00594
1930.38127,0.00639
1928.32110,0.00683
1926.26093,0.00699
1924.20076,0.00576
1922.14059,0.00456
1920.08041,0.00423
1918.02024,0.00376
1915.96007,0.00402
1913.89990,0.00484
1911.83972,0.00549
1909.77955,0.00594
1907.71938,0.00632
1905.65921,0.00659
1903.59904,0.00687
1901.53886,0.00708
1899.47869,0.00722
1897.41852,0.00730
1895.35835,0.00706
1893.29818,0.00648
1891.23800,0.00532
1889.17783,0.00449
1887.11766,0.00457
1885.05749,0.00446
1882.99731,0.00430
1880.93714,0.00454
1878.87697,0.00529
1876.81680,0.00662
1874.75663,0.00777
1872.69645,0.00773
1870.63628,0.00642
1868.57611,0.00545
1866.51594,0.00569
1864.45577,0.00581
1862.39559,0.00575
1860.33542,0.00606
1858.27525,0.00641
1856.21508,0.00658
1854.15491,0.00635
1852.09473,0.00577
1850.03456,0.00541
1847.97439,0.00505
1845.91422,0.00384
1843.85404,0.00302
1841.79387,0.00387
1839.73370,0.00424
1837.67353,0.00372
1835.61336,0.00356
1833.55318,0.00374
1831.49301,0.00365
1829.43284,0.00404
1827.37267,0.00481
1825.31250,0.00466
1823.25232,0.00439
1821.19215,0.00419
1819.13198,0.00385
1817.07181,0.00390
1815.01163,0.00418
1812.95146,0.00380
1810.89129,0.00299
1808.83112,0.00287
1806.77095,0.00328
1804.71077,0.00349
1802.65060,0.00336
1800.59043,0.00335
1798.53026,0.00372
1796.47009,0.00392
1794.40991,0.00329
1792.34974,0.00242
1790.28957,0.00271
1788.22940,0.00281
1786.16923,0.00202
1784.10905,0.00172
1782.04888,0.00179
1779.98871,0.00185
1777.92854,0.00211
1775.86836,0.00172
1773.80819,0.00036
1771.74802,0.00000
1769.68785,0.00133
1767.62768,0.00248
1765.56750,0.00331
1763.50733,0.00328
1761.44716,0.00329
1759.38699,0.00414
1757.32682,0.00472
1755.26664,0.00565
1753.20647,0.00623
1751.14630,0.00634
1749.08613,0.00758
1747.02596,0.00902
1744.96578,0.00936
1742.90561,0.00922
1740.84544,0.00966
1738.78527,0.01143
1736.72509,0.01248
1734.66492,0.01117
1732.60475,0.01103
1730.54458,0.01177
1728.48441,0.01214
1726.42423,0.01251
1724.36406,0.01268
1722.30389,0.01325
1720.24372,0.01327
1718.18355,0.01234
1716.12337,0.01281
1714.06320,0.01409
1712.00303,0.01476
1709.94286,0.01469
1707.88268,0.01407
1705.82251,0.01372
1703.76234,0.01423
1701.70217,0.01351
1699.64200,0.01280
1697.58182,0.01304
1695.52165,0.01325
1693.46148,0.01497
1691.40131,0.01588
1689.34114,0.01635
1687.28096,0.01707
1685.22079,0.01700
1683.16062,0.01945
1681.10045,0.02328
1679.04028,0.02490
1676.98010,0.02501
1674.91993,0.02567
1672.85976,0.02688
1670.79959,0.02614
1668.73941,0.02573
1666.67924,0.02650
1664.61907,0.02530
1662.55890,0.02341
1660.49873,0.02389
1658.43855,0.02524
1656.37838,0.02474
1654.31821,0.02176
1652.25804,0.02175
1650.19787,0.02416
1648.13769,0.02278
1646.07752,0.02134
1644.01735,0.02276
1641.95718,0.02402
1639.89701,0.02435
1637.83683,0.02341
1635.77666,0.02259
1633.71649,0.02461
1631.65632,0.02614
1629.59614,0.02578
1627.53597,0.02592
1625.47580,0.02637
1623.41563,0.02635
1621.35546,0.02747
1619.29528,0.02786
1617.23511,0.02679
1615.17494,0.02752
1613.11477,0.02901
1611.05460,0.02970
1608.99442,0.03069
1606.93425,0.03195
1604.87408,0.03237
1602.81391,0.03178
1600.75373,0.03096
1598.69356,0.03020
1596.63339,0.02931
1594.57322,0.02844
1592.51305,0.02774
1590.45287,0.02694
1588.39270,0.02608
1586.33253,0.02536
1584.27236,0.02479
1582.21219,0.02442
1580.15201,0.02406
1578.09184,0.02275
1576.03167,0.02205
1573.97150,0.02366
1571.91133,0.02368
1569.85115,0.02193
1567.79098,0.02158
1565.73081,0.02148
1563.67064,0.02130
1561.61046,0.01974
1559.55029,0.01624
1557.49012,0.01685
1555.42995,0.01810
1553.36978,0.01724
1551.30960,0.01607
1549.24943,0.01557
1547.18926,0.01557
1545.12909,0.01492
1543.06892,0.01369
1541.00874,0.01167
1538.94857,0.01162
1536.88840,0.01319
1534.82823,0.01181
1532.76805,0.00996
1530.70788,0.01015
1528.64771,0.00972
1526.58754,0.00902
1524.52737,0.00913
1522.46719,0.00921
1520.40702,0.01098
1518.34685,0.01312
1516.28668,0.01360
1514.22651,0.01398
1512.16633,0.01409
1510.10616,0.01286
1508.04599,0.00927
1505.98582,0.00747
1503.92565,0.00910
1501.86547,0.00925
1499.80530,0.00733
1497.74513,0.00510
1495.68496,0.00439
1493.62478,0.00475
1491.56461,0.00394
1489.50444,0.00309
1487.44427,0.00350
1485.38410,0.00369
1483.32392,0.00318
1481.26375,0.00297
1479.20358,0.00358
1477.14341,0.00406
1475.08324,0.00422
1473.02306,0.00489
1470.96289,0.00740
1468.90272,0.00970
1466.84255,0.01009
1464.78238,0.01078
1462.72220,0.01303
1460.66203,0.01410
1458.60186,0.01320
1456.54169,0.01373
1454.48151,0.01607
1452.42134,0.01698
1450.36117,0.01690
1448.30100,0.01699
1446.24083,0.01788
1444.18065,0.01912
1442.12048,0.02021
1440.06031,0.02096
1438.00014,0.02078
1435.93997,0.02134
1433.87979,0.02295
1431.81962,0.02307
1429.75945,0.02249
1427.69928,0.02261
1425.63910,0.02286
1423.57893,0.02349
1421.51876,0.02383
1419.45859,0.02307
1417.39842,0.02331
1415.33824,0.02374
1413.27807,0.02315
1411.21790,0.02247
1409.15773,0.02220
1407.09756,0.02168
1405.03738,0.02097
1402.97721,0.02085
1400.91704,0.02058
1398.85687,0.01995
1396.79670,0.01923
1394.73652,0.01818
1392.67635,0.01792
1390.61618,0.01808
1388.55601,0.01793
1386.49583,0.01837
1384.43566,0.01934
1382.37549,0.01988
1380.31532,0.02026
1378.25515,0.02073
1376.19497,0.02080
1374.13480,0.02081
1372.07463,0.02146
1370.01446,0.02176
1367.95429,0.02178
1365.89411,0.02203
1363.83394,0.02182
1361.77377,0.02148
1359.71360,0.02116
1357.65343,0.02054
1355.59325,0.02005
1353.53308,0.02002
1351.47291,0.02005
1349.41274,0.01992
1347.35256,0.01984
1345.29239,0.01988
1343.23222,0.01990
1341.17205,0.01955
1339.11188,0.01925
1337.05170,0.01944
1334.99153,0.01954
1332.93136,0.01929
1330.87119,0.01898
1328.81102,0.01896
1326.75084,0.01920
1324.69067,0.01955
1322.63050,0.01978
1320.57033,0.01967
1318.51015,0.01939
1316.44998,0.01927
1314.38981,0.01916
1312.32964,0.01915
1310.26947,0.01908
1308.20929,0.01857
1306.14912,0.01791
1304.08895,0.01747
1302.02878,0.01718
1299.96861,0.01686
1297.90843,0.01645
1295.84826,0.01601
1293.78809,0.01575
1291.72792,0.01597
1289.66775,0.01634
1287.60757,0.01636
1285.54740,0.01624
1283.48723,0.01644
1281.42706,0.01677
1279.36688,0.01672
1277.30671,0.01628
1275.24654,0.01611
1273.18637,0.01665
1271.12620,0.01748
1269.06602,0.01804
1267.00585,0.01828
1264.94568,0.01862
1262.88551,0.01918
1260.82534,0.01978
1258.76516,0.02044
1256.70499,0.02104
1254.64482,0.02157
1252.58465,0.02213
1250.52447,0.02242
1248.46430,0.02260
1246.40413,0.02310
1244.34396,0.02345
1242.28379,0.02313
1240.22361,0.02285
1238.16344,0.02311
1236.10327,0.02317
1234.04310,0.02283
1231.98293,0.02257
1229.92275,0.02223
1227.86258,0.02134
1225.80241,0.02000
1223.74224,0.01881
1221.68207,0.01795
1219.62189,0.01718
1217.56172,0.01631
1215.50155,0.01513
1213.44138,0.01389
1211.38120,0.01283
1209.32103,0.01187
1207.26086,0.01097
1205.20069,0.00995
1203.14052,0.00861
1201.08034,0.00736
1199.02017,0.00644
1196.96000,0.00514
1194.89983,0.00344
1192.83966,0.00210
1190.77948,0.00144
1188.71931,0.00116
1186.65914,0.00078
1184.59897,0.00021
1182.53880,0.00000
1180.47862,0.00032
1178.41845,0.00086
1176.35828,0.00152
1174.29811,0.00277
1172.23793,0.00463
1170.17776,0.00645
1168.11759,0.00800
1166.05742,0.00906
1163.99725,0.00933
1161.93707,0.00939
1159.87690,0.00972
1157.81673,0.01015
1155.75656,0.01070
1153.69639,0.01134
1151.63621,0.01178
1149.57604,0.01221
1147.51587,0.01324
1145.45570,0.01459
1143.39552,0.01537
1141.33535,0.01585
1139.27518,0.01677
1137.21501,0.01773
1135.15484,0.01818
1133.09466,0.01845
1131.03449,0.01882
1128.97432,0.01961
1126.91415,0.02100
1124.85398,0.02225
1122.79380,0.02316
1120.73363,0.02435
1118.67346,0.02569
1116.61329,0.02691
1114.55312,0.02813
1112.49294,0.02908
1110.43277,0.02982
1108.37260,0.03047
1106.31243,0.03105
1104.25225,0.03179
1102.19208,0.03283
1100.13191,0.03416
1098.07174,0.03553
1096.01157,0.03686
1093.95139,0.03840
1091.89122,0.04028
1089.83105,0.04241
1087.77088,0.04430
1085.71071,0.04570
1083.65053,0.04703
1081.59036,0.04870
1079.53019,0.05071
1077.47002,0.05317
1075.40985,0.05595
1073.34967,0.05834
1071.28950,0.05993
1069.22933,0.06099
1067.16916,0.06188
1065.10898,0.06265
1063.04881,0.06362
1060.98864,0.06492
1058.92847,0.06632
1056.86830,0.06787
1054.80812,0.06963
1052.74795,0.07134
1050.68778,0.07310
1048.62761,0.07530
1046.56744,0.07771
1044.50726,0.08022
1042.44709,0.08291
1040.38692,0.08514
1038.32675,0.08674
1036.26657,0.08805
1034.20640,0.08891
1032.14623,0.08959
1030.08606,0.09029
1028.02589,0.09006
1025.96571,0.08922
1023.90554,0.08928
1021.84537,0.08975
1019.78520,0.08946
1017.72503,0.08875
1015.66485,0.08821
1013.60468,0.08827
1011.54451,0.08876
1009.48434,0.08898
1007.42417,0.08896
1005.36399,0.08906
1003.30382,0.08905
1001.24365,0.08851
999.18348,0.08735
997.12330,0.08588
995.06313,0.08470
993.00296,0.08375
990.94279,0.08234
988.88262,0.08078
986.82244,0.07966
984.76227,0.07864
982.70210,0.07722
980.64193,0.07570
978.58176,0.07424
976.52158,0.07296
974.46141,0.07182
972.40124,0.07030
970.34107,0.06857
968.28089,0.06702
966.22072,0.06570
964.16055,0.06472
962.10038,0.06392
960.04021,0.06284
957.98003,0.06137
955.91986,0.05977
953.85969,0.05827
951.79952,0.05705
949.73935,0.05588
947.67917,0.05447
945.61900,0.05285
943.55883,0.05136
941.49866,0.04998
939.43849,0.04817
937.37831,0.04597
935.31814,0.04368
933.25797,0.04128
931.19780,0.03869
929.13762,0.03625
927.07745,0.03444
925.01728,0.03307
922.95711,0.03133
920.89694,0.02945
918.83676,0.02818
916.77659,0.02719
914.71642,0.02607
912.65625,0.02473
910.59608,0.02300
908.53590,0.02104
906.47573,0.01929
904.41556,0.01836
902.35539,0.01835
900.29522,0.01895
898.23504,0.01974
896.17487,0.01999
894.11470,0.01974
892.05453,0.01966
889.99435,0.01992
887.93418,0.02001
885.87401,0.01948
883.81384,0.01855
881.75367,0.01728
879.69349,0.01563
877.63332,0.01367
875.57315,0.01171
873.51298,0.01055
871.45281,0.01050
869.39263,0.01073
867.33246,0.01036
865.27229,0.00965
863.21212,0.00950
861.15194,0.00987
859.09177,0.01026
857.03160,0.01044
854.97143,0.01013
852.91126,0.00965
850.85108,0.00933
848.79091,0.00901
846.73074,0.00904
844.67057,0.00941
842.61040,0.00941
840.55022,0.00900
838.49005,0.00889
836.42988,0.00901
834.36971,0.00872
832.30954,0.00864
830.24936,0.00878
828.18919,0.00784
826.12902,0.00647
824.06885,0.00655
822.00867,0.00747
819.94850,0.00768
817.88833,0.00702
815.82816,0.00588
813.76799,0.00541
811.70781,0.00646
809.64764,0.00728
807.58747,0.00675
805.52730,0.00599
803.46713,0.00504
801.40695,0.00430
799.34678,0.00498
797.28661,0.00583
795.22644,0.00480
793.16627,0.00298
791.10609,0.00215
789.04592,0.00163
786.98575,0.00142
784.92558,0.00202
782.86540,0.00217
780.80523,0.00207
778.74506,0.00340
776.68489,0.00540
774.62472,0.00581
772.56454,0.00407
770.50437,0.00179
768.44420,0.00031
766.38403,0.00020
764.32386,0.00142
762.26368,0.00270
760.20351,0.00364
758.14334,0.00415
756.08317,0.00438
754.02299,0.00468
751.96282,0.00445
749.90265,0.00310
747.84248,0.00103
745.78231,0.00000
743.72213,0.00062
741.66196,0.00186
739.60179,0.00261
737.54162,0.00306
735.48145,0.00387
733.42127,0.00410
731.36110,0.00341
729.30093,0.00345
727.24076,0.00377
725.18059,0.00387
723.12041,0.00553
721.06024,0.00760
719.00007,0.00858
716.93990,0.00848
714.87972,0.00797
712.81955,0.00811
710.75938,0.00917
708.69921,0.00992
706.63904,0.00952
704.57886,0.00897
702.51869,0.00943
700.45852,0.01004
698.39835,0.00974
696.33818,0.00915
694.27800,0.00974
692.21783,0.01175
690.15766,0.01301
688.09749,0.01222
686.03731,0.01118
683.97714,0.01056
681.91697,0.00903
679.85680,0.00670
677.79663,0.00531
675.73645,0.00577
673.67628,0.00575
671.61611,0.00278
669.55594,0.00000
667.49577,0.00186
665.43559,0.00615
663.37542,0.00862
661.31525,0.00900
659.25508,0.00802
657.19491,0.00568
655.13473,0.00274
653.07456,0.00194
651.01439,0.00482
648.95422,0.00971
646.89404,0.01287
644.83387,0.01145
642.77370,0.00750
640.71353,0.00487
638.65336,0.00499
636.59318,0.00649
634.53301,0.00565
632.47284,0.00198
630.41267,0.00000
628.35250,0.00056
626.29232,-0.00046
624.23215,-0.00240
622.17198,-0.00220
620.11181,-0.00186
618.05164,-0.00065
615.99146,0.00069
613.93129,0.00098
611.87112,0.00140
609.81095,0.00058
607.75077,0.00022
605.69060,0.00206
603.63043,0.00252
601.57026,0.00144
599.51009,0.00000
