3996.73391,0.00139
3994.67373,0.00067
3992.61356,0.00010
3990.55339,0.00000
3988.49322,0.00027
3986.43305,0.00079
3984.37287,0.00131
3982.31270,0.00175
3980.25253,0.00204
3978.19236,0.00190
3976.13219,0.00140
3974.07201,0.00092
3972.01184,0.00076
3969.95167,0.00093
3967.89150,0.00111
3965.83133,0.00113
3963.77115,0.00105
3961.71098,0.00084
3959.65081,0.00057
3957.59064,0.00066
3955.53046,0.00108
3953.47029,0.00126
3951.41012,0.00102
3949.34995,0.00090
3947.28978,0.00120
3945.22960,0.00158
3943.16943,0.00182
3941.10926,0.00194
3939.04909,0.00196
3936.98892,0.00193
3934.92874,0.00188
3932.86857,0.00186
3930.80840,0.00201
3928.74823,0.00219
3926.68805,0.00224
3924.62788,0.00233
3922.56771,0.00249
3920.50754,0.00242
3918.44737,0.00193
3916.38719,0.00141
3914.32702,0.00128
3912.26685,0.00153
3910.20668,0.00178
3908.14651,0.00158
3906.08633,0.00090
3904.02616,0.00043
3901.96599,0.00076
3899.90582,0.00130
3897.84565,0.00144
3895.78547,0.00157
3893.72530,0.00169
3891.66513,0.00162
3889.60496,0.00158
3887.54478,0.00159
3885.48461,0.00172
3883.42444,0.00204
3881.36427,0.00222
3879.30410,0.00222
3877.24392,0.00226
3875.18375,0.00207
3873.12358,0.00165
3871.06341,0.00169
3869.00324,0.00239
3866.94306,0.00289
3864.88289,0.00264
3862.82272,0.00205
3860.76255,0.00172
3858.70237,0.00164
3856.64220,0.00194
3854.58203,0.00281
3852.52186,0.00320
3850.46169,0.00242
3848.40151,0.00179
3846.34134,0.00197
3844.28117,0.00251
3842.22100,0.00264
3840.16083,0.00218
3838.10065,0.00157
3836.04048,0.00117
3833.98031,0.00127
3831.92014,0.00188
3829.85997,0.00254
3827.79979,0.00276
3825.73962,0.00231
3823.67945,0.00163
3821.61928,0.00143
3819.55910,0.00164
3817.49893,0.00182
3815.43876,0.00214
3813.37859,0.00260
3811.31842,0.00258
3809.25824,0.00176
3807.19807,0.00087
3805.13790,0.00089
3803.07773,0.00154
3801.01756,0.00200
3798.95738,0.00221
3796.89721,0.00239
3794.83704,0.00246
3792.77687,0.00233
3790.71670,0.00198
3788.65652,0.00131
3786.59635,0.00055
3784.53618,0.00045
3782.47601,0.00118
3780.41583,0.00194
3778.35566,0.00220
3776.29549,0.00216
3774.23532,0.00200
3772.17515,0.00155
3770.11497,0.00113
3768.05480,0.00135
3765.99463,0.00191
3763.93446,0.00221
3761.87429,0.00218
3759.81411,0.00197
3757.75394,0.00175
3755.69377,0.00166
3753.63360,0.00165
3751.57342,0.00190
3749.51325,0.00254
3747.45308,0.00282
3745.39291,0.00275
3743.33274,0.00285
3741.27256,0.00256
3739.21239,0.00174
3737.15222,0.00095
3735.09205,0.00063
3733.03188,0.00106
3730.97170,0.00169
3728.91153,0.00202
3726.85136,0.00225
3724.79119,0.00227
3722.73102,0.00160
3720.67084,0.00082
3718.61067,0.00073
3716.55050,0.00087
3714.49033,0.00051
3712.43015,-0.00002
3710.36998,0.00036
3708.30981,0.00145
3706.24964,0.00205
3704.18947,0.00190
3702.12929,0.00132
3700.06912,0.00082
3698.00895,0.00074
3695.94878,0.00085
3693.88861,0.00069
3691.82843,0.00016
3689.76826,0.00000
3687.70809,0.00075
3685.64792,0.00198
3683.58775,0.00291
3681.52757,0.00300
3679.46740,0.00254
3677.40723,0.00244
3675.34706,0.00279
3673.28688,0.00278
3671.22671,0.00201
3669.16654,0.00114
3667.10637,0.00107
3665.04620,0.00138
3662.98602,0.00146
3660.92585,0.00141
3658.86568,0.00156
3656.80551,0.00195
3654.74534,0.00222
3652.68516,0.00215
3650.62499,0.00221
3648.56482,0.00282
3646.50465,0.00321
3644.44447,0.00269
3642.38430,0.00188
3640.32413,0.00155
3638.26396,0.00169
3636.20379,0.00199
3634.14361,0.00233
3632.08344,0.00236
3630.02327,0.00187
3627.96310,0.00169
3625.90293,0.00224
3623.84275,0.00259
3621.78258,0.00270
3619.72241,0.00316
3617.66224,0.00377
3615.60207,0.00412
3613.54189,0.00454
3611.48172,0.00508
3609.42155,0.00514
3607.36138,0.00478
3605.30120,0.00436
3603.24103,0.00399
3601.18086,0.00378
3599.12069,0.00362
3597.06052,0.00367
3595.00034,0.00401
3592.94017,0.00429
3590.88000,0.00444
3588.81983,0.00449
3586.75966,0.00441
3584.69948,0.00444
3582.63931,0.00468
3580.57914,0.00509
3578.51897,0.00573
3576.45879,0.00652
3574.39862,0.00714
3572.33845,0.00754
3570.27828,0.00770
3568.21811,0.00764
3566.15793,0.00769
3564.09776,0.00782
3562.03759,0.00793
3559.97742,0.00818
3557.91725,0.00837
3555.85707,0.00831
3553.79690,0.00826
3551.73673,0.00853
3549.67656,0.00890
3547.61639,0.00906
3545.55621,0.00934
3543.49604,0.01023
3541.43587,0.01142
3539.37570,0.01235
3537.31552,0.01286
3535.25535,0.01278
3533.19518,0.01230
3531.13501,0.01213
3529.07484,0.01249
3527.01466,0.01293
3524.95449,0.01322
3522.89432,0.01336
3520.83415,0.01342
3518.77398,0.01386
3516.71380,0.01485
3514.65363,0.01582
3512.59346,0.01628
3510.53329,0.01643
3508.47312,0.01686
3506.41294,0.01756
3504.35277,0.01814
3502.29260,0.01837
3500.23243,0.01807
3498.17225,0.01752
3496.11208,0.01746
3494.05191,0.01805
3491.99174,0.01865
3489.93157,0.01892
3487.87139,0.01896
3485.81122,0.01899
3483.75105,0.01907
3481.69088,0.01943
3479.63071,0.02024
3477.57053,0.02111
3475.51036,0.02142
3473.45019,0.02129
3471.39002,0.02140
3469.32984,0.02185
3467.26967,0.02239
3465.20950,0.02292
3463.14933,0.02322
3461.08916,0.02343
3459.02898,0.02376
3456.96881,0.02396
3454.90864,0.02395
3452.84847,0.02413
3450.78830,0.02449
3448.72812,0.02475
3446.66795,0.02507
3444.60778,0.02560
3442.54761,0.02606
3440.48744,0.02640
3438.42726,0.02660
3436.36709,0.02681
3434.30692,0.02726
3432.24675,0.02762
3430.18657,0.02764
3428.12640,0.02763
3426.06623,0.02797
3424.00606,0.02876
3421.94589,0.02956
3419.88571,0.02966
3417.82554,0.02941
3415.76537,0.02959
3413.70520,0.02988
3411.64503,0.02998
3409.58485,0.03043
3407.52468,0.03104
3405.46451,0.03128
3403.40434,0.03178
3401.34416,0.03251
3399.28399,0.03258
3397.22382,0.03243
3395.16365,0.03256
3393.10348,0.03265
3391.04330,0.03281
3388.98313,0.03316
3386.92296,0.03328
3384.86279,0.03321
3382.80262,0.03320
3380.74244,0.03329
3378.68227,0.03337
3376.62210,0.03350
3374.56193,0.03393
3372.50176,0.03423
3370.44158,0.03410
3368.38141,0.03423
3366.32124,0.03473
3364.26107,0.03471
3362.20089,0.03443
3360.14072,0.03468
3358.08055,0.03522
3356.02038,0.03576
3353.96021,0.03625
3351.90003,0.03650
3349.83986,0.03654
3347.77969,0.03656
3345.71952,0.03665
3343.65935,0.03688
3341.59917,0.03706
3339.53900,0.03693
3337.47883,0.03677
3335.41866,0.03659
3333.35849,0.03637
3331.29831,0.03650
3329.23814,0.03713
3327.17797,0.03769
3325.11780,0.03770
3323.05762,0.03755
3320.99745,0.03769
3318.93728,0.03779
3316.87711,0.03740
3314.81694,0.03710
3312.75676,0.03755
3310.69659,0.03818
3308.63642,0.03831
3306.57625,0.03821
3304.51608,0.03827
3302.45590,0.03833
3300.39573,0.03836
3298.33556,0.03849
3296.27539,0.03849
3294.21521,0.03830
3292.15504,0.03815
3290.09487,0.03816
3288.03470,0.03836
3285.97453,0.03851
3283.91435,0.03843
3281.85418,0.03846
3279.79401,0.03855
3277.73384,0.03846
3275.67367,0.03844
3273.61349,0.03866
3271.55332,0.03900
3269.49315,0.03923
3267.43298,0.03911
3265.37281,0.03881
3263.31263,0.03888
3261.25246,0.03918
3259.19229,0.03895
3257.13212,0.03819
3255.07194,0.03775
3253.01177,0.03783
3250.95160,0.03794
3248.89143,0.03787
3246.83126,0.03784
3244.77108,0.03805
3242.71091,0.03820
3240.65074,0.03802
3238.59057,0.03776
3236.53040,0.03775
3234.47022,0.03794
3232.41005,0.03796
3230.34988,0.03763
3228.28971,0.03727
3226.22954,0.03718
3224.16936,0.03734
3222.10919,0.03741
3220.04902,0.03711
3217.98885,0.03682
3215.92867,0.03687
3213.86850,0.03692
3211.80833,0.03661
3209.74816,0.03597
3207.68799,0.03548
3205.62781,0.03563
3203.56764,0.03585
3201.50747,0.03553
3199.44730,0.03519
3197.38713,0.03529
3195.32695,0.03549
3193.26678,0.03549
3191.20661,0.03545
3189.14644,0.03550
3187.08626,0.03545
3185.02609,0.03502
3182.96592,0.03434
3180.90575,0.03401
3178.84558,0.03414
3176.78540,0.03420
3174.72523,0.03401
3172.66506,0.03383
3170.60489,0.03388
3168.54472,0.03399
3166.48454,0.03362
3164.42437,0.03291
3162.36420,0.03274
3160.30403,0.03297
3158.24386,0.03302
3156.18368,0.03317
3154.12351,0.03326
3152.06334,0.03292
3150.00317,0.03278
3147.94299,0.03283
3145.88282,0.03244
3143.82265,0.03200
3141.76248,0.03190
3139.70231,0.03183
3137.64213,0.03163
3135.58196,0.03145
3133.52179,0.03129
3131.46162,0.03094
3129.40145,0.03056
3127.34127,0.03048
3125.28110,0.03046
3123.22093,0.03018
3121.16076,0.03002
3119.10058,0.02996
3117.04041,0.02959
3114.98024,0.02908
3112.92007,0.02892
3110.85990,0.02893
3108.79972,0.02868
3106.73955,0.02825
3104.67938,0.02804
3102.61921,0.02815
3100.55904,0.02829
3098.49886,0.02817
3096.43869,0.02775
3094.37852,0.02743
3092.31835,0.02747
3090.25818,0.02758
3088.19800,0.02744
3086.13783,0.02709
3084.07766,0.02695
3082.01749,0.02708
3079.95731,0.02698
3077.89714,0.02652
3075.83697,0.02607
3073.77680,0.02567
3071.71663,0.02521
3069.65645,0.02504
3067.59628,0.02529
3065.53611,0.02538
3063.47594,0.02491
3061.41577,0.02419
3059.35559,0.02376
3057.29542,0.02378
3055.23525,0.02394
3053.17508,0.02398
3051.11491,0.02382
3049.05473,0.02358
3046.99456,0.02336
3044.93439,0.02305
3042.87422,0.02273
3040.81404,0.02274
3038.75387,0.02294
3036.69370,0.02286
3034.63353,0.02258
3032.57336,0.02249
3030.51318,0.02246
3028.45301,0.02223
3026.39284,0.02195
3024.33267,0.02170
3022.27250,0.02134
3020.21232,0.02106
3018.15215,0.02105
3016.09198,0.02102
3014.03181,0.02089
3011.97163,0.02079
3009.91146,0.02057
3007.85129,0.02003
3005.79112,0.01936
3003.73095,0.01901
3001.67077,0.01906
2999.61060,0.01919
2997.55043,0.01912
2995.49026,0.01883
2993.43009,0.01878
2991.36991,0.01904
2989.30974,0.01918
2987.24957,0.01922
2985.18940,0.01920
2983.12923,0.01902
2981.06905,0.01895
2979.00888,0.01921
2976.94871,0.01951
2974.88854,0.01963
2972.82836,0.01998
2970.76819,0.02082
2968.70802,0.02163
2966.64785,0.02187
2964.58768,0.02215
2962.52750,0.02305
2960.46733,0.02416
2958.40716,0.02520
2956.34699,0.02642
2954.28682,0.02778
2952.22664,0.02910
2950.16647,0.03043
2948.10630,0.03157
2946.04613,0.03244
2943.98596,0.03375
2941.92578,0.03570
2939.86561,0.03778
2937.80544,0.03981
2935.74527,0.04186
2933.68509,0.04386
2931.62492,0.04548
2929.56475,0.04649
2927.50458,0.04723
2925.44441,0.04813
2923.38423,0.04911
2921.32406,0.05002
2919.26389,0.05074
2917.20372,0.05082
2915.14355,0.05001
2913.08337,0.04862
2911.02320,0.04723
2908.96303,0.04581
2906.90286,0.04418
2904.84268,0.04275
2902.78251,0.04167
2900.72234,0.04077
2898.66217,0.03999
2896.60200,0.03917
2894.54182,0.03819
2892.48165,0.03735
2890.42148,0.03680
2888.36131,0.03628
2886.30114,0.03573
2884.24096,0.03511
2882.18079,0.03441
2880.12062,0.03405
2878.06045,0.03393
2876.00028,0.03380
2873.94010,0.03357
2871.87993,0.03327
2869.81976,0.03339
2867.75959,0.03389
2865.69941,0.03441
2863.63924,0.03541
2861.57907,0.03696
2859.51890,0.03842
2857.45873,0.03968
2855.39855,0.04112
2853.33838,0.04252
2851.27821,0.04323
2849.21804,0.04297
2847.15787,0.04161
2845.09769,0.03927
2843.03752,0.03681
2840.97735,0.03500
2838.91718,0.03365
2836.85700,0.03234
2834.79683,0.03106
2832.73666,0.03018
2830.67649,0.02967
2828.61632,0.02907
2826.55614,0.02850
2824.49597,0.02818
2822.43580,0.02784
2820.37563,0.02740
2818.31546,0.02695
2816.25528,0.02644
2814.19511,0.02586
2812.13494,0.02537
2810.07477,0.02517
2808.01460,0.02517
2805.95442,0.02511
2803.89425,0.02505
2801.83408,0.02489
2799.77391,0.02450
2797.71373,0.02415
2795.65356,0.02395
2793.59339,0.02365
2791.53322,0.02326
2789.47305,0.02297
2787.41287,0.02287
2785.35270,0.02282
2783.29253,0.02261
2781.23236,0.02248
2779.17219,0.02244
2777.11201,0.02238
2775.05184,0.02230
2772.99167,0.02212
2770.93150,0.02188
2768.87133,0.02162
2766.81115,0.02137
2764.75098,0.02131
2762.69081,0.02148
2760.63064,0.02155
2758.57046,0.02144
2756.51029,0.02133
2754.45012,0.02108
2752.38995,0.02097
2750.32978,0.02119
2748.26960,0.02126
2746.20943,0.02113
2744.14926,0.02103
2742.08909,0.02089
2740.02892,0.02074
2737.96874,0.02081
2735.90857,0.02106
2733.84840,0.02099
2731.78823,0.02063
2729.72805,0.02060
2727.66788,0.02082
2725.60771,0.02077
2723.54754,0.02048
2721.48737,0.02018
2719.42719,0.01992
2717.36702,0.01997
2715.30685,0.02034
2713.24668,0.02048
2711.18651,0.02009
2709.12633,0.01978
2707.06616,0.01977
2705.00599,0.01980
2702.94582,0.01992
2700.88565,0.02019
2698.82547,0.02038
2696.76530,0.02043
2694.70513,0.02031
2692.64496,0.02024
2690.58478,0.02040
2688.52461,0.02061
2686.46444,0.02040
2684.40427,0.01992
2682.34410,0.01993
2680.28392,0.02017
2678.22375,0.02001
2676.16358,0.01980
2674.10341,0.01978
2672.04324,0.01978
2669.98306,0.01983
2667.92289,0.01985
2665.86272,0.01960
2663.80255,0.01938
2661.74238,0.01945
2659.68220,0.01948
2657.62203,0.01941
2655.56186,0.01943
2653.50169,0.01937
2651.44151,0.01914
2649.38134,0.01913
2647.32117,0.01918
2645.26100,0.01883
2643.20083,0.01841
2641.14065,0.01845
2639.08048,0.01869
2637.02031,0.01867
2634.96014,0.01859
2632.89997,0.01868
2630.83979,0.01861
2628.77962,0.01832
2626.71945,0.01820
2624.65928,0.01814
2622.59910,0.01787
2620.53893,0.01750
2618.47876,0.01718
2616.41859,0.01705
2614.35842,0.01696
2612.29824,0.01676
2610.23807,0.01674
2608.17790,0.01708
2606.11773,0.01742
2604.05756,0.01749
2601.99738,0.01730
2599.93721,0.01700
2597.87704,0.01698
2595.81687,0.01728
2593.75670,0.01753
2591.69652,0.01762
2589.63635,0.01738
2587.57618,0.01676
2585.51601,0.01615
2583.45583,0.01588
2581.39566,0.01606
2579.33549,0.01621
2577.27532,0.01623
2575.21515,0.01626
2573.15497,0.01607
2571.09480,0.01578
2569.03463,0.01576
2566.97446,0.01598
2564.91429,0.01610
2562.85411,0.01608
2560.79394,0.01610
2558.73377,0.01635
2556.67360,0.01657
2554.61342,0.01601
2552.55325,0.01507
2550.49308,0.01503
2548.43291,0.01564
2546.37274,0.01571
2544.31256,0.01507
2542.25239,0.01463
2540.19222,0.01509
2538.13205,0.01584
2536.07188,0.01629
2534.01170,0.01616
2531.95153,0.01536
2529.89136,0.01483
2527.83119,0.01468
2525.77102,0.01433
2523.71084,0.01421
2521.65067,0.01462
2519.59050,0.01488
2517.53033,0.01448
2515.47015,0.01387
2513.40998,0.01355
2511.34981,0.01356
2509.28964,0.01415
2507.22947,0.01511
2505.16929,0.01544
2503.10912,0.01467
2501.04895,0.01374
2498.98878,0.01353
2496.92861,0.01386
2494.86843,0.01433
2492.80826,0.01469
2490.74809,0.01471
2488.68792,0.01432
2486.62775,0.01376
2484.56757,0.01355
2482.50740,0.01367
2480.44723,0.01390
2478.38706,0.01418
2476.32688,0.01394
2474.26671,0.01314
2472.20654,0.01286
2470.14637,0.01327
2468.08620,0.01370
2466.02602,0.01411
2463.96585,0.01464
2461.90568,0.01467
2459.84551,0.01378
2457.78534,0.01297
2455.72516,0.01313
2453.66499,0.01350
2451.60482,0.01342
2449.54465,0.01321
2447.48447,0.01315
2445.42430,0.01337
2443.36413,0.01367
2441.30396,0.01344
2439.24379,0.01292
2437.18361,0.01256
2435.12344,0.01207
2433.06327,0.01162
2431.00310,0.01184
2428.94293,0.01215
2426.88275,0.01182
2424.82258,0.01145
2422.76241,0.01184
2420.70224,0.01267
2418.64207,0.01316
2416.58189,0.01312
2414.52172,0.01323
2412.46155,0.01347
2410.40138,0.01320
2408.34120,0.01269
2406.28103,0.01253
2404.22086,0.01259
2402.16069,0.01271
2400.10052,0.01292
2398.04034,0.01281
2395.98017,0.01254
2393.92000,0.01225
2391.85983,0.01217
2389.79966,0.01247
2387.73948,0.01306
2385.67931,0.01346
2383.61914,0.01333
2381.55897,0.01287
2379.49880,0.01245
2377.43862,0.01193
2375.37845,0.01122
2373.31828,0.01075
2371.25811,0.01163
2369.19793,0.01469
2367.13776,0.01762
2365.07759,0.01613
2363.01742,0.01150
2360.95725,0.00889
2358.89707,0.01038
2356.83690,0.01209
2354.77673,0.01199
2352.71656,0.01114
2350.65639,0.01035
2348.59621,0.01110
2346.53604,0.01379
2344.47587,0.01362
2342.41570,0.01165
2340.35552,0.01037
2338.29535,0.00908
2336.23518,0.00814
2334.17501,0.00897
2332.11484,0.01147
2330.05466,0.01358
2327.99449,0.01401
2325.93432,0.01265
2323.87415,0.01144
2321.81398,0.01146
2319.75380,0.01256
2317.69363,0.01326
2315.63346,0.01343
2313.57329,0.01314
2311.51312,0.01258
2309.45294,0.01215
2307.39277,0.01195
2305.33260,0.01192
2303.27243,0.01176
2301.21225,0.01161
2299.15208,0.01157
2297.09191,0.01169
2295.03174,0.01170
2292.97157,0.01140
2290.91139,0.01118
2288.85122,0.01123
2286.79105,0.01125
2284.73088,0.01118
2282.67071,0.01111
2280.61053,0.01130
2278.55036,0.01181
2276.49019,0.01215
2274.43002,0.01190
2272.36984,0.01134
2270.30967,0.01126
2268.24950,0.01165
2266.18933,0.01147
2264.12916,0.01068
2262.06898,0.01026
2260.00881,0.01053
2257.94864,0.01074
2255.88847,0.01069
2253.82830,0.01060
2251.76812,0.01052
2249.70795,0.01073
2247.64778,0.01072
2245.58761,0.00952
2243.52744,0.00885
2241.46726,0.00969
2239.40709,0.01039
2237.34692,0.01035
2235.28675,0.01007
2233.22657,0.00982
2231.16640,0.00963
2229.10623,0.00878
2227.04606,0.00768
2224.98589,0.00822
2222.92571,0.00931
2220.86554,0.00941
2218.80537,0.00991
2216.74520,0.00996
2214.68503,0.00856
2212.62485,0.00782
2210.56468,0.00888
2208.50451,0.01070
2206.44434,0.01183
2204.38417,0.01259
2202.32399,0.01287
2200.26382,0.01198
2198.20365,0.01108
2196.14348,0.01013
2194.08330,0.00885
2192.02313,0.00863
2189.96296,0.00891
2187.90279,0.00822
2185.84262,0.00761
2183.78244,0.00778
2181.72227,0.00721
2179.66210,0.00630
2177.60193,0.00692
2175.54176,0.00800
2173.48158,0.00856
2171.42141,0.00989
2169.36124,0.01078
2167.30107,0.00938
2165.24089,0.00762
2163.18072,0.00702
2161.12055,0.00654
2159.06038,0.00686
2157.00021,0.00723
2154.94003,0.00597
2152.87986,0.00545
2150.81969,0.00554
2148.75952,0.00556
2146.69935,0.00705
2144.63917,0.00828
2142.57900,0.00749
2140.51883,0.00560
2138.45866,0.00467
2136.39849,0.00539
2134.33831,0.00634
2132.27814,0.00676
2130.21797,0.00668
2128.15780,0.00642
2126.09762,0.00648
2124.03745,0.00681
2121.97728,0.00701
2119.91711,0.00702
2117.85694,0.00712
2115.79676,0.00778
2113.73659,0.00866
2111.67642,0.00826
2109.61625,0.00697
2107.55608,0.00613
2105.49590,0.00579
2103.43573,0.00610
2101.37556,0.00714
2099.31539,0.00850
2097.25521,0.00919
2095.19504,0.00856
2093.13487,0.00782
2091.07470,0.00773
2089.01453,0.00715
2086.95435,0.00605
2084.89418,0.00595
2082.83401,0.00727
2080.77384,0.00848
2078.71367,0.00860
2076.65349,0.00868
2074.59332,0.00916
2072.53315,0.00934
2070.47298,0.00916
2068.41281,0.00849
2066.35263,0.00720
2064.29246,0.00650
2062.23229,0.00715
2060.17212,0.00817
2058.11194,0.00788
2056.05177,0.00670
2053.99160,0.00711
2051.93143,0.00851
2049.87126,0.00844
2047.81108,0.00718
2045.75091,0.00631
2043.69074,0.00635
2041.63057,0.00655
2039.57040,0.00646
2037.51022,0.00700
2035.45005,0.00793
2033.38988,0.00825
2031.32971,0.00831
2029.26954,0.00682
2027.20936,0.00389
2025.14919,0.00262
2023.08902,0.00291
2021.02885,0.00340
2018.96867,0.00473
2016.90850,0.00709
2014.84833,0.00868
2012.78816,0.00758
2010.72799,0.00577
2008.66781,0.00597
2006.60764,0.00716
2004.54747,0.00758
2002.48730,0.00680
2000.42713,0.00546
1998.36695,0.00516
1996.30678,0.00619
1994.24661,0.00700
1992.18644,0.00712
1990.12626,0.00682
1988.06609,0.00604
1986.00592,0.00607
1983.94575,0.00728
1981.88558,0.00702
1979.82540,0.00410
1977.76523,0.00106
1975.70506,0.00000
1973.64489,0.00099
1971.58472,0.00351
1969.52454,0.00583
1967.46437,0.00626
1965.40420,0.00545
1963.34403,0.00516
1961.28386,0.00600
1959.22368,0.00665
1957.16351,0.00616
1955.10334,0.00539
1953.04317,0.00480
1950.98299,0.00500
1948.92282,0.00610
1946.86265,0.00665
1944.80248,0.00623
1942.74231,0.00542
1940.68213,0.00470
1938.62196,0.00440
1936.56179,0.00450
1934.50162,0.00477
1932.44145,0.00504
1930.38127,0.00538
1928.32110,0.00561
1926.26093,0.00536
1924.20076,0.00471
1922.14059,0.00410
1920.08041,0.00361
1918.02024,0.00318
1915.96007,0.00306
1913.89990,0.00315
1911.83972,0.00344
1909.77955,0.00406
1907.71938,0.00456
1905.65921,0.00441
1903.59904,0.00403
1901.53886,0.00401
1899.47869,0.00426
1897.41852,0.00440
1895.35835,0.00445
1893.29818,0.00475
1891.23800,0.00502
1889.17783,0.00449
1887.11766,0.00345
1885.05749,0.00304
1882.99731,0.00349
1880.93714,0.00394
1878.87697,0.00422
1876.81680,0.00487
1874.75663,0.00552
1872.69645,0.00551
1870.63628,0.00522
1868.57611,0.00511
1866.51594,0.00487
1864.45577,0.00448
1862.39559,0.00434
1860.33542,0.00431
1858.27525,0.00405
1856.21508,0.00390
1854.15491,0.00409
1852.09473,0.00424
1850.03456,0.00406
1847.97439,0.00352
1845.91422,0.00291
1843.85404,0.00281
1841.79387,0.00308
1839.73370,0.00312
1837.67353,0.00294
1835.61336,0.00278
1833.55318,0.00268
1831.49301,0.00253
1829.43284,0.00233
1827.37267,0.00237
1825.31250,0.00263
1823.25232,0.00274
1821.19215,0.00266
1819.13198,0.00265
1817.07181,0.00277
1815.01163,0.00289
1812.95146,0.00289
1810.89129,0.00271
1808.83112,0.00239
1806.77095,0.00209
1804.71077,0.00185
1802.65060,0.00169
1800.59043,0.00164
1798.53026,0.00167
1796.47009,0.00166
1794.40991,0.00143
1792.34974,0.00109
1790.28957,0.00112
1788.22940,0.00138
1786.16923,0.00141
1784.10905,0.00124
1782.04888,0.00107
1779.98871,0.00101
1777.92854,0.00093
1775.86836,0.00067
1773.80819,0.00024
1771.74802,0.00000
1769.68785,0.00022
1767.62768,0.00065
1765.56750,0.00089
1763.50733,0.00120
1761.44716,0.00208
1759.38699,0.00329
1757.32682,0.00428
1755.26664,0.00494
1753.20647,0.00547
1751.14630,0.00618
1749.08613,0.00709
1747.02596,0.00764
1744.96578,0.00770
1742.90561,0.00787
1740.84544,0.00867
1738.78527,0.00981
1736.72509,0.01074
1734.66492,0.01131
1732.60475,0.01135
1730.54458,0.01122
1728.48441,0.01146
1726.42423,0.01184
1724.36406,0.01212
1722.30389,0.01238
1720.24372,0.01271
1718.18355,0.01314
1716.12337,0.01350
1714.06320,0.01354
1712.00303,0.01349
1709.94286,0.01340
1707.88268,0.01313
1705.82251,0.01265
1703.76234,0.01221
1701.70217,0.01199
1699.64200,0.01194
1697.58182,0.01211
1695.52165,0.01273
1693.46148,0.01354
1691.40131,0.01423
1689.34114,0.01501
1687.28096,0.01606
1685.22079,0.01778
1683.16062,0.02031
1681.10045,0.02241
1679.04028,0.02370
1676.98010,0.02473
1674.91993,0.02571
1672.85976,0.02630
1670.79959,0.02628
1668.73941,0.02583
1666.67924,0.02521
1664.61907,0.02441
1662.55890,0.02366
1660.49873,0.02343
1658.43855,0.02347
1656.37838,0.02308
1654.31821,0.02231
1652.25804,0.02208
1650.19787,0.02250
1648.13769,0.02247
1646.07752,0.02194
1644.01735,0.02189
1641.95718,0.02243
1639.89701,0.02301
1637.83683,0.02346
1635.77666,0.02399
1633.71649,0.02457
1631.65632,0.02490
1629.59614,0.02515
1627.53597,0.02561
1625.47580,0.02613
1623.41563,0.02641
1621.35546,0.02650
1619.29528,0.02650
1617.23511,0.02669
1615.17494,0.02730
1613.11477,0.02812
1611.05460,0.02915
1608.99442,0.03055
1606.93425,0.03192
1604.87408,0.03263
1602.81391,0.03246
1600.75373,0.03169
1598.69356,0.03063
1596.63339,0.02949
1594.57322,0.02851
1592.51305,0.02775
1590.45287,0.02711
1588.39270,0.02657
1586.33253,0.02601
1584.27236,0.02534
1582.21219,0.02463
1580.15201,0.02402
1578.09184,0.02356
1576.03167,0.02326
1573.97150,0.02293
1571.91133,0.02245
1569.85115,0.02191
1567.79098,0.02130
1565.73081,0.02047
1563.67064,0.01951
1561.61046,0.01850
1559.55029,0.01724
1557.49012,0.01616
1555.42995,0.01586
1553.36978,0.01573
1551.30960,0.01528
1549.24943,0.01446
1547.18926,0.01355
1545.12909,0.01273
1543.06892,0.01160
1541.00874,0.01008
1538.94857,0.00914
1536.88840,0.00914
1534.82823,0.00914
1532.76805,0.00881
1530.70788,0.00855
1528.64771,0.00831
1526.58754,0.00790
1524.52737,0.00780
1522.46719,0.00871
1520.40702,0.01030
1518.34685,0.01138
1516.28668,0.01178
1514.22651,0.01192
1512.16633,0.01181
1510.10616,0.01100
1508.04599,0.00915
1505.98582,0.00719
1503.92565,0.00643
1501.86547,0.00617
1499.80530,0.00559
1497.74513,0.00465
1495.68496,0.00379
1493.62478,0.00325
1491.56461,0.00290
1489.50444,0.00257
1487.44427,0.00213
1485.38410,0.00165
1483.32392,0.00149
1481.26375,0.00179
1479.20358,0.00222
1477.14341,0.00261
1475.08324,0.00337
1473.02306,0.00500
1470.96289,0.00702
1468.90272,0.00846
1466.84255,0.00955
1464.78238,0.01081
1462.72220,0.01197
1460.66203,0.01263
1458.60186,0.01318
1456.54169,0.01416
1454.48151,0.01517
1452.42134,0.01594
1450.36117,0.01670
1448.30100,0.01752
1446.24083,0.01846
1444.18065,0.01943
1442.12048,0.02018
1440.06031,0.02060
1438.00014,0.02102
1435.93997,0.02179
1433.87979,0.02254
1431.81962,0.02295
1429.75945,0.02308
1427.69928,0.02303
1425.63910,0.02296
1423.57893,0.02307
1421.51876,0.02331
1419.45859,0.02358
1417.39842,0.02386
1415.33824,0.02383
1413.27807,0.02342
1411.21790,0.02294
1409.15773,0.02250
1407.09756,0.02207
1405.03738,0.02162
1402.97721,0.02115
1400.91704,0.02068
1398.85687,0.02010
1396.79670,0.01936
1394.73652,0.01862
1392.67635,0.01812
1390.61618,0.01797
1388.55601,0.01810
1386.49583,0.01855
1384.43566,0.01927
1382.37549,0.01999
1380.31532,0.02055
1378.25515,0.02097
1376.19497,0.02133
1374.13480,0.02162
1372.07463,0.02176
1370.01446,0.02178
1367.95429,0.02181
1365.89411,0.02178
1363.83394,0.02151
1361.77377,0.02100
1359.71360,0.02047
1357.65343,0.02011
1355.59325,0.02002
1353.53308,0.02011
1351.47291,0.02015
1349.41274,0.02008
1347.35256,0.02006
1345.29239,0.02006
1343.23222,0.01996
1341.17205,0.01978
1339.11188,0.01963
1337.05170,0.01956
1334.99153,0.01953
1332.93136,0.01962
1330.87119,0.01984
1328.81102,0.02008
1326.75084,0.02024
1324.69067,0.02038
1322.63050,0.02049
1320.57033,0.02042
1318.51015,0.02024
1316.44998,0.02015
1314.38981,0.02010
1312.32964,0.01996
1310.26947,0.01961
1308.20929,0.01894
1306.14912,0.01820
1304.08895,0.01781
1302.02878,0.01757
1299.96861,0.01718
1297.90843,0.01669
1295.84826,0.01623
1293.78809,0.01597
1291.72792,0.01609
1289.66775,0.01637
1287.60757,0.01639
1285.54740,0.01637
1283.48723,0.01668
1281.42706,0.01702
1279.36688,0.01701
1277.30671,0.01676
1275.24654,0.01664
1273.18637,0.01699
1271.12620,0.01771
1269.06602,0.01832
1267.00585,0.01874
1264.94568,0.01929
1262.88551,0.01998
1260.82534,0.02046
1258.76516,0.02088
1256.70499,0.02149
1254.64482,0.02215
1252.58465,0.02269
1250.52447,0.02310
1248.46430,0.02350
1246.40413,0.02382
1244.34396,0.02383
1242.28379,0.02370
1240.22361,0.02375
1238.16344,0.02402
1236.10327,0.02402
1234.04310,0.02365
1231.98293,0.02327
1229.92275,0.02274
1227.86258,0.02168
1225.80241,0.02037
1223.74224,0.01935
1221.68207,0.01851
1219.62189,0.01766
1217.56172,0.01690
1215.50155,0.01595
1213.44138,0.01476
1211.38120,0.01354
1209.32103,0.01240
1207.26086,0.01147
1205.20069,0.01055
1203.14052,0.00933
1201.08034,0.00796
1199.02017,0.00663
1196.96000,0.00507
1194.89983,0.00334
1192.83966,0.00205
1190.77948,0.00144
1188.71931,0.00100
1186.65914,0.00043
1184.59897,0.00000
1182.53880,-0.00006
1180.47862,0.00024
1178.41845,0.00055
1176.35828,0.00109
1174.29811,0.00235
1172.23793,0.00423
1170.17776,0.00619
1168.11759,0.00793
1166.05742,0.00921
1163.99725,0.00978
1161.93707,0.00999
1159.87690,0.01026
1157.81673,0.01064
1155.75656,0.01110
1153.69639,0.01163
1151.63621,0.01215
1149.57604,0.01277
1147.51587,0.01372
1145.45570,0.01473
1143.39552,0.01534
1141.33535,0.01604
1139.27518,0.01727
1137.21501,0.01837
1135.15484,0.01896
1133.09466,0.01955
1131.03449,0.02025
1128.97432,0.02099
1126.91415,0.02188
1124.85398,0.02283
1122.79380,0.02410
1120.73363,0.02581
1118.67346,0.02725
1116.61329,0.02818
1114.55312,0.02908
1112.49294,0.03003
1110.43277,0.03080
1108.37260,0.03146
1106.31243,0.03245
1104.25225,0.03368
1102.19208,0.03470
1100.13191,0.03579
1098.07174,0.03728
1096.01157,0.03912
1093.95139,0.04095
1091.89122,0.04275
1089.83105,0.04484
1087.77088,0.04677
1085.71071,0.04814
1083.65053,0.04952
1081.59036,0.05131
1079.53019,0.05325
1077.47002,0.05533
1075.40985,0.05770
1073.34967,0.06000
1071.28950,0.06181
1069.22933,0.06329
1067.16916,0.06484
1065.10898,0.06624
1063.04881,0.06729
1060.98864,0.06826
1058.92847,0.06929
1056.86830,0.07065
1054.80812,0.07250
1052.74795,0.07454
1050.68778,0.07672
1048.62761,0.07904
1046.56744,0.08139
1044.50726,0.08379
1042.44709,0.08624
1040.38692,0.08852
1038.32675,0.09041
1036.26657,0.09191
1034.20640,0.09306
1032.14623,0.09363
1030.08606,0.09370
1028.02589,0.09351
1025.96571,0.09305
1023.90554,0.09284
1021.84537,0.09287
1019.78520,0.09268
1017.72503,0.09252
1015.66485,0.09234
1013.60468,0.09200
1011.54451,0.09198
1009.48434,0.09223
1007.42417,0.09247
1005.36399,0.09277
1003.30382,0.09289
1001.24365,0.09247
999.18348,0.09147
997.12330,0.09019
995.06313,0.08897
993.00296,0.08775
990.94279,0.08606
988.88262,0.08425
986.82244,0.08312
984.76227,0.08215
982.70210,0.08070
980.64193,0.07940
978.58176,0.07848
976.52158,0.07730
974.46141,0.07571
972.40124,0.07416
970.34107,0.07269
968.28089,0.07099
966.22072,0.06934
964.16055,0.06794
962.10038,0.06665
960.04021,0.06564
957.98003,0.06482
955.91986,0.06341
953.85969,0.06132
951.79952,0.05974
949.73935,0.05886
947.67917,0.05776
945.61900,0.05631
943.55883,0.05470
941.49866,0.05294
939.43849,0.05108
937.37831,0.04905
935.31814,0.04660
933.25797,0.04354
931.19780,0.04046
929.13762,0.03815
927.07745,0.03655
925.01728,0.03502
922.95711,0.03320
920.89694,0.03136
918.83676,0.02975
916.77659,0.02812
914.71642,0.02650
912.65625,0.02502
910.59608,0.02359
908.53590,0.02226
906.47573,0.02140
904.41556,0.02095
902.35539,0.02041
900.29522,0.01989
898.23504,0.01964
896.17487,0.01958
894.11470,0.01972
892.05453,0.01994
889.99435,0.02028
887.93418,0.02044
885.87401,0.01987
883.81384,0.01905
881.75367,0.01809
879.69349,0.01654
877.63332,0.01496
875.57315,0.01392
873.51298,0.01332
871.45281,0.01293
869.39263,0.01232
867.33246,0.01175
865.27229,0.01174
863.21212,0.01212
861.15194,0.01227
859.09177,0.01189
857.03160,0.01114
854.97143,0.01049
852.91126,0.01052
850.85108,0.01083
848.79091,0.01066
846.73074,0.01029
844.67057,0.01003
842.61040,0.00982
840.55022,0.00992
838.49005,0.01032
836.42988,0.01031
834.36971,0.00983
832.30954,0.00926
830.24936,0.00881
828.18919,0.00849
826.12902,0.00796
824.06885,0.00741
822.00867,0.00707
819.94850,0.00708
817.88833,0.00734
815.82816,0.00693
813.76799,0.00620
811.70781,0.00634
809.64764,0.00660
807.58747,0.00627
805.52730,0.00597
803.46713,0.00562
801.40695,0.00537
799.34678,0.00550
797.28661,0.00530
795.22644,0.00480
793.16627,0.00420
791.10609,0.00251
789.04592,0.00027
786.98575,0.00000
784.92558,0.00164
782.86540,0.00297
780.80523,0.00355
778.74506,0.00413
776.68489,0.00446
774.62472,0.00395
772.56454,0.00305
770.50437,0.00223
768.44420,0.00136
766.38403,0.00111
764.32386,0.00166
762.26368,0.00218
760.20351,0.00294
758.14334,0.00399
756.08317,0.00473
754.02299,0.00477
751.96282,0.00376
749.90265,0.00243
747.84248,0.00130
745.78231,0.00025
743.72213,0.00000
741.66196,0.00040
739.60179,0.00093
737.54162,0.00136
735.48145,0.00189
733.42127,0.00199
731.36110,0.00138
729.30093,0.00140
727.24076,0.00268
725.18059,0.00474
723.12041,0.00666
721.06024,0.00723
719.00007,0.00625
716.93990,0.00494
714.87972,0.00364
712.81955,0.00327
710.75938,0.00482
708.69921,0.00653
706.63904,0.00658
704.57886,0.00612
702.51869,0.00670
700.45852,0.00813
698.39835,0.00939
696.33818,0.00949
694.27800,0.00905
692.21783,0.00963
690.15766,0.01050
688.09749,0.01025
686.03731,0.00899
683.97714,0.00711
681.91697,0.00535
679.85680,0.00440
677.79663,0.00405
675.73645,0.00419
673.67628,0.00339
671.61611,0.00046
669.55594,0.00000
667.49577,0.00321
665.43559,0.00382
663.37542,0.00596
661.31525,0.00662
659.25508,0.00627
657.19491,0.00638
655.13473,0.00579
653.07456,0.00386
651.01439,0.00372
648.95422,0.00712
646.89404,0.00994
644.83387,0.00907
642.77370,0.00738
640.71353,0.00806
638.65336,0.01005
636.59318,0.01038
634.53301,0.00741
632.47284,0.00274
630.41267,0.00000
628.35250,0.00017
626.29232,0.00094
624.23215,0.00035
622.17198,-0.00030
620.11181,-0.00151
618.05164,-0.00008
615.99146,0.00289
613.93129,0.00361
611.87112,0.00492
609.81095,0.00644
607.75077,0.00584
605.69060,0.00637
603.63043,0.00782
601.57026,0.00444
599.51009,0.00000
