3996.73391,0.00008
3994.67373,0.00018
3992.61356,0.00028
3990.55339,0.00034
3988.49322,0.00044
3986.43305,0.00057
3984.37287,0.00055
3982.31270,0.00032
3980.25253,0.00019
3978.19236,0.00042
3976.13219,0.00071
3974.07201,0.00064
3972.01184,0.00029
3969.95167,0.00011
3967.89150,0.00021
3965.83133,0.00046
3963.77115,0.00074
3961.71098,0.00081
3959.65081,0.00054
3957.59064,0.00019
3955.53046,-0.00000
3953.47029,0.00000
3951.41012,0.00010
3949.34995,0.00015
3947.28978,0.00021
3945.22960,0.00050
3943.16943,0.00069
3941.10926,0.00050
3939.04909,0.00029
3936.98892,0.00038
3934.92874,0.00055
3932.86857,0.00053
3930.80840,0.00040
3928.74823,0.00040
3926.68805,0.00058
3924.62788,0.00064
3922.56771,0.00051
3920.50754,0.00053
3918.44737,0.00064
3916.38719,0.00048
3914.32702,0.00016
3912.26685,0.00000
3910.20668,0.00010
3908.14651,0.00041
3906.08633,0.00075
3904.02616,0.00087
3901.96599,0.00075
3899.90582,0.00048
3897.84565,0.00035
3895.78547,0.00047
3893.72530,0.00054
3891.66513,0.00042
3889.60496,0.00036
3887.54478,0.00048
3885.48461,0.00054
3883.42444,0.00048
3881.36427,0.00038
3879.30410,0.00022
3877.24392,0.00022
3875.18375,0.00052
3873.12358,0.00083
3871.06341,0.00088
3869.00324,0.00083
3866.94306,0.00081
3864.88289,0.00055
3862.82272,0.00009
3860.76255,0.00000
3858.70237,0.00040
3856.64220,0.00092
3854.58203,0.00103
3852.52186,0.00055
3850.46169,0.00023
3848.40151,0.00036
3846.34134,0.00056
3844.28117,0.00060
3842.22100,0.00062
3840.16083,0.00076
3838.10065,0.00074
3836.04048,0.00050
3833.98031,0.00053
3831.92014,0.00079
3829.85997,0.00085
3827.79979,0.00070
3825.73962,0.00060
3823.67945,0.00070
3821.61928,0.00092
3819.55910,0.00101
3817.49893,0.00087
3815.43876,0.00057
3813.37859,0.00045
3811.31842,0.00058
3809.25824,0.00080
3807.19807,0.00099
3805.13790,0.00105
3803.07773,0.00084
3801.01756,0.00033
3798.95738,0.00007
3796.89721,0.00033
3794.83704,0.00067
3792.77687,0.00083
3790.71670,0.00083
3788.65652,0.00083
3786.59635,0.00085
3784.53618,0.00083
3782.47601,0.00084
3780.41583,0.00078
3778.35566,0.00058
3776.29549,0.00046
3774.23532,0.00060
3772.17515,0.00086
3770.11497,0.00096
3768.05480,0.00079
3765.99463,0.00059
3763.93446,0.00054
3761.87429,0.00070
3759.81411,0.00094
3757.75394,0.00113
3755.69377,0.00134
3753.63360,0.00162
3751.57342,0.00161
3749.51325,0.00100
3747.45308,0.00039
3745.39291,0.00009
3743.33274,0.00001
3741.27256,0.00037
3739.21239,0.00117
3737.15222,0.00186
3735.09205,0.00189
3733.03188,0.00159
3730.97170,0.00136
3728.91153,0.00124
3726.85136,0.00126
3724.79119,0.00129
3722.73102,0.00120
3720.67084,0.00101
3718.61067,0.00082
3716.55050,0.00070
3714.49033,0.00067
3712.43015,0.00068
3710.36998,0.00077
3708.30981,0.00105
3706.24964,0.00136
3704.18947,0.00160
3702.12929,0.00168
3700.06912,0.00143
3698.00895,0.00120
3695.94878,0.00126
3693.88861,0.00149
3691.82843,0.00174
3689.76826,0.00186
3687.70809,0.00154
3685.64792,0.00106
3683.58775,0.00089
3681.52757,0.00113
3679.46740,0.00154
3677.40723,0.00180
3675.34706,0.00183
3673.28688,0.00195
3671.22671,0.00216
3669.16654,0.00218
3667.10637,0.00213
3665.04620,0.00238
3662.98602,0.00293
3660.92585,0.00335
3658.86568,0.00334
3656.80551,0.00304
3654.74534,0.00297
3652.68516,0.00354
3650.62499,0.00438
3648.56482,0.00473
3646.50465,0.00452
3644.44447,0.00422
3642.38430,0.00408
3640.32413,0.00421
3638.26396,0.00461
3636.20379,0.00510
3634.14361,0.00569
3632.08344,0.00641
3630.02327,0.00689
3627.96310,0.00670
3625.90293,0.00649
3623.84275,0.00693
3621.78258,0.00774
3619.72241,0.00825
3617.66224,0.00827
3615.60207,0.00823
3613.54189,0.00836
3611.48172,0.00862
3609.42155,0.00897
3607.36138,0.00940
3605.30120,0.00983
3603.24103,0.01023
3601.18086,0.01053
3599.12069,0.01084
3597.06052,0.01122
3595.00034,0.01149
3592.94017,0.01177
3590.88000,0.01235
3588.81983,0.01300
3586.75966,0.01324
3584.69948,0.01335
3582.63931,0.01382
3580.57914,0.01454
3578.51897,0.01515
3576.45879,0.01546
3574.39862,0.01562
3572.33845,0.01592
3570.27828,0.01628
3568.21811,0.01639
3566.15793,0.01633
3564.09776,0.01672
3562.03759,0.01748
3559.97742,0.01810
3557.91725,0.01838
3555.85707,0.01855
3553.79690,0.01887
3551.73673,0.01944
3549.67656,0.02003
3547.61639,0.02038
3545.55621,0.02063
3543.49604,0.02091
3541.43587,0.02119
3539.37570,0.02161
3537.31552,0.02214
3535.25535,0.02259
3533.19518,0.02277
3531.13501,0.02285
3529.07484,0.02316
3527.01466,0.02373
3524.95449,0.02428
3522.89432,0.02463
3520.83415,0.02476
3518.77398,0.02493
3516.71380,0.02535
3514.65363,0.02585
3512.59346,0.02624
3510.53329,0.02669
3508.47312,0.02729
3506.41294,0.02781
3504.35277,0.02823
3502.29260,0.02863
3500.23243,0.02890
3498.17225,0.02905
3496.11208,0.02927
3494.05191,0.02959
3491.99174,0.02992
3489.93157,0.03025
3487.87139,0.03047
3485.81122,0.03055
3483.75105,0.03073
3481.69088,0.03110
3479.63071,0.03159
3477.57053,0.03208
3475.51036,0.03243
3473.45019,0.03260
3471.39002,0.03282
3469.32984,0.03324
3467.26967,0.03382
3465.20950,0.03428
3463.14933,0.03458
3461.08916,0.03492
3459.02898,0.03516
3456.96881,0.03517
3454.90864,0.03534
3452.84847,0.03582
3450.78830,0.03632
3448.72812,0.03670
3446.66795,0.03700
3444.60778,0.03727
3442.54761,0.03748
3440.48744,0.03747
3438.42726,0.03749
3436.36709,0.03776
3434.30692,0.03799
3432.24675,0.03819
3430.18657,0.03856
3428.12640,0.03901
3426.06623,0.03945
3424.00606,0.03983
3421.94589,0.04006
3419.88571,0.04002
3417.82554,0.03996
3415.76537,0.04017
3413.70520,0.04063
3411.64503,0.04110
3409.58485,0.04140
3407.52468,0.04162
3405.46451,0.04180
3403.40434,0.04192
3401.34416,0.04199
3399.28399,0.04210
3397.22382,0.04240
3395.16365,0.04274
3393.10348,0.04288
3391.04330,0.04286
3388.98313,0.04306
3386.92296,0.04349
3384.86279,0.04375
3382.80262,0.04379
3380.74244,0.04390
3378.68227,0.04415
3376.62210,0.04446
3374.56193,0.04469
3372.50176,0.04479
3370.44158,0.04482
3368.38141,0.04482
3366.32124,0.04486
3364.26107,0.04508
3362.20089,0.04538
3360.14072,0.04544
3358.08055,0.04534
3356.02038,0.04547
3353.96021,0.04578
3351.90003,0.04596
3349.83986,0.04595
3347.77969,0.04588
3345.71952,0.04589
3343.65935,0.04598
3341.59917,0.04596
3339.53900,0.04593
3337.47883,0.04600
3335.41866,0.04602
3333.35849,0.04590
3331.29831,0.04582
3329.23814,0.04595
3327.17797,0.04620
3325.11780,0.04636
3323.05762,0.04632
3320.99745,0.04622
3318.93728,0.04621
3316.87711,0.04627
3314.81694,0.04642
3312.75676,0.04650
3310.69659,0.04646
3308.63642,0.04646
3306.57625,0.04638
3304.51608,0.04613
3302.45590,0.04603
3300.39573,0.04612
3298.33556,0.04619
3296.27539,0.04635
3294.21521,0.04657
3292.15504,0.04659
3290.09487,0.04653
3288.03470,0.04665
3285.97453,0.04679
3283.91435,0.04678
3281.85418,0.04662
3279.79401,0.04643
3277.73384,0.04630
3275.67367,0.04618
3273.61349,0.04600
3271.55332,0.04594
3269.49315,0.04600
3267.43298,0.04588
3265.37281,0.04553
3263.31263,0.04534
3261.25246,0.04541
3259.19229,0.04555
3257.13212,0.04566
3255.07194,0.04564
3253.01177,0.04551
3250.95160,0.04540
3248.89143,0.04527
3246.83126,0.04506
3244.77108,0.04493
3242.71091,0.04501
3240.65074,0.04518
3238.59057,0.04505
3236.53040,0.04458
3234.47022,0.04413
3232.41005,0.04383
3230.34988,0.04371
3228.28971,0.04371
3226.22954,0.04365
3224.16936,0.04345
3222.10919,0.04322
3220.04902,0.04307
3217.98885,0.04299
3215.92867,0.04300
3213.86850,0.04297
3211.80833,0.04271
3209.74816,0.04233
3207.68799,0.04200
3205.62781,0.04165
3203.56764,0.04125
3201.50747,0.04086
3199.44730,0.04053
3197.38713,0.04043
3195.32695,0.04044
3193.26678,0.04032
3191.20661,0.04009
3189.14644,0.03976
3187.08626,0.03933
3185.02609,0.03884
3182.96592,0.03833
3180.90575,0.03798
3178.84558,0.03790
3176.78540,0.03784
3174.72523,0.03751
3172.66506,0.03697
3170.60489,0.03646
3168.54472,0.03619
3166.48454,0.03616
3164.42437,0.03610
3162.36420,0.03577
3160.30403,0.03530
3158.24386,0.03483
3156.18368,0.03437
3154.12351,0.03394
3152.06334,0.03362
3150.00317,0.03337
3147.94299,0.03314
3145.88282,0.03295
3143.82265,0.03271
3141.76248,0.03236
3139.70231,0.03194
3137.64213,0.03151
3135.58196,0.03110
3133.52179,0.03079
3131.46162,0.03061
3129.40145,0.03045
3127.34127,0.03022
3125.28110,0.02990
3123.22093,0.02948
3121.16076,0.02904
3119.10058,0.02868
3117.04041,0.02840
3114.98024,0.02817
3112.92007,0.02778
3110.85990,0.02718
3108.79972,0.02672
3106.73955,0.02660
3104.67938,0.02658
3102.61921,0.02640
3100.55904,0.02605
3098.49886,0.02566
3096.43869,0.02529
3094.37852,0.02496
3092.31835,0.02462
3090.25818,0.02415
3088.19800,0.02372
3086.13783,0.02358
3084.07766,0.02354
3082.01749,0.02339
3079.95731,0.02322
3077.89714,0.02298
3075.83697,0.02263
3073.77680,0.02229
3071.71663,0.02193
3069.65645,0.02148
3067.59628,0.02115
3065.53611,0.02104
3063.47594,0.02088
3061.41577,0.02050
3059.35559,0.02008
3057.29542,0.01981
3055.23525,0.01965
3053.17508,0.01949
3051.11491,0.01936
3049.05473,0.01924
3046.99456,0.01905
3044.93439,0.01881
3042.87422,0.01856
3040.81404,0.01833
3038.75387,0.01805
3036.69370,0.01776
3034.63353,0.01751
3032.57336,0.01733
3030.51318,0.01721
3028.45301,0.01710
3026.39284,0.01694
3024.33267,0.01678
3022.27250,0.01667
3020.21232,0.01662
3018.15215,0.01656
3016.09198,0.01637
3014.03181,0.01609
3011.97163,0.01592
3009.91146,0.01579
3007.85129,0.01558
3005.79112,0.01538
3003.73095,0.01531
3001.67077,0.01528
2999.61060,0.01519
2997.55043,0.01504
2995.49026,0.01493
2993.43009,0.01497
2991.36991,0.01497
2989.30974,0.01496
2987.24957,0.01516
2985.18940,0.01544
2983.12923,0.01558
2981.06905,0.01571
2979.00888,0.01598
2976.94871,0.01623
2974.88854,0.01637
2972.82836,0.01643
2970.76819,0.01657
2968.70802,0.01684
2966.64785,0.01718
2964.58768,0.01758
2962.52750,0.01801
2960.46733,0.01837
2958.40716,0.01859
2956.34699,0.01880
2954.28682,0.01926
2952.22664,0.01991
2950.16647,0.02043
2948.10630,0.02070
2946.04613,0.02093
2943.98596,0.02114
2941.92578,0.02131
2939.86561,0.02161
2937.80544,0.02200
2935.74527,0.02229
2933.68509,0.02239
2931.62492,0.02234
2929.56475,0.02226
2927.50458,0.02223
2925.44441,0.02223
2923.38423,0.02214
2921.32406,0.02188
2919.26389,0.02155
2917.20372,0.02129
2915.14355,0.02109
2913.08337,0.02084
2911.02320,0.02057
2908.96303,0.02035
2906.90286,0.02018
2904.84268,0.02009
2902.78251,0.02004
2900.72234,0.01994
2898.66217,0.01979
2896.60200,0.01962
2894.54182,0.01951
2892.48165,0.01949
2890.42148,0.01947
2888.36131,0.01944
2886.30114,0.01941
2884.24096,0.01934
2882.18079,0.01920
2880.12062,0.01899
2878.06045,0.01872
2876.00028,0.01846
2873.94010,0.01817
2871.87993,0.01782
2869.81976,0.01760
2867.75959,0.01748
2865.69941,0.01732
2863.63924,0.01710
2861.57907,0.01694
2859.51890,0.01678
2857.45873,0.01653
2855.39855,0.01622
2853.33838,0.01587
2851.27821,0.01553
2849.21804,0.01523
2847.15787,0.01494
2845.09769,0.01473
2843.03752,0.01462
2840.97735,0.01444
2838.91718,0.01406
2836.85700,0.01366
2834.79683,0.01349
2832.73666,0.01348
2830.67649,0.01341
2828.61632,0.01320
2826.55614,0.01296
2824.49597,0.01286
2822.43580,0.01269
2820.37563,0.01243
2818.31546,0.01232
2816.25528,0.01231
2814.19511,0.01225
2812.13494,0.01223
2810.07477,0.01225
2808.01460,0.01213
2805.95442,0.01197
2803.89425,0.01195
2801.83408,0.01194
2799.77391,0.01182
2797.71373,0.01169
2795.65356,0.01157
2793.59339,0.01152
2791.53322,0.01168
2789.47305,0.01182
2787.41287,0.01166
2785.35270,0.01137
2783.29253,0.01117
2781.23236,0.01101
2779.17219,0.01085
2777.11201,0.01072
2775.05184,0.01066
2772.99167,0.01067
2770.93150,0.01061
2768.87133,0.01043
2766.81115,0.01034
2764.75098,0.01039
2762.69081,0.01045
2760.63064,0.01057
2758.57046,0.01066
2756.51029,0.01053
2754.45012,0.01039
2752.38995,0.01036
2750.32978,0.01029
2748.26960,0.01020
2746.20943,0.01016
2744.14926,0.01010
2742.08909,0.01005
2740.02892,0.01015
2737.96874,0.01033
2735.90857,0.01031
2733.84840,0.01012
2731.78823,0.00994
2729.72805,0.00980
2727.66788,0.00964
2725.60771,0.00958
2723.54754,0.00964
2721.48737,0.00967
2719.42719,0.00962
2717.36702,0.00964
2715.30685,0.00972
2713.24668,0.00965
2711.18651,0.00944
2709.12633,0.00937
2707.06616,0.00946
2705.00599,0.00956
2702.94582,0.00958
2700.88565,0.00944
2698.82547,0.00928
2696.76530,0.00926
2694.70513,0.00926
2692.64496,0.00915
2690.58478,0.00897
2688.52461,0.00887
2686.46444,0.00888
2684.40427,0.00894
2682.34410,0.00897
2680.28392,0.00896
2678.22375,0.00896
2676.16358,0.00898
2674.10341,0.00895
2672.04324,0.00886
2669.98306,0.00877
2667.92289,0.00873
2665.86272,0.00868
2663.80255,0.00860
2661.74238,0.00865
2659.68220,0.00874
2657.62203,0.00867
2655.56186,0.00853
2653.50169,0.00854
2651.44151,0.00866
2649.38134,0.00866
2647.32117,0.00849
2645.26100,0.00834
2643.20083,0.00831
2641.14065,0.00828
2639.08048,0.00818
2637.02031,0.00806
2634.96014,0.00799
2632.89997,0.00792
2630.83979,0.00778
2628.77962,0.00764
2626.71945,0.00761
2624.65928,0.00769
2622.59910,0.00774
2620.53893,0.00764
2618.47876,0.00754
2616.41859,0.00747
2614.35842,0.00735
2612.29824,0.00729
2610.23807,0.00730
2608.17790,0.00734
2606.11773,0.00736
2604.05756,0.00717
2601.99738,0.00696
2599.93721,0.00698
2597.87704,0.00700
2595.81687,0.00687
2593.75670,0.00688
2591.69652,0.00690
2589.63635,0.00672
2587.57618,0.00660
2585.51601,0.00671
2583.45583,0.00689
2581.39566,0.00696
2579.33549,0.00690
2577.27532,0.00678
2575.21515,0.00674
2573.15497,0.00675
2571.09480,0.00654
2569.03463,0.00627
2566.97446,0.00635
2564.91429,0.00662
2562.85411,0.00676
2560.79394,0.00672
2558.73377,0.00667
2556.67360,0.00654
2554.61342,0.00637
2552.55325,0.00645
2550.49308,0.00659
2548.43291,0.00650
2546.37274,0.00629
2544.31256,0.00606
2542.25239,0.00588
2540.19222,0.00590
2538.13205,0.00620
2536.07188,0.00653
2534.01170,0.00663
2531.95153,0.00645
2529.89136,0.00618
2527.83119,0.00611
2525.77102,0.00605
2523.71084,0.00592
2521.65067,0.00595
2519.59050,0.00610
2517.53033,0.00610
2515.47015,0.00595
2513.40998,0.00587
2511.34981,0.00580
2509.28964,0.00569
2507.22947,0.00560
2505.16929,0.00556
2503.10912,0.00561
2501.04895,0.00581
2498.98878,0.00601
2496.92861,0.00590
2494.86843,0.00558
2492.80826,0.00543
2490.74809,0.00557
2488.68792,0.00570
2486.62775,0.00585
2484.56757,0.00601
2482.50740,0.00589
2480.44723,0.00556
2478.38706,0.00532
2476.32688,0.00521
2474.26671,0.00521
2472.20654,0.00532
2470.14637,0.00548
2468.08620,0.00560
2466.02602,0.00571
2463.96585,0.00579
2461.90568,0.00571
2459.84551,0.00551
2457.78534,0.00537
2455.72516,0.00539
2453.66499,0.00544
2451.60482,0.00542
2449.54465,0.00542
2447.48447,0.00538
2445.42430,0.00515
2443.36413,0.00499
2441.30396,0.00512
2439.24379,0.00533
2437.18361,0.00544
2435.12344,0.00543
2433.06327,0.00532
2431.00310,0.00529
2428.94293,0.00514
2426.88275,0.00484
2424.82258,0.00478
2422.76241,0.00497
2420.70224,0.00503
2418.64207,0.00487
2416.58189,0.00484
2414.52172,0.00493
2412.46155,0.00483
2410.40138,0.00473
2408.34120,0.00487
2406.28103,0.00493
2404.22086,0.00490
2402.16069,0.00498
2400.10052,0.00505
2398.04034,0.00511
2395.98017,0.00518
2393.92000,0.00510
2391.85983,0.00492
2389.79966,0.00476
2387.73948,0.00462
2385.67931,0.00456
2383.61914,0.00474
2381.55897,0.00502
2379.49880,0.00514
2377.43862,0.00502
2375.37845,0.00492
2373.31828,0.00491
2371.25811,0.00496
2369.19793,0.00487
2367.13776,0.00430
2365.07759,0.00370
2363.01742,0.00421
2360.95725,0.00529
2358.89707,0.00662
2356.83690,0.00692
2354.77673,0.00646
2352.71656,0.00598
2350.65639,0.00518
2348.59621,0.00481
2346.53604,0.00575
2344.47587,0.00553
2342.41570,0.00483
2340.35552,0.00421
2338.29535,0.00386
2336.23518,0.00431
2334.17501,0.00535
2332.11484,0.00634
2330.05466,0.00641
2327.99449,0.00602
2325.93432,0.00568
2323.87415,0.00582
2321.81398,0.00588
2319.75380,0.00595
2317.69363,0.00577
2315.63346,0.00569
2313.57329,0.00562
2311.51312,0.00534
2309.45294,0.00503
2307.39277,0.00503
2305.33260,0.00545
2303.27243,0.00587
2301.21225,0.00593
2299.15208,0.00570
2297.09191,0.00562
2295.03174,0.00577
2292.97157,0.00601
2290.91139,0.00632
2288.85122,0.00646
2286.79105,0.00628
2284.73088,0.00606
2282.67071,0.00602
2280.61053,0.00592
2278.55036,0.00550
2276.49019,0.00500
2274.43002,0.00478
2272.36984,0.00495
2270.30967,0.00524
2268.24950,0.00542
2266.18933,0.00546
2264.12916,0.00549
2262.06898,0.00557
2260.00881,0.00562
2257.94864,0.00538
2255.88847,0.00466
2253.82830,0.00380
2251.76812,0.00393
2249.70795,0.00506
2247.64778,0.00583
2245.58761,0.00575
2243.52744,0.00557
2241.46726,0.00563
2239.40709,0.00566
2237.34692,0.00549
2235.28675,0.00500
2233.22657,0.00421
2231.16640,0.00400
2229.10623,0.00467
2227.04606,0.00510
2224.98589,0.00504
2222.92571,0.00516
2220.86554,0.00563
2218.80537,0.00596
2216.74520,0.00584
2214.68503,0.00577
2212.62485,0.00587
2210.56468,0.00584
2208.50451,0.00590
2206.44434,0.00629
2204.38417,0.00649
2202.32399,0.00611
2200.26382,0.00527
2198.20365,0.00451
2196.14348,0.00438
2194.08330,0.00442
2192.02313,0.00382
2189.96296,0.00331
2187.90279,0.00377
2185.84262,0.00436
2183.78244,0.00456
2181.72227,0.00466
2179.66210,0.00476
2177.60193,0.00449
2175.54176,0.00396
2173.48158,0.00403
2171.42141,0.00469
2169.36124,0.00518
2167.30107,0.00526
2165.24089,0.00517
2163.18072,0.00447
2161.12055,0.00258
2159.06038,0.00058
2157.00021,0.00000
2154.94003,0.00054
2152.87986,0.00122
2150.81969,0.00201
2148.75952,0.00291
2146.69935,0.00336
2144.63917,0.00373
2142.57900,0.00407
2140.51883,0.00384
2138.45866,0.00335
2136.39849,0.00300
2134.33831,0.00296
2132.27814,0.00317
2130.21797,0.00358
2128.15780,0.00416
2126.09762,0.00431
2124.03745,0.00430
2121.97728,0.00471
2119.91711,0.00493
2117.85694,0.00494
2115.79676,0.00511
2113.73659,0.00524
2111.67642,0.00528
2109.61625,0.00523
2107.55608,0.00512
2105.49590,0.00498
2103.43573,0.00474
2101.37556,0.00462
2099.31539,0.00475
2097.25521,0.00500
2095.19504,0.00505
2093.13487,0.00474
2091.07470,0.00447
2089.01453,0.00452
2086.95435,0.00452
2084.89418,0.00443
2082.83401,0.00470
2080.77384,0.00529
2078.71367,0.00566
2076.65349,0.00554
2074.59332,0.00504
2072.53315,0.00440
2070.47298,0.00390
2068.41281,0.00351
2066.35263,0.00331
2064.29246,0.00347
2062.23229,0.00349
2060.17212,0.00361
2058.11194,0.00435
2056.05177,0.00511
2053.99160,0.00542
2051.93143,0.00515
2049.87126,0.00438
2047.81108,0.00368
2045.75091,0.00337
2043.69074,0.00358
2041.63057,0.00398
2039.57040,0.00419
2037.51022,0.00416
2035.45005,0.00381
2033.38988,0.00341
2031.32971,0.00303
2029.26954,0.00234
2027.20936,0.00148
2025.14919,0.00131
2023.08902,0.00198
2021.02885,0.00231
2018.96867,0.00246
2016.90850,0.00333
2014.84833,0.00408
2012.78816,0.00413
2010.72799,0.00420
2008.66781,0.00430
2006.60764,0.00382
2004.54747,0.00292
2002.48730,0.00231
2000.42713,0.00221
1998.36695,0.00240
1996.30678,0.00245
1994.24661,0.00213
1992.18644,0.00223
1990.12626,0.00333
1988.06609,0.00426
1986.00592,0.00423
1983.94575,0.00375
1981.88558,0.00337
1979.82540,0.00291
1977.76523,0.00199
1975.70506,0.00136
1973.64489,0.00191
1971.58472,0.00295
1969.52454,0.00326
1967.46437,0.00257
1965.40420,0.00131
1963.34403,0.00020
1961.28386,0.00000
1959.22368,0.00080
1957.16351,0.00190
1955.10334,0.00252
1953.04317,0.00266
1950.98299,0.00265
1948.92282,0.00256
1946.86265,0.00217
1944.80248,0.00163
1942.74231,0.00159
1940.68213,0.00198
1938.62196,0.00208
1936.56179,0.00198
1934.50162,0.00215
1932.44145,0.00245
1930.38127,0.00263
1928.32110,0.00251
1926.26093,0.00215
1924.20076,0.00181
1922.14059,0.00151
1920.08041,0.00141
1918.02024,0.00174
1915.96007,0.00215
1913.89990,0.00211
1911.83972,0.00177
1909.77955,0.00158
1907.71938,0.00162
1905.65921,0.00170
1903.59904,0.00162
1901.53886,0.00145
1899.47869,0.00133
1897.41852,0.00122
1895.35835,0.00118
1893.29818,0.00123
1891.23800,0.00121
1889.17783,0.00115
1887.11766,0.00122
1885.05749,0.00142
1882.99731,0.00156
1880.93714,0.00149
1878.87697,0.00128
1876.81680,0.00111
1874.75663,0.00101
1872.69645,0.00097
1870.63628,0.00105
1868.57611,0.00114
1866.51594,0.00124
1864.45577,0.00144
1862.39559,0.00152
1860.33542,0.00124
1858.27525,0.00083
1856.21508,0.00076
1854.15491,0.00102
1852.09473,0.00120
1850.03456,0.00118
1847.97439,0.00116
1845.91422,0.00117
1843.85404,0.00108
1841.79387,0.00090
1839.73370,0.00068
1837.67353,0.00048
1835.61336,0.00043
1833.55318,0.00053
1831.49301,0.00061
1829.43284,0.00052
1827.37267,0.00046
1825.31250,0.00061
1823.25232,0.00075
1821.19215,0.00072
1819.13198,0.00064
1817.07181,0.00056
1815.01163,0.00047
1812.95146,0.00036
1810.89129,0.00022
1808.83112,0.00014
1806.77095,0.00022
1804.71077,0.00041
1802.65060,0.00046
1800.59043,0.00032
1798.53026,0.00023
1796.47009,0.00027
1794.40991,0.00030
1792.34974,0.00027
1790.28957,0.00023
1788.22940,0.00028
1786.16923,0.00033
1784.10905,0.00029
1782.04888,0.00031
1779.98871,0.00044
1777.92854,0.00046
1775.86836,0.00038
1773.80819,0.00032
1771.74802,0.00036
1769.68785,0.00062
1767.62768,0.00098
1765.56750,0.00126
1763.50733,0.00150
1761.44716,0.00182
1759.38699,0.00229
1757.32682,0.00284
1755.26664,0.00331
1753.20647,0.00377
1751.14630,0.00438
1749.08613,0.00506
1747.02596,0.00568
1744.96578,0.00618
1742.90561,0.00657
1740.84544,0.00682
1738.78527,0.00702
1736.72509,0.00732
1734.66492,0.00770
1732.60475,0.00792
1730.54458,0.00786
1728.48441,0.00772
1726.42423,0.00762
1724.36406,0.00756
1722.30389,0.00760
1720.24372,0.00780
1718.18355,0.00782
1716.12337,0.00725
1714.06320,0.00646
1712.00303,0.00594
1709.94286,0.00559
1707.88268,0.00522
1705.82251,0.00480
1703.76234,0.00453
1701.70217,0.00449
1699.64200,0.00443
1697.58182,0.00435
1695.52165,0.00442
1693.46148,0.00454
1691.40131,0.00468
1689.34114,0.00492
1687.28096,0.00531
1685.22079,0.00586
1683.16062,0.00646
1681.10045,0.00695
1679.04028,0.00745
1676.98010,0.00808
1674.91993,0.00879
1672.85976,0.00946
1670.79959,0.01008
1668.73941,0.01075
1666.67924,0.01142
1664.61907,0.01216
1662.55890,0.01308
1660.49873,0.01398
1658.43855,0.01465
1656.37838,0.01518
1654.31821,0.01577
1652.25804,0.01652
1650.19787,0.01714
1648.13769,0.01759
1646.07752,0.01793
1644.01735,0.01815
1641.95718,0.01833
1639.89701,0.01851
1637.83683,0.01867
1635.77666,0.01878
1633.71649,0.01882
1631.65632,0.01892
1629.59614,0.01911
1627.53597,0.01931
1625.47580,0.01948
1623.41563,0.01964
1621.35546,0.01966
1619.29528,0.01951
1617.23511,0.01928
1615.17494,0.01906
1613.11477,0.01890
1611.05460,0.01875
1608.99442,0.01855
1606.93425,0.01817
1604.87408,0.01756
1602.81391,0.01675
1600.75373,0.01583
1598.69356,0.01491
1596.63339,0.01405
1594.57322,0.01313
1592.51305,0.01206
1590.45287,0.01094
1588.39270,0.00992
1586.33253,0.00905
1584.27236,0.00826
1582.21219,0.00748
1580.15201,0.00683
1578.09184,0.00633
1576.03167,0.00572
1573.97150,0.00499
1571.91133,0.00439
1569.85115,0.00387
1567.79098,0.00342
1565.73081,0.00316
1563.67064,0.00296
1561.61046,0.00271
1559.55029,0.00235
1557.49012,0.00198
1555.42995,0.00185
1553.36978,0.00180
1551.30960,0.00163
1549.24943,0.00134
1547.18926,0.00111
1545.12909,0.00105
1543.06892,0.00102
1541.00874,0.00090
1538.94857,0.00071
1536.88840,0.00057
1534.82823,0.00043
1532.76805,0.00023
1530.70788,0.00005
1528.64771,0.00000
1526.58754,0.00003
1524.52737,0.00014
1522.46719,0.00036
1520.40702,0.00052
1518.34685,0.00049
1516.28668,0.00031
1514.22651,0.00010
1512.16633,0.00006
1510.10616,0.00028
1508.04599,0.00056
1505.98582,0.00043
1503.92565,0.00015
1501.86547,0.00013
1499.80530,0.00030
1497.74513,0.00053
1495.68496,0.00070
1493.62478,0.00081
1491.56461,0.00100
1489.50444,0.00122
1487.44427,0.00131
1485.38410,0.00138
1483.32392,0.00158
1481.26375,0.00198
1479.20358,0.00250
1477.14341,0.00308
1475.08324,0.00376
1473.02306,0.00462
1470.96289,0.00538
1468.90272,0.00591
1466.84255,0.00643
1464.78238,0.00702
1462.72220,0.00754
1460.66203,0.00807
1458.60186,0.00875
1456.54169,0.00935
1454.48151,0.00954
1452.42134,0.00961
1450.36117,0.00979
1448.30100,0.01004
1446.24083,0.01033
1444.18065,0.01063
1442.12048,0.01091
1440.06031,0.01118
1438.00014,0.01158
1435.93997,0.01212
1433.87979,0.01263
1431.81962,0.01303
1429.75945,0.01345
1427.69928,0.01396
1425.63910,0.01454
1423.57893,0.01507
1421.51876,0.01545
1419.45859,0.01577
1417.39842,0.01604
1415.33824,0.01617
1413.27807,0.01617
1411.21790,0.01608
1409.15773,0.01596
1407.09756,0.01580
1405.03738,0.01550
1402.97721,0.01506
1400.91704,0.01456
1398.85687,0.01408
1396.79670,0.01366
1394.73652,0.01332
1392.67635,0.01314
1390.61618,0.01320
1388.55601,0.01338
1386.49583,0.01356
1384.43566,0.01379
1382.37549,0.01410
1380.31532,0.01442
1378.25515,0.01476
1376.19497,0.01518
1374.13480,0.01558
1372.07463,0.01578
1370.01446,0.01580
1367.95429,0.01572
1365.89411,0.01551
1363.83394,0.01514
1361.77377,0.01470
1359.71360,0.01444
1357.65343,0.01438
1355.59325,0.01432
1353.53308,0.01416
1351.47291,0.01398
1349.41274,0.01379
1347.35256,0.01353
1345.29239,0.01325
1343.23222,0.01306
1341.17205,0.01295
1339.11188,0.01290
1337.05170,0.01287
1334.99153,0.01281
1332.93136,0.01269
1330.87119,0.01262
1328.81102,0.01273
1326.75084,0.01296
1324.69067,0.01318
1322.63050,0.01330
1320.57033,0.01337
1318.51015,0.01348
1316.44998,0.01364
1314.38981,0.01374
1312.32964,0.01367
1310.26947,0.01339
1308.20929,0.01298
1306.14912,0.01257
1304.08895,0.01226
1302.02878,0.01200
1299.96861,0.01174
1297.90843,0.01156
1295.84826,0.01142
1293.78809,0.01124
1291.72792,0.01106
1289.66775,0.01096
1287.60757,0.01080
1285.54740,0.01053
1283.48723,0.01036
1281.42706,0.01036
1279.36688,0.01046
1277.30671,0.01065
1275.24654,0.01088
1273.18637,0.01110
1271.12620,0.01138
1269.06602,0.01185
1267.00585,0.01245
1264.94568,0.01309
1262.88551,0.01369
1260.82534,0.01429
1258.76516,0.01491
1256.70499,0.01553
1254.64482,0.01609
1252.58465,0.01641
1250.52447,0.01643
1248.46430,0.01640
1246.40413,0.01640
1244.34396,0.01631
1242.28379,0.01610
1240.22361,0.01586
1238.16344,0.01554
1236.10327,0.01510
1234.04310,0.01458
1231.98293,0.01406
1229.92275,0.01343
1227.86258,0.01276
1225.80241,0.01224
1223.74224,0.01186
1221.68207,0.01141
1219.62189,0.01077
1217.56172,0.01010
1215.50155,0.00957
1213.44138,0.00895
1211.38120,0.00807
1209.32103,0.00710
1207.26086,0.00606
1205.20069,0.00497
1203.14052,0.00398
1201.08034,0.00303
1199.02017,0.00214
1196.96000,0.00140
1194.89983,0.00073
1192.83966,0.00020
1190.77948,0.00000
1188.71931,0.00003
1186.65914,0.00008
1184.59897,0.00015
1182.53880,0.00046
1180.47862,0.00099
1178.41845,0.00168
1176.35828,0.00257
1174.29811,0.00363
1172.23793,0.00480
1170.17776,0.00601
1168.11759,0.00722
1166.05742,0.00848
1163.99725,0.00973
1161.93707,0.01087
1159.87690,0.01198
1157.81673,0.01309
1155.75656,0.01415
1153.69639,0.01507
1151.63621,0.01574
1149.57604,0.01640
1147.51587,0.01712
1145.45570,0.01773
1143.39552,0.01815
1141.33535,0.01840
1139.27518,0.01859
1137.21501,0.01901
1135.15484,0.01963
1133.09466,0.02023
1131.03449,0.02082
1128.97432,0.02170
1126.91415,0.02291
1124.85398,0.02411
1122.79380,0.02514
1120.73363,0.02619
1118.67346,0.02710
1116.61329,0.02780
1114.55312,0.02858
1112.49294,0.02948
1110.43277,0.03033
1108.37260,0.03112
1106.31243,0.03195
1104.25225,0.03296
1102.19208,0.03425
1100.13191,0.03577
1098.07174,0.03739
1096.01157,0.03902
1093.95139,0.04067
1091.89122,0.04226
1089.83105,0.04355
1087.77088,0.04459
1085.71071,0.04563
1083.65053,0.04667
1081.59036,0.04778
1079.53019,0.04906
1077.47002,0.05045
1075.40985,0.05186
1073.34967,0.05320
1071.28950,0.05438
1069.22933,0.05527
1067.16916,0.05586
1065.10898,0.05643
1063.04881,0.05704
1060.98864,0.05752
1058.92847,0.05801
1056.86830,0.05874
1054.80812,0.05959
1052.74795,0.06045
1050.68778,0.06126
1048.62761,0.06204
1046.56744,0.06289
1044.50726,0.06388
1042.44709,0.06492
1040.38692,0.06585
1038.32675,0.06661
1036.26657,0.06726
1034.20640,0.06781
1032.14623,0.06820
1030.08606,0.06817
1028.02589,0.06791
1025.96571,0.06797
1023.90554,0.06812
1021.84537,0.06791
1019.78520,0.06760
1017.72503,0.06750
1015.66485,0.06755
1013.60468,0.06761
1011.54451,0.06749
1009.48434,0.06711
1007.42417,0.06669
1005.36399,0.06639
1003.30382,0.06593
1001.24365,0.06506
999.18348,0.06395
997.12330,0.06287
995.06313,0.06185
993.00296,0.06087
990.94279,0.05990
988.88262,0.05901
986.82244,0.05838
984.76227,0.05795
982.70210,0.05745
980.64193,0.05679
978.58176,0.05611
976.52158,0.05547
974.46141,0.05481
972.40124,0.05396
970.34107,0.05297
968.28089,0.05210
966.22072,0.05130
964.16055,0.05050
962.10038,0.04970
960.04021,0.04880
957.98003,0.04794
955.91986,0.04718
953.85969,0.04632
951.79952,0.04531
949.73935,0.04422
947.67917,0.04297
945.61900,0.04158
943.55883,0.03989
941.49866,0.03762
939.43849,0.03504
937.37831,0.03254
935.31814,0.03006
933.25797,0.02747
931.19780,0.02509
929.13762,0.02311
927.07745,0.02138
925.01728,0.01974
922.95711,0.01818
920.89694,0.01681
918.83676,0.01564
916.77659,0.01455
914.71642,0.01348
912.65625,0.01240
910.59608,0.01141
908.53590,0.01056
906.47573,0.00998
904.41556,0.00985
902.35539,0.00990
900.29522,0.00990
898.23504,0.01000
896.17487,0.01007
894.11470,0.00997
892.05453,0.00985
889.99435,0.00967
887.93418,0.00931
885.87401,0.00865
883.81384,0.00781
881.75367,0.00710
879.69349,0.00656
877.63332,0.00610
875.57315,0.00563
873.51298,0.00509
871.45281,0.00460
869.39263,0.00445
867.33246,0.00444
865.27229,0.00434
863.21212,0.00432
861.15194,0.00437
859.09177,0.00436
857.03160,0.00408
854.97143,0.00349
852.91126,0.00287
850.85108,0.00250
848.79091,0.00245
846.73074,0.00250
844.67057,0.00232
842.61040,0.00178
840.55022,0.00106
838.49005,0.00059
836.42988,0.00043
834.36971,0.00033
832.30954,0.00020
830.24936,0.00000
828.18919,-0.00013
826.12902,0.00001
824.06885,0.00012
822.00867,0.00022
819.94850,0.00032
817.88833,0.00056
815.82816,0.00110
813.76799,0.00154
811.70781,0.00175
809.64764,0.00212
807.58747,0.00259
805.52730,0.00268
803.46713,0.00223
801.40695,0.00184
799.34678,0.00182
797.28661,0.00167
795.22644,0.00131
793.16627,0.00102
791.10609,0.00076
789.04592,0.00037
786.98575,0.00008
784.92558,0.00024
782.86540,0.00060
780.80523,0.00062
778.74506,0.00035
776.68489,0.00008
774.62472,-0.00021
772.56454,-0.00036
770.50437,-0.00028
768.44420,-0.00021
766.38403,-0.00024
764.32386,-0.00020
762.26368,0.00004
760.20351,0.00034
758.14334,0.00051
756.08317,0.00045
754.02299,0.00022
751.96282,0.00000
749.90265,-0.00015
747.84248,-0.00035
745.78231,-0.00065
743.72213,-0.00103
741.66196,-0.00141
739.60179,-0.00140
737.54162,-0.00135
735.48145,-0.00169
733.42127,-0.00194
731.36110,-0.00184
729.30093,-0.00165
727.24076,-0.00165
725.18059,-0.00155
723.12041,-0.00111
721.06024,-0.00058
719.00007,-0.00053
716.93990,-0.00037
714.87972,0.00023
712.81955,0.00089
710.75938,0.00127
708.69921,0.00142
706.63904,0.00147
704.57886,0.00146
702.51869,0.00167
700.45852,0.00230
698.39835,0.00272
696.33818,0.00265
694.27800,0.00257
692.21783,0.00229
690.15766,0.00153
688.09749,0.00089
686.03731,0.00085
683.97714,0.00118
681.91697,0.00146
679.85680,0.00149
677.79663,0.00134
675.73645,0.00124
673.67628,0.00082
671.61611,-0.00043
669.55594,-0.00015
667.49577,0.00173
665.43559,0.00022
663.37542,0.00123
661.31525,0.00213
659.25508,0.00190
657.19491,0.00126
655.13473,0.00111
653.07456,0.00114
651.01439,0.00059
648.95422,0.00000
646.89404,0.00005
644.83387,0.00072
642.77370,0.00142
640.71353,0.00204
638.65336,0.00232
636.59318,0.00215
634.53301,0.00195
632.47284,0.00176
630.41267,0.00179
628.35250,0.00239
626.29232,0.00293
624.23215,0.00267
622.17198,0.00284
620.11181,0.00398
618.05164,0.00443
615.99146,0.00364
613.93129,0.00327
611.87112,0.00330
609.81095,0.00274
607.75077,0.00161
605.69060,0.00102
603.63043,0.00152
601.57026,0.00147
599.51009,0.00000
