3996.73391,-0.00001
3994.67373,0.00020
3992.61356,0.00023
3990.55339,0.00022
3988.49322,0.00027
3986.43305,0.00020
3984.37287,-0.00002
3982.31270,-0.00015
3980.25253,-0.00006
3978.19236,0.00017
3976.13219,0.00037
3974.07201,0.00036
3972.01184,0.00020
3969.95167,0.00007
3967.89150,-0.00001
3965.83133,0.00003
3963.77115,0.00020
3961.71098,0.00024
3959.65081,0.00010
3957.59064,0.00000
3955.53046,0.00007
3953.47029,0.00030
3951.41012,0.00053
3949.34995,0.00059
3947.28978,0.00051
3945.22960,0.00051
3943.16943,0.00059
3941.10926,0.00052
3939.04909,0.00034
3936.98892,0.00022
3934.92874,0.00012
3932.86857,0.00000
3930.80840,-0.00006
3928.74823,0.00008
3926.68805,0.00035
3924.62788,0.00044
3922.56771,0.00034
3920.50754,0.00048
3918.44737,0.00082
3916.38719,0.00088
3914.32702,0.00049
3912.26685,0.00009
3910.20668,0.00000
3908.14651,0.00024
3906.08633,0.00060
3904.02616,0.00086
3901.96599,0.00097
3899.90582,0.00090
3897.84565,0.00069
3895.78547,0.00048
3893.72530,0.00033
3891.66513,0.00033
3889.60496,0.00048
3887.54478,0.00065
3885.48461,0.00068
3883.42444,0.00061
3881.36427,0.00059
3879.30410,0.00052
3877.24392,0.00033
3875.18375,0.00029
3873.12358,0.00051
3871.06341,0.00083
3869.00324,0.00110
3866.94306,0.00109
3864.88289,0.00077
3862.82272,0.00040
3860.76255,0.00017
3858.70237,0.00011
3856.64220,0.00022
3854.58203,0.00052
3852.52186,0.00083
3850.46169,0.00078
3848.40151,0.00055
3846.34134,0.00046
3844.28117,0.00052
3842.22100,0.00062
3840.16083,0.00076
3838.10065,0.00081
3836.04048,0.00079
3833.98031,0.00096
3831.92014,0.00121
3829.85997,0.00110
3827.79979,0.00064
3825.73962,0.00018
3823.67945,0.00005
3821.61928,0.00046
3819.55910,0.00094
3817.49893,0.00089
3815.43876,0.00062
3813.37859,0.00045
3811.31842,0.00038
3809.25824,0.00054
3807.19807,0.00093
3805.13790,0.00115
3803.07773,0.00107
3801.01756,0.00095
3798.95738,0.00093
3796.89721,0.00090
3794.83704,0.00079
3792.77687,0.00068
3790.71670,0.00057
3788.65652,0.00041
3786.59635,0.00030
3784.53618,0.00038
3782.47601,0.00060
3780.41583,0.00076
3778.35566,0.00066
3776.29549,0.00054
3774.23532,0.00059
3772.17515,0.00066
3770.11497,0.00067
3768.05480,0.00072
3765.99463,0.00081
3763.93446,0.00080
3761.87429,0.00073
3759.81411,0.00074
3757.75394,0.00077
3755.69377,0.00076
3753.63360,0.00093
3751.57342,0.00140
3749.51325,0.00157
3747.45308,0.00101
3745.39291,0.00034
3743.33274,0.00017
3741.27256,0.00028
3739.21239,0.00037
3737.15222,0.00060
3735.09205,0.00111
3733.03188,0.00159
3730.97170,0.00166
3728.91153,0.00155
3726.85136,0.00137
3724.79119,0.00103
3722.73102,0.00083
3720.67084,0.00098
3718.61067,0.00123
3716.55050,0.00104
3714.49033,0.00068
3712.43015,0.00081
3710.36998,0.00108
3708.30981,0.00116
3706.24964,0.00114
3704.18947,0.00123
3702.12929,0.00138
3700.06912,0.00135
3698.00895,0.00119
3695.94878,0.00105
3693.88861,0.00096
3691.82843,0.00088
3689.76826,0.00093
3687.70809,0.00091
3685.64792,0.00075
3683.58775,0.00065
3681.52757,0.00084
3679.46740,0.00112
3677.40723,0.00112
3675.34706,0.00094
3673.28688,0.00091
3671.22671,0.00107
3669.16654,0.00136
3667.10637,0.00154
3665.04620,0.00155
3662.98602,0.00157
3660.92585,0.00158
3658.86568,0.00146
3656.80551,0.00122
3654.74534,0.00102
3652.68516,0.00118
3650.62499,0.00179
3648.56482,0.00228
3646.50465,0.00207
3644.44447,0.00166
3642.38430,0.00154
3640.32413,0.00167
3638.26396,0.00174
3636.20379,0.00175
3634.14361,0.00192
3632.08344,0.00228
3630.02327,0.00261
3627.96310,0.00260
3625.90293,0.00246
3623.84275,0.00238
3621.78258,0.00233
3619.72241,0.00223
3617.66224,0.00211
3615.60207,0.00221
3613.54189,0.00239
3611.48172,0.00251
3609.42155,0.00255
3607.36138,0.00257
3605.30120,0.00258
3603.24103,0.00264
3601.18086,0.00292
3599.12069,0.00329
3597.06052,0.00361
3595.00034,0.00375
3592.94017,0.00380
3590.88000,0.00385
3588.81983,0.00398
3586.75966,0.00397
3584.69948,0.00396
3582.63931,0.00421
3580.57914,0.00452
3578.51897,0.00456
3576.45879,0.00442
3574.39862,0.00445
3572.33845,0.00461
3570.27828,0.00477
3568.21811,0.00483
3566.15793,0.00471
3564.09776,0.00461
3562.03759,0.00467
3559.97742,0.00469
3557.91725,0.00462
3555.85707,0.00457
3553.79690,0.00470
3551.73673,0.00512
3549.67656,0.00563
3547.61639,0.00598
3545.55621,0.00600
3543.49604,0.00572
3541.43587,0.00546
3539.37570,0.00545
3537.31552,0.00569
3535.25535,0.00595
3533.19518,0.00599
3531.13501,0.00590
3529.07484,0.00603
3527.01466,0.00640
3524.95449,0.00665
3522.89432,0.00652
3520.83415,0.00620
3518.77398,0.00607
3516.71380,0.00626
3514.65363,0.00661
3512.59346,0.00679
3510.53329,0.00679
3508.47312,0.00688
3506.41294,0.00712
3504.35277,0.00734
3502.29260,0.00746
3500.23243,0.00754
3498.17225,0.00755
3496.11208,0.00748
3494.05191,0.00749
3491.99174,0.00760
3489.93157,0.00767
3487.87139,0.00764
3485.81122,0.00767
3483.75105,0.00785
3481.69088,0.00807
3479.63071,0.00823
3477.57053,0.00839
3475.51036,0.00852
3473.45019,0.00855
3471.39002,0.00867
3469.32984,0.00897
3467.26967,0.00909
3465.20950,0.00905
3463.14933,0.00919
3461.08916,0.00937
3459.02898,0.00929
3456.96881,0.00906
3454.90864,0.00908
3452.84847,0.00936
3450.78830,0.00965
3448.72812,0.00991
3446.66795,0.01010
3444.60778,0.01015
3442.54761,0.01003
3440.48744,0.00977
3438.42726,0.00958
3436.36709,0.00959
3434.30692,0.00974
3432.24675,0.00989
3430.18657,0.00993
3428.12640,0.00996
3426.06623,0.01008
3424.00606,0.01032
3421.94589,0.01052
3419.88571,0.01045
3417.82554,0.01025
3415.76537,0.01028
3413.70520,0.01055
3411.64503,0.01067
3409.58485,0.01054
3407.52468,0.01060
3405.46451,0.01097
3403.40434,0.01123
3401.34416,0.01111
3399.28399,0.01091
3397.22382,0.01095
3395.16365,0.01100
3393.10348,0.01089
3391.04330,0.01081
3388.98313,0.01093
3386.92296,0.01112
3384.86279,0.01131
3382.80262,0.01147
3380.74244,0.01158
3378.68227,0.01176
3376.62210,0.01188
3374.56193,0.01178
3372.50176,0.01168
3370.44158,0.01174
3368.38141,0.01181
3366.32124,0.01174
3364.26107,0.01175
3362.20089,0.01192
3360.14072,0.01190
3358.08055,0.01165
3356.02038,0.01164
3353.96021,0.01197
3351.90003,0.01214
3349.83986,0.01204
3347.77969,0.01186
3345.71952,0.01177
3343.65935,0.01182
3341.59917,0.01194
3339.53900,0.01207
3337.47883,0.01229
3335.41866,0.01249
3333.35849,0.01240
3331.29831,0.01214
3329.23814,0.01206
3327.17797,0.01218
3325.11780,0.01219
3323.05762,0.01210
3320.99745,0.01211
3318.93728,0.01213
3316.87711,0.01207
3314.81694,0.01202
3312.75676,0.01199
3310.69659,0.01202
3308.63642,0.01212
3306.57625,0.01211
3304.51608,0.01191
3302.45590,0.01175
3300.39573,0.01183
3298.33556,0.01199
3296.27539,0.01204
3294.21521,0.01216
3292.15504,0.01240
3290.09487,0.01262
3288.03470,0.01268
3285.97453,0.01265
3283.91435,0.01267
3281.85418,0.01263
3279.79401,0.01252
3277.73384,0.01254
3275.67367,0.01253
3273.61349,0.01228
3271.55332,0.01208
3269.49315,0.01211
3267.43298,0.01217
3265.37281,0.01218
3263.31263,0.01215
3261.25246,0.01203
3259.19229,0.01196
3257.13212,0.01203
3255.07194,0.01202
3253.01177,0.01200
3250.95160,0.01213
3248.89143,0.01224
3246.83126,0.01219
3244.77108,0.01206
3242.71091,0.01203
3240.65074,0.01218
3238.59057,0.01218
3236.53040,0.01194
3234.47022,0.01176
3232.41005,0.01177
3230.34988,0.01186
3228.28971,0.01187
3226.22954,0.01175
3224.16936,0.01164
3222.10919,0.01165
3220.04902,0.01175
3217.98885,0.01191
3215.92867,0.01199
3213.86850,0.01184
3211.80833,0.01158
3209.74816,0.01142
3207.68799,0.01137
3205.62781,0.01135
3203.56764,0.01131
3201.50747,0.01126
3199.44730,0.01119
3197.38713,0.01120
3195.32695,0.01130
3193.26678,0.01133
3191.20661,0.01127
3189.14644,0.01124
3187.08626,0.01121
3185.02609,0.01103
3182.96592,0.01074
3180.90575,0.01058
3178.84558,0.01058
3176.78540,0.01065
3174.72523,0.01074
3172.66506,0.01074
3170.60489,0.01066
3168.54472,0.01059
3166.48454,0.01049
3164.42437,0.01043
3162.36420,0.01048
3160.30403,0.01052
3158.24386,0.01041
3156.18368,0.01017
3154.12351,0.00989
3152.06334,0.00969
3150.00317,0.00965
3147.94299,0.00965
3145.88282,0.00958
3143.82265,0.00957
3141.76248,0.00959
3139.70231,0.00952
3137.64213,0.00946
3135.58196,0.00950
3133.52179,0.00947
3131.46162,0.00930
3129.40145,0.00912
3127.34127,0.00894
3125.28110,0.00870
3123.22093,0.00850
3121.16076,0.00848
3119.10058,0.00864
3117.04041,0.00880
3114.98024,0.00887
3112.92007,0.00884
3110.85990,0.00862
3108.79972,0.00830
3106.73955,0.00818
3104.67938,0.00828
3102.61921,0.00834
3100.55904,0.00834
3098.49886,0.00827
3096.43869,0.00803
3094.37852,0.00781
3092.31835,0.00770
3090.25818,0.00758
3088.19800,0.00755
3086.13783,0.00775
3084.07766,0.00785
3082.01749,0.00766
3079.95731,0.00752
3077.89714,0.00753
3075.83697,0.00746
3073.77680,0.00734
3071.71663,0.00729
3069.65645,0.00723
3067.59628,0.00717
3065.53611,0.00713
3063.47594,0.00695
3061.41577,0.00672
3059.35559,0.00664
3057.29542,0.00666
3055.23525,0.00656
3053.17508,0.00635
3051.11491,0.00630
3049.05473,0.00647
3046.99456,0.00666
3044.93439,0.00664
3042.87422,0.00643
3040.81404,0.00632
3038.75387,0.00639
3036.69370,0.00636
3034.63353,0.00621
3032.57336,0.00618
3030.51318,0.00627
3028.45301,0.00631
3026.39284,0.00628
3024.33267,0.00621
3022.27250,0.00613
3020.21232,0.00616
3018.15215,0.00623
3016.09198,0.00615
3014.03181,0.00592
3011.97163,0.00575
3009.91146,0.00564
3007.85129,0.00542
3005.79112,0.00519
3003.73095,0.00520
3001.67077,0.00545
2999.61060,0.00567
2997.55043,0.00565
2995.49026,0.00563
2993.43009,0.00574
2991.36991,0.00575
2989.30974,0.00563
2987.24957,0.00564
2985.18940,0.00577
2983.12923,0.00583
2981.06905,0.00586
2979.00888,0.00595
2976.94871,0.00602
2974.88854,0.00596
2972.82836,0.00588
2970.76819,0.00593
2968.70802,0.00613
2966.64785,0.00634
2964.58768,0.00649
2962.52750,0.00653
2960.46733,0.00656
2958.40716,0.00664
2956.34699,0.00679
2954.28682,0.00702
2952.22664,0.00727
2950.16647,0.00739
2948.10630,0.00737
2946.04613,0.00725
2943.98596,0.00706
2941.92578,0.00701
2939.86561,0.00728
2937.80544,0.00764
2935.74527,0.00779
2933.68509,0.00769
2931.62492,0.00750
2929.56475,0.00738
2927.50458,0.00745
2925.44441,0.00764
2923.38423,0.00771
2921.32406,0.00759
2919.26389,0.00744
2917.20372,0.00735
2915.14355,0.00729
2913.08337,0.00719
2911.02320,0.00715
2908.96303,0.00710
2906.90286,0.00697
2904.84268,0.00697
2902.78251,0.00708
2900.72234,0.00710
2898.66217,0.00699
2896.60200,0.00694
2894.54182,0.00705
2892.48165,0.00705
2890.42148,0.00694
2888.36131,0.00698
2886.30114,0.00710
2884.24096,0.00715
2882.18079,0.00713
2880.12062,0.00707
2878.06045,0.00694
2876.00028,0.00682
2873.94010,0.00676
2871.87993,0.00678
2869.81976,0.00676
2867.75959,0.00653
2865.69941,0.00636
2863.63924,0.00647
2861.57907,0.00663
2859.51890,0.00661
2857.45873,0.00646
2855.39855,0.00633
2853.33838,0.00625
2851.27821,0.00618
2849.21804,0.00611
2847.15787,0.00606
2845.09769,0.00603
2843.03752,0.00594
2840.97735,0.00582
2838.91718,0.00569
2836.85700,0.00553
2834.79683,0.00547
2832.73666,0.00548
2830.67649,0.00549
2828.61632,0.00549
2826.55614,0.00548
2824.49597,0.00545
2822.43580,0.00538
2820.37563,0.00526
2818.31546,0.00518
2816.25528,0.00515
2814.19511,0.00509
2812.13494,0.00505
2810.07477,0.00512
2808.01460,0.00514
2805.95442,0.00511
2803.89425,0.00522
2801.83408,0.00530
2799.77391,0.00525
2797.71373,0.00525
2795.65356,0.00527
2793.59339,0.00515
2791.53322,0.00509
2789.47305,0.00520
2787.41287,0.00520
2785.35270,0.00505
2783.29253,0.00495
2781.23236,0.00491
2779.17219,0.00487
2777.11201,0.00487
2775.05184,0.00492
2772.99167,0.00492
2770.93150,0.00486
2768.87133,0.00482
2766.81115,0.00485
2764.75098,0.00486
2762.69081,0.00484
2760.63064,0.00492
2758.57046,0.00502
2756.51029,0.00503
2754.45012,0.00513
2752.38995,0.00527
2750.32978,0.00523
2748.26960,0.00503
2746.20943,0.00486
2744.14926,0.00479
2742.08909,0.00483
2740.02892,0.00496
2737.96874,0.00506
2735.90857,0.00499
2733.84840,0.00483
2731.78823,0.00471
2729.72805,0.00463
2727.66788,0.00457
2725.60771,0.00456
2723.54754,0.00458
2721.48737,0.00458
2719.42719,0.00461
2717.36702,0.00471
2715.30685,0.00482
2713.24668,0.00479
2711.18651,0.00464
2709.12633,0.00469
2707.06616,0.00490
2705.00599,0.00494
2702.94582,0.00481
2700.88565,0.00472
2698.82547,0.00471
2696.76530,0.00472
2694.70513,0.00469
2692.64496,0.00460
2690.58478,0.00454
2688.52461,0.00458
2686.46444,0.00462
2684.40427,0.00462
2682.34410,0.00458
2680.28392,0.00456
2678.22375,0.00456
2676.16358,0.00458
2674.10341,0.00464
2672.04324,0.00463
2669.98306,0.00453
2667.92289,0.00448
2665.86272,0.00449
2663.80255,0.00454
2661.74238,0.00464
2659.68220,0.00468
2657.62203,0.00462
2655.56186,0.00460
2653.50169,0.00466
2651.44151,0.00471
2649.38134,0.00471
2647.32117,0.00463
2645.26100,0.00458
2643.20083,0.00465
2641.14065,0.00477
2639.08048,0.00479
2637.02031,0.00468
2634.96014,0.00453
2632.89997,0.00442
2630.83979,0.00433
2628.77962,0.00430
2626.71945,0.00431
2624.65928,0.00435
2622.59910,0.00442
2620.53893,0.00447
2618.47876,0.00449
2616.41859,0.00435
2614.35842,0.00409
2612.29824,0.00404
2610.23807,0.00418
2608.17790,0.00435
2606.11773,0.00444
2604.05756,0.00432
2601.99738,0.00417
2599.93721,0.00421
2597.87704,0.00421
2595.81687,0.00415
2593.75670,0.00419
2591.69652,0.00422
2589.63635,0.00418
2587.57618,0.00413
2585.51601,0.00409
2583.45583,0.00415
2581.39566,0.00423
2579.33549,0.00421
2577.27532,0.00419
2575.21515,0.00417
2573.15497,0.00412
2571.09480,0.00404
2569.03463,0.00395
2566.97446,0.00398
2564.91429,0.00410
2562.85411,0.00420
2560.79394,0.00424
2558.73377,0.00428
2556.67360,0.00420
2554.61342,0.00403
2552.55325,0.00398
2550.49308,0.00392
2548.43291,0.00385
2546.37274,0.00383
2544.31256,0.00379
2542.25239,0.00375
2540.19222,0.00378
2538.13205,0.00392
2536.07188,0.00401
2534.01170,0.00400
2531.95153,0.00409
2529.89136,0.00426
2527.83119,0.00439
2525.77102,0.00443
2523.71084,0.00435
2521.65067,0.00434
2519.59050,0.00437
2517.53033,0.00417
2515.47015,0.00396
2513.40998,0.00397
2511.34981,0.00393
2509.28964,0.00373
2507.22947,0.00361
2505.16929,0.00385
2503.10912,0.00424
2501.04895,0.00430
2498.98878,0.00409
2496.92861,0.00390
2494.86843,0.00373
2492.80826,0.00359
2490.74809,0.00356
2488.68792,0.00365
2486.62775,0.00387
2484.56757,0.00414
2482.50740,0.00413
2480.44723,0.00385
2478.38706,0.00367
2476.32688,0.00358
2474.26671,0.00348
2472.20654,0.00348
2470.14637,0.00360
2468.08620,0.00373
2466.02602,0.00388
2463.96585,0.00414
2461.90568,0.00428
2459.84551,0.00414
2457.78534,0.00397
2455.72516,0.00404
2453.66499,0.00414
2451.60482,0.00405
2449.54465,0.00390
2447.48447,0.00367
2445.42430,0.00332
2443.36413,0.00321
2441.30396,0.00349
2439.24379,0.00384
2437.18361,0.00410
2435.12344,0.00419
2433.06327,0.00407
2431.00310,0.00398
2428.94293,0.00391
2426.88275,0.00380
2424.82258,0.00381
2422.76241,0.00391
2420.70224,0.00389
2418.64207,0.00383
2416.58189,0.00384
2414.52172,0.00371
2412.46155,0.00336
2410.40138,0.00328
2408.34120,0.00354
2406.28103,0.00357
2404.22086,0.00330
2402.16069,0.00326
2400.10052,0.00356
2398.04034,0.00371
2395.98017,0.00371
2393.92000,0.00357
2391.85983,0.00341
2389.79966,0.00338
2387.73948,0.00342
2385.67931,0.00342
2383.61914,0.00348
2381.55897,0.00360
2379.49880,0.00371
2377.43862,0.00373
2375.37845,0.00405
2373.31828,0.00431
2371.25811,0.00454
2369.19793,0.00498
2367.13776,0.00473
2365.07759,0.00392
2363.01742,0.00498
2360.95725,0.00543
2358.89707,0.00688
2356.83690,0.00757
2354.77673,0.00728
2352.71656,0.00596
2350.65639,0.00213
2348.59621,0.00015
2346.53604,0.00486
2344.47587,0.00575
2342.41570,0.00459
2340.35552,0.00357
2338.29535,0.00271
2336.23518,0.00298
2334.17501,0.00389
2332.11484,0.00480
2330.05466,0.00483
2327.99449,0.00497
2325.93432,0.00442
2323.87415,0.00495
2321.81398,0.00519
2319.75380,0.00564
2317.69363,0.00500
2315.63346,0.00471
2313.57329,0.00463
2311.51312,0.00432
2309.45294,0.00421
2307.39277,0.00416
2305.33260,0.00415
2303.27243,0.00418
2301.21225,0.00436
2299.15208,0.00436
2297.09191,0.00443
2295.03174,0.00464
2292.97157,0.00477
2290.91139,0.00495
2288.85122,0.00504
2286.79105,0.00479
2284.73088,0.00439
2282.67071,0.00426
2280.61053,0.00440
2278.55036,0.00449
2276.49019,0.00431
2274.43002,0.00391
2272.36984,0.00365
2270.30967,0.00367
2268.24950,0.00389
2266.18933,0.00412
2264.12916,0.00431
2262.06898,0.00437
2260.00881,0.00434
2257.94864,0.00425
2255.88847,0.00401
2253.82830,0.00360
2251.76812,0.00352
2249.70795,0.00396
2247.64778,0.00447
2245.58761,0.00473
2243.52744,0.00470
2241.46726,0.00449
2239.40709,0.00410
2237.34692,0.00373
2235.28675,0.00360
2233.22657,0.00348
2231.16640,0.00345
2229.10623,0.00376
2227.04606,0.00400
2224.98589,0.00390
2222.92571,0.00379
2220.86554,0.00399
2218.80537,0.00413
2216.74520,0.00402
2214.68503,0.00410
2212.62485,0.00416
2210.56468,0.00407
2208.50451,0.00445
2206.44434,0.00506
2204.38417,0.00541
2202.32399,0.00558
2200.26382,0.00546
2198.20365,0.00536
2196.14348,0.00547
2194.08330,0.00529
2192.02313,0.00460
2189.96296,0.00365
2187.90279,0.00313
2185.84262,0.00339
2183.78244,0.00385
2181.72227,0.00408
2179.66210,0.00410
2177.60193,0.00345
2175.54176,0.00304
2173.48158,0.00372
2171.42141,0.00438
2169.36124,0.00444
2167.30107,0.00417
2165.24089,0.00433
2163.18072,0.00446
2161.12055,0.00307
2159.06038,0.00087
2157.00021,0.00000
2154.94003,0.00076
2152.87986,0.00148
2150.81969,0.00143
2148.75952,0.00152
2146.69935,0.00183
2144.63917,0.00242
2142.57900,0.00320
2140.51883,0.00313
2138.45866,0.00268
2136.39849,0.00279
2134.33831,0.00287
2132.27814,0.00247
2130.21797,0.00231
2128.15780,0.00254
2126.09762,0.00267
2124.03745,0.00303
2121.97728,0.00363
2119.91711,0.00376
2117.85694,0.00362
2115.79676,0.00409
2113.73659,0.00484
2111.67642,0.00499
2109.61625,0.00475
2107.55608,0.00450
2105.49590,0.00440
2103.43573,0.00434
2101.37556,0.00419
2099.31539,0.00414
2097.25521,0.00402
2095.19504,0.00392
2093.13487,0.00386
2091.07470,0.00369
2089.01453,0.00366
2086.95435,0.00371
2084.89418,0.00355
2082.83401,0.00350
2080.77384,0.00385
2078.71367,0.00414
2076.65349,0.00425
2074.59332,0.00453
2072.53315,0.00454
2070.47298,0.00391
2068.41281,0.00324
2066.35263,0.00304
2064.29246,0.00310
2062.23229,0.00330
2060.17212,0.00377
2058.11194,0.00419
2056.05177,0.00434
2053.99160,0.00442
2051.93143,0.00435
2049.87126,0.00390
2047.81108,0.00343
2045.75091,0.00343
2043.69074,0.00381
2041.63057,0.00391
2039.57040,0.00373
2037.51022,0.00363
2035.45005,0.00327
2033.38988,0.00276
2031.32971,0.00255
2029.26954,0.00194
2027.20936,0.00080
2025.14919,0.00069
2023.08902,0.00154
2021.02885,0.00179
2018.96867,0.00202
2016.90850,0.00278
2014.84833,0.00274
2012.78816,0.00184
2010.72799,0.00158
2008.66781,0.00211
2006.60764,0.00233
2004.54747,0.00194
2002.48730,0.00166
2000.42713,0.00209
1998.36695,0.00286
1996.30678,0.00326
1994.24661,0.00324
1992.18644,0.00308
1990.12626,0.00323
1988.06609,0.00386
1986.00592,0.00445
1983.94575,0.00449
1981.88558,0.00423
1979.82540,0.00403
1977.76523,0.00321
1975.70506,0.00174
1973.64489,0.00116
1971.58472,0.00193
1969.52454,0.00296
1967.46437,0.00332
1965.40420,0.00262
1963.34403,0.00152
1961.28386,0.00106
1959.22368,0.00150
1957.16351,0.00234
1955.10334,0.00286
1953.04317,0.00272
1950.98299,0.00218
1948.92282,0.00174
1946.86265,0.00139
1944.80248,0.00135
1942.74231,0.00196
1940.68213,0.00250
1938.62196,0.00231
1936.56179,0.00197
1934.50162,0.00208
1932.44145,0.00221
1930.38127,0.00197
1928.32110,0.00162
1926.26093,0.00148
1924.20076,0.00139
1922.14059,0.00109
1920.08041,0.00092
1918.02024,0.00127
1915.96007,0.00178
1913.89990,0.00176
1911.83972,0.00145
1909.77955,0.00132
1907.71938,0.00145
1905.65921,0.00156
1903.59904,0.00133
1901.53886,0.00099
1899.47869,0.00099
1897.41852,0.00126
1895.35835,0.00147
1893.29818,0.00144
1891.23800,0.00127
1889.17783,0.00126
1887.11766,0.00145
1885.05749,0.00153
1882.99731,0.00146
1880.93714,0.00131
1878.87697,0.00115
1876.81680,0.00115
1874.75663,0.00126
1872.69645,0.00136
1870.63628,0.00153
1868.57611,0.00161
1866.51594,0.00140
1864.45577,0.00121
1862.39559,0.00118
1860.33542,0.00105
1858.27525,0.00084
1856.21508,0.00083
1854.15491,0.00097
1852.09473,0.00113
1850.03456,0.00131
1847.97439,0.00143
1845.91422,0.00146
1843.85404,0.00136
1841.79387,0.00110
1839.73370,0.00092
1837.67353,0.00087
1835.61336,0.00085
1833.55318,0.00100
1831.49301,0.00134
1829.43284,0.00142
1827.37267,0.00112
1825.31250,0.00086
1823.25232,0.00088
1821.19215,0.00102
1819.13198,0.00107
1817.07181,0.00105
1815.01163,0.00101
1812.95146,0.00095
1810.89129,0.00086
1808.83112,0.00073
1806.77095,0.00056
1804.71077,0.00040
1802.65060,0.00035
1800.59043,0.00048
1798.53026,0.00073
1796.47009,0.00092
1794.40991,0.00106
1792.34974,0.00118
1790.28957,0.00110
1788.22940,0.00080
1786.16923,0.00057
1784.10905,0.00057
1782.04888,0.00071
1779.98871,0.00084
1777.92854,0.00084
1775.86836,0.00074
1773.80819,0.00066
1771.74802,0.00062
1769.68785,0.00069
1767.62768,0.00087
1765.56750,0.00111
1763.50733,0.00135
1761.44716,0.00153
1759.38699,0.00167
1757.32682,0.00170
1755.26664,0.00163
1753.20647,0.00176
1751.14630,0.00218
1749.08613,0.00256
1747.02596,0.00275
1744.96578,0.00286
1742.90561,0.00292
1740.84544,0.00290
1738.78527,0.00289
1736.72509,0.00308
1734.66492,0.00343
1732.60475,0.00353
1730.54458,0.00330
1728.48441,0.00301
1726.42423,0.00284
1724.36406,0.00282
1722.30389,0.00298
1720.24372,0.00336
1718.18355,0.00368
1716.12337,0.00340
1714.06320,0.00279
1712.00303,0.00244
1709.94286,0.00242
1707.88268,0.00249
1705.82251,0.00243
1703.76234,0.00228
1701.70217,0.00227
1699.64200,0.00237
1697.58182,0.00233
1695.52165,0.00206
1693.46148,0.00180
1691.40131,0.00179
1689.34114,0.00196
1687.28096,0.00221
1685.22079,0.00251
1683.16062,0.00265
1681.10045,0.00269
1679.04028,0.00289
1676.98010,0.00320
1674.91993,0.00344
1672.85976,0.00353
1670.79959,0.00357
1668.73941,0.00368
1666.67924,0.00390
1664.61907,0.00422
1662.55890,0.00446
1660.49873,0.00453
1658.43855,0.00471
1656.37838,0.00519
1654.31821,0.00564
1652.25804,0.00564
1650.19787,0.00565
1648.13769,0.00588
1646.07752,0.00596
1644.01735,0.00588
1641.95718,0.00595
1639.89701,0.00617
1637.83683,0.00641
1635.77666,0.00640
1633.71649,0.00610
1631.65632,0.00601
1629.59614,0.00618
1627.53597,0.00634
1625.47580,0.00643
1623.41563,0.00650
1621.35546,0.00657
1619.29528,0.00666
1617.23511,0.00658
1615.17494,0.00630
1613.11477,0.00617
1611.05460,0.00618
1608.99442,0.00610
1606.93425,0.00593
1604.87408,0.00575
1602.81391,0.00555
1600.75373,0.00532
1598.69356,0.00511
1596.63339,0.00495
1594.57322,0.00472
1592.51305,0.00434
1590.45287,0.00384
1588.39270,0.00342
1586.33253,0.00314
1584.27236,0.00291
1582.21219,0.00269
1580.15201,0.00253
1578.09184,0.00243
1576.03167,0.00215
1573.97150,0.00180
1571.91133,0.00163
1569.85115,0.00156
1567.79098,0.00145
1565.73081,0.00135
1563.67064,0.00131
1561.61046,0.00145
1559.55029,0.00166
1557.49012,0.00148
1555.42995,0.00105
1553.36978,0.00074
1551.30960,0.00057
1549.24943,0.00046
1547.18926,0.00057
1545.12909,0.00092
1543.06892,0.00122
1541.00874,0.00120
1538.94857,0.00098
1536.88840,0.00079
1534.82823,0.00069
1532.76805,0.00057
1530.70788,0.00044
1528.64771,0.00048
1526.58754,0.00059
1524.52737,0.00063
1522.46719,0.00072
1520.40702,0.00080
1518.34685,0.00071
1516.28668,0.00050
1514.22651,0.00033
1512.16633,0.00035
1510.10616,0.00058
1508.04599,0.00082
1505.98582,0.00069
1503.92565,0.00039
1501.86547,0.00036
1499.80530,0.00057
1497.74513,0.00072
1495.68496,0.00075
1493.62478,0.00082
1491.56461,0.00096
1489.50444,0.00100
1487.44427,0.00083
1485.38410,0.00064
1483.32392,0.00062
1481.26375,0.00075
1479.20358,0.00102
1477.14341,0.00139
1475.08324,0.00180
1473.02306,0.00208
1470.96289,0.00215
1468.90272,0.00224
1466.84255,0.00244
1464.78238,0.00261
1462.72220,0.00275
1460.66203,0.00311
1458.60186,0.00366
1456.54169,0.00389
1454.48151,0.00366
1452.42134,0.00342
1450.36117,0.00343
1448.30100,0.00357
1446.24083,0.00363
1444.18065,0.00365
1442.12048,0.00375
1440.06031,0.00401
1438.00014,0.00435
1435.93997,0.00455
1433.87979,0.00464
1431.81962,0.00476
1429.75945,0.00484
1427.69928,0.00491
1425.63910,0.00506
1423.57893,0.00529
1421.51876,0.00553
1419.45859,0.00566
1417.39842,0.00559
1415.33824,0.00550
1413.27807,0.00554
1411.21790,0.00567
1409.15773,0.00577
1407.09756,0.00577
1405.03738,0.00563
1402.97721,0.00547
1400.91704,0.00535
1398.85687,0.00515
1396.79670,0.00486
1394.73652,0.00460
1392.67635,0.00450
1390.61618,0.00462
1388.55601,0.00479
1386.49583,0.00483
1384.43566,0.00486
1382.37549,0.00499
1380.31532,0.00516
1378.25515,0.00533
1376.19497,0.00554
1374.13480,0.00566
1372.07463,0.00562
1370.01446,0.00559
1367.95429,0.00561
1365.89411,0.00564
1363.83394,0.00553
1361.77377,0.00522
1359.71360,0.00498
1357.65343,0.00498
1355.59325,0.00504
1353.53308,0.00503
1351.47291,0.00499
1349.41274,0.00486
1347.35256,0.00462
1345.29239,0.00440
1343.23222,0.00436
1341.17205,0.00443
1339.11188,0.00448
1337.05170,0.00451
1334.99153,0.00453
1332.93136,0.00447
1330.87119,0.00434
1328.81102,0.00432
1326.75084,0.00444
1324.69067,0.00459
1322.63050,0.00467
1320.57033,0.00470
1318.51015,0.00478
1316.44998,0.00491
1314.38981,0.00497
1312.32964,0.00491
1310.26947,0.00470
1308.20929,0.00444
1306.14912,0.00424
1304.08895,0.00412
1302.02878,0.00406
1299.96861,0.00400
1297.90843,0.00397
1295.84826,0.00398
1293.78809,0.00399
1291.72792,0.00393
1289.66775,0.00385
1287.60757,0.00374
1285.54740,0.00361
1283.48723,0.00361
1281.42706,0.00370
1279.36688,0.00373
1277.30671,0.00371
1275.24654,0.00372
1273.18637,0.00375
1271.12620,0.00382
1269.06602,0.00395
1267.00585,0.00414
1264.94568,0.00433
1262.88551,0.00448
1260.82534,0.00462
1258.76516,0.00481
1256.70499,0.00509
1254.64482,0.00538
1252.58465,0.00557
1250.52447,0.00558
1248.46430,0.00556
1246.40413,0.00560
1244.34396,0.00554
1242.28379,0.00542
1240.22361,0.00535
1238.16344,0.00526
1236.10327,0.00513
1234.04310,0.00505
1231.98293,0.00499
1229.92275,0.00473
1227.86258,0.00431
1225.80241,0.00406
1223.74224,0.00401
1221.68207,0.00394
1219.62189,0.00374
1217.56172,0.00348
1215.50155,0.00326
1213.44138,0.00296
1211.38120,0.00253
1209.32103,0.00214
1207.26086,0.00185
1205.20069,0.00153
1203.14052,0.00112
1201.08034,0.00075
1199.02017,0.00053
1196.96000,0.00037
1194.89983,0.00015
1192.83966,0.00000
1190.77948,-0.00005
1188.71931,-0.00008
1186.65914,-0.00011
1184.59897,-0.00005
1182.53880,0.00017
1180.47862,0.00033
1178.41845,0.00045
1176.35828,0.00074
1174.29811,0.00114
1172.23793,0.00150
1170.17776,0.00186
1168.11759,0.00230
1166.05742,0.00281
1163.99725,0.00327
1161.93707,0.00359
1159.87690,0.00387
1157.81673,0.00425
1155.75656,0.00478
1153.69639,0.00525
1151.63621,0.00556
1149.57604,0.00572
1147.51587,0.00580
1145.45570,0.00595
1143.39552,0.00618
1141.33535,0.00633
1139.27518,0.00643
1137.21501,0.00657
1135.15484,0.00674
1133.09466,0.00685
1131.03449,0.00704
1128.97432,0.00748
1126.91415,0.00806
1124.85398,0.00848
1122.79380,0.00870
1120.73363,0.00894
1118.67346,0.00925
1116.61329,0.00953
1114.55312,0.00980
1112.49294,0.01008
1110.43277,0.01044
1108.37260,0.01082
1106.31243,0.01108
1104.25225,0.01142
1102.19208,0.01196
1100.13191,0.01257
1098.07174,0.01311
1096.01157,0.01362
1093.95139,0.01414
1091.89122,0.01455
1089.83105,0.01485
1087.77088,0.01535
1085.71071,0.01602
1083.65053,0.01654
1081.59036,0.01689
1079.53019,0.01722
1077.47002,0.01758
1075.40985,0.01804
1073.34967,0.01857
1071.28950,0.01906
1069.22933,0.01939
1067.16916,0.01951
1065.10898,0.01960
1063.04881,0.01984
1060.98864,0.02010
1058.92847,0.02029
1056.86830,0.02049
1054.80812,0.02069
1052.74795,0.02100
1050.68778,0.02148
1048.62761,0.02186
1046.56744,0.02200
1044.50726,0.02212
1042.44709,0.02240
1040.38692,0.02284
1038.32675,0.02331
1036.26657,0.02368
1034.20640,0.02391
1032.14623,0.02396
1030.08606,0.02370
1028.02589,0.02340
1025.96571,0.02345
1023.90554,0.02366
1021.84537,0.02373
1019.78520,0.02370
1017.72503,0.02367
1015.66485,0.02363
1013.60468,0.02353
1011.54451,0.02339
1009.48434,0.02330
1007.42417,0.02339
1005.36399,0.02350
1003.30382,0.02334
1001.24365,0.02285
999.18348,0.02235
997.12330,0.02202
995.06313,0.02170
993.00296,0.02136
990.94279,0.02108
988.88262,0.02080
986.82244,0.02057
984.76227,0.02042
982.70210,0.02019
980.64193,0.01992
978.58176,0.01977
976.52158,0.01968
974.46141,0.01946
972.40124,0.01901
970.34107,0.01854
968.28089,0.01828
966.22072,0.01810
964.16055,0.01783
962.10038,0.01757
960.04021,0.01727
957.98003,0.01687
955.91986,0.01640
953.85969,0.01598
951.79952,0.01573
949.73935,0.01540
947.67917,0.01489
945.61900,0.01432
943.55883,0.01371
941.49866,0.01301
939.43849,0.01219
937.37831,0.01133
935.31814,0.01049
933.25797,0.00957
931.19780,0.00875
929.13762,0.00816
927.07745,0.00758
925.01728,0.00692
922.95711,0.00616
920.89694,0.00544
918.83676,0.00506
916.77659,0.00492
914.71642,0.00461
912.65625,0.00418
910.59608,0.00381
908.53590,0.00350
906.47573,0.00322
904.41556,0.00307
902.35539,0.00303
900.29522,0.00295
898.23504,0.00296
896.17487,0.00314
894.11470,0.00324
892.05453,0.00320
889.99435,0.00318
887.93418,0.00308
885.87401,0.00278
883.81384,0.00238
881.75367,0.00217
879.69349,0.00214
877.63332,0.00199
875.57315,0.00170
873.51298,0.00158
871.45281,0.00162
869.39263,0.00165
867.33246,0.00167
865.27229,0.00167
863.21212,0.00174
861.15194,0.00175
859.09177,0.00168
857.03160,0.00160
854.97143,0.00142
852.91126,0.00111
850.85108,0.00076
848.79091,0.00071
846.73074,0.00100
844.67057,0.00121
842.61040,0.00109
840.55022,0.00066
838.49005,0.00015
836.42988,0.00000
834.36971,0.00024
832.30954,0.00051
830.24936,0.00047
828.18919,0.00034
826.12902,0.00033
824.06885,0.00021
822.00867,0.00012
819.94850,0.00018
817.88833,0.00039
815.82816,0.00070
813.76799,0.00090
811.70781,0.00099
809.64764,0.00113
807.58747,0.00142
805.52730,0.00166
803.46713,0.00151
801.40695,0.00121
799.34678,0.00114
797.28661,0.00104
795.22644,0.00091
793.16627,0.00098
791.10609,0.00099
789.04592,0.00071
786.98575,0.00044
784.92558,0.00056
782.86540,0.00103
780.80523,0.00127
778.74506,0.00105
776.68489,0.00089
774.62472,0.00101
772.56454,0.00119
770.50437,0.00139
768.44420,0.00156
766.38403,0.00154
764.32386,0.00154
762.26368,0.00169
760.20351,0.00179
758.14334,0.00184
756.08317,0.00181
754.02299,0.00167
751.96282,0.00155
749.90265,0.00151
747.84248,0.00138
745.78231,0.00113
743.72213,0.00108
741.66196,0.00131
739.60179,0.00163
737.54162,0.00184
735.48145,0.00163
733.42127,0.00126
731.36110,0.00134
729.30093,0.00177
727.24076,0.00200
725.18059,0.00182
723.12041,0.00132
721.06024,0.00164
719.00007,0.00169
716.93990,0.00213
714.87972,0.00270
712.81955,0.00295
710.75938,0.00310
708.69921,0.00314
706.63904,0.00305
704.57886,0.00311
702.51869,0.00373
700.45852,0.00454
698.39835,0.00470
696.33818,0.00425
694.27800,0.00370
692.21783,0.00319
690.15766,0.00289
688.09749,0.00284
686.03731,0.00288
683.97714,0.00290
681.91697,0.00305
679.85680,0.00331
677.79663,0.00318
675.73645,0.00293
673.67628,0.00225
671.61611,0.00000
669.55594,0.00299
667.49577,0.00880
665.43559,-0.00054
663.37542,0.00138
661.31525,0.00400
659.25508,0.00395
657.19491,0.00353
655.13473,0.00354
653.07456,0.00332
651.01439,0.00261
648.95422,0.00210
646.89404,0.00176
644.83387,0.00205
642.77370,0.00261
640.71353,0.00315
638.65336,0.00336
636.59318,0.00321
634.53301,0.00296
632.47284,0.00255
630.41267,0.00213
628.35250,0.00263
626.29232,0.00408
624.23215,0.00425
622.17198,0.00244
620.11181,0.00181
618.05164,0.00286
615.99146,0.00264
613.93129,0.00160
611.87112,0.00130
609.81095,0.00115
607.75077,0.00027
605.69060,-0.00019
603.63043,0.00013
601.57026,-0.00015
599.51009,0.00000
