3996.73391,0.00014
3994.67373,0.00025
3992.61356,0.00030
3990.55339,0.00037
3988.49322,0.00030
3986.43305,0.00006
3984.37287,0.00000
3982.31270,0.00023
3980.25253,0.00048
3978.19236,0.00046
3976.13219,0.00028
3974.07201,0.00023
3972.01184,0.00027
3969.95167,0.00021
3967.89150,0.00022
3965.83133,0.00041
3963.77115,0.00057
3961.71098,0.00054
3959.65081,0.00039
3957.59064,0.00030
3955.53046,0.00042
3953.47029,0.00071
3951.41012,0.00088
3949.34995,0.00080
3947.28978,0.00057
3945.22960,0.00035
3943.16943,0.00031
3941.10926,0.00053
3939.04909,0.00077
3936.98892,0.00075
3934.92874,0.00062
3932.86857,0.00062
3930.80840,0.00082
3928.74823,0.00096
3926.68805,0.00081
3924.62788,0.00056
3922.56771,0.00059
3920.50754,0.00079
3918.44737,0.00077
3916.38719,0.00060
3914.32702,0.00063
3912.26685,0.00080
3910.20668,0.00088
3908.14651,0.00088
3906.08633,0.00082
3904.02616,0.00065
3901.96599,0.00060
3899.90582,0.00090
3897.84565,0.00128
3895.78547,0.00129
3893.72530,0.00100
3891.66513,0.00080
3889.60496,0.00078
3887.54478,0.00076
3885.48461,0.00079
3883.42444,0.00094
3881.36427,0.00112
3879.30410,0.00133
3877.24392,0.00138
3875.18375,0.00130
3873.12358,0.00138
3871.06341,0.00168
3869.00324,0.00180
3866.94306,0.00147
3864.88289,0.00095
3862.82272,0.00071
3860.76255,0.00085
3858.70237,0.00118
3856.64220,0.00144
3854.58203,0.00142
3852.52186,0.00124
3850.46169,0.00120
3848.40151,0.00132
3846.34134,0.00142
3844.28117,0.00124
3842.22100,0.00082
3840.16083,0.00050
3838.10065,0.00050
3836.04048,0.00075
3833.98031,0.00101
3831.92014,0.00119
3829.85997,0.00137
3827.79979,0.00159
3825.73962,0.00174
3823.67945,0.00167
3821.61928,0.00144
3819.55910,0.00131
3817.49893,0.00127
3815.43876,0.00122
3813.37859,0.00119
3811.31842,0.00122
3809.25824,0.00133
3807.19807,0.00139
3805.13790,0.00124
3803.07773,0.00085
3801.01756,0.00046
3798.95738,0.00043
3796.89721,0.00085
3794.83704,0.00139
3792.77687,0.00161
3790.71670,0.00159
3788.65652,0.00169
3786.59635,0.00188
3784.53618,0.00195
3782.47601,0.00188
3780.41583,0.00180
3778.35566,0.00190
3776.29549,0.00207
3774.23532,0.00219
3772.17515,0.00224
3770.11497,0.00203
3768.05480,0.00167
3765.99463,0.00157
3763.93446,0.00179
3761.87429,0.00199
3759.81411,0.00191
3757.75394,0.00151
3755.69377,0.00099
3753.63360,0.00070
3751.57342,0.00089
3749.51325,0.00129
3747.45308,0.00144
3745.39291,0.00141
3743.33274,0.00143
3741.27256,0.00139
3739.21239,0.00117
3737.15222,0.00081
3735.09205,0.00053
3733.03188,0.00078
3730.97170,0.00135
3728.91153,0.00159
3726.85136,0.00143
3724.79119,0.00128
3722.73102,0.00138
3720.67084,0.00163
3718.61067,0.00175
3716.55050,0.00169
3714.49033,0.00147
3712.43015,0.00108
3710.36998,0.00084
3708.30981,0.00114
3706.24964,0.00162
3704.18947,0.00184
3702.12929,0.00182
3700.06912,0.00181
3698.00895,0.00186
3695.94878,0.00185
3693.88861,0.00162
3691.82843,0.00109
3689.76826,0.00071
3687.70809,0.00098
3685.64792,0.00141
3683.58775,0.00157
3681.52757,0.00152
3679.46740,0.00140
3677.40723,0.00146
3675.34706,0.00176
3673.28688,0.00187
3671.22671,0.00183
3669.16654,0.00198
3667.10637,0.00213
3665.04620,0.00213
3662.98602,0.00204
3660.92585,0.00193
3658.86568,0.00193
3656.80551,0.00210
3654.74534,0.00215
3652.68516,0.00172
3650.62499,0.00112
3648.56482,0.00119
3646.50465,0.00188
3644.44447,0.00230
3642.38430,0.00221
3640.32413,0.00187
3638.26396,0.00166
3636.20379,0.00166
3634.14361,0.00164
3632.08344,0.00150
3630.02327,0.00139
3627.96310,0.00152
3625.90293,0.00188
3623.84275,0.00211
3621.78258,0.00201
3619.72241,0.00175
3617.66224,0.00164
3615.60207,0.00181
3613.54189,0.00210
3611.48172,0.00223
3609.42155,0.00218
3607.36138,0.00217
3605.30120,0.00223
3603.24103,0.00220
3601.18086,0.00215
3599.12069,0.00231
3597.06052,0.00262
3595.00034,0.00272
3592.94017,0.00253
3590.88000,0.00232
3588.81983,0.00224
3586.75966,0.00236
3584.69948,0.00256
3582.63931,0.00266
3580.57914,0.00264
3578.51897,0.00262
3576.45879,0.00270
3574.39862,0.00285
3572.33845,0.00294
3570.27828,0.00289
3568.21811,0.00269
3566.15793,0.00259
3564.09776,0.00277
3562.03759,0.00294
3559.97742,0.00297
3557.91725,0.00295
3555.85707,0.00286
3553.79690,0.00282
3551.73673,0.00291
3549.67656,0.00293
3547.61639,0.00284
3545.55621,0.00293
3543.49604,0.00320
3541.43587,0.00342
3539.37570,0.00349
3537.31552,0.00341
3535.25535,0.00326
3533.19518,0.00312
3531.13501,0.00306
3529.07484,0.00321
3527.01466,0.00349
3524.95449,0.00353
3522.89432,0.00331
3520.83415,0.00324
3518.77398,0.00340
3516.71380,0.00354
3514.65363,0.00355
3512.59346,0.00349
3510.53329,0.00339
3508.47312,0.00339
3506.41294,0.00360
3504.35277,0.00380
3502.29260,0.00382
3500.23243,0.00376
3498.17225,0.00377
3496.11208,0.00395
3494.05191,0.00422
3491.99174,0.00436
3489.93157,0.00436
3487.87139,0.00435
3485.81122,0.00434
3483.75105,0.00416
3481.69088,0.00384
3479.63071,0.00372
3477.57053,0.00390
3475.51036,0.00414
3473.45019,0.00428
3471.39002,0.00433
3469.32984,0.00440
3467.26967,0.00458
3465.20950,0.00473
3463.14933,0.00479
3461.08916,0.00474
3459.02898,0.00456
3456.96881,0.00446
3454.90864,0.00453
3452.84847,0.00461
3450.78830,0.00459
3448.72812,0.00461
3446.66795,0.00472
3444.60778,0.00477
3442.54761,0.00471
3440.48744,0.00468
3438.42726,0.00484
3436.36709,0.00507
3434.30692,0.00509
3432.24675,0.00488
3430.18657,0.00467
3428.12640,0.00470
3426.06623,0.00497
3424.00606,0.00512
3421.94589,0.00504
3419.88571,0.00501
3417.82554,0.00516
3415.76537,0.00535
3413.70520,0.00538
3411.64503,0.00533
3409.58485,0.00538
3407.52468,0.00541
3405.46451,0.00530
3403.40434,0.00526
3401.34416,0.00519
3399.28399,0.00502
3397.22382,0.00505
3395.16365,0.00522
3393.10348,0.00534
3391.04330,0.00539
3388.98313,0.00530
3386.92296,0.00522
3384.86279,0.00525
3382.80262,0.00523
3380.74244,0.00516
3378.68227,0.00524
3376.62210,0.00552
3374.56193,0.00577
3372.50176,0.00576
3370.44158,0.00560
3368.38141,0.00555
3366.32124,0.00562
3364.26107,0.00569
3362.20089,0.00571
3360.14072,0.00561
3358.08055,0.00546
3356.02038,0.00543
3353.96021,0.00546
3351.90003,0.00547
3349.83986,0.00542
3347.77969,0.00540
3345.71952,0.00557
3343.65935,0.00586
3341.59917,0.00613
3339.53900,0.00628
3337.47883,0.00624
3335.41866,0.00605
3333.35849,0.00586
3331.29831,0.00581
3329.23814,0.00584
3327.17797,0.00576
3325.11780,0.00563
3323.05762,0.00558
3320.99745,0.00559
3318.93728,0.00567
3316.87711,0.00581
3314.81694,0.00588
3312.75676,0.00579
3310.69659,0.00572
3308.63642,0.00578
3306.57625,0.00596
3304.51608,0.00610
3302.45590,0.00606
3300.39573,0.00597
3298.33556,0.00594
3296.27539,0.00587
3294.21521,0.00582
3292.15504,0.00585
3290.09487,0.00582
3288.03470,0.00578
3285.97453,0.00594
3283.91435,0.00606
3281.85418,0.00587
3279.79401,0.00561
3277.73384,0.00544
3275.67367,0.00539
3273.61349,0.00548
3271.55332,0.00564
3269.49315,0.00585
3267.43298,0.00603
3265.37281,0.00607
3263.31263,0.00593
3261.25246,0.00570
3259.19229,0.00553
3257.13212,0.00554
3255.07194,0.00558
3253.01177,0.00560
3250.95160,0.00570
3248.89143,0.00577
3246.83126,0.00567
3244.77108,0.00555
3242.71091,0.00554
3240.65074,0.00554
3238.59057,0.00545
3236.53040,0.00545
3234.47022,0.00548
3232.41005,0.00533
3230.34988,0.00526
3228.28971,0.00545
3226.22954,0.00575
3224.16936,0.00597
3222.10919,0.00606
3220.04902,0.00599
3217.98885,0.00573
3215.92867,0.00544
3213.86850,0.00535
3211.80833,0.00534
3209.74816,0.00528
3207.68799,0.00526
3205.62781,0.00528
3203.56764,0.00540
3201.50747,0.00551
3199.44730,0.00549
3197.38713,0.00541
3195.32695,0.00536
3193.26678,0.00543
3191.20661,0.00562
3189.14644,0.00570
3187.08626,0.00554
3185.02609,0.00544
3182.96592,0.00547
3180.90575,0.00539
3178.84558,0.00519
3176.78540,0.00512
3174.72523,0.00518
3172.66506,0.00519
3170.60489,0.00519
3168.54472,0.00526
3166.48454,0.00532
3164.42437,0.00526
3162.36420,0.00508
3160.30403,0.00497
3158.24386,0.00499
3156.18368,0.00511
3154.12351,0.00523
3152.06334,0.00529
3150.00317,0.00528
3147.94299,0.00523
3145.88282,0.00509
3143.82265,0.00491
3141.76248,0.00482
3139.70231,0.00480
3137.64213,0.00480
3135.58196,0.00486
3133.52179,0.00496
3131.46162,0.00492
3129.40145,0.00474
3127.34127,0.00472
3125.28110,0.00486
3123.22093,0.00488
3121.16076,0.00472
3119.10058,0.00460
3117.04041,0.00467
3114.98024,0.00483
3112.92007,0.00488
3110.85990,0.00480
3108.79972,0.00469
3106.73955,0.00466
3104.67938,0.00467
3102.61921,0.00456
3100.55904,0.00439
3098.49886,0.00435
3096.43869,0.00444
3094.37852,0.00447
3092.31835,0.00442
3090.25818,0.00445
3088.19800,0.00460
3086.13783,0.00473
3084.07766,0.00475
3082.01749,0.00477
3079.95731,0.00486
3077.89714,0.00488
3075.83697,0.00483
3073.77680,0.00473
3071.71663,0.00457
3069.65645,0.00436
3067.59628,0.00411
3065.53611,0.00399
3063.47594,0.00406
3061.41577,0.00414
3059.35559,0.00419
3057.29542,0.00427
3055.23525,0.00431
3053.17508,0.00427
3051.11491,0.00412
3049.05473,0.00392
3046.99456,0.00399
3044.93439,0.00427
3042.87422,0.00436
3040.81404,0.00425
3038.75387,0.00423
3036.69370,0.00431
3034.63353,0.00432
3032.57336,0.00428
3030.51318,0.00431
3028.45301,0.00434
3026.39284,0.00431
3024.33267,0.00425
3022.27250,0.00417
3020.21232,0.00409
3018.15215,0.00401
3016.09198,0.00400
3014.03181,0.00407
3011.97163,0.00414
3009.91146,0.00413
3007.85129,0.00407
3005.79112,0.00411
3003.73095,0.00420
3001.67077,0.00419
2999.61060,0.00408
2997.55043,0.00397
2995.49026,0.00392
2993.43009,0.00391
2991.36991,0.00398
2989.30974,0.00407
2987.24957,0.00401
2985.18940,0.00395
2983.12923,0.00400
2981.06905,0.00401
2979.00888,0.00399
2976.94871,0.00404
2974.88854,0.00414
2972.82836,0.00412
2970.76819,0.00408
2968.70802,0.00417
2966.64785,0.00431
2964.58768,0.00440
2962.52750,0.00441
2960.46733,0.00439
2958.40716,0.00436
2956.34699,0.00429
2954.28682,0.00426
2952.22664,0.00428
2950.16647,0.00443
2948.10630,0.00473
2946.04613,0.00483
2943.98596,0.00467
2941.92578,0.00452
2939.86561,0.00449
2937.80544,0.00455
2935.74527,0.00459
2933.68509,0.00452
2931.62492,0.00442
2929.56475,0.00437
2927.50458,0.00435
2925.44441,0.00432
2923.38423,0.00428
2921.32406,0.00421
2919.26389,0.00415
2917.20372,0.00410
2915.14355,0.00404
2913.08337,0.00410
2911.02320,0.00423
2908.96303,0.00426
2906.90286,0.00426
2904.84268,0.00436
2902.78251,0.00450
2900.72234,0.00459
2898.66217,0.00458
2896.60200,0.00456
2894.54182,0.00461
2892.48165,0.00464
2890.42148,0.00457
2888.36131,0.00452
2886.30114,0.00454
2884.24096,0.00452
2882.18079,0.00448
2880.12062,0.00448
2878.06045,0.00459
2876.00028,0.00473
2873.94010,0.00475
2871.87993,0.00464
2869.81976,0.00451
2867.75959,0.00442
2865.69941,0.00443
2863.63924,0.00452
2861.57907,0.00450
2859.51890,0.00434
2857.45873,0.00426
2855.39855,0.00427
2853.33838,0.00426
2851.27821,0.00417
2849.21804,0.00412
2847.15787,0.00411
2845.09769,0.00408
2843.03752,0.00412
2840.97735,0.00421
2838.91718,0.00419
2836.85700,0.00411
2834.79683,0.00412
2832.73666,0.00415
2830.67649,0.00415
2828.61632,0.00415
2826.55614,0.00412
2824.49597,0.00404
2822.43580,0.00409
2820.37563,0.00423
2818.31546,0.00426
2816.25528,0.00417
2814.19511,0.00415
2812.13494,0.00419
2810.07477,0.00426
2808.01460,0.00430
2805.95442,0.00424
2803.89425,0.00417
2801.83408,0.00422
2799.77391,0.00427
2797.71373,0.00424
2795.65356,0.00421
2793.59339,0.00423
2791.53322,0.00416
2789.47305,0.00398
2787.41287,0.00392
2785.35270,0.00404
2783.29253,0.00414
2781.23236,0.00423
2779.17219,0.00431
2777.11201,0.00433
2775.05184,0.00427
2772.99167,0.00423
2770.93150,0.00429
2768.87133,0.00437
2766.81115,0.00436
2764.75098,0.00428
2762.69081,0.00424
2760.63064,0.00419
2758.57046,0.00412
2756.51029,0.00411
2754.45012,0.00417
2752.38995,0.00421
2750.32978,0.00420
2748.26960,0.00414
2746.20943,0.00407
2744.14926,0.00406
2742.08909,0.00414
2740.02892,0.00425
2737.96874,0.00430
2735.90857,0.00429
2733.84840,0.00433
2731.78823,0.00436
2729.72805,0.00429
2727.66788,0.00421
2725.60771,0.00409
2723.54754,0.00392
2721.48737,0.00392
2719.42719,0.00410
2717.36702,0.00422
2715.30685,0.00420
2713.24668,0.00411
2711.18651,0.00404
2709.12633,0.00410
2707.06616,0.00420
2705.00599,0.00419
2702.94582,0.00415
2700.88565,0.00423
2698.82547,0.00437
2696.76530,0.00440
2694.70513,0.00431
2692.64496,0.00425
2690.58478,0.00426
2688.52461,0.00428
2686.46444,0.00431
2684.40427,0.00428
2682.34410,0.00427
2680.28392,0.00440
2678.22375,0.00448
2676.16358,0.00433
2674.10341,0.00419
2672.04324,0.00419
2669.98306,0.00418
2667.92289,0.00414
2665.86272,0.00415
2663.80255,0.00428
2661.74238,0.00453
2659.68220,0.00470
2657.62203,0.00466
2655.56186,0.00455
2653.50169,0.00444
2651.44151,0.00436
2649.38134,0.00442
2647.32117,0.00454
2645.26100,0.00458
2643.20083,0.00452
2641.14065,0.00441
2639.08048,0.00434
2637.02031,0.00441
2634.96014,0.00449
2632.89997,0.00448
2630.83979,0.00440
2628.77962,0.00436
2626.71945,0.00436
2624.65928,0.00434
2622.59910,0.00419
2620.53893,0.00397
2618.47876,0.00397
2616.41859,0.00418
2614.35842,0.00430
2612.29824,0.00425
2610.23807,0.00426
2608.17790,0.00434
2606.11773,0.00433
2604.05756,0.00425
2601.99738,0.00434
2599.93721,0.00446
2597.87704,0.00430
2595.81687,0.00418
2593.75670,0.00439
2591.69652,0.00470
2589.63635,0.00480
2587.57618,0.00465
2585.51601,0.00437
2583.45583,0.00428
2581.39566,0.00432
2579.33549,0.00424
2577.27532,0.00410
2575.21515,0.00385
2573.15497,0.00363
2571.09480,0.00379
2569.03463,0.00427
2566.97446,0.00457
2564.91429,0.00429
2562.85411,0.00382
2560.79394,0.00369
2558.73377,0.00384
2556.67360,0.00410
2554.61342,0.00433
2552.55325,0.00428
2550.49308,0.00414
2548.43291,0.00416
2546.37274,0.00420
2544.31256,0.00416
2542.25239,0.00413
2540.19222,0.00410
2538.13205,0.00406
2536.07188,0.00420
2534.01170,0.00443
2531.95153,0.00429
2529.89136,0.00392
2527.83119,0.00380
2525.77102,0.00386
2523.71084,0.00392
2521.65067,0.00398
2519.59050,0.00397
2517.53033,0.00387
2515.47015,0.00390
2513.40998,0.00400
2511.34981,0.00401
2509.28964,0.00399
2507.22947,0.00396
2505.16929,0.00396
2503.10912,0.00404
2501.04895,0.00419
2498.98878,0.00428
2496.92861,0.00418
2494.86843,0.00402
2492.80826,0.00401
2490.74809,0.00411
2488.68792,0.00405
2486.62775,0.00388
2484.56757,0.00382
2482.50740,0.00385
2480.44723,0.00386
2478.38706,0.00402
2476.32688,0.00419
2474.26671,0.00427
2472.20654,0.00438
2470.14637,0.00454
2468.08620,0.00462
2466.02602,0.00438
2463.96585,0.00401
2461.90568,0.00391
2459.84551,0.00420
2457.78534,0.00457
2455.72516,0.00466
2453.66499,0.00464
2451.60482,0.00469
2449.54465,0.00470
2447.48447,0.00463
2445.42430,0.00455
2443.36413,0.00431
2441.30396,0.00400
2439.24379,0.00389
2437.18361,0.00394
2435.12344,0.00387
2433.06327,0.00373
2431.00310,0.00378
2428.94293,0.00406
2426.88275,0.00424
2424.82258,0.00425
2422.76241,0.00429
2420.70224,0.00435
2418.64207,0.00429
2416.58189,0.00423
2414.52172,0.00423
2412.46155,0.00422
2410.40138,0.00416
2408.34120,0.00404
2406.28103,0.00401
2404.22086,0.00410
2402.16069,0.00406
2400.10052,0.00394
2398.04034,0.00387
2395.98017,0.00389
2393.92000,0.00392
2391.85983,0.00400
2389.79966,0.00410
2387.73948,0.00411
2385.67931,0.00406
2383.61914,0.00399
2381.55897,0.00394
2379.49880,0.00396
2377.43862,0.00394
2375.37845,0.00395
2373.31828,0.00427
2371.25811,0.00461
2369.19793,0.00443
2367.13776,0.00387
2365.07759,0.00342
2363.01742,0.00322
2360.95725,0.00316
2358.89707,0.00312
2356.83690,0.00332
2354.77673,0.00393
2352.71656,0.00461
2350.65639,0.00500
2348.59621,0.00498
2346.53604,0.00467
2344.47587,0.00442
2342.41570,0.00447
2340.35552,0.00479
2338.29535,0.00505
2336.23518,0.00498
2334.17501,0.00482
2332.11484,0.00485
2330.05466,0.00504
2327.99449,0.00516
2325.93432,0.00507
2323.87415,0.00497
2321.81398,0.00511
2319.75380,0.00517
2317.69363,0.00487
2315.63346,0.00445
2313.57329,0.00427
2311.51312,0.00430
2309.45294,0.00431
2307.39277,0.00438
2305.33260,0.00467
2303.27243,0.00501
2301.21225,0.00527
2299.15208,0.00540
2297.09191,0.00536
2295.03174,0.00524
2292.97157,0.00511
2290.91139,0.00495
2288.85122,0.00483
2286.79105,0.00477
2284.73088,0.00473
2282.67071,0.00484
2280.61053,0.00507
2278.55036,0.00512
2276.49019,0.00487
2274.43002,0.00468
2272.36984,0.00473
2270.30967,0.00482
2268.24950,0.00467
2266.18933,0.00429
2264.12916,0.00421
2262.06898,0.00473
2260.00881,0.00507
2257.94864,0.00449
2255.88847,0.00366
2253.82830,0.00365
2251.76812,0.00440
2249.70795,0.00486
2247.64778,0.00444
2245.58761,0.00371
2243.52744,0.00345
2241.46726,0.00384
2239.40709,0.00435
2237.34692,0.00479
2235.28675,0.00511
2233.22657,0.00502
2231.16640,0.00495
2229.10623,0.00497
2227.04606,0.00466
2224.98589,0.00457
2222.92571,0.00492
2220.86554,0.00508
2218.80537,0.00510
2216.74520,0.00538
2214.68503,0.00569
2212.62485,0.00560
2210.56468,0.00518
2208.50451,0.00469
2206.44434,0.00449
2204.38417,0.00475
2202.32399,0.00474
2200.26382,0.00432
2198.20365,0.00405
2196.14348,0.00405
2194.08330,0.00413
2192.02313,0.00414
2189.96296,0.00416
2187.90279,0.00409
2185.84262,0.00420
2183.78244,0.00493
2181.72227,0.00546
2179.66210,0.00523
2177.60193,0.00503
2175.54176,0.00496
2173.48158,0.00449
2171.42141,0.00417
2169.36124,0.00430
2167.30107,0.00458
2165.24089,0.00499
2163.18072,0.00491
2161.12055,0.00351
2159.06038,0.00177
2157.00021,0.00204
2154.94003,0.00399
2152.87986,0.00503
2150.81969,0.00458
2148.75952,0.00384
2146.69935,0.00303
2144.63917,0.00237
2142.57900,0.00272
2140.51883,0.00367
2138.45866,0.00438
2136.39849,0.00454
2134.33831,0.00419
2132.27814,0.00360
2130.21797,0.00318
2128.15780,0.00317
2126.09762,0.00334
2124.03745,0.00378
2121.97728,0.00445
2119.91711,0.00464
2117.85694,0.00440
2115.79676,0.00417
2113.73659,0.00393
2111.67642,0.00391
2109.61625,0.00402
2107.55608,0.00382
2105.49590,0.00371
2103.43573,0.00414
2101.37556,0.00460
2099.31539,0.00460
2097.25521,0.00445
2095.19504,0.00438
2093.13487,0.00420
2091.07470,0.00393
2089.01453,0.00377
2086.95435,0.00387
2084.89418,0.00404
2082.83401,0.00385
2080.77384,0.00333
2078.71367,0.00321
2076.65349,0.00371
2074.59332,0.00423
2072.53315,0.00465
2070.47298,0.00486
2068.41281,0.00448
2066.35263,0.00396
2064.29246,0.00396
2062.23229,0.00418
2060.17212,0.00439
2058.11194,0.00452
2056.05177,0.00429
2053.99160,0.00407
2051.93143,0.00421
2049.87126,0.00458
2047.81108,0.00532
2045.75091,0.00563
2043.69074,0.00457
2041.63057,0.00349
2039.57040,0.00386
2037.51022,0.00497
2035.45005,0.00529
2033.38988,0.00426
2031.32971,0.00297
2029.26954,0.00261
2027.20936,0.00292
2025.14919,0.00351
2023.08902,0.00413
2021.02885,0.00424
2018.96867,0.00395
2016.90850,0.00359
2014.84833,0.00333
2012.78816,0.00345
2010.72799,0.00382
2008.66781,0.00398
2006.60764,0.00395
2004.54747,0.00417
2002.48730,0.00448
2000.42713,0.00430
1998.36695,0.00393
1996.30678,0.00412
1994.24661,0.00441
1992.18644,0.00429
1990.12626,0.00426
1988.06609,0.00434
1986.00592,0.00415
1983.94575,0.00396
1981.88558,0.00414
1979.82540,0.00399
1977.76523,0.00305
1975.70506,0.00271
1973.64489,0.00302
1971.58472,0.00296
1969.52454,0.00301
1967.46437,0.00349
1965.40420,0.00392
1963.34403,0.00385
1961.28386,0.00327
1959.22368,0.00290
1957.16351,0.00319
1955.10334,0.00368
1953.04317,0.00410
1950.98299,0.00425
1948.92282,0.00374
1946.86265,0.00324
1944.80248,0.00346
1942.74231,0.00380
1940.68213,0.00393
1938.62196,0.00397
1936.56179,0.00387
1934.50162,0.00382
1932.44145,0.00385
1930.38127,0.00355
1928.32110,0.00295
1926.26093,0.00261
1924.20076,0.00274
1922.14059,0.00320
1920.08041,0.00376
1918.02024,0.00410
1915.96007,0.00402
1913.89990,0.00365
1911.83972,0.00346
1909.77955,0.00381
1907.71938,0.00430
1905.65921,0.00429
1903.59904,0.00395
1901.53886,0.00375
1899.47869,0.00370
1897.41852,0.00369
1895.35835,0.00368
1893.29818,0.00353
1891.23800,0.00333
1889.17783,0.00344
1887.11766,0.00373
1885.05749,0.00379
1882.99731,0.00358
1880.93714,0.00327
1878.87697,0.00307
1876.81680,0.00316
1874.75663,0.00340
1872.69645,0.00346
1870.63628,0.00332
1868.57611,0.00334
1866.51594,0.00351
1864.45577,0.00349
1862.39559,0.00332
1860.33542,0.00324
1858.27525,0.00336
1856.21508,0.00361
1854.15491,0.00379
1852.09473,0.00375
1850.03456,0.00362
1847.97439,0.00343
1845.91422,0.00319
1843.85404,0.00311
1841.79387,0.00322
1839.73370,0.00327
1837.67353,0.00330
1835.61336,0.00342
1833.55318,0.00340
1831.49301,0.00316
1829.43284,0.00301
1827.37267,0.00311
1825.31250,0.00335
1823.25232,0.00363
1821.19215,0.00371
1819.13198,0.00357
1817.07181,0.00351
1815.01163,0.00360
1812.95146,0.00362
1810.89129,0.00359
1808.83112,0.00365
1806.77095,0.00370
1804.71077,0.00367
1802.65060,0.00365
1800.59043,0.00365
1798.53026,0.00357
1796.47009,0.00343
1794.40991,0.00333
1792.34974,0.00336
1790.28957,0.00347
1788.22940,0.00352
1786.16923,0.00350
1784.10905,0.00342
1782.04888,0.00334
1779.98871,0.00333
1777.92854,0.00334
1775.86836,0.00336
1773.80819,0.00336
1771.74802,0.00338
1769.68785,0.00342
1767.62768,0.00337
1765.56750,0.00326
1763.50733,0.00328
1761.44716,0.00350
1759.38699,0.00372
1757.32682,0.00375
1755.26664,0.00366
1753.20647,0.00350
1751.14630,0.00331
1749.08613,0.00324
1747.02596,0.00335
1744.96578,0.00355
1742.90561,0.00364
1740.84544,0.00359
1738.78527,0.00355
1736.72509,0.00358
1734.66492,0.00355
1732.60475,0.00364
1730.54458,0.00399
1728.48441,0.00431
1726.42423,0.00439
1724.36406,0.00434
1722.30389,0.00426
1720.24372,0.00404
1718.18355,0.00366
1716.12337,0.00351
1714.06320,0.00369
1712.00303,0.00382
1709.94286,0.00379
1707.88268,0.00371
1705.82251,0.00358
1703.76234,0.00346
1701.70217,0.00342
1699.64200,0.00345
1697.58182,0.00346
1695.52165,0.00345
1693.46148,0.00346
1691.40131,0.00347
1689.34114,0.00351
1687.28096,0.00359
1685.22079,0.00362
1683.16062,0.00359
1681.10045,0.00362
1679.04028,0.00377
1676.98010,0.00393
1674.91993,0.00393
1672.85976,0.00378
1670.79959,0.00365
1668.73941,0.00374
1666.67924,0.00401
1664.61907,0.00425
1662.55890,0.00443
1660.49873,0.00456
1658.43855,0.00462
1656.37838,0.00462
1654.31821,0.00460
1652.25804,0.00460
1650.19787,0.00460
1648.13769,0.00461
1646.07752,0.00473
1644.01735,0.00484
1641.95718,0.00482
1639.89701,0.00469
1637.83683,0.00450
1635.77666,0.00450
1633.71649,0.00480
1631.65632,0.00506
1629.59614,0.00509
1627.53597,0.00505
1625.47580,0.00511
1623.41563,0.00522
1621.35546,0.00524
1619.29528,0.00515
1617.23511,0.00499
1615.17494,0.00493
1613.11477,0.00502
1611.05460,0.00513
1608.99442,0.00518
1606.93425,0.00520
1604.87408,0.00519
1602.81391,0.00515
1600.75373,0.00507
1598.69356,0.00498
1596.63339,0.00485
1594.57322,0.00471
1592.51305,0.00464
1590.45287,0.00463
1588.39270,0.00462
1586.33253,0.00456
1584.27236,0.00444
1582.21219,0.00427
1580.15201,0.00405
1578.09184,0.00384
1576.03167,0.00376
1573.97150,0.00379
1571.91133,0.00369
1569.85115,0.00344
1567.79098,0.00326
1565.73081,0.00330
1563.67064,0.00342
1561.61046,0.00336
1559.55029,0.00303
1557.49012,0.00287
1555.42995,0.00308
1553.36978,0.00326
1551.30960,0.00331
1549.24943,0.00330
1547.18926,0.00319
1545.12909,0.00287
1543.06892,0.00242
1541.00874,0.00228
1538.94857,0.00264
1536.88840,0.00294
1534.82823,0.00299
1532.76805,0.00308
1530.70788,0.00327
1528.64771,0.00332
1526.58754,0.00321
1524.52737,0.00302
1522.46719,0.00282
1520.40702,0.00278
1518.34685,0.00283
1516.28668,0.00285
1514.22651,0.00288
1512.16633,0.00284
1510.10616,0.00264
1508.04599,0.00248
1505.98582,0.00271
1503.92565,0.00310
1501.86547,0.00323
1499.80530,0.00319
1497.74513,0.00317
1495.68496,0.00329
1493.62478,0.00336
1491.56461,0.00320
1489.50444,0.00298
1487.44427,0.00305
1485.38410,0.00335
1483.32392,0.00356
1481.26375,0.00362
1479.20358,0.00354
1477.14341,0.00329
1475.08324,0.00298
1473.02306,0.00300
1470.96289,0.00344
1468.90272,0.00379
1466.84255,0.00384
1464.78238,0.00381
1462.72220,0.00377
1460.66203,0.00356
1458.60186,0.00324
1456.54169,0.00331
1454.48151,0.00376
1452.42134,0.00404
1450.36117,0.00412
1448.30100,0.00420
1446.24083,0.00434
1444.18065,0.00447
1442.12048,0.00457
1440.06031,0.00459
1438.00014,0.00450
1435.93997,0.00440
1433.87979,0.00442
1431.81962,0.00446
1429.75945,0.00452
1427.69928,0.00464
1425.63910,0.00473
1423.57893,0.00469
1421.51876,0.00458
1419.45859,0.00455
1417.39842,0.00468
1415.33824,0.00480
1413.27807,0.00482
1411.21790,0.00484
1409.15773,0.00489
1407.09756,0.00491
1405.03738,0.00481
1402.97721,0.00464
1400.91704,0.00443
1398.85687,0.00424
1396.79670,0.00420
1394.73652,0.00432
1392.67635,0.00449
1390.61618,0.00457
1388.55601,0.00453
1386.49583,0.00452
1384.43566,0.00466
1382.37549,0.00478
1380.31532,0.00478
1378.25515,0.00472
1376.19497,0.00467
1374.13480,0.00464
1372.07463,0.00461
1370.01446,0.00460
1367.95429,0.00460
1365.89411,0.00456
1363.83394,0.00447
1361.77377,0.00443
1359.71360,0.00452
1357.65343,0.00464
1355.59325,0.00467
1353.53308,0.00463
1351.47291,0.00455
1349.41274,0.00447
1347.35256,0.00446
1345.29239,0.00446
1343.23222,0.00439
1341.17205,0.00424
1339.11188,0.00414
1337.05170,0.00418
1334.99153,0.00433
1332.93136,0.00447
1330.87119,0.00450
1328.81102,0.00444
1326.75084,0.00438
1324.69067,0.00433
1322.63050,0.00432
1320.57033,0.00437
1318.51015,0.00444
1316.44998,0.00449
1314.38981,0.00445
1312.32964,0.00431
1310.26947,0.00421
1308.20929,0.00425
1306.14912,0.00431
1304.08895,0.00430
1302.02878,0.00422
1299.96861,0.00418
1297.90843,0.00418
1295.84826,0.00417
1293.78809,0.00407
1291.72792,0.00398
1289.66775,0.00401
1287.60757,0.00405
1285.54740,0.00400
1283.48723,0.00389
1281.42706,0.00384
1279.36688,0.00388
1277.30671,0.00393
1275.24654,0.00395
1273.18637,0.00398
1271.12620,0.00402
1269.06602,0.00406
1267.00585,0.00413
1264.94568,0.00424
1262.88551,0.00435
1260.82534,0.00446
1258.76516,0.00454
1256.70499,0.00456
1254.64482,0.00454
1252.58465,0.00453
1250.52447,0.00458
1248.46430,0.00470
1246.40413,0.00482
1244.34396,0.00479
1242.28379,0.00465
1240.22361,0.00454
1238.16344,0.00452
1236.10327,0.00455
1234.04310,0.00453
1231.98293,0.00446
1229.92275,0.00440
1227.86258,0.00441
1225.80241,0.00435
1223.74224,0.00414
1221.68207,0.00397
1219.62189,0.00396
1217.56172,0.00394
1215.50155,0.00387
1213.44138,0.00378
1211.38120,0.00363
1209.32103,0.00351
1207.26086,0.00346
1205.20069,0.00338
1203.14052,0.00320
1201.08034,0.00303
1199.02017,0.00296
1196.96000,0.00291
1194.89983,0.00278
1192.83966,0.00261
1190.77948,0.00256
1188.71931,0.00260
1186.65914,0.00260
1184.59897,0.00269
1182.53880,0.00286
1180.47862,0.00292
1178.41845,0.00280
1176.35828,0.00276
1174.29811,0.00292
1172.23793,0.00310
1170.17776,0.00334
1168.11759,0.00366
1166.05742,0.00386
1163.99725,0.00392
1161.93707,0.00401
1159.87690,0.00419
1157.81673,0.00444
1155.75656,0.00467
1153.69639,0.00480
1151.63621,0.00492
1149.57604,0.00509
1147.51587,0.00519
1145.45570,0.00525
1143.39552,0.00532
1141.33535,0.00532
1139.27518,0.00526
1137.21501,0.00526
1135.15484,0.00543
1133.09466,0.00565
1131.03449,0.00581
1128.97432,0.00595
1126.91415,0.00611
1124.85398,0.00627
1122.79380,0.00649
1120.73363,0.00668
1118.67346,0.00684
1116.61329,0.00704
1114.55312,0.00724
1112.49294,0.00739
1110.43277,0.00755
1108.37260,0.00782
1106.31243,0.00814
1104.25225,0.00840
1102.19208,0.00864
1100.13191,0.00885
1098.07174,0.00902
1096.01157,0.00931
1093.95139,0.00972
1091.89122,0.01006
1089.83105,0.01024
1087.77088,0.01035
1085.71071,0.01049
1083.65053,0.01063
1081.59036,0.01082
1079.53019,0.01111
1077.47002,0.01144
1075.40985,0.01170
1073.34967,0.01184
1071.28950,0.01189
1069.22933,0.01194
1067.16916,0.01211
1065.10898,0.01236
1063.04881,0.01259
1060.98864,0.01276
1058.92847,0.01277
1056.86830,0.01268
1054.80812,0.01272
1052.74795,0.01291
1050.68778,0.01315
1048.62761,0.01340
1046.56744,0.01350
1044.50726,0.01341
1042.44709,0.01344
1040.38692,0.01369
1038.32675,0.01382
1036.26657,0.01380
1034.20640,0.01376
1032.14623,0.01369
1030.08606,0.01354
1028.02589,0.01327
1025.96571,0.01302
1023.90554,0.01291
1021.84537,0.01277
1019.78520,0.01251
1017.72503,0.01241
1015.66485,0.01249
1013.60468,0.01253
1011.54451,0.01240
1009.48434,0.01213
1007.42417,0.01182
1005.36399,0.01163
1003.30382,0.01158
1001.24365,0.01153
999.18348,0.01137
997.12330,0.01109
995.06313,0.01078
993.00296,0.01054
990.94279,0.01037
988.88262,0.01020
986.82244,0.01003
984.76227,0.00996
982.70210,0.01006
980.64193,0.01014
978.58176,0.01003
976.52158,0.00976
974.46141,0.00948
972.40124,0.00927
970.34107,0.00905
968.28089,0.00878
966.22072,0.00859
964.16055,0.00848
962.10038,0.00834
960.04021,0.00814
957.98003,0.00786
955.91986,0.00754
953.85969,0.00738
951.79952,0.00748
949.73935,0.00753
947.67917,0.00733
945.61900,0.00700
943.55883,0.00670
941.49866,0.00644
939.43849,0.00609
937.37831,0.00569
935.31814,0.00541
933.25797,0.00522
931.19780,0.00508
929.13762,0.00498
927.07745,0.00482
925.01728,0.00462
922.95711,0.00445
920.89694,0.00444
918.83676,0.00457
916.77659,0.00444
914.71642,0.00410
912.65625,0.00386
910.59608,0.00361
908.53590,0.00335
906.47573,0.00333
904.41556,0.00354
902.35539,0.00374
900.29522,0.00378
898.23504,0.00391
896.17487,0.00417
894.11470,0.00419
892.05453,0.00406
889.99435,0.00399
887.93418,0.00385
885.87401,0.00379
883.81384,0.00397
881.75367,0.00408
879.69349,0.00400
877.63332,0.00386
875.57315,0.00371
873.51298,0.00365
871.45281,0.00378
869.39263,0.00403
867.33246,0.00415
865.27229,0.00400
863.21212,0.00376
861.15194,0.00376
859.09177,0.00406
857.03160,0.00421
854.97143,0.00394
852.91126,0.00367
850.85108,0.00370
848.79091,0.00385
846.73074,0.00390
844.67057,0.00367
842.61040,0.00335
840.55022,0.00333
838.49005,0.00352
836.42988,0.00346
834.36971,0.00320
832.30954,0.00308
830.24936,0.00319
828.18919,0.00336
826.12902,0.00337
824.06885,0.00334
822.00867,0.00331
819.94850,0.00325
817.88833,0.00323
815.82816,0.00330
813.76799,0.00354
811.70781,0.00380
809.64764,0.00387
807.58747,0.00375
805.52730,0.00364
803.46713,0.00353
801.40695,0.00337
799.34678,0.00321
797.28661,0.00304
795.22644,0.00289
793.16627,0.00291
791.10609,0.00316
789.04592,0.00327
786.98575,0.00322
784.92558,0.00307
782.86540,0.00268
780.80523,0.00252
778.74506,0.00285
776.68489,0.00313
774.62472,0.00306
772.56454,0.00282
770.50437,0.00269
768.44420,0.00278
766.38403,0.00303
764.32386,0.00339
762.26368,0.00372
760.20351,0.00371
758.14334,0.00361
756.08317,0.00349
754.02299,0.00321
751.96282,0.00292
749.90265,0.00292
747.84248,0.00339
745.78231,0.00380
743.72213,0.00394
741.66196,0.00416
739.60179,0.00422
737.54162,0.00399
735.48145,0.00375
733.42127,0.00340
731.36110,0.00308
729.30093,0.00309
727.24076,0.00319
725.18059,0.00310
723.12041,0.00297
721.06024,0.00314
719.00007,0.00380
716.93990,0.00452
714.87972,0.00467
712.81955,0.00430
710.75938,0.00389
708.69921,0.00381
706.63904,0.00396
704.57886,0.00394
702.51869,0.00364
700.45852,0.00337
698.39835,0.00337
696.33818,0.00350
694.27800,0.00348
692.21783,0.00343
690.15766,0.00361
688.09749,0.00366
686.03731,0.00352
683.97714,0.00357
681.91697,0.00345
679.85680,0.00296
677.79663,0.00284
675.73645,0.00330
673.67628,0.00363
671.61611,0.00352
669.55594,0.00330
667.49577,0.00327
665.43559,0.00340
663.37542,0.00344
661.31525,0.00332
659.25508,0.00333
657.19491,0.00374
655.13473,0.00411
653.07456,0.00366
651.01439,0.00286
648.95422,0.00301
646.89404,0.00402
644.83387,0.00472
642.77370,0.00433
640.71353,0.00327
638.65336,0.00250
636.59318,0.00238
634.53301,0.00231
632.47284,0.00213
630.41267,0.00238
628.35250,0.00291
626.29232,0.00295
624.23215,0.00240
622.17198,0.00167
620.11181,0.00106
618.05164,0.00058
615.99146,0.00024
613.93129,0.00000
611.87112,0.00052
609.81095,0.00179
607.75077,0.00297
605.69060,0.00295
603.63043,0.00153
601.57026,0.00010
599.51009,0.00000
