3996.73391,-0.00026
3994.67373,-0.00030
3992.61356,-0.00027
3990.55339,-0.00016
3988.49322,-0.00001
3986.43305,0.00011
3984.37287,0.00015
3982.31270,0.00015
3980.25253,0.00012
3978.19236,0.00006
3976.13219,-0.00001
3974.07201,-0.00003
3972.01184,0.00000
3969.95167,0.00011
3967.89150,0.00026
3965.83133,0.00036
3963.77115,0.00036
3961.71098,0.00030
3959.65081,0.00030
3957.59064,0.00036
3955.53046,0.00045
3953.47029,0.00048
3951.41012,0.00047
3949.34995,0.00047
3947.28978,0.00049
3945.22960,0.00050
3943.16943,0.00051
3941.10926,0.00055
3939.04909,0.00056
3936.98892,0.00054
3934.92874,0.00056
3932.86857,0.00073
3930.80840,0.00098
3928.74823,0.00113
3926.68805,0.00108
3924.62788,0.00089
3922.56771,0.00071
3920.50754,0.00067
3918.44737,0.00082
3916.38719,0.00109
3914.32702,0.00135
3912.26685,0.00146
3910.20668,0.00134
3908.14651,0.00102
3906.08633,0.00062
3904.02616,0.00028
3901.96599,0.00015
3899.90582,0.00026
3897.84565,0.00050
3895.78547,0.00067
3893.72530,0.00072
3891.66513,0.00079
3889.60496,0.00096
3887.54478,0.00105
3885.48461,0.00094
3883.42444,0.00073
3881.36427,0.00059
3879.30410,0.00061
3877.24392,0.00064
3875.18375,0.00054
3873.12358,0.00035
3871.06341,0.00029
3869.00324,0.00046
3866.94306,0.00079
3864.88289,0.00110
3862.82272,0.00126
3860.76255,0.00114
3858.70237,0.00071
3856.64220,0.00018
3854.58203,0.00000
3852.52186,0.00044
3850.46169,0.00127
3848.40151,0.00196
3846.34134,0.00217
3844.28117,0.00192
3842.22100,0.00139
3840.16083,0.00086
3838.10065,0.00058
3836.04048,0.00072
3833.98031,0.00113
3831.92014,0.00157
3829.85997,0.00186
3827.79979,0.00190
3825.73962,0.00174
3823.67945,0.00148
3821.61928,0.00121
3819.55910,0.00104
3817.49893,0.00110
3815.43876,0.00142
3813.37859,0.00189
3811.31842,0.00215
3809.25824,0.00201
3807.19807,0.00161
3805.13790,0.00126
3803.07773,0.00114
3801.01756,0.00128
3798.95738,0.00160
3796.89721,0.00194
3794.83704,0.00219
3792.77687,0.00230
3790.71670,0.00224
3788.65652,0.00204
3786.59635,0.00177
3784.53618,0.00153
3782.47601,0.00138
3780.41583,0.00135
3778.35566,0.00146
3776.29549,0.00161
3774.23532,0.00162
3772.17515,0.00150
3770.11497,0.00145
3768.05480,0.00158
3765.99463,0.00175
3763.93446,0.00175
3761.87429,0.00156
3759.81411,0.00130
3757.75394,0.00102
3755.69377,0.00062
3753.63360,0.00018
3751.57342,0.00000
3749.51325,0.00024
3747.45308,0.00072
3745.39291,0.00117
3743.33274,0.00149
3741.27256,0.00158
3739.21239,0.00142
3737.15222,0.00115
3735.09205,0.00102
3733.03188,0.00117
3730.97170,0.00142
3728.91153,0.00150
3726.85136,0.00140
3724.79119,0.00130
3722.73102,0.00136
3720.67084,0.00148
3718.61067,0.00147
3716.55050,0.00127
3714.49033,0.00105
3712.43015,0.00100
3710.36998,0.00122
3708.30981,0.00159
3706.24964,0.00186
3704.18947,0.00191
3702.12929,0.00182
3700.06912,0.00167
3698.00895,0.00148
3695.94878,0.00128
3693.88861,0.00116
3691.82843,0.00120
3689.76826,0.00141
3687.70809,0.00173
3685.64792,0.00196
3683.58775,0.00199
3681.52757,0.00175
3679.46740,0.00130
3677.40723,0.00083
3675.34706,0.00060
3673.28688,0.00066
3671.22671,0.00083
3669.16654,0.00103
3667.10637,0.00130
3665.04620,0.00166
3662.98602,0.00202
3660.92585,0.00229
3658.86568,0.00241
3656.80551,0.00235
3654.74534,0.00216
3652.68516,0.00196
3650.62499,0.00196
3648.56482,0.00229
3646.50465,0.00282
3644.44447,0.00325
3642.38430,0.00334
3640.32413,0.00310
3638.26396,0.00272
3636.20379,0.00245
3634.14361,0.00237
3632.08344,0.00225
3630.02327,0.00197
3627.96310,0.00171
3625.90293,0.00172
3623.84275,0.00188
3621.78258,0.00202
3619.72241,0.00214
3617.66224,0.00228
3615.60207,0.00238
3613.54189,0.00239
3611.48172,0.00241
3609.42155,0.00254
3607.36138,0.00276
3605.30120,0.00297
3603.24103,0.00306
3601.18086,0.00305
3599.12069,0.00303
3597.06052,0.00305
3595.00034,0.00316
3592.94017,0.00334
3590.88000,0.00343
3588.81983,0.00337
3586.75966,0.00330
3584.69948,0.00340
3582.63931,0.00365
3580.57914,0.00387
3578.51897,0.00391
3576.45879,0.00381
3574.39862,0.00382
3572.33845,0.00408
3570.27828,0.00448
3568.21811,0.00476
3566.15793,0.00484
3564.09776,0.00478
3562.03759,0.00468
3559.97742,0.00458
3557.91725,0.00447
3555.85707,0.00438
3553.79690,0.00434
3551.73673,0.00434
3549.67656,0.00447
3547.61639,0.00475
3545.55621,0.00511
3543.49604,0.00541
3541.43587,0.00557
3539.37570,0.00560
3537.31552,0.00553
3535.25535,0.00547
3533.19518,0.00550
3531.13501,0.00560
3529.07484,0.00568
3527.01466,0.00565
3524.95449,0.00554
3522.89432,0.00546
3520.83415,0.00545
3518.77398,0.00553
3516.71380,0.00568
3514.65363,0.00589
3512.59346,0.00605
3510.53329,0.00610
3508.47312,0.00613
3506.41294,0.00624
3504.35277,0.00640
3502.29260,0.00651
3500.23243,0.00652
3498.17225,0.00647
3496.11208,0.00643
3494.05191,0.00647
3491.99174,0.00655
3489.93157,0.00658
3487.87139,0.00651
3485.81122,0.00638
3483.75105,0.00625
3481.69088,0.00616
3479.63071,0.00612
3477.57053,0.00617
3475.51036,0.00632
3473.45019,0.00651
3471.39002,0.00669
3469.32984,0.00683
3467.26967,0.00692
3465.20950,0.00698
3463.14933,0.00700
3461.08916,0.00702
3459.02898,0.00710
3456.96881,0.00730
3454.90864,0.00755
3452.84847,0.00777
3450.78830,0.00789
3448.72812,0.00786
3446.66795,0.00768
3444.60778,0.00744
3442.54761,0.00724
3440.48744,0.00721
3438.42726,0.00736
3436.36709,0.00759
3434.30692,0.00775
3432.24675,0.00780
3430.18657,0.00781
3428.12640,0.00786
3426.06623,0.00791
3424.00606,0.00791
3421.94589,0.00788
3419.88571,0.00780
3417.82554,0.00768
3415.76537,0.00758
3413.70520,0.00756
3411.64503,0.00769
3409.58485,0.00794
3407.52468,0.00818
3405.46451,0.00824
3403.40434,0.00812
3401.34416,0.00795
3399.28399,0.00788
3397.22382,0.00790
3395.16365,0.00796
3393.10348,0.00803
3391.04330,0.00811
3388.98313,0.00825
3386.92296,0.00847
3384.86279,0.00872
3382.80262,0.00891
3380.74244,0.00897
3378.68227,0.00890
3376.62210,0.00876
3374.56193,0.00865
3372.50176,0.00866
3370.44158,0.00872
3368.38141,0.00876
3366.32124,0.00875
3364.26107,0.00874
3362.20089,0.00874
3360.14072,0.00874
3358.08055,0.00878
3356.02038,0.00890
3353.96021,0.00903
3351.90003,0.00909
3349.83986,0.00906
3347.77969,0.00900
3345.71952,0.00900
3343.65935,0.00909
3341.59917,0.00922
3339.53900,0.00933
3337.47883,0.00940
3335.41866,0.00942
3333.35849,0.00939
3331.29831,0.00933
3329.23814,0.00926
3327.17797,0.00925
3325.11780,0.00930
3323.05762,0.00930
3320.99745,0.00919
3318.93728,0.00905
3316.87711,0.00900
3314.81694,0.00903
3312.75676,0.00909
3310.69659,0.00910
3308.63642,0.00907
3306.57625,0.00905
3304.51608,0.00906
3302.45590,0.00913
3300.39573,0.00924
3298.33556,0.00936
3296.27539,0.00941
3294.21521,0.00933
3292.15504,0.00920
3290.09487,0.00913
3288.03470,0.00918
3285.97453,0.00931
3283.91435,0.00941
3281.85418,0.00941
3279.79401,0.00932
3277.73384,0.00921
3275.67367,0.00914
3273.61349,0.00910
3271.55332,0.00908
3269.49315,0.00910
3267.43298,0.00921
3265.37281,0.00933
3263.31263,0.00936
3261.25246,0.00929
3259.19229,0.00919
3257.13212,0.00917
3255.07194,0.00927
3253.01177,0.00942
3250.95160,0.00952
3248.89143,0.00952
3246.83126,0.00949
3244.77108,0.00944
3242.71091,0.00940
3240.65074,0.00934
3238.59057,0.00923
3236.53040,0.00902
3234.47022,0.00874
3232.41005,0.00851
3230.34988,0.00842
3228.28971,0.00849
3226.22954,0.00864
3224.16936,0.00877
3222.10919,0.00886
3220.04902,0.00891
3217.98885,0.00891
3215.92867,0.00887
3213.86850,0.00880
3211.80833,0.00875
3209.74816,0.00876
3207.68799,0.00878
3205.62781,0.00876
3203.56764,0.00870
3201.50747,0.00865
3199.44730,0.00866
3197.38713,0.00870
3195.32695,0.00872
3193.26678,0.00866
3191.20661,0.00853
3189.14644,0.00839
3187.08626,0.00833
3185.02609,0.00842
3182.96592,0.00856
3180.90575,0.00861
3178.84558,0.00858
3176.78540,0.00854
3174.72523,0.00850
3172.66506,0.00845
3170.60489,0.00839
3168.54472,0.00836
3166.48454,0.00831
3164.42437,0.00819
3162.36420,0.00800
3160.30403,0.00780
3158.24386,0.00766
3156.18368,0.00760
3154.12351,0.00763
3152.06334,0.00768
3150.00317,0.00771
3147.94299,0.00772
3145.88282,0.00771
3143.82265,0.00766
3141.76248,0.00753
3139.70231,0.00734
3137.64213,0.00718
3135.58196,0.00710
3133.52179,0.00707
3131.46162,0.00709
3129.40145,0.00720
3127.34127,0.00735
3125.28110,0.00745
3123.22093,0.00743
3121.16076,0.00728
3119.10058,0.00709
3117.04041,0.00695
3114.98024,0.00690
3112.92007,0.00688
3110.85990,0.00677
3108.79972,0.00655
3106.73955,0.00629
3104.67938,0.00609
3102.61921,0.00599
3100.55904,0.00598
3098.49886,0.00604
3096.43869,0.00617
3094.37852,0.00632
3092.31835,0.00645
3090.25818,0.00651
3088.19800,0.00645
3086.13783,0.00631
3084.07766,0.00615
3082.01749,0.00604
3079.95731,0.00601
3077.89714,0.00601
3075.83697,0.00599
3073.77680,0.00596
3071.71663,0.00596
3069.65645,0.00601
3067.59628,0.00608
3065.53611,0.00613
3063.47594,0.00617
3061.41577,0.00619
3059.35559,0.00618
3057.29542,0.00614
3055.23525,0.00608
3053.17508,0.00600
3051.11491,0.00591
3049.05473,0.00584
3046.99456,0.00575
3044.93439,0.00566
3042.87422,0.00556
3040.81404,0.00550
3038.75387,0.00547
3036.69370,0.00549
3034.63353,0.00555
3032.57336,0.00564
3030.51318,0.00569
3028.45301,0.00565
3026.39284,0.00550
3024.33267,0.00530
3022.27250,0.00514
3020.21232,0.00508
3018.15215,0.00510
3016.09198,0.00515
3014.03181,0.00516
3011.97163,0.00510
3009.91146,0.00502
3007.85129,0.00493
3005.79112,0.00483
3003.73095,0.00476
3001.67077,0.00475
2999.61060,0.00483
2997.55043,0.00498
2995.49026,0.00516
2993.43009,0.00521
2991.36991,0.00506
2989.30974,0.00490
2987.24957,0.00493
2985.18940,0.00515
2983.12923,0.00536
2981.06905,0.00538
2979.00888,0.00526
2976.94871,0.00507
2974.88854,0.00488
2972.82836,0.00486
2970.76819,0.00509
2968.70802,0.00531
2966.64785,0.00533
2964.58768,0.00519
2962.52750,0.00504
2960.46733,0.00498
2958.40716,0.00512
2956.34699,0.00546
2954.28682,0.00579
2952.22664,0.00595
2950.16647,0.00602
2948.10630,0.00605
2946.04613,0.00596
2943.98596,0.00585
2941.92578,0.00586
2939.86561,0.00597
2937.80544,0.00609
2935.74527,0.00619
2933.68509,0.00627
2931.62492,0.00628
2929.56475,0.00618
2927.50458,0.00608
2925.44441,0.00611
2923.38423,0.00619
2921.32406,0.00623
2919.26389,0.00630
2917.20372,0.00630
2915.14355,0.00612
2913.08337,0.00589
2911.02320,0.00583
2908.96303,0.00595
2906.90286,0.00610
2904.84268,0.00614
2902.78251,0.00599
2900.72234,0.00579
2898.66217,0.00578
2896.60200,0.00596
2894.54182,0.00607
2892.48165,0.00602
2890.42148,0.00595
2888.36131,0.00598
2886.30114,0.00605
2884.24096,0.00603
2882.18079,0.00586
2880.12062,0.00562
2878.06045,0.00549
2876.00028,0.00555
2873.94010,0.00566
2871.87993,0.00566
2869.81976,0.00555
2867.75959,0.00536
2865.69941,0.00522
2863.63924,0.00516
2861.57907,0.00515
2859.51890,0.00515
2857.45873,0.00510
2855.39855,0.00503
2853.33838,0.00502
2851.27821,0.00507
2849.21804,0.00508
2847.15787,0.00506
2845.09769,0.00506
2843.03752,0.00508
2840.97735,0.00504
2838.91718,0.00496
2836.85700,0.00491
2834.79683,0.00486
2832.73666,0.00478
2830.67649,0.00472
2828.61632,0.00472
2826.55614,0.00479
2824.49597,0.00486
2822.43580,0.00480
2820.37563,0.00466
2818.31546,0.00462
2816.25528,0.00466
2814.19511,0.00468
2812.13494,0.00469
2810.07477,0.00470
2808.01460,0.00460
2805.95442,0.00444
2803.89425,0.00436
2801.83408,0.00443
2799.77391,0.00462
2797.71373,0.00477
2795.65356,0.00473
2793.59339,0.00454
2791.53322,0.00434
2789.47305,0.00425
2787.41287,0.00429
2785.35270,0.00432
2783.29253,0.00428
2781.23236,0.00430
2779.17219,0.00439
2777.11201,0.00449
2775.05184,0.00455
2772.99167,0.00455
2770.93150,0.00459
2768.87133,0.00469
2766.81115,0.00473
2764.75098,0.00461
2762.69081,0.00441
2760.63064,0.00430
2758.57046,0.00430
2756.51029,0.00431
2754.45012,0.00424
2752.38995,0.00417
2750.32978,0.00424
2748.26960,0.00441
2746.20943,0.00450
2744.14926,0.00447
2742.08909,0.00433
2740.02892,0.00412
2737.96874,0.00399
2735.90857,0.00403
2733.84840,0.00419
2731.78823,0.00435
2729.72805,0.00447
2727.66788,0.00456
2725.60771,0.00456
2723.54754,0.00448
2721.48737,0.00444
2719.42719,0.00444
2717.36702,0.00441
2715.30685,0.00434
2713.24668,0.00431
2711.18651,0.00428
2709.12633,0.00424
2707.06616,0.00427
2705.00599,0.00431
2702.94582,0.00432
2700.88565,0.00437
2698.82547,0.00445
2696.76530,0.00451
2694.70513,0.00451
2692.64496,0.00448
2690.58478,0.00445
2688.52461,0.00444
2686.46444,0.00440
2684.40427,0.00427
2682.34410,0.00408
2680.28392,0.00394
2678.22375,0.00389
2676.16358,0.00391
2674.10341,0.00400
2672.04324,0.00420
2669.98306,0.00444
2667.92289,0.00462
2665.86272,0.00465
2663.80255,0.00450
2661.74238,0.00434
2659.68220,0.00432
2657.62203,0.00430
2655.56186,0.00416
2653.50169,0.00400
2651.44151,0.00393
2649.38134,0.00398
2647.32117,0.00417
2645.26100,0.00439
2643.20083,0.00451
2641.14065,0.00445
2639.08048,0.00437
2637.02031,0.00431
2634.96014,0.00428
2632.89997,0.00433
2630.83979,0.00439
2628.77962,0.00431
2626.71945,0.00417
2624.65928,0.00409
2622.59910,0.00412
2620.53893,0.00426
2618.47876,0.00439
2616.41859,0.00435
2614.35842,0.00416
2612.29824,0.00401
2610.23807,0.00404
2608.17790,0.00424
2606.11773,0.00442
2604.05756,0.00434
2601.99738,0.00403
2599.93721,0.00376
2597.87704,0.00383
2595.81687,0.00406
2593.75670,0.00413
2591.69652,0.00403
2589.63635,0.00397
2587.57618,0.00393
2585.51601,0.00385
2583.45583,0.00375
2581.39566,0.00371
2579.33549,0.00381
2577.27532,0.00403
2575.21515,0.00423
2573.15497,0.00430
2571.09480,0.00418
2569.03463,0.00398
2566.97446,0.00384
2564.91429,0.00377
2562.85411,0.00371
2560.79394,0.00380
2558.73377,0.00409
2556.67360,0.00431
2554.61342,0.00428
2552.55325,0.00407
2550.49308,0.00379
2548.43291,0.00355
2546.37274,0.00343
2544.31256,0.00336
2542.25239,0.00340
2540.19222,0.00371
2538.13205,0.00403
2536.07188,0.00392
2534.01170,0.00352
2531.95153,0.00329
2529.89136,0.00339
2527.83119,0.00361
2525.77102,0.00369
2523.71084,0.00351
2521.65067,0.00324
2519.59050,0.00316
2517.53033,0.00336
2515.47015,0.00369
2513.40998,0.00391
2511.34981,0.00384
2509.28964,0.00359
2507.22947,0.00335
2505.16929,0.00342
2503.10912,0.00382
2501.04895,0.00413
2498.98878,0.00404
2496.92861,0.00378
2494.86843,0.00374
2492.80826,0.00393
2490.74809,0.00406
2488.68792,0.00404
2486.62775,0.00402
2484.56757,0.00410
2482.50740,0.00421
2480.44723,0.00424
2478.38706,0.00415
2476.32688,0.00401
2474.26671,0.00384
2472.20654,0.00368
2470.14637,0.00352
2468.08620,0.00331
2466.02602,0.00320
2463.96585,0.00337
2461.90568,0.00374
2459.84551,0.00402
2457.78534,0.00401
2455.72516,0.00381
2453.66499,0.00369
2451.60482,0.00366
2449.54465,0.00364
2447.48447,0.00372
2445.42430,0.00382
2443.36413,0.00373
2441.30396,0.00363
2439.24379,0.00380
2437.18361,0.00402
2435.12344,0.00401
2433.06327,0.00384
2431.00310,0.00378
2428.94293,0.00386
2426.88275,0.00385
2424.82258,0.00372
2422.76241,0.00368
2420.70224,0.00371
2418.64207,0.00363
2416.58189,0.00354
2414.52172,0.00364
2412.46155,0.00385
2410.40138,0.00384
2408.34120,0.00352
2406.28103,0.00322
2404.22086,0.00328
2402.16069,0.00350
2400.10052,0.00351
2398.04034,0.00334
2395.98017,0.00321
2393.92000,0.00323
2391.85983,0.00337
2389.79966,0.00354
2387.73948,0.00364
2385.67931,0.00365
2383.61914,0.00360
2381.55897,0.00350
2379.49880,0.00337
2377.43862,0.00322
2375.37845,0.00313
2373.31828,0.00324
2371.25811,0.00360
2369.19793,0.00402
2367.13776,0.00421
2365.07759,0.00410
2363.01742,0.00409
2360.95725,0.00458
2358.89707,0.00518
2356.83690,0.00513
2354.77673,0.00445
2352.71656,0.00380
2350.65639,0.00354
2348.59621,0.00348
2346.53604,0.00335
2344.47587,0.00310
2342.41570,0.00284
2340.35552,0.00258
2338.29535,0.00227
2336.23518,0.00203
2334.17501,0.00203
2332.11484,0.00236
2330.05466,0.00292
2327.99449,0.00357
2325.93432,0.00404
2323.87415,0.00405
2321.81398,0.00368
2319.75380,0.00331
2317.69363,0.00320
2315.63346,0.00326
2313.57329,0.00333
2311.51312,0.00336
2309.45294,0.00340
2307.39277,0.00352
2305.33260,0.00375
2303.27243,0.00403
2301.21225,0.00426
2299.15208,0.00434
2297.09191,0.00434
2295.03174,0.00441
2292.97157,0.00465
2290.91139,0.00488
2288.85122,0.00489
2286.79105,0.00465
2284.73088,0.00437
2282.67071,0.00425
2280.61053,0.00431
2278.55036,0.00440
2276.49019,0.00440
2274.43002,0.00429
2272.36984,0.00412
2270.30967,0.00384
2268.24950,0.00342
2266.18933,0.00298
2264.12916,0.00274
2262.06898,0.00279
2260.00881,0.00308
2257.94864,0.00356
2255.88847,0.00417
2253.82830,0.00468
2251.76812,0.00478
2249.70795,0.00435
2247.64778,0.00368
2245.58761,0.00342
2243.52744,0.00340
2241.46726,0.00324
2239.40709,0.00318
2237.34692,0.00353
2235.28675,0.00408
2233.22657,0.00429
2231.16640,0.00391
2229.10623,0.00338
2227.04606,0.00332
2224.98589,0.00387
2222.92571,0.00454
2220.86554,0.00472
2218.80537,0.00438
2216.74520,0.00404
2214.68503,0.00400
2212.62485,0.00407
2210.56468,0.00397
2208.50451,0.00349
2206.44434,0.00278
2204.38417,0.00241
2202.32399,0.00277
2200.26382,0.00342
2198.20365,0.00367
2196.14348,0.00384
2194.08330,0.00467
2192.02313,0.00589
2189.96296,0.00662
2187.90279,0.00658
2185.84262,0.00601
2183.78244,0.00543
2181.72227,0.00515
2179.66210,0.00481
2177.60193,0.00410
2175.54176,0.00368
2173.48158,0.00427
2171.42141,0.00497
2169.36124,0.00405
2167.30107,0.00162
2165.24089,0.00000
2163.18072,0.00087
2161.12055,0.00307
2159.06038,0.00446
2157.00021,0.00432
2154.94003,0.00318
2152.87986,0.00213
2150.81969,0.00189
2148.75952,0.00249
2146.69935,0.00341
2144.63917,0.00384
2142.57900,0.00349
2140.51883,0.00287
2138.45866,0.00247
2136.39849,0.00239
2134.33831,0.00265
2132.27814,0.00297
2130.21797,0.00307
2128.15780,0.00286
2126.09762,0.00254
2124.03745,0.00265
2121.97728,0.00319
2119.91711,0.00359
2117.85694,0.00376
2115.79676,0.00388
2113.73659,0.00360
2111.67642,0.00279
2109.61625,0.00212
2107.55608,0.00220
2105.49590,0.00276
2103.43573,0.00309
2101.37556,0.00287
2099.31539,0.00256
2097.25521,0.00249
2095.19504,0.00275
2093.13487,0.00319
2091.07470,0.00356
2089.01453,0.00359
2086.95435,0.00326
2084.89418,0.00287
2082.83401,0.00277
2080.77384,0.00307
2078.71367,0.00361
2076.65349,0.00408
2074.59332,0.00423
2072.53315,0.00387
2070.47298,0.00309
2068.41281,0.00228
2066.35263,0.00192
2064.29246,0.00223
2062.23229,0.00301
2060.17212,0.00385
2058.11194,0.00436
2056.05177,0.00432
2053.99160,0.00386
2051.93143,0.00338
2049.87126,0.00303
2047.81108,0.00274
2045.75091,0.00244
2043.69074,0.00233
2041.63057,0.00265
2039.57040,0.00325
2037.51022,0.00370
2035.45005,0.00374
2033.38988,0.00340
2031.32971,0.00277
2029.26954,0.00199
2027.20936,0.00148
2025.14919,0.00164
2023.08902,0.00231
2021.02885,0.00280
2018.96867,0.00273
2016.90850,0.00243
2014.84833,0.00232
2012.78816,0.00242
2010.72799,0.00245
2008.66781,0.00231
2006.60764,0.00213
2004.54747,0.00200
2002.48730,0.00196
2000.42713,0.00206
1998.36695,0.00234
1996.30678,0.00283
1994.24661,0.00339
1992.18644,0.00378
1990.12626,0.00392
1988.06609,0.00371
1986.00592,0.00309
1983.94575,0.00233
1981.88558,0.00181
1979.82540,0.00160
1977.76523,0.00164
1975.70506,0.00189
1973.64489,0.00226
1971.58472,0.00264
1969.52454,0.00295
1967.46437,0.00308
1965.40420,0.00297
1963.34403,0.00275
1961.28386,0.00272
1959.22368,0.00310
1957.16351,0.00373
1955.10334,0.00414
1953.04317,0.00398
1950.98299,0.00330
1948.92282,0.00242
1946.86265,0.00163
1944.80248,0.00108
1942.74231,0.00087
1940.68213,0.00104
1938.62196,0.00155
1936.56179,0.00222
1934.50162,0.00275
1932.44145,0.00304
1930.38127,0.00314
1928.32110,0.00305
1926.26093,0.00275
1924.20076,0.00235
1922.14059,0.00206
1920.08041,0.00202
1918.02024,0.00218
1915.96007,0.00242
1913.89990,0.00258
1911.83972,0.00264
1909.77955,0.00268
1907.71938,0.00269
1905.65921,0.00257
1903.59904,0.00229
1901.53886,0.00199
1899.47869,0.00181
1897.41852,0.00187
1895.35835,0.00213
1893.29818,0.00244
1891.23800,0.00267
1889.17783,0.00281
1887.11766,0.00295
1885.05749,0.00302
1882.99731,0.00292
1880.93714,0.00259
1878.87697,0.00214
1876.81680,0.00178
1874.75663,0.00164
1872.69645,0.00170
1870.63628,0.00187
1868.57611,0.00214
1866.51594,0.00245
1864.45577,0.00261
1862.39559,0.00256
1860.33542,0.00239
1858.27525,0.00228
1856.21508,0.00226
1854.15491,0.00226
1852.09473,0.00222
1850.03456,0.00217
1847.97439,0.00212
1845.91422,0.00209
1843.85404,0.00209
1841.79387,0.00207
1839.73370,0.00196
1837.67353,0.00179
1835.61336,0.00166
1833.55318,0.00167
1831.49301,0.00178
1829.43284,0.00194
1827.37267,0.00207
1825.31250,0.00210
1823.25232,0.00206
1821.19215,0.00200
1819.13198,0.00194
1817.07181,0.00187
1815.01163,0.00181
1812.95146,0.00177
1810.89129,0.00182
1808.83112,0.00197
1806.77095,0.00212
1804.71077,0.00212
1802.65060,0.00199
1800.59043,0.00188
1798.53026,0.00186
1796.47009,0.00192
1794.40991,0.00198
1792.34974,0.00205
1790.28957,0.00211
1788.22940,0.00216
1786.16923,0.00215
1784.10905,0.00207
1782.04888,0.00194
1779.98871,0.00184
1777.92854,0.00178
1775.86836,0.00169
1773.80819,0.00157
1771.74802,0.00153
1769.68785,0.00164
1767.62768,0.00182
1765.56750,0.00197
1763.50733,0.00209
1761.44716,0.00223
1759.38699,0.00238
1757.32682,0.00244
1755.26664,0.00233
1753.20647,0.00208
1751.14630,0.00180
1749.08613,0.00168
1747.02596,0.00176
1744.96578,0.00195
1742.90561,0.00216
1740.84544,0.00239
1738.78527,0.00262
1736.72509,0.00279
1734.66492,0.00291
1732.60475,0.00301
1730.54458,0.00313
1728.48441,0.00328
1726.42423,0.00338
1724.36406,0.00337
1722.30389,0.00318
1720.24372,0.00284
1718.18355,0.00249
1716.12337,0.00232
1714.06320,0.00234
1712.00303,0.00239
1709.94286,0.00229
1707.88268,0.00198
1705.82251,0.00158
1703.76234,0.00125
1701.70217,0.00109
1699.64200,0.00111
1697.58182,0.00136
1695.52165,0.00177
1693.46148,0.00221
1691.40131,0.00245
1689.34114,0.00242
1687.28096,0.00219
1685.22079,0.00196
1683.16062,0.00193
1681.10045,0.00213
1679.04028,0.00241
1676.98010,0.00260
1674.91993,0.00269
1672.85976,0.00274
1670.79959,0.00278
1668.73941,0.00292
1666.67924,0.00318
1664.61907,0.00345
1662.55890,0.00370
1660.49873,0.00394
1658.43855,0.00406
1656.37838,0.00396
1654.31821,0.00371
1652.25804,0.00352
1650.19787,0.00351
1648.13769,0.00366
1646.07752,0.00397
1644.01735,0.00431
1641.95718,0.00448
1639.89701,0.00436
1637.83683,0.00409
1635.77666,0.00393
1633.71649,0.00406
1631.65632,0.00435
1629.59614,0.00461
1627.53597,0.00477
1625.47580,0.00488
1623.41563,0.00498
1621.35546,0.00509
1619.29528,0.00515
1617.23511,0.00514
1615.17494,0.00512
1613.11477,0.00508
1611.05460,0.00501
1608.99442,0.00493
1606.93425,0.00486
1604.87408,0.00475
1602.81391,0.00460
1600.75373,0.00445
1598.69356,0.00430
1596.63339,0.00411
1594.57322,0.00388
1592.51305,0.00367
1590.45287,0.00352
1588.39270,0.00343
1586.33253,0.00338
1584.27236,0.00337
1582.21219,0.00334
1580.15201,0.00320
1578.09184,0.00298
1576.03167,0.00275
1573.97150,0.00259
1571.91133,0.00244
1569.85115,0.00229
1567.79098,0.00218
1565.73081,0.00202
1563.67064,0.00169
1561.61046,0.00118
1559.55029,0.00071
1557.49012,0.00061
1555.42995,0.00087
1553.36978,0.00127
1551.30960,0.00156
1549.24943,0.00158
1547.18926,0.00124
1545.12909,0.00065
1543.06892,0.00011
1541.00874,0.00000
1538.94857,0.00040
1536.88840,0.00100
1534.82823,0.00142
1532.76805,0.00161
1530.70788,0.00164
1528.64771,0.00149
1526.58754,0.00117
1524.52737,0.00077
1522.46719,0.00046
1520.40702,0.00035
1518.34685,0.00045
1516.28668,0.00067
1514.22651,0.00092
1512.16633,0.00102
1510.10616,0.00089
1508.04599,0.00067
1505.98582,0.00068
1503.92565,0.00092
1501.86547,0.00110
1499.80530,0.00111
1497.74513,0.00109
1495.68496,0.00115
1493.62478,0.00119
1491.56461,0.00111
1489.50444,0.00101
1487.44427,0.00110
1485.38410,0.00140
1483.32392,0.00175
1481.26375,0.00199
1479.20358,0.00204
1477.14341,0.00192
1475.08324,0.00178
1473.02306,0.00183
1470.96289,0.00210
1468.90272,0.00241
1466.84255,0.00256
1464.78238,0.00254
1462.72220,0.00244
1460.66203,0.00227
1458.60186,0.00214
1456.54169,0.00219
1454.48151,0.00242
1452.42134,0.00268
1450.36117,0.00286
1448.30100,0.00301
1446.24083,0.00318
1444.18065,0.00337
1442.12048,0.00348
1440.06031,0.00349
1438.00014,0.00342
1435.93997,0.00338
1433.87979,0.00343
1431.81962,0.00356
1429.75945,0.00371
1427.69928,0.00385
1425.63910,0.00397
1423.57893,0.00406
1421.51876,0.00412
1419.45859,0.00414
1417.39842,0.00416
1415.33824,0.00416
1413.27807,0.00415
1411.21790,0.00410
1409.15773,0.00402
1407.09756,0.00390
1405.03738,0.00378
1402.97721,0.00364
1400.91704,0.00346
1398.85687,0.00329
1396.79670,0.00320
1394.73652,0.00322
1392.67635,0.00327
1390.61618,0.00329
1388.55601,0.00329
1386.49583,0.00334
1384.43566,0.00342
1382.37549,0.00347
1380.31532,0.00347
1378.25515,0.00345
1376.19497,0.00345
1374.13480,0.00350
1372.07463,0.00358
1370.01446,0.00364
1367.95429,0.00363
1365.89411,0.00349
1363.83394,0.00330
1361.77377,0.00319
1359.71360,0.00325
1357.65343,0.00342
1355.59325,0.00361
1353.53308,0.00370
1351.47291,0.00367
1349.41274,0.00355
1347.35256,0.00341
1345.29239,0.00326
1343.23222,0.00310
1341.17205,0.00295
1339.11188,0.00289
1337.05170,0.00297
1334.99153,0.00312
1332.93136,0.00323
1330.87119,0.00327
1328.81102,0.00325
1326.75084,0.00321
1324.69067,0.00317
1322.63050,0.00313
1320.57033,0.00308
1318.51015,0.00303
1316.44998,0.00300
1314.38981,0.00300
1312.32964,0.00299
1310.26947,0.00299
1308.20929,0.00299
1306.14912,0.00297
1304.08895,0.00288
1302.02878,0.00274
1299.96861,0.00262
1297.90843,0.00256
1295.84826,0.00257
1293.78809,0.00259
1291.72792,0.00259
1289.66775,0.00257
1287.60757,0.00255
1285.54740,0.00255
1283.48723,0.00257
1281.42706,0.00259
1279.36688,0.00257
1277.30671,0.00250
1275.24654,0.00242
1273.18637,0.00238
1271.12620,0.00240
1269.06602,0.00246
1267.00585,0.00257
1264.94568,0.00269
1262.88551,0.00280
1260.82534,0.00291
1258.76516,0.00302
1256.70499,0.00314
1254.64482,0.00326
1252.58465,0.00333
1250.52447,0.00330
1248.46430,0.00319
1246.40413,0.00307
1244.34396,0.00296
1242.28379,0.00288
1240.22361,0.00280
1238.16344,0.00273
1236.10327,0.00271
1234.04310,0.00276
1231.98293,0.00284
1229.92275,0.00285
1227.86258,0.00273
1225.80241,0.00252
1223.74224,0.00228
1221.68207,0.00208
1219.62189,0.00192
1217.56172,0.00181
1215.50155,0.00171
1213.44138,0.00155
1211.38120,0.00131
1209.32103,0.00105
1207.26086,0.00085
1205.20069,0.00075
1203.14052,0.00071
1201.08034,0.00068
1199.02017,0.00059
1196.96000,0.00040
1194.89983,0.00022
1192.83966,0.00009
1190.77948,0.00000
1188.71931,-0.00001
1186.65914,0.00005
1184.59897,0.00012
1182.53880,0.00022
1180.47862,0.00033
1178.41845,0.00040
1176.35828,0.00041
1174.29811,0.00044
1172.23793,0.00062
1170.17776,0.00094
1168.11759,0.00128
1166.05742,0.00149
1163.99725,0.00158
1161.93707,0.00167
1159.87690,0.00186
1157.81673,0.00210
1155.75656,0.00230
1153.69639,0.00240
1151.63621,0.00251
1149.57604,0.00274
1147.51587,0.00301
1145.45570,0.00319
1143.39552,0.00329
1141.33535,0.00338
1139.27518,0.00349
1137.21501,0.00359
1135.15484,0.00366
1133.09466,0.00372
1131.03449,0.00381
1128.97432,0.00391
1126.91415,0.00406
1124.85398,0.00431
1122.79380,0.00455
1120.73363,0.00473
1118.67346,0.00495
1116.61329,0.00521
1114.55312,0.00543
1112.49294,0.00560
1110.43277,0.00575
1108.37260,0.00588
1106.31243,0.00592
1104.25225,0.00600
1102.19208,0.00627
1100.13191,0.00670
1098.07174,0.00718
1096.01157,0.00760
1093.95139,0.00789
1091.89122,0.00808
1089.83105,0.00824
1087.77088,0.00840
1085.71071,0.00856
1083.65053,0.00877
1081.59036,0.00908
1079.53019,0.00946
1077.47002,0.00978
1075.40985,0.01002
1073.34967,0.01019
1071.28950,0.01025
1069.22933,0.01020
1067.16916,0.01021
1065.10898,0.01036
1063.04881,0.01052
1060.98864,0.01058
1058.92847,0.01064
1056.86830,0.01072
1054.80812,0.01086
1052.74795,0.01113
1050.68778,0.01148
1048.62761,0.01177
1046.56744,0.01195
1044.50726,0.01213
1042.44709,0.01231
1040.38692,0.01233
1038.32675,0.01215
1036.26657,0.01199
1034.20640,0.01205
1032.14623,0.01224
1030.08606,0.01224
1028.02589,0.01208
1025.96571,0.01203
1023.90554,0.01209
1021.84537,0.01217
1019.78520,0.01234
1017.72503,0.01260
1015.66485,0.01276
1013.60468,0.01266
1011.54451,0.01246
1009.48434,0.01234
1007.42417,0.01226
1005.36399,0.01206
1003.30382,0.01176
1001.24365,0.01145
999.18348,0.01116
997.12330,0.01091
995.06313,0.01081
993.00296,0.01078
990.94279,0.01073
988.88262,0.01061
986.82244,0.01042
984.76227,0.01016
982.70210,0.00989
980.64193,0.00975
978.58176,0.00970
976.52158,0.00955
974.46141,0.00933
972.40124,0.00916
970.34107,0.00907
968.28089,0.00904
966.22072,0.00900
964.16055,0.00884
962.10038,0.00858
960.04021,0.00833
957.98003,0.00813
955.91986,0.00790
953.85969,0.00766
951.79952,0.00740
949.73935,0.00710
947.67917,0.00675
945.61900,0.00644
943.55883,0.00626
941.49866,0.00612
939.43849,0.00587
937.37831,0.00545
935.31814,0.00490
933.25797,0.00426
931.19780,0.00355
929.13762,0.00300
927.07745,0.00279
925.01728,0.00275
922.95711,0.00265
920.89694,0.00245
918.83676,0.00226
916.77659,0.00211
914.71642,0.00196
912.65625,0.00180
910.59608,0.00177
908.53590,0.00186
906.47573,0.00186
904.41556,0.00177
902.35539,0.00189
900.29522,0.00220
898.23504,0.00227
896.17487,0.00197
894.11470,0.00163
892.05453,0.00160
889.99435,0.00178
887.93418,0.00191
885.87401,0.00188
883.81384,0.00170
881.75367,0.00153
879.69349,0.00150
877.63332,0.00151
875.57315,0.00140
873.51298,0.00119
871.45281,0.00097
869.39263,0.00075
867.33246,0.00065
865.27229,0.00089
863.21212,0.00132
861.15194,0.00152
859.09177,0.00150
857.03160,0.00143
854.97143,0.00122
852.91126,0.00085
850.85108,0.00064
848.79091,0.00072
846.73074,0.00091
844.67057,0.00105
842.61040,0.00103
840.55022,0.00092
838.49005,0.00097
836.42988,0.00108
834.36971,0.00102
832.30954,0.00093
830.24936,0.00099
828.18919,0.00115
826.12902,0.00115
824.06885,0.00094
822.00867,0.00062
819.94850,0.00032
817.88833,0.00009
815.82816,0.00000
813.76799,0.00020
811.70781,0.00064
809.64764,0.00096
807.58747,0.00104
805.52730,0.00090
803.46713,0.00051
801.40695,0.00018
799.34678,0.00043
797.28661,0.00101
795.22644,0.00122
793.16627,0.00088
791.10609,0.00035
789.04592,-0.00004
786.98575,-0.00013
784.92558,0.00000
782.86540,0.00017
780.80523,0.00028
778.74506,0.00042
776.68489,0.00046
774.62472,0.00016
772.56454,-0.00019
770.50437,-0.00006
768.44420,0.00030
766.38403,0.00034
764.32386,0.00016
762.26368,0.00016
760.20351,0.00028
758.14334,0.00039
756.08317,0.00059
754.02299,0.00075
751.96282,0.00065
749.90265,0.00044
747.84248,0.00031
745.78231,0.00029
743.72213,0.00041
741.66196,0.00053
739.60179,0.00038
737.54162,0.00005
735.48145,-0.00005
733.42127,0.00007
731.36110,0.00008
729.30093,-0.00004
727.24076,-0.00008
725.18059,0.00009
723.12041,0.00035
721.06024,0.00053
719.00007,0.00052
716.93990,0.00036
714.87972,0.00029
712.81955,0.00056
710.75938,0.00115
708.69921,0.00179
706.63904,0.00224
704.57886,0.00244
702.51869,0.00245
700.45852,0.00241
698.39835,0.00243
696.33818,0.00249
694.27800,0.00245
692.21783,0.00229
690.15766,0.00214
688.09749,0.00221
686.03731,0.00248
683.97714,0.00274
681.91697,0.00278
679.85680,0.00264
677.79663,0.00253
675.73645,0.00260
673.67628,0.00292
671.61611,0.00343
669.55594,0.00374
667.49577,0.00342
665.43559,0.00269
663.37542,0.00212
661.31525,0.00183
659.25508,0.00153
657.19491,0.00118
655.13473,0.00097
653.07456,0.00117
651.01439,0.00186
648.95422,0.00290
646.89404,0.00408
644.83387,0.00516
642.77370,0.00587
640.71353,0.00607
638.65336,0.00588
636.59318,0.00560
634.53301,0.00530
632.47284,0.00490
630.41267,0.00460
628.35250,0.00479
626.29232,0.00543
624.23215,0.00551
622.17198,0.00464
620.11181,0.00361
618.05164,0.00353
615.99146,0.00418
613.93129,0.00388
611.87112,0.00198
609.81095,0.00017
607.75077,0.00000
605.69060,0.00032
603.63043,0.00055
601.57026,0.00029
599.51009,0.00000
