3996.73391,0.00000
3994.67373,0.00028
3992.61356,0.00054
3990.55339,0.00070
3988.49322,0.00070
3986.43305,0.00061
3984.37287,0.00052
3982.31270,0.00045
3980.25253,0.00044
3978.19236,0.00051
3976.13219,0.00063
3974.07201,0.00074
3972.01184,0.00080
3969.95167,0.00077
3967.89150,0.00074
3965.83133,0.00078
3963.77115,0.00090
3961.71098,0.00103
3959.65081,0.00105
3957.59064,0.00091
3955.53046,0.00064
3953.47029,0.00040
3951.41012,0.00030
3949.34995,0.00039
3947.28978,0.00065
3945.22960,0.00101
3943.16943,0.00135
3941.10926,0.00159
3939.04909,0.00171
3936.98892,0.00172
3934.92874,0.00165
3932.86857,0.00152
3930.80840,0.00136
3928.74823,0.00119
3926.68805,0.00104
3924.62788,0.00098
3922.56771,0.00100
3920.50754,0.00111
3918.44737,0.00121
3916.38719,0.00120
3914.32702,0.00105
3912.26685,0.00084
3910.20668,0.00067
3908.14651,0.00065
3906.08633,0.00090
3904.02616,0.00138
3901.96599,0.00187
3899.90582,0.00207
3897.84565,0.00188
3895.78547,0.00146
3893.72530,0.00104
3891.66513,0.00074
3889.60496,0.00058
3887.54478,0.00055
3885.48461,0.00060
3883.42444,0.00069
3881.36427,0.00078
3879.30410,0.00076
3877.24392,0.00057
3875.18375,0.00041
3873.12358,0.00054
3871.06341,0.00102
3869.00324,0.00163
3866.94306,0.00208
3864.88289,0.00214
3862.82272,0.00180
3860.76255,0.00137
3858.70237,0.00113
3856.64220,0.00109
3854.58203,0.00116
3852.52186,0.00126
3850.46169,0.00124
3848.40151,0.00105
3846.34134,0.00073
3844.28117,0.00041
3842.22100,0.00023
3840.16083,0.00029
3838.10065,0.00057
3836.04048,0.00088
3833.98031,0.00098
3831.92014,0.00076
3829.85997,0.00037
3827.79979,0.00006
3825.73962,0.00000
3823.67945,0.00013
3821.61928,0.00032
3819.55910,0.00040
3817.49893,0.00037
3815.43876,0.00041
3813.37859,0.00062
3811.31842,0.00089
3809.25824,0.00107
3807.19807,0.00110
3805.13790,0.00106
3803.07773,0.00101
3801.01756,0.00095
3798.95738,0.00093
3796.89721,0.00091
3794.83704,0.00087
3792.77687,0.00087
3790.71670,0.00093
3788.65652,0.00099
3786.59635,0.00099
3784.53618,0.00090
3782.47601,0.00078
3780.41583,0.00071
3778.35566,0.00076
3776.29549,0.00090
3774.23532,0.00102
3772.17515,0.00102
3770.11497,0.00091
3768.05480,0.00080
3765.99463,0.00077
3763.93446,0.00079
3761.87429,0.00083
3759.81411,0.00091
3757.75394,0.00108
3755.69377,0.00128
3753.63360,0.00132
3751.57342,0.00115
3749.51325,0.00090
3747.45308,0.00085
3745.39291,0.00105
3743.33274,0.00133
3741.27256,0.00151
3739.21239,0.00161
3737.15222,0.00179
3735.09205,0.00201
3733.03188,0.00203
3730.97170,0.00182
3728.91153,0.00161
3726.85136,0.00159
3724.79119,0.00169
3722.73102,0.00172
3720.67084,0.00162
3718.61067,0.00147
3716.55050,0.00142
3714.49033,0.00158
3712.43015,0.00193
3710.36998,0.00227
3708.30981,0.00240
3706.24964,0.00230
3704.18947,0.00210
3702.12929,0.00192
3700.06912,0.00183
3698.00895,0.00183
3695.94878,0.00195
3693.88861,0.00213
3691.82843,0.00223
3689.76826,0.00211
3687.70809,0.00176
3685.64792,0.00138
3683.58775,0.00116
3681.52757,0.00103
3679.46740,0.00087
3677.40723,0.00060
3675.34706,0.00035
3673.28688,0.00037
3671.22671,0.00082
3669.16654,0.00150
3667.10637,0.00201
3665.04620,0.00212
3662.98602,0.00193
3660.92585,0.00167
3658.86568,0.00150
3656.80551,0.00144
3654.74534,0.00147
3652.68516,0.00158
3650.62499,0.00183
3648.56482,0.00219
3646.50465,0.00252
3644.44447,0.00268
3642.38430,0.00270
3640.32413,0.00270
3638.26396,0.00278
3636.20379,0.00291
3634.14361,0.00305
3632.08344,0.00320
3630.02327,0.00340
3627.96310,0.00369
3625.90293,0.00396
3623.84275,0.00407
3621.78258,0.00407
3619.72241,0.00403
3617.66224,0.00402
3615.60207,0.00401
3613.54189,0.00400
3611.48172,0.00402
3609.42155,0.00407
3607.36138,0.00410
3605.30120,0.00413
3603.24103,0.00427
3601.18086,0.00466
3599.12069,0.00527
3597.06052,0.00587
3595.00034,0.00624
3592.94017,0.00635
3590.88000,0.00639
3588.81983,0.00649
3586.75966,0.00664
3584.69948,0.00672
3582.63931,0.00674
3580.57914,0.00679
3578.51897,0.00683
3576.45879,0.00681
3574.39862,0.00679
3572.33845,0.00682
3570.27828,0.00689
3568.21811,0.00703
3566.15793,0.00726
3564.09776,0.00757
3562.03759,0.00787
3559.97742,0.00805
3557.91725,0.00809
3555.85707,0.00812
3553.79690,0.00824
3551.73673,0.00847
3549.67656,0.00876
3547.61639,0.00905
3545.55621,0.00934
3543.49604,0.00962
3541.43587,0.00987
3539.37570,0.01003
3537.31552,0.01008
3535.25535,0.01010
3533.19518,0.01019
3531.13501,0.01035
3529.07484,0.01047
3527.01466,0.01053
3524.95449,0.01060
3522.89432,0.01076
3520.83415,0.01098
3518.77398,0.01120
3516.71380,0.01140
3514.65363,0.01161
3512.59346,0.01192
3510.53329,0.01234
3508.47312,0.01268
3506.41294,0.01280
3504.35277,0.01276
3502.29260,0.01276
3500.23243,0.01289
3498.17225,0.01307
3496.11208,0.01319
3494.05191,0.01325
3491.99174,0.01334
3489.93157,0.01349
3487.87139,0.01367
3485.81122,0.01382
3483.75105,0.01393
3481.69088,0.01398
3479.63071,0.01395
3477.57053,0.01390
3475.51036,0.01394
3473.45019,0.01412
3471.39002,0.01439
3469.32984,0.01471
3467.26967,0.01501
3465.20950,0.01526
3463.14933,0.01543
3461.08916,0.01555
3459.02898,0.01570
3456.96881,0.01588
3454.90864,0.01607
3452.84847,0.01616
3450.78830,0.01616
3448.72812,0.01618
3446.66795,0.01630
3444.60778,0.01649
3442.54761,0.01663
3440.48744,0.01669
3438.42726,0.01667
3436.36709,0.01663
3434.30692,0.01662
3432.24675,0.01662
3430.18657,0.01665
3428.12640,0.01672
3426.06623,0.01687
3424.00606,0.01709
3421.94589,0.01741
3419.88571,0.01780
3417.82554,0.01821
3415.76537,0.01852
3413.70520,0.01867
3411.64503,0.01869
3409.58485,0.01867
3407.52468,0.01866
3405.46451,0.01866
3403.40434,0.01862
3401.34416,0.01856
3399.28399,0.01855
3397.22382,0.01864
3395.16365,0.01875
3393.10348,0.01879
3391.04330,0.01875
3388.98313,0.01870
3386.92296,0.01874
3384.86279,0.01892
3382.80262,0.01918
3380.74244,0.01938
3378.68227,0.01943
3376.62210,0.01941
3374.56193,0.01952
3372.50176,0.01984
3370.44158,0.02023
3368.38141,0.02052
3366.32124,0.02063
3364.26107,0.02063
3362.20089,0.02061
3360.14072,0.02058
3358.08055,0.02057
3356.02038,0.02064
3353.96021,0.02084
3351.90003,0.02110
3349.83986,0.02131
3347.77969,0.02146
3345.71952,0.02160
3343.65935,0.02178
3341.59917,0.02193
3339.53900,0.02197
3337.47883,0.02189
3335.41866,0.02171
3333.35849,0.02152
3331.29831,0.02143
3329.23814,0.02147
3327.17797,0.02158
3325.11780,0.02169
3323.05762,0.02179
3320.99745,0.02185
3318.93728,0.02187
3316.87711,0.02184
3314.81694,0.02173
3312.75676,0.02162
3310.69659,0.02163
3308.63642,0.02179
3306.57625,0.02201
3304.51608,0.02217
3302.45590,0.02217
3300.39573,0.02207
3298.33556,0.02197
3296.27539,0.02193
3294.21521,0.02194
3292.15504,0.02195
3290.09487,0.02196
3288.03470,0.02203
3285.97453,0.02217
3283.91435,0.02227
3281.85418,0.02226
3279.79401,0.02217
3277.73384,0.02206
3275.67367,0.02198
3273.61349,0.02188
3271.55332,0.02175
3269.49315,0.02163
3267.43298,0.02165
3265.37281,0.02183
3263.31263,0.02206
3261.25246,0.02219
3259.19229,0.02216
3257.13212,0.02199
3255.07194,0.02177
3253.01177,0.02161
3250.95160,0.02160
3248.89143,0.02172
3246.83126,0.02190
3244.77108,0.02203
3242.71091,0.02203
3240.65074,0.02191
3238.59057,0.02170
3236.53040,0.02153
3234.47022,0.02146
3232.41005,0.02146
3230.34988,0.02147
3228.28971,0.02143
3226.22954,0.02133
3224.16936,0.02115
3222.10919,0.02095
3220.04902,0.02083
3217.98885,0.02078
3215.92867,0.02074
3213.86850,0.02063
3211.80833,0.02040
3209.74816,0.02011
3207.68799,0.01985
3205.62781,0.01969
3203.56764,0.01964
3201.50747,0.01962
3199.44730,0.01961
3197.38713,0.01959
3195.32695,0.01955
3193.26678,0.01946
3191.20661,0.01934
3189.14644,0.01921
3187.08626,0.01906
3185.02609,0.01888
3182.96592,0.01867
3180.90575,0.01854
3178.84558,0.01851
3176.78540,0.01850
3174.72523,0.01841
3172.66506,0.01826
3170.60489,0.01812
3168.54472,0.01795
3166.48454,0.01767
3164.42437,0.01733
3162.36420,0.01704
3160.30403,0.01687
3158.24386,0.01684
3156.18368,0.01689
3154.12351,0.01694
3152.06334,0.01694
3150.00317,0.01692
3147.94299,0.01691
3145.88282,0.01689
3143.82265,0.01675
3141.76248,0.01644
3139.70231,0.01604
3137.64213,0.01568
3135.58196,0.01546
3133.52179,0.01532
3131.46162,0.01521
3129.40145,0.01512
3127.34127,0.01504
3125.28110,0.01493
3123.22093,0.01475
3121.16076,0.01449
3119.10058,0.01423
3117.04041,0.01403
3114.98024,0.01394
3112.92007,0.01394
3110.85990,0.01400
3108.79972,0.01405
3106.73955,0.01407
3104.67938,0.01403
3102.61921,0.01393
3100.55904,0.01378
3098.49886,0.01361
3096.43869,0.01344
3094.37852,0.01327
3092.31835,0.01314
3090.25818,0.01303
3088.19800,0.01293
3086.13783,0.01278
3084.07766,0.01261
3082.01749,0.01243
3079.95731,0.01225
3077.89714,0.01203
3075.83697,0.01176
3073.77680,0.01148
3071.71663,0.01123
3069.65645,0.01105
3067.59628,0.01091
3065.53611,0.01080
3063.47594,0.01072
3061.41577,0.01064
3059.35559,0.01055
3057.29542,0.01046
3055.23525,0.01040
3053.17508,0.01032
3051.11491,0.01015
3049.05473,0.00990
3046.99456,0.00966
3044.93439,0.00949
3042.87422,0.00940
3040.81404,0.00938
3038.75387,0.00936
3036.69370,0.00928
3034.63353,0.00912
3032.57336,0.00891
3030.51318,0.00872
3028.45301,0.00862
3026.39284,0.00864
3024.33267,0.00874
3022.27250,0.00885
3020.21232,0.00892
3018.15215,0.00892
3016.09198,0.00885
3014.03181,0.00873
3011.97163,0.00859
3009.91146,0.00847
3007.85129,0.00842
3005.79112,0.00844
3003.73095,0.00845
3001.67077,0.00842
2999.61060,0.00838
2997.55043,0.00843
2995.49026,0.00854
2993.43009,0.00857
2991.36991,0.00845
2989.30974,0.00838
2987.24957,0.00844
2985.18940,0.00851
2983.12923,0.00855
2981.06905,0.00861
2979.00888,0.00869
2976.94871,0.00874
2974.88854,0.00868
2972.82836,0.00845
2970.76819,0.00823
2968.70802,0.00828
2966.64785,0.00868
2964.58768,0.00924
2962.52750,0.00974
2960.46733,0.01000
2958.40716,0.01013
2956.34699,0.01027
2954.28682,0.01047
2952.22664,0.01078
2950.16647,0.01117
2948.10630,0.01147
2946.04613,0.01167
2943.98596,0.01188
2941.92578,0.01201
2939.86561,0.01199
2937.80544,0.01200
2935.74527,0.01213
2933.68509,0.01234
2931.62492,0.01253
2929.56475,0.01261
2927.50458,0.01254
2925.44441,0.01242
2923.38423,0.01221
2921.32406,0.01191
2919.26389,0.01170
2917.20372,0.01158
2915.14355,0.01139
2913.08337,0.01120
2911.02320,0.01116
2908.96303,0.01122
2906.90286,0.01128
2904.84268,0.01129
2902.78251,0.01122
2900.72234,0.01114
2898.66217,0.01111
2896.60200,0.01111
2894.54182,0.01109
2892.48165,0.01101
2890.42148,0.01089
2888.36131,0.01078
2886.30114,0.01071
2884.24096,0.01074
2882.18079,0.01078
2880.12062,0.01073
2878.06045,0.01065
2876.00028,0.01056
2873.94010,0.01038
2871.87993,0.01016
2869.81976,0.00997
2867.75959,0.00982
2865.69941,0.00959
2863.63924,0.00927
2861.57907,0.00907
2859.51890,0.00907
2857.45873,0.00915
2855.39855,0.00919
2853.33838,0.00907
2851.27821,0.00885
2849.21804,0.00868
2847.15787,0.00859
2845.09769,0.00851
2843.03752,0.00848
2840.97735,0.00848
2838.91718,0.00848
2836.85700,0.00841
2834.79683,0.00822
2832.73666,0.00804
2830.67649,0.00807
2828.61632,0.00818
2826.55614,0.00816
2824.49597,0.00805
2822.43580,0.00804
2820.37563,0.00801
2818.31546,0.00776
2816.25528,0.00744
2814.19511,0.00733
2812.13494,0.00738
2810.07477,0.00753
2808.01460,0.00776
2805.95442,0.00791
2803.89425,0.00779
2801.83408,0.00743
2799.77391,0.00707
2797.71373,0.00695
2795.65356,0.00702
2793.59339,0.00709
2791.53322,0.00716
2789.47305,0.00730
2787.41287,0.00736
2785.35270,0.00722
2783.29253,0.00707
2781.23236,0.00703
2779.17219,0.00697
2777.11201,0.00687
2775.05184,0.00678
2772.99167,0.00673
2770.93150,0.00678
2768.87133,0.00682
2766.81115,0.00672
2764.75098,0.00655
2762.69081,0.00649
2760.63064,0.00654
2758.57046,0.00655
2756.51029,0.00655
2754.45012,0.00669
2752.38995,0.00692
2750.32978,0.00704
2748.26960,0.00700
2746.20943,0.00693
2744.14926,0.00692
2742.08909,0.00686
2740.02892,0.00666
2737.96874,0.00641
2735.90857,0.00625
2733.84840,0.00623
2731.78823,0.00630
2729.72805,0.00635
2727.66788,0.00628
2725.60771,0.00615
2723.54754,0.00618
2721.48737,0.00649
2719.42719,0.00677
2717.36702,0.00670
2715.30685,0.00641
2713.24668,0.00627
2711.18651,0.00629
2709.12633,0.00623
2707.06616,0.00610
2705.00599,0.00608
2702.94582,0.00621
2700.88565,0.00629
2698.82547,0.00626
2696.76530,0.00628
2694.70513,0.00639
2692.64496,0.00645
2690.58478,0.00640
2688.52461,0.00636
2686.46444,0.00638
2684.40427,0.00637
2682.34410,0.00632
2680.28392,0.00623
2678.22375,0.00616
2676.16358,0.00616
2674.10341,0.00617
2672.04324,0.00614
2669.98306,0.00606
2667.92289,0.00602
2665.86272,0.00609
2663.80255,0.00623
2661.74238,0.00633
2659.68220,0.00635
2657.62203,0.00627
2655.56186,0.00600
2653.50169,0.00557
2651.44151,0.00529
2649.38134,0.00537
2647.32117,0.00562
2645.26100,0.00581
2643.20083,0.00588
2641.14065,0.00576
2639.08048,0.00551
2637.02031,0.00539
2634.96014,0.00546
2632.89997,0.00570
2630.83979,0.00598
2628.77962,0.00601
2626.71945,0.00566
2624.65928,0.00523
2622.59910,0.00507
2620.53893,0.00522
2618.47876,0.00544
2616.41859,0.00561
2614.35842,0.00576
2612.29824,0.00581
2610.23807,0.00570
2608.17790,0.00545
2606.11773,0.00515
2604.05756,0.00494
2601.99738,0.00485
2599.93721,0.00479
2597.87704,0.00477
2595.81687,0.00480
2593.75670,0.00481
2591.69652,0.00478
2589.63635,0.00481
2587.57618,0.00504
2585.51601,0.00544
2583.45583,0.00566
2581.39566,0.00550
2579.33549,0.00522
2577.27532,0.00514
2575.21515,0.00510
2573.15497,0.00486
2571.09480,0.00463
2569.03463,0.00462
2566.97446,0.00471
2564.91429,0.00479
2562.85411,0.00493
2560.79394,0.00506
2558.73377,0.00501
2556.67360,0.00493
2554.61342,0.00508
2552.55325,0.00528
2550.49308,0.00519
2548.43291,0.00489
2546.37274,0.00470
2544.31256,0.00455
2542.25239,0.00409
2540.19222,0.00352
2538.13205,0.00347
2536.07188,0.00391
2534.01170,0.00428
2531.95153,0.00437
2529.89136,0.00431
2527.83119,0.00420
2525.77102,0.00415
2523.71084,0.00421
2521.65067,0.00433
2519.59050,0.00451
2517.53033,0.00471
2515.47015,0.00478
2513.40998,0.00462
2511.34981,0.00438
2509.28964,0.00427
2507.22947,0.00435
2505.16929,0.00450
2503.10912,0.00458
2501.04895,0.00455
2498.98878,0.00451
2496.92861,0.00450
2494.86843,0.00448
2492.80826,0.00436
2490.74809,0.00414
2488.68792,0.00403
2486.62775,0.00409
2484.56757,0.00416
2482.50740,0.00408
2480.44723,0.00388
2478.38706,0.00380
2476.32688,0.00399
2474.26671,0.00417
2472.20654,0.00416
2470.14637,0.00423
2468.08620,0.00442
2466.02602,0.00433
2463.96585,0.00399
2461.90568,0.00388
2459.84551,0.00418
2457.78534,0.00458
2455.72516,0.00464
2453.66499,0.00443
2451.60482,0.00449
2449.54465,0.00483
2447.48447,0.00489
2445.42430,0.00452
2443.36413,0.00411
2441.30396,0.00384
2439.24379,0.00366
2437.18361,0.00364
2435.12344,0.00376
2433.06327,0.00389
2431.00310,0.00402
2428.94293,0.00425
2426.88275,0.00445
2424.82258,0.00440
2422.76241,0.00418
2420.70224,0.00408
2418.64207,0.00416
2416.58189,0.00425
2414.52172,0.00426
2412.46155,0.00421
2410.40138,0.00412
2408.34120,0.00408
2406.28103,0.00408
2404.22086,0.00407
2402.16069,0.00402
2400.10052,0.00402
2398.04034,0.00418
2395.98017,0.00437
2393.92000,0.00445
2391.85983,0.00439
2389.79966,0.00432
2387.73948,0.00438
2385.67931,0.00460
2383.61914,0.00482
2381.55897,0.00486
2379.49880,0.00465
2377.43862,0.00416
2375.37845,0.00343
2373.31828,0.00271
2371.25811,0.00226
2369.19793,0.00215
2367.13776,0.00242
2365.07759,0.00317
2363.01742,0.00417
2360.95725,0.00503
2358.89707,0.00551
2356.83690,0.00551
2354.77673,0.00519
2352.71656,0.00493
2350.65639,0.00501
2348.59621,0.00531
2346.53604,0.00550
2344.47587,0.00530
2342.41570,0.00456
2340.35552,0.00360
2338.29535,0.00294
2336.23518,0.00289
2334.17501,0.00331
2332.11484,0.00375
2330.05466,0.00396
2327.99449,0.00408
2325.93432,0.00417
2323.87415,0.00416
2321.81398,0.00408
2319.75380,0.00417
2317.69363,0.00451
2315.63346,0.00487
2313.57329,0.00501
2311.51312,0.00493
2309.45294,0.00477
2307.39277,0.00459
2305.33260,0.00443
2303.27243,0.00436
2301.21225,0.00446
2299.15208,0.00469
2297.09191,0.00487
2295.03174,0.00488
2292.97157,0.00474
2290.91139,0.00466
2288.85122,0.00476
2286.79105,0.00494
2284.73088,0.00504
2282.67071,0.00497
2280.61053,0.00479
2278.55036,0.00453
2276.49019,0.00421
2274.43002,0.00394
2272.36984,0.00388
2270.30967,0.00400
2268.24950,0.00413
2266.18933,0.00416
2264.12916,0.00414
2262.06898,0.00414
2260.00881,0.00417
2257.94864,0.00417
2255.88847,0.00411
2253.82830,0.00406
2251.76812,0.00407
2249.70795,0.00413
2247.64778,0.00424
2245.58761,0.00441
2243.52744,0.00448
2241.46726,0.00448
2239.40709,0.00446
2237.34692,0.00417
2235.28675,0.00342
2233.22657,0.00265
2231.16640,0.00234
2229.10623,0.00244
2227.04606,0.00282
2224.98589,0.00306
2222.92571,0.00268
2220.86554,0.00227
2218.80537,0.00261
2216.74520,0.00324
2214.68503,0.00350
2212.62485,0.00359
2210.56468,0.00370
2208.50451,0.00389
2206.44434,0.00442
2204.38417,0.00505
2202.32399,0.00492
2200.26382,0.00403
2198.20365,0.00358
2196.14348,0.00398
2194.08330,0.00412
2192.02313,0.00341
2189.96296,0.00268
2187.90279,0.00273
2185.84262,0.00361
2183.78244,0.00488
2181.72227,0.00546
2179.66210,0.00469
2177.60193,0.00377
2175.54176,0.00374
2173.48158,0.00386
2171.42141,0.00343
2169.36124,0.00325
2167.30107,0.00401
2165.24089,0.00480
2163.18072,0.00451
2161.12055,0.00325
2159.06038,0.00174
2157.00021,0.00040
2154.94003,0.00000
2152.87986,0.00081
2150.81969,0.00178
2148.75952,0.00214
2146.69935,0.00235
2144.63917,0.00257
2142.57900,0.00248
2140.51883,0.00227
2138.45866,0.00234
2136.39849,0.00267
2134.33831,0.00287
2132.27814,0.00273
2130.21797,0.00262
2128.15780,0.00280
2126.09762,0.00299
2124.03745,0.00293
2121.97728,0.00285
2119.91711,0.00300
2117.85694,0.00324
2115.79676,0.00324
2113.73659,0.00308
2111.67642,0.00316
2109.61625,0.00366
2107.55608,0.00412
2105.49590,0.00400
2103.43573,0.00346
2101.37556,0.00311
2099.31539,0.00312
2097.25521,0.00330
2095.19504,0.00355
2093.13487,0.00384
2091.07470,0.00409
2089.01453,0.00420
2086.95435,0.00408
2084.89418,0.00374
2082.83401,0.00322
2080.77384,0.00271
2078.71367,0.00244
2076.65349,0.00258
2074.59332,0.00300
2072.53315,0.00332
2070.47298,0.00333
2068.41281,0.00315
2066.35263,0.00305
2064.29246,0.00322
2062.23229,0.00365
2060.17212,0.00408
2058.11194,0.00425
2056.05177,0.00413
2053.99160,0.00392
2051.93143,0.00377
2049.87126,0.00360
2047.81108,0.00318
2045.75091,0.00251
2043.69074,0.00195
2041.63057,0.00183
2039.57040,0.00215
2037.51022,0.00251
2035.45005,0.00238
2033.38988,0.00171
2031.32971,0.00116
2029.26954,0.00131
2027.20936,0.00192
2025.14919,0.00216
2023.08902,0.00152
2021.02885,0.00046
2018.96867,0.00000
2016.90850,0.00066
2014.84833,0.00194
2012.78816,0.00288
2010.72799,0.00281
2008.66781,0.00187
2006.60764,0.00091
2004.54747,0.00056
2002.48730,0.00070
2000.42713,0.00087
1998.36695,0.00083
1996.30678,0.00069
1994.24661,0.00069
1992.18644,0.00104
1990.12626,0.00175
1988.06609,0.00248
1986.00592,0.00282
1983.94575,0.00257
1981.88558,0.00193
1979.82540,0.00130
1977.76523,0.00094
1975.70506,0.00082
1973.64489,0.00075
1971.58472,0.00065
1969.52454,0.00070
1967.46437,0.00101
1965.40420,0.00140
1963.34403,0.00161
1961.28386,0.00169
1959.22368,0.00178
1957.16351,0.00181
1955.10334,0.00163
1953.04317,0.00121
1950.98299,0.00075
1948.92282,0.00050
1946.86265,0.00055
1944.80248,0.00070
1942.74231,0.00074
1940.68213,0.00067
1938.62196,0.00058
1936.56179,0.00051
1934.50162,0.00058
1932.44145,0.00086
1930.38127,0.00119
1928.32110,0.00133
1926.26093,0.00113
1924.20076,0.00082
1922.14059,0.00076
1920.08041,0.00107
1918.02024,0.00150
1915.96007,0.00181
1913.89990,0.00200
1911.83972,0.00213
1909.77955,0.00218
1907.71938,0.00212
1905.65921,0.00204
1903.59904,0.00201
1901.53886,0.00195
1899.47869,0.00180
1897.41852,0.00160
1895.35835,0.00142
1893.29818,0.00123
1891.23800,0.00107
1889.17783,0.00097
1887.11766,0.00091
1885.05749,0.00090
1882.99731,0.00095
1880.93714,0.00097
1878.87697,0.00089
1876.81680,0.00077
1874.75663,0.00071
1872.69645,0.00075
1870.63628,0.00091
1868.57611,0.00122
1866.51594,0.00153
1864.45577,0.00167
1862.39559,0.00153
1860.33542,0.00118
1858.27525,0.00079
1856.21508,0.00054
1854.15491,0.00051
1852.09473,0.00062
1850.03456,0.00070
1847.97439,0.00065
1845.91422,0.00044
1843.85404,0.00020
1841.79387,0.00010
1839.73370,0.00026
1837.67353,0.00058
1835.61336,0.00087
1833.55318,0.00102
1831.49301,0.00099
1829.43284,0.00076
1827.37267,0.00047
1825.31250,0.00030
1823.25232,0.00028
1821.19215,0.00031
1819.13198,0.00041
1817.07181,0.00055
1815.01163,0.00064
1812.95146,0.00063
1810.89129,0.00055
1808.83112,0.00053
1806.77095,0.00057
1804.71077,0.00062
1802.65060,0.00064
1800.59043,0.00060
1798.53026,0.00053
1796.47009,0.00048
1794.40991,0.00049
1792.34974,0.00054
1790.28957,0.00059
1788.22940,0.00066
1786.16923,0.00078
1784.10905,0.00092
1782.04888,0.00098
1779.98871,0.00089
1777.92854,0.00070
1775.86836,0.00047
1773.80819,0.00033
1771.74802,0.00038
1769.68785,0.00058
1767.62768,0.00085
1765.56750,0.00113
1763.50733,0.00146
1761.44716,0.00184
1759.38699,0.00221
1757.32682,0.00257
1755.26664,0.00294
1753.20647,0.00332
1751.14630,0.00369
1749.08613,0.00396
1747.02596,0.00413
1744.96578,0.00425
1742.90561,0.00442
1740.84544,0.00466
1738.78527,0.00499
1736.72509,0.00534
1734.66492,0.00558
1732.60475,0.00558
1730.54458,0.00536
1728.48441,0.00511
1726.42423,0.00494
1724.36406,0.00486
1722.30389,0.00485
1720.24372,0.00485
1718.18355,0.00476
1716.12337,0.00447
1714.06320,0.00398
1712.00303,0.00342
1709.94286,0.00291
1707.88268,0.00247
1705.82251,0.00210
1703.76234,0.00178
1701.70217,0.00158
1699.64200,0.00156
1697.58182,0.00165
1695.52165,0.00173
1693.46148,0.00177
1691.40131,0.00179
1689.34114,0.00183
1687.28096,0.00194
1685.22079,0.00217
1683.16062,0.00249
1681.10045,0.00279
1679.04028,0.00301
1676.98010,0.00318
1674.91993,0.00339
1672.85976,0.00370
1670.79959,0.00415
1668.73941,0.00464
1666.67924,0.00505
1664.61907,0.00534
1662.55890,0.00557
1660.49873,0.00580
1658.43855,0.00609
1656.37838,0.00649
1654.31821,0.00701
1652.25804,0.00753
1650.19787,0.00791
1648.13769,0.00811
1646.07752,0.00816
1644.01735,0.00811
1641.95718,0.00808
1639.89701,0.00813
1637.83683,0.00827
1635.77666,0.00846
1633.71649,0.00859
1631.65632,0.00863
1629.59614,0.00863
1627.53597,0.00866
1625.47580,0.00873
1623.41563,0.00883
1621.35546,0.00893
1619.29528,0.00901
1617.23511,0.00903
1615.17494,0.00895
1613.11477,0.00878
1611.05460,0.00860
1608.99442,0.00841
1606.93425,0.00817
1604.87408,0.00783
1602.81391,0.00739
1600.75373,0.00689
1598.69356,0.00633
1596.63339,0.00574
1594.57322,0.00517
1592.51305,0.00463
1590.45287,0.00416
1588.39270,0.00373
1586.33253,0.00331
1584.27236,0.00286
1582.21219,0.00238
1580.15201,0.00196
1578.09184,0.00169
1576.03167,0.00158
1573.97150,0.00158
1571.91133,0.00160
1569.85115,0.00155
1567.79098,0.00138
1565.73081,0.00112
1563.67064,0.00088
1561.61046,0.00073
1559.55029,0.00072
1557.49012,0.00077
1555.42995,0.00078
1553.36978,0.00073
1551.30960,0.00070
1549.24943,0.00076
1547.18926,0.00091
1545.12909,0.00111
1543.06892,0.00124
1541.00874,0.00123
1538.94857,0.00102
1536.88840,0.00074
1534.82823,0.00057
1532.76805,0.00054
1530.70788,0.00058
1528.64771,0.00064
1526.58754,0.00065
1524.52737,0.00054
1522.46719,0.00033
1520.40702,0.00013
1518.34685,0.00000
1516.28668,-0.00000
1514.22651,0.00013
1512.16633,0.00036
1510.10616,0.00062
1508.04599,0.00078
1505.98582,0.00075
1503.92565,0.00063
1501.86547,0.00052
1499.80530,0.00048
1497.74513,0.00051
1495.68496,0.00056
1493.62478,0.00062
1491.56461,0.00070
1489.50444,0.00080
1487.44427,0.00088
1485.38410,0.00092
1483.32392,0.00097
1481.26375,0.00111
1479.20358,0.00142
1477.14341,0.00186
1475.08324,0.00236
1473.02306,0.00280
1470.96289,0.00310
1468.90272,0.00332
1466.84255,0.00357
1464.78238,0.00385
1462.72220,0.00406
1460.66203,0.00415
1458.60186,0.00415
1456.54169,0.00418
1454.48151,0.00430
1452.42134,0.00456
1450.36117,0.00494
1448.30100,0.00540
1446.24083,0.00582
1444.18065,0.00615
1442.12048,0.00635
1440.06031,0.00647
1438.00014,0.00659
1435.93997,0.00672
1433.87979,0.00689
1431.81962,0.00712
1429.75945,0.00741
1427.69928,0.00771
1425.63910,0.00802
1423.57893,0.00834
1421.51876,0.00866
1419.45859,0.00892
1417.39842,0.00906
1415.33824,0.00905
1413.27807,0.00897
1411.21790,0.00884
1409.15773,0.00869
1407.09756,0.00854
1405.03738,0.00840
1402.97721,0.00827
1400.91704,0.00812
1398.85687,0.00796
1396.79670,0.00777
1394.73652,0.00759
1392.67635,0.00745
1390.61618,0.00742
1388.55601,0.00750
1386.49583,0.00768
1384.43566,0.00791
1382.37549,0.00814
1380.31532,0.00834
1378.25515,0.00847
1376.19497,0.00857
1374.13480,0.00865
1372.07463,0.00869
1370.01446,0.00868
1367.95429,0.00861
1365.89411,0.00852
1363.83394,0.00839
1361.77377,0.00821
1359.71360,0.00800
1357.65343,0.00781
1355.59325,0.00767
1353.53308,0.00759
1351.47291,0.00751
1349.41274,0.00739
1347.35256,0.00723
1345.29239,0.00710
1343.23222,0.00703
1341.17205,0.00702
1339.11188,0.00704
1337.05170,0.00709
1334.99153,0.00713
1332.93136,0.00711
1330.87119,0.00705
1328.81102,0.00700
1326.75084,0.00703
1324.69067,0.00716
1322.63050,0.00733
1320.57033,0.00749
1318.51015,0.00757
1316.44998,0.00754
1314.38981,0.00741
1312.32964,0.00722
1310.26947,0.00702
1308.20929,0.00689
1306.14912,0.00684
1304.08895,0.00686
1302.02878,0.00687
1299.96861,0.00682
1297.90843,0.00665
1295.84826,0.00641
1293.78809,0.00622
1291.72792,0.00615
1289.66775,0.00615
1287.60757,0.00613
1285.54740,0.00605
1283.48723,0.00599
1281.42706,0.00598
1279.36688,0.00601
1277.30671,0.00599
1275.24654,0.00594
1273.18637,0.00595
1271.12620,0.00609
1269.06602,0.00635
1267.00585,0.00667
1264.94568,0.00701
1262.88551,0.00740
1260.82534,0.00784
1258.76516,0.00830
1256.70499,0.00867
1254.64482,0.00890
1252.58465,0.00905
1250.52447,0.00916
1248.46430,0.00923
1246.40413,0.00924
1244.34396,0.00915
1242.28379,0.00899
1240.22361,0.00879
1238.16344,0.00857
1236.10327,0.00835
1234.04310,0.00812
1231.98293,0.00784
1229.92275,0.00754
1227.86258,0.00725
1225.80241,0.00700
1223.74224,0.00681
1221.68207,0.00665
1219.62189,0.00644
1217.56172,0.00613
1215.50155,0.00570
1213.44138,0.00521
1211.38120,0.00468
1209.32103,0.00415
1207.26086,0.00363
1205.20069,0.00308
1203.14052,0.00250
1201.08034,0.00191
1199.02017,0.00139
1196.96000,0.00100
1194.89983,0.00070
1192.83966,0.00049
1190.77948,0.00029
1188.71931,0.00010
1186.65914,0.00000
1184.59897,-0.00001
1182.53880,0.00016
1180.47862,0.00056
1178.41845,0.00113
1176.35828,0.00172
1174.29811,0.00233
1172.23793,0.00303
1170.17776,0.00379
1168.11759,0.00455
1166.05742,0.00524
1163.99725,0.00587
1161.93707,0.00651
1159.87690,0.00718
1157.81673,0.00773
1155.75656,0.00810
1153.69639,0.00852
1151.63621,0.00905
1149.57604,0.00949
1147.51587,0.00974
1145.45570,0.00995
1143.39552,0.01029
1141.33535,0.01069
1139.27518,0.01096
1137.21501,0.01107
1135.15484,0.01111
1133.09466,0.01114
1131.03449,0.01122
1128.97432,0.01153
1126.91415,0.01214
1124.85398,0.01292
1122.79380,0.01370
1120.73363,0.01434
1118.67346,0.01479
1116.61329,0.01507
1114.55312,0.01531
1112.49294,0.01568
1110.43277,0.01626
1108.37260,0.01703
1106.31243,0.01789
1104.25225,0.01866
1102.19208,0.01926
1100.13191,0.01982
1098.07174,0.02050
1096.01157,0.02127
1093.95139,0.02204
1091.89122,0.02274
1089.83105,0.02339
1087.77088,0.02409
1085.71071,0.02483
1083.65053,0.02561
1081.59036,0.02640
1079.53019,0.02711
1077.47002,0.02770
1075.40985,0.02831
1073.34967,0.02899
1071.28950,0.02955
1069.22933,0.02993
1067.16916,0.03017
1065.10898,0.03039
1063.04881,0.03068
1060.98864,0.03104
1058.92847,0.03142
1056.86830,0.03175
1054.80812,0.03212
1052.74795,0.03252
1050.68778,0.03290
1048.62761,0.03335
1046.56744,0.03394
1044.50726,0.03458
1042.44709,0.03520
1040.38692,0.03576
1038.32675,0.03613
1036.26657,0.03624
1034.20640,0.03625
1032.14623,0.03640
1030.08606,0.03669
1028.02589,0.03688
1025.96571,0.03695
1023.90554,0.03706
1021.84537,0.03720
1019.78520,0.03726
1017.72503,0.03720
1015.66485,0.03708
1013.60468,0.03696
1011.54451,0.03687
1009.48434,0.03682
1007.42417,0.03677
1005.36399,0.03657
1003.30382,0.03622
1001.24365,0.03578
999.18348,0.03519
997.12330,0.03446
995.06313,0.03382
993.00296,0.03343
990.94279,0.03324
988.88262,0.03312
986.82244,0.03293
984.76227,0.03269
982.70210,0.03246
980.64193,0.03213
978.58176,0.03169
976.52158,0.03127
974.46141,0.03090
972.40124,0.03047
970.34107,0.03002
968.28089,0.02969
966.22072,0.02931
964.16055,0.02877
962.10038,0.02829
960.04021,0.02792
957.98003,0.02751
955.91986,0.02701
953.85969,0.02646
951.79952,0.02587
949.73935,0.02538
947.67917,0.02501
945.61900,0.02451
943.55883,0.02355
941.49866,0.02217
939.43849,0.02064
937.37831,0.01918
935.31814,0.01785
933.25797,0.01666
931.19780,0.01557
929.13762,0.01446
927.07745,0.01324
925.01728,0.01199
922.95711,0.01093
920.89694,0.01026
918.83676,0.00984
916.77659,0.00941
914.71642,0.00903
912.65625,0.00880
910.59608,0.00855
908.53590,0.00807
906.47573,0.00750
904.41556,0.00717
902.35539,0.00716
900.29522,0.00736
898.23504,0.00763
896.17487,0.00767
894.11470,0.00741
892.05453,0.00710
889.99435,0.00685
887.93418,0.00657
885.87401,0.00631
883.81384,0.00605
881.75367,0.00567
879.69349,0.00521
877.63332,0.00477
875.57315,0.00429
873.51298,0.00389
871.45281,0.00383
869.39263,0.00405
867.33246,0.00427
865.27229,0.00430
863.21212,0.00412
861.15194,0.00386
859.09177,0.00368
857.03160,0.00351
854.97143,0.00327
852.91126,0.00306
850.85108,0.00293
848.79091,0.00273
846.73074,0.00240
844.67057,0.00215
842.61040,0.00215
840.55022,0.00220
838.49005,0.00203
836.42988,0.00182
834.36971,0.00168
832.30954,0.00125
830.24936,0.00051
828.18919,0.00000
826.12902,-0.00003
824.06885,0.00048
822.00867,0.00129
819.94850,0.00175
817.88833,0.00163
815.82816,0.00140
813.76799,0.00143
811.70781,0.00171
809.64764,0.00217
807.58747,0.00257
805.52730,0.00262
803.46713,0.00238
801.40695,0.00217
799.34678,0.00201
797.28661,0.00190
795.22644,0.00198
793.16627,0.00210
791.10609,0.00202
789.04592,0.00188
786.98575,0.00184
784.92558,0.00188
782.86540,0.00180
780.80523,0.00149
778.74506,0.00114
776.68489,0.00080
774.62472,0.00043
772.56454,0.00012
770.50437,0.00000
768.44420,0.00011
766.38403,0.00056
764.32386,0.00128
762.26368,0.00213
760.20351,0.00248
758.14334,0.00187
756.08317,0.00091
754.02299,0.00038
751.96282,0.00020
749.90265,0.00009
747.84248,0.00016
745.78231,0.00031
743.72213,0.00015
741.66196,-0.00021
739.60179,-0.00028
737.54162,0.00003
735.48145,0.00021
733.42127,-0.00006
731.36110,-0.00052
729.30093,-0.00066
727.24076,-0.00014
725.18059,0.00060
723.12041,0.00097
721.06024,0.00113
719.00007,0.00141
716.93990,0.00185
714.87972,0.00221
712.81955,0.00228
710.75938,0.00197
708.69921,0.00151
706.63904,0.00131
704.57886,0.00165
702.51869,0.00244
700.45852,0.00322
698.39835,0.00361
696.33818,0.00361
694.27800,0.00354
692.21783,0.00359
690.15766,0.00349
688.09749,0.00289
686.03731,0.00189
683.97714,0.00094
681.91697,0.00035
679.85680,0.00019
677.79663,0.00029
675.73645,0.00045
673.67628,0.00059
671.61611,0.00077
669.55594,0.00118
667.49577,0.00197
665.43559,0.00266
663.37542,0.00273
661.31525,0.00231
659.25508,0.00168
657.19491,0.00104
655.13473,0.00070
653.07456,0.00096
651.01439,0.00151
648.95422,0.00182
646.89404,0.00187
644.83387,0.00195
642.77370,0.00206
640.71353,0.00193
638.65336,0.00144
636.59318,0.00081
634.53301,0.00030
632.47284,0.00000
630.41267,-0.00043
628.35250,-0.00059
626.29232,-0.00063
624.23215,-0.00086
622.17198,-0.00127
620.11181,-0.00158
618.05164,-0.00219
615.99146,-0.00343
613.93129,-0.00421
611.87112,-0.00363
609.81095,-0.00243
607.75077,-0.00170
605.69060,-0.00118
603.63043,-0.00005
601.57026,0.00078
599.51009,0.00000
