3996.73391	0.00048
3994.67373	0.00058
3992.61356	0.00060
3990.55339	0.00052
3988.49322	0.00038
3986.43305	0.00022
3984.37287	0.00008
3982.31270	0.00000
3980.25253	0.00001
3978.19236	0.00009
3976.13219	0.00019
3974.07201	0.00029
3972.01184	0.00034
3969.95167	0.00032
3967.89150	0.00023
3965.83133	0.00015
3963.77115	0.00015
3961.71098	0.00021
3959.65081	0.00027
3957.59064	0.00029
3955.53046	0.00029
3953.47029	0.00029
3951.41012	0.00028
3949.34995	0.00027
3947.28978	0.00028
3945.22960	0.00031
3943.16943	0.00036
3941.10926	0.00039
3939.04909	0.00039
3936.98892	0.00035
3934.92874	0.00030
3932.86857	0.00024
3930.80840	0.00021
3928.74823	0.00024
3926.68805	0.00032
3924.62788	0.00041
3922.56771	0.00042
3920.50754	0.00036
3918.44737	0.00027
3916.38719	0.00020
3914.32702	0.00020
3912.26685	0.00028
3910.20668	0.00043
3908.14651	0.00061
3906.08633	0.00078
3904.02616	0.00089
3901.96599	0.00090
3899.90582	0.00084
3897.84565	0.00076
3895.78547	0.00068
3893.72530	0.00061
3891.66513	0.00054
3889.60496	0.00046
3887.54478	0.00040
3885.48461	0.00035
3883.42444	0.00030
3881.36427	0.00030
3879.30410	0.00033
3877.24392	0.00038
3875.18375	0.00042
3873.12358	0.00044
3871.06341	0.00044
3869.00324	0.00042
3866.94306	0.00042
3864.88289	0.00046
3862.82272	0.00051
3860.76255	0.00053
3858.70237	0.00049
3856.64220	0.00041
3854.58203	0.00037
3852.52186	0.00041
3850.46169	0.00045
3848.40151	0.00043
3846.34134	0.00040
3844.28117	0.00044
3842.22100	0.00056
3840.16083	0.00065
3838.10065	0.00061
3836.04048	0.00049
3833.98031	0.00039
3831.92014	0.00040
3829.85997	0.00047
3827.79979	0.00054
3825.73962	0.00059
3823.67945	0.00058
3821.61928	0.00050
3819.55910	0.00042
3817.49893	0.00042
3815.43876	0.00047
3813.37859	0.00052
3811.31842	0.00053
3809.25824	0.00050
3807.19807	0.00050
3805.13790	0.00059
3803.07773	0.00070
3801.01756	0.00074
3798.95738	0.00071
3796.89721	0.00070
3794.83704	0.00074
3792.77687	0.00077
3790.71670	0.00078
3788.65652	0.00081
3786.59635	0.00086
3784.53618	0.00087
3782.47601	0.00083
3780.41583	0.00078
3778.35566	0.00075
3776.29549	0.00073
3774.23532	0.00069
3772.17515	0.00057
3770.11497	0.00038
3768.05480	0.00021
3765.99463	0.00014
3763.93446	0.00016
3761.87429	0.00026
3759.81411	0.00044
3757.75394	0.00063
3755.69377	0.00073
3753.63360	0.00072
3751.57342	0.00068
3749.51325	0.00058
3747.45308	0.00043
3745.39291	0.00031
3743.33274	0.00026
3741.27256	0.00025
3739.21239	0.00025
3737.15222	0.00028
3735.09205	0.00034
3733.03188	0.00041
3730.97170	0.00050
3728.91153	0.00064
3726.85136	0.00079
3724.79119	0.00087
3722.73102	0.00083
3720.67084	0.00071
3718.61067	0.00053
3716.55050	0.00035
3714.49033	0.00024
3712.43015	0.00025
3710.36998	0.00036
3708.30981	0.00051
3706.24964	0.00058
3704.18947	0.00056
3702.12929	0.00050
3700.06912	0.00053
3698.00895	0.00069
3695.94878	0.00088
3693.88861	0.00094
3691.82843	0.00082
3689.76826	0.00060
3687.70809	0.00041
3685.64792	0.00039
3683.58775	0.00055
3681.52757	0.00084
3679.46740	0.00110
3677.40723	0.00114
3675.34706	0.00099
3673.28688	0.00088
3671.22671	0.00099
3669.16654	0.00124
3667.10637	0.00140
3665.04620	0.00144
3662.98602	0.00145
3660.92585	0.00155
3658.86568	0.00172
3656.80551	0.00187
3654.74534	0.00193
3652.68516	0.00193
3650.62499	0.00196
3648.56482	0.00209
3646.50465	0.00231
3644.44447	0.00253
3642.38430	0.00270
3640.32413	0.00278
3638.26396	0.00274
3636.20379	0.00261
3634.14361	0.00246
3632.08344	0.00237
3630.02327	0.00240
3627.96310	0.00263
3625.90293	0.00303
3623.84275	0.00344
3621.78258	0.00376
3619.72241	0.00397
3617.66224	0.00410
3615.60207	0.00425
3613.54189	0.00448
3611.48172	0.00477
3609.42155	0.00496
3607.36138	0.00500
3605.30120	0.00503
3603.24103	0.00518
3601.18086	0.00545
3599.12069	0.00571
3597.06052	0.00589
3595.00034	0.00603
3592.94017	0.00620
3590.88000	0.00640
3588.81983	0.00664
3586.75966	0.00695
3584.69948	0.00728
3582.63931	0.00758
3580.57914	0.00784
3578.51897	0.00807
3576.45879	0.00833
3574.39862	0.00864
3572.33845	0.00894
3570.27828	0.00921
3568.21811	0.00942
3566.15793	0.00959
3564.09776	0.00981
3562.03759	0.01014
3559.97742	0.01058
3557.91725	0.01110
3555.85707	0.01165
3553.79690	0.01216
3551.73673	0.01257
3549.67656	0.01284
3547.61639	0.01302
3545.55621	0.01320
3543.49604	0.01343
3541.43587	0.01369
3539.37570	0.01404
3537.31552	0.01449
3535.25535	0.01498
3533.19518	0.01542
3531.13501	0.01577
3529.07484	0.01604
3527.01466	0.01631
3524.95449	0.01659
3522.89432	0.01688
3520.83415	0.01715
3518.77398	0.01741
3516.71380	0.01770
3514.65363	0.01800
3512.59346	0.01830
3510.53329	0.01860
3508.47312	0.01892
3506.41294	0.01927
3504.35277	0.01966
3502.29260	0.02006
3500.23243	0.02046
3498.17225	0.02083
3496.11208	0.02116
3494.05191	0.02148
3491.99174	0.02179
3489.93157	0.02211
3487.87139	0.02246
3485.81122	0.02285
3483.75105	0.02325
3481.69088	0.02361
3479.63071	0.02394
3477.57053	0.02428
3475.51036	0.02463
3473.45019	0.02497
3471.39002	0.02530
3469.32984	0.02567
3467.26967	0.02608
3465.20950	0.02650
3463.14933	0.02687
3461.08916	0.02717
3459.02898	0.02738
3456.96881	0.02756
3454.90864	0.02782
3452.84847	0.02820
3450.78830	0.02863
3448.72812	0.02902
3446.66795	0.02931
3444.60778	0.02952
3442.54761	0.02971
3440.48744	0.02993
3438.42726	0.03018
3436.36709	0.03044
3434.30692	0.03067
3432.24675	0.03092
3430.18657	0.03122
3428.12640	0.03158
3426.06623	0.03198
3424.00606	0.03240
3421.94589	0.03275
3419.88571	0.03298
3417.82554	0.03312
3415.76537	0.03328
3413.70520	0.03351
3411.64503	0.03382
3409.58485	0.03416
3407.52468	0.03447
3405.46451	0.03473
3403.40434	0.03496
3401.34416	0.03517
3399.28399	0.03535
3397.22382	0.03554
3395.16365	0.03571
3393.10348	0.03586
3391.04330	0.03602
3388.98313	0.03619
3386.92296	0.03638
3384.86279	0.03656
3382.80262	0.03676
3380.74244	0.03700
3378.68227	0.03728
3376.62210	0.03752
3374.56193	0.03770
3372.50176	0.03783
3370.44158	0.03798
3368.38141	0.03817
3366.32124	0.03836
3364.26107	0.03852
3362.20089	0.03864
3360.14072	0.03876
3358.08055	0.03888
3356.02038	0.03898
3353.96021	0.03910
3351.90003	0.03925
3349.83986	0.03940
3347.77969	0.03950
3345.71952	0.03954
3343.65935	0.03958
3341.59917	0.03965
3339.53900	0.03972
3337.47883	0.03974
3335.41866	0.03970
3333.35849	0.03967
3331.29831	0.03968
3329.23814	0.03971
3327.17797	0.03975
3325.11780	0.03979
3323.05762	0.03985
3320.99745	0.03994
3318.93728	0.04008
3316.87711	0.04026
3314.81694	0.04041
3312.75676	0.04049
3310.69659	0.04052
3308.63642	0.04051
3306.57625	0.04050
3304.51608	0.04050
3302.45590	0.04048
3300.39573	0.04044
3298.33556	0.04037
3296.27539	0.04033
3294.21521	0.04035
3292.15504	0.04037
3290.09487	0.04036
3288.03470	0.04030
3285.97453	0.04022
3283.91435	0.04020
3281.85418	0.04023
3279.79401	0.04029
3277.73384	0.04032
3275.67367	0.04031
3273.61349	0.04025
3271.55332	0.04018
3269.49315	0.04013
3267.43298	0.04010
3265.37281	0.04007
3263.31263	0.04004
3261.25246	0.04001
3259.19229	0.03997
3257.13212	0.03990
3255.07194	0.03982
3253.01177	0.03975
3250.95160	0.03970
3248.89143	0.03962
3246.83126	0.03947
3244.77108	0.03927
3242.71091	0.03908
3240.65074	0.03892
3238.59057	0.03877
3236.53040	0.03862
3234.47022	0.03846
3232.41005	0.03832
3230.34988	0.03822
3228.28971	0.03817
3226.22954	0.03814
3224.16936	0.03809
3222.10919	0.03802
3220.04902	0.03790
3217.98885	0.03776
3215.92867	0.03760
3213.86850	0.03744
3211.80833	0.03729
3209.74816	0.03712
3207.68799	0.03695
3205.62781	0.03675
3203.56764	0.03650
3201.50747	0.03624
3199.44730	0.03601
3197.38713	0.03585
3195.32695	0.03569
3193.26678	0.03553
3191.20661	0.03534
3189.14644	0.03514
3187.08626	0.03493
3185.02609	0.03474
3182.96592	0.03460
3180.90575	0.03449
3178.84558	0.03438
3176.78540	0.03424
3174.72523	0.03409
3172.66506	0.03391
3170.60489	0.03368
3168.54472	0.03340
3166.48454	0.03308
3164.42437	0.03277
3162.36420	0.03248
3160.30403	0.03222
3158.24386	0.03201
3156.18368	0.03182
3154.12351	0.03165
3152.06334	0.03149
3150.00317	0.03136
3147.94299	0.03126
3145.88282	0.03114
3143.82265	0.03099
3141.76248	0.03076
3139.70231	0.03043
3137.64213	0.03006
3135.58196	0.02974
3133.52179	0.02952
3131.46162	0.02936
3129.40145	0.02920
3127.34127	0.02897
3125.28110	0.02869
3123.22093	0.02839
3121.16076	0.02812
3119.10058	0.02789
3117.04041	0.02766
3114.98024	0.02740
3112.92007	0.02715
3110.85990	0.02695
3108.79972	0.02679
3106.73955	0.02661
3104.67938	0.02639
3102.61921	0.02617
3100.55904	0.02597
3098.49886	0.02576
3096.43869	0.02557
3094.37852	0.02538
3092.31835	0.02521
3090.25818	0.02501
3088.19800	0.02478
3086.13783	0.02453
3084.07766	0.02430
3082.01749	0.02408
3079.95731	0.02389
3077.89714	0.02372
3075.83697	0.02355
3073.77680	0.02335
3071.71663	0.02314
3069.65645	0.02293
3067.59628	0.02272
3065.53611	0.02250
3063.47594	0.02228
3061.41577	0.02207
3059.35559	0.02188
3057.29542	0.02167
3055.23525	0.02144
3053.17508	0.02124
3051.11491	0.02112
3049.05473	0.02106
3046.99456	0.02101
3044.93439	0.02092
3042.87422	0.02077
3040.81404	0.02055
3038.75387	0.02026
3036.69370	0.01994
3034.63353	0.01965
3032.57336	0.01942
3030.51318	0.01927
3028.45301	0.01918
3026.39284	0.01915
3024.33267	0.01913
3022.27250	0.01913
3020.21232	0.01914
3018.15215	0.01913
3016.09198	0.01909
3014.03181	0.01902
3011.97163	0.01893
3009.91146	0.01883
3007.85129	0.01872
3005.79112	0.01858
3003.73095	0.01842
3001.67077	0.01827
2999.61060	0.01814
2997.55043	0.01804
2995.49026	0.01786
2993.43009	0.01764
2991.36991	0.01751
2989.30974	0.01751
2987.24957	0.01766
2985.18940	0.01795
2983.12923	0.01824
2981.06905	0.01845
2979.00888	0.01865
2976.94871	0.01898
2974.88854	0.01948
2972.82836	0.02008
2970.76819	0.02075
2968.70802	0.02155
2966.64785	0.02257
2964.58768	0.02381
2962.52750	0.02516
2960.46733	0.02644
2958.40716	0.02762
2956.34699	0.02879
2954.28682	0.03005
2952.22664	0.03142
2950.16647	0.03283
2948.10630	0.03428
2946.04613	0.03581
2943.98596	0.03744
2941.92578	0.03916
2939.86561	0.04093
2937.80544	0.04278
2935.74527	0.04472
2933.68509	0.04669
2931.62492	0.04854
2929.56475	0.05013
2927.50458	0.05141
2925.44441	0.05246
2923.38423	0.05326
2921.32406	0.05372
2919.26389	0.05368
2917.20372	0.05304
2915.14355	0.05174
2913.08337	0.04985
2911.02320	0.04772
2908.96303	0.04574
2906.90286	0.04404
2904.84268	0.04252
2902.78251	0.04112
2900.72234	0.03986
2898.66217	0.03878
2896.60200	0.03774
2894.54182	0.03672
2892.48165	0.03572
2890.42148	0.03481
2888.36131	0.03404
2886.30114	0.03338
2884.24096	0.03276
2882.18079	0.03221
2880.12062	0.03188
2878.06045	0.03182
2876.00028	0.03190
2873.94010	0.03204
2871.87993	0.03228
2869.81976	0.03262
2867.75959	0.03312
2865.69941	0.03385
2863.63924	0.03485
2861.57907	0.03610
2859.51890	0.03744
2857.45873	0.03876
2855.39855	0.04003
2853.33838	0.04112
2851.27821	0.04162
2849.21804	0.04095
2847.15787	0.03892
2845.09769	0.03601
2843.03752	0.03311
2840.97735	0.03076
2838.91718	0.02899
2836.85700	0.02758
2834.79683	0.02639
2832.73666	0.02540
2830.67649	0.02458
2828.61632	0.02387
2826.55614	0.02324
2824.49597	0.02262
2822.43580	0.02204
2820.37563	0.02158
2818.31546	0.02123
2816.25528	0.02086
2814.19511	0.02048
2812.13494	0.02017
2810.07477	0.01996
2808.01460	0.01979
2805.95442	0.01959
2803.89425	0.01935
2801.83408	0.01907
2799.77391	0.01881
2797.71373	0.01862
2795.65356	0.01852
2793.59339	0.01841
2791.53322	0.01817
2789.47305	0.01788
2787.41287	0.01770
2785.35270	0.01758
2783.29253	0.01737
2781.23236	0.01712
2779.17219	0.01699
2777.11201	0.01694
2775.05184	0.01688
2772.99167	0.01685
2770.93150	0.01681
2768.87133	0.01670
2766.81115	0.01655
2764.75098	0.01644
2762.69081	0.01639
2760.63064	0.01636
2758.57046	0.01634
2756.51029	0.01630
2754.45012	0.01627
2752.38995	0.01627
2750.32978	0.01630
2748.26960	0.01626
2746.20943	0.01616
2744.14926	0.01606
2742.08909	0.01600
2740.02892	0.01595
2737.96874	0.01583
2735.90857	0.01564
2733.84840	0.01555
2731.78823	0.01561
2729.72805	0.01570
2727.66788	0.01571
2725.60771	0.01562
2723.54754	0.01551
2721.48737	0.01546
2719.42719	0.01552
2717.36702	0.01554
2715.30685	0.01548
2713.24668	0.01535
2711.18651	0.01521
2709.12633	0.01509
2707.06616	0.01504
2705.00599	0.01503
2702.94582	0.01504
2700.88565	0.01503
2698.82547	0.01497
2696.76530	0.01482
2694.70513	0.01466
2692.64496	0.01460
2690.58478	0.01462
2688.52461	0.01463
2686.46444	0.01462
2684.40427	0.01461
2682.34410	0.01462
2680.28392	0.01467
2678.22375	0.01469
2676.16358	0.01463
2674.10341	0.01455
2672.04324	0.01449
2669.98306	0.01440
2667.92289	0.01427
2665.86272	0.01413
2663.80255	0.01405
2661.74238	0.01409
2659.68220	0.01418
2657.62203	0.01416
2655.56186	0.01404
2653.50169	0.01399
2651.44151	0.01403
2649.38134	0.01402
2647.32117	0.01395
2645.26100	0.01383
2643.20083	0.01371
2641.14065	0.01364
2639.08048	0.01363
2637.02031	0.01360
2634.96014	0.01351
2632.89997	0.01340
2630.83979	0.01327
2628.77962	0.01316
2626.71945	0.01307
2624.65928	0.01298
2622.59910	0.01286
2620.53893	0.01273
2618.47876	0.01260
2616.41859	0.01254
2614.35842	0.01256
2612.29824	0.01252
2610.23807	0.01245
2608.17790	0.01249
2606.11773	0.01254
2604.05756	0.01244
2601.99738	0.01221
2599.93721	0.01202
2597.87704	0.01192
2595.81687	0.01186
2593.75670	0.01175
2591.69652	0.01163
2589.63635	0.01153
2587.57618	0.01140
2585.51601	0.01118
2583.45583	0.01100
2581.39566	0.01098
2579.33549	0.01104
2577.27532	0.01110
2575.21515	0.01114
2573.15497	0.01112
2571.09480	0.01097
2569.03463	0.01077
2566.97446	0.01062
2564.91429	0.01053
2562.85411	0.01054
2560.79394	0.01056
2558.73377	0.01044
2556.67360	0.01025
2554.61342	0.01017
2552.55325	0.01016
2550.49308	0.01013
2548.43291	0.01022
2546.37274	0.01043
2544.31256	0.01052
2542.25239	0.01043
2540.19222	0.01027
2538.13205	0.01014
2536.07188	0.01000
2534.01170	0.00980
2531.95153	0.00971
2529.89136	0.00982
2527.83119	0.00987
2525.77102	0.00978
2523.71084	0.00970
2521.65067	0.00966
2519.59050	0.00958
2517.53033	0.00947
2515.47015	0.00943
2513.40998	0.00949
2511.34981	0.00955
2509.28964	0.00955
2507.22947	0.00948
2505.16929	0.00932
2503.10912	0.00912
2501.04895	0.00903
2498.98878	0.00904
2496.92861	0.00904
2494.86843	0.00904
2492.80826	0.00908
2490.74809	0.00914
2488.68792	0.00912
2486.62775	0.00908
2484.56757	0.00910
2482.50740	0.00917
2480.44723	0.00915
2478.38706	0.00899
2476.32688	0.00880
2474.26671	0.00877
2472.20654	0.00888
2470.14637	0.00893
2468.08620	0.00880
2466.02602	0.00858
2463.96585	0.00848
2461.90568	0.00861
2459.84551	0.00886
2457.78534	0.00900
2455.72516	0.00893
2453.66499	0.00881
2451.60482	0.00873
2449.54465	0.00862
2447.48447	0.00842
2445.42430	0.00818
2443.36413	0.00806
2441.30396	0.00812
2439.24379	0.00823
2437.18361	0.00827
2435.12344	0.00827
2433.06327	0.00828
2431.00310	0.00825
2428.94293	0.00814
2426.88275	0.00804
2424.82258	0.00799
2422.76241	0.00796
2420.70224	0.00795
2418.64207	0.00792
2416.58189	0.00782
2414.52172	0.00784
2412.46155	0.00804
2410.40138	0.00813
2408.34120	0.00799
2406.28103	0.00787
2404.22086	0.00793
2402.16069	0.00801
2400.10052	0.00804
2398.04034	0.00803
2395.98017	0.00796
2393.92000	0.00785
2391.85983	0.00776
2389.79966	0.00772
2387.73948	0.00774
2385.67931	0.00780
2383.61914	0.00787
2381.55897	0.00796
2379.49880	0.00803
2377.43862	0.00803
2375.37845	0.00800
2373.31828	0.00801
2371.25811	0.00805
2369.19793	0.00804
2367.13776	0.00792
2365.07759	0.00773
2363.01742	0.00750
2360.95725	0.00723
2358.89707	0.00699
2356.83690	0.00692
2354.77673	0.00710
2352.71656	0.00749
2350.65639	0.00792
2348.59621	0.00823
2346.53604	0.00829
2344.47587	0.00814
2342.41570	0.00785
2340.35552	0.00756
2338.29535	0.00728
2336.23518	0.00706
2334.17501	0.00692
2332.11484	0.00694
2330.05466	0.00714
2327.99449	0.00751
2325.93432	0.00796
2323.87415	0.00830
2321.81398	0.00841
2319.75380	0.00827
2317.69363	0.00800
2315.63346	0.00776
2313.57329	0.00761
2311.51312	0.00756
2309.45294	0.00755
2307.39277	0.00752
2305.33260	0.00745
2303.27243	0.00737
2301.21225	0.00730
2299.15208	0.00725
2297.09191	0.00727
2295.03174	0.00733
2292.97157	0.00740
2290.91139	0.00742
2288.85122	0.00734
2286.79105	0.00718
2284.73088	0.00699
2282.67071	0.00687
2280.61053	0.00682
2278.55036	0.00682
2276.49019	0.00687
2274.43002	0.00701
2272.36984	0.00716
2270.30967	0.00724
2268.24950	0.00719
2266.18933	0.00704
2264.12916	0.00686
2262.06898	0.00666
2260.00881	0.00643
2257.94864	0.00627
2255.88847	0.00627
2253.82830	0.00639
2251.76812	0.00649
2249.70795	0.00647
2247.64778	0.00634
2245.58761	0.00623
2243.52744	0.00624
2241.46726	0.00628
2239.40709	0.00609
2237.34692	0.00567
2235.28675	0.00527
2233.22657	0.00519
2231.16640	0.00541
2229.10623	0.00572
2227.04606	0.00586
2224.98589	0.00566
2222.92571	0.00534
2220.86554	0.00523
2218.80537	0.00547
2216.74520	0.00588
2214.68503	0.00611
2212.62485	0.00598
2210.56468	0.00573
2208.50451	0.00558
2206.44434	0.00551
2204.38417	0.00546
2202.32399	0.00548
2200.26382	0.00554
2198.20365	0.00543
2196.14348	0.00504
2194.08330	0.00472
2192.02313	0.00479
2189.96296	0.00500
2187.90279	0.00497
2185.84262	0.00500
2183.78244	0.00549
2181.72227	0.00603
2179.66210	0.00595
2177.60193	0.00527
2175.54176	0.00469
2173.48158	0.00466
2171.42141	0.00482
2169.36124	0.00478
2167.30107	0.00492
2165.24089	0.00571
2163.18072	0.00636
2161.12055	0.00573
2159.06038	0.00428
2157.00021	0.00341
2154.94003	0.00336
2152.87986	0.00360
2150.81969	0.00382
2148.75952	0.00377
2146.69935	0.00338
2144.63917	0.00308
2142.57900	0.00333
2140.51883	0.00399
2138.45866	0.00437
2136.39849	0.00415
2134.33831	0.00394
2132.27814	0.00426
2130.21797	0.00462
2128.15780	0.00448
2126.09762	0.00423
2124.03745	0.00443
2121.97728	0.00502
2119.91711	0.00548
2117.85694	0.00543
2115.79676	0.00507
2113.73659	0.00497
2111.67642	0.00527
2109.61625	0.00565
2107.55608	0.00585
2105.49590	0.00574
2103.43573	0.00544
2101.37556	0.00530
2099.31539	0.00539
2097.25521	0.00549
2095.19504	0.00548
2093.13487	0.00545
2091.07470	0.00549
2089.01453	0.00557
2086.95435	0.00560
2084.89418	0.00555
2082.83401	0.00551
2080.77384	0.00549
2078.71367	0.00544
2076.65349	0.00538
2074.59332	0.00532
2072.53315	0.00525
2070.47298	0.00516
2068.41281	0.00502
2066.35263	0.00481
2064.29246	0.00456
2062.23229	0.00444
2060.17212	0.00459
2058.11194	0.00487
2056.05177	0.00513
2053.99160	0.00531
2051.93143	0.00542
2049.87126	0.00548
2047.81108	0.00547
2045.75091	0.00532
2043.69074	0.00503
2041.63057	0.00473
2039.57040	0.00448
2037.51022	0.00423
2035.45005	0.00385
2033.38988	0.00341
2031.32971	0.00314
2029.26954	0.00311
2027.20936	0.00316
2025.14919	0.00311
2023.08902	0.00296
2021.02885	0.00279
2018.96867	0.00272
2016.90850	0.00280
2014.84833	0.00289
2012.78816	0.00274
2010.72799	0.00232
2008.66781	0.00190
2006.60764	0.00183
2004.54747	0.00219
2002.48730	0.00276
2000.42713	0.00330
1998.36695	0.00370
1996.30678	0.00402
1994.24661	0.00425
1992.18644	0.00431
1990.12626	0.00416
1988.06609	0.00387
1986.00592	0.00363
1983.94575	0.00348
1981.88558	0.00327
1979.82540	0.00298
1977.76523	0.00272
1975.70506	0.00264
1973.64489	0.00269
1971.58472	0.00268
1969.52454	0.00260
1967.46437	0.00259
1965.40420	0.00265
1963.34403	0.00274
1961.28386	0.00276
1959.22368	0.00273
1957.16351	0.00271
1955.10334	0.00275
1953.04317	0.00282
1950.98299	0.00290
1948.92282	0.00295
1946.86265	0.00296
1944.80248	0.00293
1942.74231	0.00294
1940.68213	0.00303
1938.62196	0.00316
1936.56179	0.00319
1934.50162	0.00310
1932.44145	0.00298
1930.38127	0.00292
1928.32110	0.00293
1926.26093	0.00302
1924.20076	0.00315
1922.14059	0.00328
1920.08041	0.00339
1918.02024	0.00346
1915.96007	0.00345
1913.89990	0.00339
1911.83972	0.00332
1909.77955	0.00329
1907.71938	0.00330
1905.65921	0.00331
1903.59904	0.00330
1901.53886	0.00327
1899.47869	0.00322
1897.41852	0.00314
1895.35835	0.00305
1893.29818	0.00296
1891.23800	0.00293
1889.17783	0.00293
1887.11766	0.00295
1885.05749	0.00299
1882.99731	0.00305
1880.93714	0.00312
1878.87697	0.00314
1876.81680	0.00312
1874.75663	0.00308
1872.69645	0.00305
1870.63628	0.00306
1868.57611	0.00309
1866.51594	0.00311
1864.45577	0.00313
1862.39559	0.00310
1860.33542	0.00300
1858.27525	0.00283
1856.21508	0.00264
1854.15491	0.00247
1852.09473	0.00234
1850.03456	0.00230
1847.97439	0.00237
1845.91422	0.00253
1843.85404	0.00272
1841.79387	0.00287
1839.73370	0.00293
1837.67353	0.00290
1835.61336	0.00279
1833.55318	0.00264
1831.49301	0.00251
1829.43284	0.00243
1827.37267	0.00240
1825.31250	0.00239
1823.25232	0.00236
1821.19215	0.00228
1819.13198	0.00216
1817.07181	0.00208
1815.01163	0.00210
1812.95146	0.00222
1810.89129	0.00237
1808.83112	0.00247
1806.77095	0.00251
1804.71077	0.00250
1802.65060	0.00246
1800.59043	0.00239
1798.53026	0.00227
1796.47009	0.00215
1794.40991	0.00211
1792.34974	0.00218
1790.28957	0.00234
1788.22940	0.00248
1786.16923	0.00249
1784.10905	0.00237
1782.04888	0.00219
1779.98871	0.00207
1777.92854	0.00204
1775.86836	0.00207
1773.80819	0.00223
1771.74802	0.00246
1769.68785	0.00274
1767.62768	0.00307
1765.56750	0.00351
1763.50733	0.00411
1761.44716	0.00488
1759.38699	0.00583
1757.32682	0.00696
1755.26664	0.00826
1753.20647	0.00970
1751.14630	0.01123
1749.08613	0.01271
1747.02596	0.01395
1744.96578	0.01487
1742.90561	0.01548
1740.84544	0.01589
1738.78527	0.01615
1736.72509	0.01628
1734.66492	0.01627
1732.60475	0.01614
1730.54458	0.01600
1728.48441	0.01593
1726.42423	0.01595
1724.36406	0.01600
1722.30389	0.01607
1720.24372	0.01614
1718.18355	0.01618
1716.12337	0.01617
1714.06320	0.01613
1712.00303	0.01605
1709.94286	0.01593
1707.88268	0.01575
1705.82251	0.01554
1703.76234	0.01532
1701.70217	0.01513
1699.64200	0.01502
1697.58182	0.01508
1695.52165	0.01538
1693.46148	0.01591
1691.40131	0.01668
1689.34114	0.01775
1687.28096	0.01915
1685.22079	0.02085
1683.16062	0.02265
1681.10045	0.02430
1679.04028	0.02567
1676.98010	0.02675
1674.91993	0.02753
1672.85976	0.02799
1670.79959	0.02811
1668.73941	0.02790
1666.67924	0.02745
1664.61907	0.02688
1662.55890	0.02626
1660.49873	0.02569
1658.43855	0.02529
1656.37838	0.02504
1654.31821	0.02481
1652.25804	0.02452
1650.19787	0.02428
1648.13769	0.02414
1646.07752	0.02407
1644.01735	0.02412
1641.95718	0.02435
1639.89701	0.02477
1637.83683	0.02535
1635.77666	0.02598
1633.71649	0.02655
1631.65632	0.02704
1629.59614	0.02744
1627.53597	0.02773
1625.47580	0.02793
1623.41563	0.02806
1621.35546	0.02821
1619.29528	0.02845
1617.23511	0.02884
1615.17494	0.02937
1613.11477	0.03011
1611.05460	0.03107
1608.99442	0.03207
1606.93425	0.03282
1604.87408	0.03304
1602.81391	0.03264
1600.75373	0.03171
1598.69356	0.03050
1596.63339	0.02925
1594.57322	0.02809
1592.51305	0.02708
1590.45287	0.02623
1588.39270	0.02549
1586.33253	0.02475
1584.27236	0.02397
1582.21219	0.02317
1580.15201	0.02243
1578.09184	0.02178
1576.03167	0.02119
1573.97150	0.02064
1571.91133	0.02010
1569.85115	0.01948
1567.79098	0.01877
1565.73081	0.01807
1563.67064	0.01741
1561.61046	0.01673
1559.55029	0.01587
1557.49012	0.01485
1555.42995	0.01396
1553.36978	0.01327
1551.30960	0.01271
1549.24943	0.01219
1547.18926	0.01168
1545.12909	0.01113
1543.06892	0.01052
1541.00874	0.00982
1538.94857	0.00910
1536.88840	0.00849
1534.82823	0.00805
1532.76805	0.00771
1530.70788	0.00748
1528.64771	0.00738
1526.58754	0.00743
1524.52737	0.00772
1522.46719	0.00834
1520.40702	0.00926
1518.34685	0.01028
1516.28668	0.01113
1514.22651	0.01154
1512.16633	0.01138
1510.10616	0.01065
1508.04599	0.00947
1505.98582	0.00807
1503.92565	0.00683
1501.86547	0.00591
1499.80530	0.00521
1497.74513	0.00459
1495.68496	0.00403
1493.62478	0.00356
1491.56461	0.00318
1489.50444	0.00282
1487.44427	0.00255
1485.38410	0.00246
1483.32392	0.00260
1481.26375	0.00294
1479.20358	0.00348
1477.14341	0.00432
1475.08324	0.00558
1473.02306	0.00726
1470.96289	0.00917
1468.90272	0.01104
1466.84255	0.01270
1464.78238	0.01408
1462.72220	0.01517
1460.66203	0.01604
1458.60186	0.01679
1456.54169	0.01748
1454.48151	0.01813
1452.42134	0.01877
1450.36117	0.01943
1448.30100	0.02014
1446.24083	0.02089
1444.18065	0.02165
1442.12048	0.02239
1440.06031	0.02306
1438.00014	0.02361
1435.93997	0.02401
1433.87979	0.02429
1431.81962	0.02447
1429.75945	0.02458
1427.69928	0.02466
1425.63910	0.02476
1423.57893	0.02490
1421.51876	0.02505
1419.45859	0.02515
1417.39842	0.02515
1415.33824	0.02505
1413.27807	0.02481
1411.21790	0.02441
1409.15773	0.02388
1407.09756	0.02327
1405.03738	0.02261
1402.97721	0.02195
1400.91704	0.02130
1398.85687	0.02064
1396.79670	0.01998
1394.73652	0.01944
1392.67635	0.01913
1390.61618	0.01910
1388.55601	0.01930
1386.49583	0.01965
1384.43566	0.02011
1382.37549	0.02067
1380.31532	0.02129
1378.25515	0.02188
1376.19497	0.02237
1374.13480	0.02270
1372.07463	0.02286
1370.01446	0.02286
1367.95429	0.02271
1365.89411	0.02241
1363.83394	0.02200
1361.77377	0.02154
1359.71360	0.02117
1357.65343	0.02095
1355.59325	0.02085
1353.53308	0.02079
1351.47291	0.02071
1349.41274	0.02062
1347.35256	0.02054
1345.29239	0.02047
1343.23222	0.02038
1341.17205	0.02026
1339.11188	0.02012
1337.05170	0.02003
1334.99153	0.02005
1332.93136	0.02015
1330.87119	0.02027
1328.81102	0.02036
1326.75084	0.02043
1324.69067	0.02050
1322.63050	0.02058
1320.57033	0.02061
1318.51015	0.02055
1316.44998	0.02037
1314.38981	0.02012
1312.32964	0.01980
1310.26947	0.01940
1308.20929	0.01893
1306.14912	0.01841
1304.08895	0.01789
1302.02878	0.01741
1299.96861	0.01698
1297.90843	0.01666
1295.84826	0.01650
1293.78809	0.01653
1291.72792	0.01669
1289.66775	0.01691
1287.60757	0.01715
1285.54740	0.01742
1283.48723	0.01766
1281.42706	0.01784
1279.36688	0.01798
1277.30671	0.01810
1275.24654	0.01824
1273.18637	0.01843
1271.12620	0.01874
1269.06602	0.01918
1267.00585	0.01974
1264.94568	0.02039
1262.88551	0.02108
1260.82534	0.02175
1258.76516	0.02235
1256.70499	0.02288
1254.64482	0.02334
1252.58465	0.02370
1250.52447	0.02397
1248.46430	0.02420
1246.40413	0.02442
1244.34396	0.02462
1242.28379	0.02477
1240.22361	0.02482
1238.16344	0.02472
1236.10327	0.02446
1234.04310	0.02402
1231.98293	0.02346
1229.92275	0.02277
1227.86258	0.02196
1225.80241	0.02104
1223.74224	0.02003
1221.68207	0.01894
1219.62189	0.01783
1217.56172	0.01671
1215.50155	0.01559
1213.44138	0.01449
1211.38120	0.01344
1209.32103	0.01241
1207.26086	0.01139
1205.20069	0.01034
1203.14052	0.00921
1201.08034	0.00800
1199.02017	0.00672
1196.96000	0.00547
1194.89983	0.00440
1192.83966	0.00359
1190.77948	0.00305
1188.71931	0.00272
1186.65914	0.00259
1184.59897	0.00255
1182.53880	0.00266
1180.47862	0.00304
1178.41845	0.00381
1176.35828	0.00503
1174.29811	0.00666
1172.23793	0.00859
1170.17776	0.01058
1168.11759	0.01227
1166.05742	0.01334
1163.99725	0.01384
1161.93707	0.01416
1159.87690	0.01458
1157.81673	0.01512
1155.75656	0.01568
1153.69639	0.01631
1151.63621	0.01711
1149.57604	0.01809
1147.51587	0.01916
1145.45570	0.02013
1143.39552	0.02089
1141.33535	0.02152
1139.27518	0.02212
1137.21501	0.02269
1135.15484	0.02324
1133.09466	0.02383
1131.03449	0.02456
1128.97432	0.02540
1126.91415	0.02628
1124.85398	0.02718
1122.79380	0.02819
1120.73363	0.02935
1118.67346	0.03052
1116.61329	0.03155
1114.55312	0.03247
1112.49294	0.03334
1110.43277	0.03417
1108.37260	0.03494
1106.31243	0.03574
1104.25225	0.03670
1102.19208	0.03791
1100.13191	0.03937
1098.07174	0.04094
1096.01157	0.04253
1093.95139	0.04412
1091.89122	0.04574
1089.83105	0.04730
1087.77088	0.04876
1085.71071	0.05017
1083.65053	0.05165
1081.59036	0.05322
1079.53019	0.05483
1077.47002	0.05657
1075.40985	0.05855
1073.34967	0.06058
1071.28950	0.06236
1069.22933	0.06375
1067.16916	0.06480
1065.10898	0.06567
1063.04881	0.06657
1060.98864	0.06763
1058.92847	0.06885
1056.86830	0.07014
1054.80812	0.07151
1052.74795	0.07304
1050.68778	0.07477
1048.62761	0.07666
1046.56744	0.07858
1044.50726	0.08039
1042.44709	0.08210
1040.38692	0.08374
1038.32675	0.08522
1036.26657	0.08640
1034.20640	0.08721
1032.14623	0.08761
1030.08606	0.08769
1028.02589	0.08759
1025.96571	0.08732
1023.90554	0.08687
1021.84537	0.08635
1019.78520	0.08592
1017.72503	0.08567
1015.66485	0.08560
1013.60468	0.08568
1011.54451	0.08582
1009.48434	0.08602
1007.42417	0.08620
1005.36399	0.08618
1003.30382	0.08577
1001.24365	0.08498
999.18348	0.08396
997.12330	0.08284
995.06313	0.08162
993.00296	0.08027
990.94279	0.07891
988.88262	0.07758
986.82244	0.07621
984.76227	0.07483
982.70210	0.07363
980.64193	0.07265
978.58176	0.07168
976.52158	0.07054
974.46141	0.06926
972.40124	0.06791
970.34107	0.06652
968.28089	0.06510
966.22072	0.06375
964.16055	0.06246
962.10038	0.06105
960.04021	0.05955
957.98003	0.05811
955.91986	0.05679
953.85969	0.05560
951.79952	0.05448
949.73935	0.05337
947.67917	0.05220
945.61900	0.05084
943.55883	0.04917
941.49866	0.04712
939.43849	0.04472
937.37831	0.04212
935.31814	0.03941
933.25797	0.03673
931.19780	0.03424
929.13762	0.03213
927.07745	0.03030
925.01728	0.02857
922.95711	0.02686
920.89694	0.02519
918.83676	0.02357
916.77659	0.02203
914.71642	0.02062
912.65625	0.01934
910.59608	0.01812
908.53590	0.01699
906.47573	0.01608
904.41556	0.01548
902.35539	0.01523
900.29522	0.01526
898.23504	0.01541
896.17487	0.01561
894.11470	0.01577
892.05453	0.01575
889.99435	0.01543
887.93418	0.01483
885.87401	0.01406
883.81384	0.01325
881.75367	0.01243
879.69349	0.01160
877.63332	0.01078
875.57315	0.00994
873.51298	0.00914
871.45281	0.00861
869.39263	0.00838
867.33246	0.00828
865.27229	0.00819
863.21212	0.00817
861.15194	0.00827
859.09177	0.00835
857.03160	0.00828
854.97143	0.00809
852.91126	0.00791
850.85108	0.00781
848.79091	0.00783
846.73074	0.00794
844.67057	0.00803
842.61040	0.00802
840.55022	0.00791
838.49005	0.00761
836.42988	0.00717
834.36971	0.00680
832.30954	0.00654
830.24936	0.00621
828.18919	0.00577
826.12902	0.00540
824.06885	0.00525
822.00867	0.00520
819.94850	0.00505
817.88833	0.00475
815.82816	0.00460
813.76799	0.00473
811.70781	0.00485
809.64764	0.00474
807.58747	0.00464
805.52730	0.00471
803.46713	0.00484
801.40695	0.00480
799.34678	0.00449
797.28661	0.00409
795.22644	0.00378
793.16627	0.00345
791.10609	0.00311
789.04592	0.00296
786.98575	0.00298
784.92558	0.00319
782.86540	0.00345
780.80523	0.00364
778.74506	0.00366
776.68489	0.00350
774.62472	0.00328
772.56454	0.00312
770.50437	0.00296
768.44420	0.00275
766.38403	0.00263
764.32386	0.00260
762.26368	0.00262
760.20351	0.00268
758.14334	0.00278
756.08317	0.00285
754.02299	0.00286
751.96282	0.00299
749.90265	0.00303
747.84248	0.00277
745.78231	0.00208
743.72213	0.00144
741.66196	0.00108
739.60179	0.00074
737.54162	0.00041
735.48145	0.00035
733.42127	0.00048
731.36110	0.00059
729.30093	0.00068
727.24076	0.00090
725.18059	0.00120
723.12041	0.00151
721.06024	0.00185
719.00007	0.00222
716.93990	0.00253
714.87972	0.00277
712.81955	0.00303
710.75938	0.00334
708.69921	0.00363
706.63904	0.00395
704.57886	0.00435
702.51869	0.00478
700.45852	0.00504
698.39835	0.00502
696.33818	0.00469
694.27800	0.00417
692.21783	0.00364
690.15766	0.00320
688.09749	0.00281
686.03731	0.00234
683.97714	0.00180
681.91697	0.00135
679.85680	0.00110
677.79663	0.00096
675.73645	0.00082
673.67628	0.00064
671.61611	0.00046
669.55594	0.00035
667.49577	0.00041
665.43559	0.00065
663.37542	0.00094
661.31525	0.00109
659.25508	0.00110
657.19491	0.00112
655.13473	0.00124
653.07456	0.00137
651.01439	0.00142
648.95422	0.00134
646.89404	0.00104
644.83387	0.00073
642.77370	0.00064
640.71353	0.00080
638.65336	0.00112
636.59318	0.00150
634.53301	0.00185
632.47284	0.00208
630.41267	0.00209
628.35250	0.00188
626.29232	0.00157
624.23215	0.00120
622.17198	0.00084
620.11181	0.00087
618.05164	0.00107
615.99146	0.00073
613.93129	0.00014
611.87112	0.00003
609.81095	0.00028
607.75077	0.00051
605.69060	0.00051
603.63043	0.00024
601.57026	0.00000
599.51009	0.00000
