3996.73391	0.00075
3994.67373	0.00075
3992.61356	0.00068
3990.55339	0.00055
3988.49322	0.00039
3986.43305	0.00022
3984.37287	0.00008
3982.31270	0.00000
3980.25253	0.00004
3978.19236	0.00018
3976.13219	0.00031
3974.07201	0.00039
3972.01184	0.00038
3969.95167	0.00033
3967.89150	0.00031
3965.83133	0.00034
3963.77115	0.00040
3961.71098	0.00043
3959.65081	0.00041
3957.59064	0.00040
3955.53046	0.00043
3953.47029	0.00047
3951.41012	0.00046
3949.34995	0.00038
3947.28978	0.00028
3945.22960	0.00024
3943.16943	0.00028
3941.10926	0.00035
3939.04909	0.00041
3936.98892	0.00047
3934.92874	0.00053
3932.86857	0.00056
3930.80840	0.00055
3928.74823	0.00054
3926.68805	0.00052
3924.62788	0.00044
3922.56771	0.00032
3920.50754	0.00022
3918.44737	0.00020
3916.38719	0.00023
3914.32702	0.00027
3912.26685	0.00027
3910.20668	0.00025
3908.14651	0.00027
3906.08633	0.00034
3904.02616	0.00045
3901.96599	0.00057
3899.90582	0.00069
3897.84565	0.00076
3895.78547	0.00073
3893.72530	0.00060
3891.66513	0.00044
3889.60496	0.00035
3887.54478	0.00041
3885.48461	0.00051
3883.42444	0.00045
3881.36427	0.00028
3879.30410	0.00015
3877.24392	0.00021
3875.18375	0.00044
3873.12358	0.00067
3871.06341	0.00079
3869.00324	0.00081
3866.94306	0.00077
3864.88289	0.00070
3862.82272	0.00062
3860.76255	0.00061
3858.70237	0.00069
3856.64220	0.00077
3854.58203	0.00078
3852.52186	0.00069
3850.46169	0.00057
3848.40151	0.00049
3846.34134	0.00047
3844.28117	0.00049
3842.22100	0.00054
3840.16083	0.00058
3838.10065	0.00059
3836.04048	0.00062
3833.98031	0.00070
3831.92014	0.00081
3829.85997	0.00090
3827.79979	0.00098
3825.73962	0.00106
3823.67945	0.00111
3821.61928	0.00108
3819.55910	0.00090
3817.49893	0.00067
3815.43876	0.00055
3813.37859	0.00060
3811.31842	0.00077
3809.25824	0.00092
3807.19807	0.00094
3805.13790	0.00089
3803.07773	0.00083
3801.01756	0.00075
3798.95738	0.00066
3796.89721	0.00064
3794.83704	0.00070
3792.77687	0.00077
3790.71670	0.00083
3788.65652	0.00092
3786.59635	0.00109
3784.53618	0.00126
3782.47601	0.00131
3780.41583	0.00124
3778.35566	0.00108
3776.29549	0.00091
3774.23532	0.00081
3772.17515	0.00081
3770.11497	0.00089
3768.05480	0.00095
3765.99463	0.00097
3763.93446	0.00097
3761.87429	0.00096
3759.81411	0.00092
3757.75394	0.00079
3755.69377	0.00066
3753.63360	0.00066
3751.57342	0.00076
3749.51325	0.00078
3747.45308	0.00071
3745.39291	0.00067
3743.33274	0.00070
3741.27256	0.00078
3739.21239	0.00088
3737.15222	0.00091
3735.09205	0.00074
3733.03188	0.00044
3730.97170	0.00025
3728.91153	0.00029
3726.85136	0.00047
3724.79119	0.00064
3722.73102	0.00068
3720.67084	0.00065
3718.61067	0.00060
3716.55050	0.00059
3714.49033	0.00063
3712.43015	0.00067
3710.36998	0.00068
3708.30981	0.00067
3706.24964	0.00064
3704.18947	0.00062
3702.12929	0.00058
3700.06912	0.00057
3698.00895	0.00067
3695.94878	0.00084
3693.88861	0.00095
3691.82843	0.00093
3689.76826	0.00078
3687.70809	0.00056
3685.64792	0.00040
3683.58775	0.00041
3681.52757	0.00053
3679.46740	0.00062
3677.40723	0.00061
3675.34706	0.00054
3673.28688	0.00060
3671.22671	0.00080
3669.16654	0.00099
3667.10637	0.00104
3665.04620	0.00102
3662.98602	0.00105
3660.92585	0.00117
3658.86568	0.00136
3656.80551	0.00153
3654.74534	0.00163
3652.68516	0.00176
3650.62499	0.00195
3648.56482	0.00215
3646.50465	0.00231
3644.44447	0.00245
3642.38430	0.00257
3640.32413	0.00261
3638.26396	0.00251
3636.20379	0.00237
3634.14361	0.00226
3632.08344	0.00220
3630.02327	0.00222
3627.96310	0.00242
3625.90293	0.00277
3623.84275	0.00313
3621.78258	0.00340
3619.72241	0.00358
3617.66224	0.00373
3615.60207	0.00392
3613.54189	0.00413
3611.48172	0.00426
3609.42155	0.00428
3607.36138	0.00424
3605.30120	0.00428
3603.24103	0.00450
3601.18086	0.00488
3599.12069	0.00527
3597.06052	0.00552
3595.00034	0.00562
3592.94017	0.00557
3590.88000	0.00548
3588.81983	0.00551
3586.75966	0.00575
3584.69948	0.00613
3582.63931	0.00657
3580.57914	0.00696
3578.51897	0.00728
3576.45879	0.00750
3574.39862	0.00769
3572.33845	0.00797
3570.27828	0.00834
3568.21811	0.00868
3566.15793	0.00882
3564.09776	0.00882
3562.03759	0.00893
3559.97742	0.00929
3557.91725	0.00987
3555.85707	0.01051
3553.79690	0.01100
3551.73673	0.01127
3549.67656	0.01141
3547.61639	0.01150
3545.55621	0.01162
3543.49604	0.01184
3541.43587	0.01221
3539.37570	0.01267
3537.31552	0.01317
3535.25535	0.01363
3533.19518	0.01404
3531.13501	0.01438
3529.07484	0.01464
3527.01466	0.01485
3524.95449	0.01508
3522.89432	0.01539
3520.83415	0.01576
3518.77398	0.01615
3516.71380	0.01650
3514.65363	0.01679
3512.59346	0.01699
3510.53329	0.01712
3508.47312	0.01727
3506.41294	0.01751
3504.35277	0.01785
3502.29260	0.01821
3500.23243	0.01855
3498.17225	0.01887
3496.11208	0.01920
3494.05191	0.01952
3491.99174	0.01984
3489.93157	0.02019
3487.87139	0.02059
3485.81122	0.02101
3483.75105	0.02142
3481.69088	0.02176
3479.63071	0.02203
3477.57053	0.02225
3475.51036	0.02245
3473.45019	0.02264
3471.39002	0.02285
3469.32984	0.02314
3467.26967	0.02357
3465.20950	0.02410
3463.14933	0.02466
3461.08916	0.02510
3459.02898	0.02539
3456.96881	0.02553
3454.90864	0.02561
3452.84847	0.02571
3450.78830	0.02585
3448.72812	0.02605
3446.66795	0.02629
3444.60778	0.02655
3442.54761	0.02683
3440.48744	0.02709
3438.42726	0.02732
3436.36709	0.02754
3434.30692	0.02783
3432.24675	0.02821
3430.18657	0.02864
3428.12640	0.02908
3426.06623	0.02950
3424.00606	0.02986
3421.94589	0.03011
3419.88571	0.03025
3417.82554	0.03036
3415.76537	0.03051
3413.70520	0.03068
3411.64503	0.03087
3409.58485	0.03107
3407.52468	0.03127
3405.46451	0.03147
3403.40434	0.03167
3401.34416	0.03190
3399.28399	0.03216
3397.22382	0.03244
3395.16365	0.03268
3393.10348	0.03287
3391.04330	0.03303
3388.98313	0.03323
3386.92296	0.03344
3384.86279	0.03361
3382.80262	0.03372
3380.74244	0.03380
3378.68227	0.03391
3376.62210	0.03404
3374.56193	0.03419
3372.50176	0.03437
3370.44158	0.03457
3368.38141	0.03479
3366.32124	0.03502
3364.26107	0.03522
3362.20089	0.03536
3360.14072	0.03543
3358.08055	0.03545
3356.02038	0.03545
3353.96021	0.03547
3351.90003	0.03555
3349.83986	0.03567
3347.77969	0.03582
3345.71952	0.03598
3343.65935	0.03611
3341.59917	0.03618
3339.53900	0.03618
3337.47883	0.03615
3335.41866	0.03617
3333.35849	0.03626
3331.29831	0.03636
3329.23814	0.03643
3327.17797	0.03646
3325.11780	0.03653
3323.05762	0.03665
3320.99745	0.03681
3318.93728	0.03695
3316.87711	0.03703
3314.81694	0.03704
3312.75676	0.03700
3310.69659	0.03696
3308.63642	0.03694
3306.57625	0.03695
3304.51608	0.03701
3302.45590	0.03708
3300.39573	0.03710
3298.33556	0.03706
3296.27539	0.03698
3294.21521	0.03690
3292.15504	0.03683
3290.09487	0.03679
3288.03470	0.03674
3285.97453	0.03669
3283.91435	0.03666
3281.85418	0.03668
3279.79401	0.03672
3277.73384	0.03674
3275.67367	0.03673
3273.61349	0.03671
3271.55332	0.03673
3269.49315	0.03676
3267.43298	0.03675
3265.37281	0.03668
3263.31263	0.03656
3261.25246	0.03647
3259.19229	0.03642
3257.13212	0.03639
3255.07194	0.03632
3253.01177	0.03622
3250.95160	0.03608
3248.89143	0.03592
3246.83126	0.03575
3244.77108	0.03562
3242.71091	0.03552
3240.65074	0.03542
3238.59057	0.03528
3236.53040	0.03511
3234.47022	0.03494
3232.41005	0.03481
3230.34988	0.03470
3228.28971	0.03463
3226.22954	0.03459
3224.16936	0.03452
3222.10919	0.03443
3220.04902	0.03435
3217.98885	0.03431
3215.92867	0.03426
3213.86850	0.03416
3211.80833	0.03401
3209.74816	0.03383
3207.68799	0.03365
3205.62781	0.03348
3203.56764	0.03331
3201.50747	0.03316
3199.44730	0.03306
3197.38713	0.03300
3195.32695	0.03288
3193.26678	0.03265
3191.20661	0.03235
3189.14644	0.03205
3187.08626	0.03182
3185.02609	0.03167
3182.96592	0.03157
3180.90575	0.03149
3178.84558	0.03137
3176.78540	0.03115
3174.72523	0.03086
3172.66506	0.03057
3170.60489	0.03037
3168.54472	0.03026
3166.48454	0.03014
3164.42437	0.02992
3162.36420	0.02961
3160.30403	0.02930
3158.24386	0.02907
3156.18368	0.02894
3154.12351	0.02884
3152.06334	0.02873
3150.00317	0.02860
3147.94299	0.02844
3145.88282	0.02826
3143.82265	0.02807
3141.76248	0.02787
3139.70231	0.02762
3137.64213	0.02736
3135.58196	0.02714
3133.52179	0.02700
3131.46162	0.02691
3129.40145	0.02681
3127.34127	0.02664
3125.28110	0.02635
3123.22093	0.02601
3121.16076	0.02567
3119.10058	0.02539
3117.04041	0.02517
3114.98024	0.02498
3112.92007	0.02481
3110.85990	0.02467
3108.79972	0.02452
3106.73955	0.02436
3104.67938	0.02416
3102.61921	0.02392
3100.55904	0.02366
3098.49886	0.02341
3096.43869	0.02321
3094.37852	0.02303
3092.31835	0.02286
3090.25818	0.02270
3088.19800	0.02257
3086.13783	0.02247
3084.07766	0.02235
3082.01749	0.02219
3079.95731	0.02198
3077.89714	0.02175
3075.83697	0.02154
3073.77680	0.02137
3071.71663	0.02124
3069.65645	0.02113
3067.59628	0.02099
3065.53611	0.02080
3063.47594	0.02056
3061.41577	0.02027
3059.35559	0.02000
3057.29542	0.01979
3055.23525	0.01964
3053.17508	0.01954
3051.11491	0.01943
3049.05473	0.01926
3046.99456	0.01907
3044.93439	0.01890
3042.87422	0.01880
3040.81404	0.01869
3038.75387	0.01855
3036.69370	0.01837
3034.63353	0.01818
3032.57336	0.01800
3030.51318	0.01783
3028.45301	0.01767
3026.39284	0.01752
3024.33267	0.01740
3022.27250	0.01738
3020.21232	0.01743
3018.15215	0.01750
3016.09198	0.01754
3014.03181	0.01751
3011.97163	0.01744
3009.91146	0.01734
3007.85129	0.01721
3005.79112	0.01706
3003.73095	0.01694
3001.67077	0.01687
2999.61060	0.01679
2997.55043	0.01660
2995.49026	0.01632
2993.43009	0.01612
2991.36991	0.01613
2989.30974	0.01624
2987.24957	0.01636
2985.18940	0.01649
2983.12923	0.01662
2981.06905	0.01680
2979.00888	0.01714
2976.94871	0.01765
2974.88854	0.01822
2972.82836	0.01877
2970.76819	0.01927
2968.70802	0.01986
2966.64785	0.02071
2964.58768	0.02182
2962.52750	0.02306
2960.46733	0.02427
2958.40716	0.02541
2956.34699	0.02651
2954.28682	0.02770
2952.22664	0.02898
2950.16647	0.03030
2948.10630	0.03162
2946.04613	0.03302
2943.98596	0.03456
2941.92578	0.03620
2939.86561	0.03785
2937.80544	0.03956
2935.74527	0.04148
2933.68509	0.04352
2931.62492	0.04536
2929.56475	0.04677
2927.50458	0.04785
2925.44441	0.04881
2923.38423	0.04969
2921.32406	0.05039
2919.26389	0.05066
2917.20372	0.05022
2915.14355	0.04891
2913.08337	0.04696
2911.02320	0.04484
2908.96303	0.04295
2906.90286	0.04140
2904.84268	0.04003
2902.78251	0.03869
2900.72234	0.03739
2898.66217	0.03622
2896.60200	0.03516
2894.54182	0.03419
2892.48165	0.03329
2890.42148	0.03246
2888.36131	0.03172
2886.30114	0.03106
2884.24096	0.03051
2882.18079	0.03004
2880.12062	0.02967
2878.06045	0.02951
2876.00028	0.02958
2873.94010	0.02977
2871.87993	0.02998
2869.81976	0.03024
2867.75959	0.03071
2865.69941	0.03146
2863.63924	0.03243
2861.57907	0.03359
2859.51890	0.03488
2857.45873	0.03618
2855.39855	0.03745
2853.33838	0.03859
2851.27821	0.03920
2849.21804	0.03864
2847.15787	0.03667
2845.09769	0.03382
2843.03752	0.03098
2840.97735	0.02869
2838.91718	0.02700
2836.85700	0.02570
2834.79683	0.02462
2832.73666	0.02377
2830.67649	0.02309
2828.61632	0.02239
2826.55614	0.02165
2824.49597	0.02100
2822.43580	0.02055
2820.37563	0.02023
2818.31546	0.01989
2816.25528	0.01947
2814.19511	0.01909
2812.13494	0.01883
2810.07477	0.01866
2808.01460	0.01847
2805.95442	0.01821
2803.89425	0.01795
2801.83408	0.01773
2799.77391	0.01752
2797.71373	0.01735
2795.65356	0.01728
2793.59339	0.01716
2791.53322	0.01689
2789.47305	0.01657
2787.41287	0.01634
2785.35270	0.01624
2783.29253	0.01620
2781.23236	0.01612
2779.17219	0.01598
2777.11201	0.01585
2775.05184	0.01575
2772.99167	0.01568
2770.93150	0.01561
2768.87133	0.01551
2766.81115	0.01535
2764.75098	0.01526
2762.69081	0.01527
2760.63064	0.01526
2758.57046	0.01519
2756.51029	0.01512
2754.45012	0.01513
2752.38995	0.01521
2750.32978	0.01528
2748.26960	0.01525
2746.20943	0.01514
2744.14926	0.01497
2742.08909	0.01483
2740.02892	0.01478
2737.96874	0.01470
2735.90857	0.01452
2733.84840	0.01434
2731.78823	0.01431
2729.72805	0.01438
2727.66788	0.01441
2725.60771	0.01439
2723.54754	0.01438
2721.48737	0.01441
2719.42719	0.01443
2717.36702	0.01433
2715.30685	0.01416
2713.24668	0.01401
2711.18651	0.01393
2709.12633	0.01394
2707.06616	0.01395
2705.00599	0.01390
2702.94582	0.01387
2700.88565	0.01390
2698.82547	0.01389
2696.76530	0.01373
2694.70513	0.01355
2692.64496	0.01352
2690.58478	0.01362
2688.52461	0.01372
2686.46444	0.01371
2684.40427	0.01363
2682.34410	0.01357
2680.28392	0.01358
2678.22375	0.01359
2676.16358	0.01357
2674.10341	0.01350
2672.04324	0.01340
2669.98306	0.01333
2667.92289	0.01329
2665.86272	0.01324
2663.80255	0.01315
2661.74238	0.01309
2659.68220	0.01307
2657.62203	0.01302
2655.56186	0.01292
2653.50169	0.01283
2651.44151	0.01279
2649.38134	0.01275
2647.32117	0.01269
2645.26100	0.01262
2643.20083	0.01256
2641.14065	0.01254
2639.08048	0.01254
2637.02031	0.01250
2634.96014	0.01244
2632.89997	0.01237
2630.83979	0.01227
2628.77962	0.01217
2626.71945	0.01212
2624.65928	0.01208
2622.59910	0.01199
2620.53893	0.01183
2618.47876	0.01166
2616.41859	0.01161
2614.35842	0.01168
2612.29824	0.01166
2610.23807	0.01148
2608.17790	0.01134
2606.11773	0.01131
2604.05756	0.01124
2601.99738	0.01108
2599.93721	0.01089
2597.87704	0.01078
2595.81687	0.01074
2593.75670	0.01072
2591.69652	0.01072
2589.63635	0.01069
2587.57618	0.01049
2585.51601	0.01011
2583.45583	0.00979
2581.39566	0.00973
2579.33549	0.00987
2577.27532	0.01008
2575.21515	0.01027
2573.15497	0.01035
2571.09480	0.01025
2569.03463	0.00998
2566.97446	0.00968
2564.91429	0.00952
2562.85411	0.00956
2560.79394	0.00966
2558.73377	0.00967
2556.67360	0.00966
2554.61342	0.00971
2552.55325	0.00965
2550.49308	0.00945
2548.43291	0.00933
2546.37274	0.00939
2544.31256	0.00949
2542.25239	0.00949
2540.19222	0.00941
2538.13205	0.00932
2536.07188	0.00928
2534.01170	0.00922
2531.95153	0.00906
2529.89136	0.00885
2527.83119	0.00868
2525.77102	0.00871
2523.71084	0.00894
2521.65067	0.00912
2519.59050	0.00908
2517.53033	0.00884
2515.47015	0.00855
2513.40998	0.00839
2511.34981	0.00839
2509.28964	0.00838
2507.22947	0.00834
2505.16929	0.00832
2503.10912	0.00839
2501.04895	0.00848
2498.98878	0.00849
2496.92861	0.00847
2494.86843	0.00854
2492.80826	0.00863
2490.74809	0.00853
2488.68792	0.00824
2486.62775	0.00801
2484.56757	0.00805
2482.50740	0.00823
2480.44723	0.00832
2478.38706	0.00819
2476.32688	0.00794
2474.26671	0.00783
2472.20654	0.00796
2470.14637	0.00807
2468.08620	0.00795
2466.02602	0.00776
2463.96585	0.00774
2461.90568	0.00793
2459.84551	0.00818
2457.78534	0.00826
2455.72516	0.00818
2453.66499	0.00808
2451.60482	0.00803
2449.54465	0.00807
2447.48447	0.00812
2445.42430	0.00806
2443.36413	0.00793
2441.30396	0.00783
2439.24379	0.00768
2437.18361	0.00747
2435.12344	0.00736
2433.06327	0.00739
2431.00310	0.00745
2428.94293	0.00747
2426.88275	0.00743
2424.82258	0.00732
2422.76241	0.00719
2420.70224	0.00714
2418.64207	0.00722
2416.58189	0.00729
2414.52172	0.00728
2412.46155	0.00720
2410.40138	0.00712
2408.34120	0.00711
2406.28103	0.00712
2404.22086	0.00710
2402.16069	0.00705
2400.10052	0.00705
2398.04034	0.00704
2395.98017	0.00697
2393.92000	0.00688
2391.85983	0.00682
2389.79966	0.00680
2387.73948	0.00677
2385.67931	0.00670
2383.61914	0.00665
2381.55897	0.00667
2379.49880	0.00675
2377.43862	0.00680
2375.37845	0.00676
2373.31828	0.00664
2371.25811	0.00646
2369.19793	0.00628
2367.13776	0.00621
2365.07759	0.00637
2363.01742	0.00667
2360.95725	0.00679
2358.89707	0.00657
2356.83690	0.00622
2354.77673	0.00609
2352.71656	0.00633
2350.65639	0.00681
2348.59621	0.00726
2346.53604	0.00746
2344.47587	0.00739
2342.41570	0.00712
2340.35552	0.00679
2338.29535	0.00652
2336.23518	0.00633
2334.17501	0.00621
2332.11484	0.00618
2330.05466	0.00628
2327.99449	0.00651
2325.93432	0.00677
2323.87415	0.00692
2321.81398	0.00689
2319.75380	0.00671
2317.69363	0.00646
2315.63346	0.00621
2313.57329	0.00604
2311.51312	0.00599
2309.45294	0.00607
2307.39277	0.00618
2305.33260	0.00626
2303.27243	0.00628
2301.21225	0.00625
2299.15208	0.00621
2297.09191	0.00620
2295.03174	0.00623
2292.97157	0.00629
2290.91139	0.00637
2288.85122	0.00643
2286.79105	0.00645
2284.73088	0.00646
2282.67071	0.00643
2280.61053	0.00634
2278.55036	0.00614
2276.49019	0.00585
2274.43002	0.00562
2272.36984	0.00555
2270.30967	0.00562
2268.24950	0.00574
2266.18933	0.00583
2264.12916	0.00586
2262.06898	0.00580
2260.00881	0.00562
2257.94864	0.00536
2255.88847	0.00517
2253.82830	0.00513
2251.76812	0.00519
2249.70795	0.00534
2247.64778	0.00557
2245.58761	0.00577
2243.52744	0.00572
2241.46726	0.00549
2239.40709	0.00514
2237.34692	0.00466
2235.28675	0.00434
2233.22657	0.00451
2231.16640	0.00493
2229.10623	0.00511
2227.04606	0.00485
2224.98589	0.00456
2222.92571	0.00474
2220.86554	0.00532
2218.80537	0.00582
2216.74520	0.00590
2214.68503	0.00556
2212.62485	0.00510
2210.56468	0.00462
2208.50451	0.00418
2206.44434	0.00402
2204.38417	0.00415
2202.32399	0.00435
2200.26382	0.00451
2198.20365	0.00462
2196.14348	0.00472
2194.08330	0.00486
2192.02313	0.00493
2189.96296	0.00461
2187.90279	0.00393
2185.84262	0.00349
2183.78244	0.00351
2181.72227	0.00349
2179.66210	0.00338
2177.60193	0.00354
2175.54176	0.00395
2173.48158	0.00430
2171.42141	0.00435
2169.36124	0.00428
2167.30107	0.00453
2165.24089	0.00516
2163.18072	0.00554
2161.12055	0.00491
2159.06038	0.00357
2157.00021	0.00285
2154.94003	0.00310
2152.87986	0.00346
2150.81969	0.00342
2148.75952	0.00317
2146.69935	0.00315
2144.63917	0.00344
2142.57900	0.00377
2140.51883	0.00393
2138.45866	0.00386
2136.39849	0.00359
2134.33831	0.00344
2132.27814	0.00365
2130.21797	0.00390
2128.15780	0.00377
2126.09762	0.00357
2124.03745	0.00385
2121.97728	0.00463
2119.91711	0.00535
2117.85694	0.00543
2115.79676	0.00497
2113.73659	0.00459
2111.67642	0.00462
2109.61625	0.00487
2107.55608	0.00501
2105.49590	0.00488
2103.43573	0.00459
2101.37556	0.00438
2099.31539	0.00437
2097.25521	0.00448
2095.19504	0.00465
2093.13487	0.00488
2091.07470	0.00514
2089.01453	0.00536
2086.95435	0.00539
2084.89418	0.00521
2082.83401	0.00486
2080.77384	0.00445
2078.71367	0.00407
2076.65349	0.00384
2074.59332	0.00381
2072.53315	0.00395
2070.47298	0.00420
2068.41281	0.00441
2066.35263	0.00435
2064.29246	0.00402
2062.23229	0.00367
2060.17212	0.00348
2058.11194	0.00343
2056.05177	0.00347
2053.99160	0.00369
2051.93143	0.00411
2049.87126	0.00448
2047.81108	0.00447
2045.75091	0.00403
2043.69074	0.00348
2041.63057	0.00317
2039.57040	0.00313
2037.51022	0.00311
2035.45005	0.00291
2033.38988	0.00252
2031.32971	0.00217
2029.26954	0.00205
2027.20936	0.00216
2025.14919	0.00229
2023.08902	0.00231
2021.02885	0.00225
2018.96867	0.00224
2016.90850	0.00233
2014.84833	0.00250
2012.78816	0.00260
2010.72799	0.00252
2008.66781	0.00236
2006.60764	0.00229
2004.54747	0.00232
2002.48730	0.00229
2000.42713	0.00217
1998.36695	0.00204
1996.30678	0.00198
1994.24661	0.00198
1992.18644	0.00202
1990.12626	0.00213
1988.06609	0.00234
1986.00592	0.00266
1983.94575	0.00302
1981.88558	0.00324
1979.82540	0.00323
1977.76523	0.00309
1975.70506	0.00296
1973.64489	0.00276
1971.58472	0.00242
1969.52454	0.00210
1967.46437	0.00200
1965.40420	0.00212
1963.34403	0.00225
1961.28386	0.00220
1959.22368	0.00206
1957.16351	0.00208
1955.10334	0.00229
1953.04317	0.00249
1950.98299	0.00258
1948.92282	0.00266
1946.86265	0.00279
1944.80248	0.00288
1942.74231	0.00289
1940.68213	0.00289
1938.62196	0.00287
1936.56179	0.00274
1934.50162	0.00254
1932.44145	0.00238
1930.38127	0.00236
1928.32110	0.00245
1926.26093	0.00259
1924.20076	0.00273
1922.14059	0.00281
1920.08041	0.00282
1918.02024	0.00274
1915.96007	0.00261
1913.89990	0.00250
1911.83972	0.00250
1909.77955	0.00264
1907.71938	0.00282
1905.65921	0.00295
1903.59904	0.00296
1901.53886	0.00289
1899.47869	0.00281
1897.41852	0.00276
1895.35835	0.00274
1893.29818	0.00279
1891.23800	0.00289
1889.17783	0.00298
1887.11766	0.00302
1885.05749	0.00303
1882.99731	0.00304
1880.93714	0.00308
1878.87697	0.00312
1876.81680	0.00313
1874.75663	0.00309
1872.69645	0.00302
1870.63628	0.00291
1868.57611	0.00277
1866.51594	0.00263
1864.45577	0.00255
1862.39559	0.00256
1860.33542	0.00259
1858.27525	0.00262
1856.21508	0.00263
1854.15491	0.00257
1852.09473	0.00246
1850.03456	0.00236
1847.97439	0.00234
1845.91422	0.00236
1843.85404	0.00236
1841.79387	0.00237
1839.73370	0.00243
1837.67353	0.00248
1835.61336	0.00246
1833.55318	0.00238
1831.49301	0.00232
1829.43284	0.00228
1827.37267	0.00225
1825.31250	0.00225
1823.25232	0.00226
1821.19215	0.00225
1819.13198	0.00221
1817.07181	0.00221
1815.01163	0.00224
1812.95146	0.00229
1810.89129	0.00231
1808.83112	0.00228
1806.77095	0.00224
1804.71077	0.00224
1802.65060	0.00227
1800.59043	0.00234
1798.53026	0.00242
1796.47009	0.00246
1794.40991	0.00243
1792.34974	0.00237
1790.28957	0.00235
1788.22940	0.00238
1786.16923	0.00240
1784.10905	0.00235
1782.04888	0.00225
1779.98871	0.00219
1777.92854	0.00217
1775.86836	0.00230
1773.80819	0.00252
1771.74802	0.00274
1769.68785	0.00292
1767.62768	0.00316
1765.56750	0.00352
1763.50733	0.00406
1761.44716	0.00479
1759.38699	0.00570
1757.32682	0.00679
1755.26664	0.00804
1753.20647	0.00941
1751.14630	0.01091
1749.08613	0.01237
1747.02596	0.01357
1744.96578	0.01442
1742.90561	0.01497
1740.84544	0.01530
1738.78527	0.01548
1736.72509	0.01554
1734.66492	0.01546
1732.60475	0.01528
1730.54458	0.01512
1728.48441	0.01509
1726.42423	0.01517
1724.36406	0.01529
1722.30389	0.01543
1720.24372	0.01555
1718.18355	0.01559
1716.12337	0.01549
1714.06320	0.01536
1712.00303	0.01530
1709.94286	0.01525
1707.88268	0.01515
1705.82251	0.01494
1703.76234	0.01465
1701.70217	0.01437
1699.64200	0.01417
1697.58182	0.01416
1695.52165	0.01443
1693.46148	0.01496
1691.40131	0.01575
1689.34114	0.01679
1687.28096	0.01811
1685.22079	0.01964
1683.16062	0.02125
1681.10045	0.02272
1679.04028	0.02399
1676.98010	0.02502
1674.91993	0.02578
1672.85976	0.02624
1670.79959	0.02634
1668.73941	0.02611
1666.67924	0.02567
1664.61907	0.02518
1662.55890	0.02467
1660.49873	0.02419
1658.43855	0.02392
1656.37838	0.02382
1654.31821	0.02369
1652.25804	0.02342
1650.19787	0.02315
1648.13769	0.02300
1646.07752	0.02289
1644.01735	0.02281
1641.95718	0.02290
1639.89701	0.02323
1637.83683	0.02376
1635.77666	0.02438
1633.71649	0.02493
1631.65632	0.02538
1629.59614	0.02575
1627.53597	0.02604
1625.47580	0.02626
1623.41563	0.02645
1621.35546	0.02665
1619.29528	0.02691
1617.23511	0.02725
1615.17494	0.02769
1613.11477	0.02835
1611.05460	0.02926
1608.99442	0.03022
1606.93425	0.03093
1604.87408	0.03113
1602.81391	0.03074
1600.75373	0.02985
1598.69356	0.02869
1596.63339	0.02750
1594.57322	0.02641
1592.51305	0.02547
1590.45287	0.02468
1588.39270	0.02397
1586.33253	0.02327
1584.27236	0.02256
1582.21219	0.02190
1580.15201	0.02132
1578.09184	0.02076
1576.03167	0.02016
1573.97150	0.01953
1571.91133	0.01894
1569.85115	0.01836
1567.79098	0.01777
1565.73081	0.01723
1563.67064	0.01678
1561.61046	0.01632
1559.55029	0.01563
1557.49012	0.01459
1555.42995	0.01351
1553.36978	0.01263
1551.30960	0.01199
1549.24943	0.01148
1547.18926	0.01106
1545.12909	0.01068
1543.06892	0.01027
1541.00874	0.00970
1538.94857	0.00897
1536.88840	0.00830
1534.82823	0.00785
1532.76805	0.00757
1530.70788	0.00738
1528.64771	0.00731
1526.58754	0.00737
1524.52737	0.00768
1522.46719	0.00831
1520.40702	0.00920
1518.34685	0.01016
1516.28668	0.01093
1514.22651	0.01126
1512.16633	0.01104
1510.10616	0.01033
1508.04599	0.00919
1505.98582	0.00778
1503.92565	0.00650
1501.86547	0.00559
1499.80530	0.00496
1497.74513	0.00445
1495.68496	0.00399
1493.62478	0.00361
1491.56461	0.00329
1489.50444	0.00296
1487.44427	0.00264
1485.38410	0.00248
1483.32392	0.00256
1481.26375	0.00286
1479.20358	0.00341
1477.14341	0.00428
1475.08324	0.00554
1473.02306	0.00712
1470.96289	0.00883
1468.90272	0.01050
1466.84255	0.01206
1464.78238	0.01342
1462.72220	0.01453
1460.66203	0.01543
1458.60186	0.01617
1456.54169	0.01675
1454.48151	0.01725
1452.42134	0.01778
1450.36117	0.01841
1448.30100	0.01909
1446.24083	0.01977
1444.18065	0.02040
1442.12048	0.02101
1440.06031	0.02159
1438.00014	0.02212
1435.93997	0.02252
1433.87979	0.02279
1431.81962	0.02295
1429.75945	0.02305
1427.69928	0.02313
1425.63910	0.02324
1423.57893	0.02339
1421.51876	0.02352
1419.45859	0.02356
1417.39842	0.02348
1415.33824	0.02334
1413.27807	0.02314
1411.21790	0.02283
1409.15773	0.02239
1407.09756	0.02183
1405.03738	0.02119
1402.97721	0.02052
1400.91704	0.01988
1398.85687	0.01928
1396.79670	0.01873
1394.73652	0.01830
1392.67635	0.01804
1390.61618	0.01799
1388.55601	0.01816
1386.49583	0.01850
1384.43566	0.01896
1382.37549	0.01948
1380.31532	0.02002
1378.25515	0.02052
1376.19497	0.02094
1374.13480	0.02121
1372.07463	0.02136
1370.01446	0.02142
1367.95429	0.02139
1365.89411	0.02121
1363.83394	0.02087
1361.77377	0.02040
1359.71360	0.01993
1357.65343	0.01959
1355.59325	0.01940
1353.53308	0.01933
1351.47291	0.01930
1349.41274	0.01930
1347.35256	0.01929
1345.29239	0.01927
1343.23222	0.01920
1341.17205	0.01909
1339.11188	0.01896
1337.05170	0.01889
1334.99153	0.01889
1332.93136	0.01895
1330.87119	0.01902
1328.81102	0.01906
1326.75084	0.01911
1324.69067	0.01918
1322.63050	0.01927
1320.57033	0.01932
1318.51015	0.01931
1316.44998	0.01921
1314.38981	0.01901
1312.32964	0.01874
1310.26947	0.01838
1308.20929	0.01796
1306.14912	0.01747
1304.08895	0.01694
1302.02878	0.01643
1299.96861	0.01599
1297.90843	0.01568
1295.84826	0.01553
1293.78809	0.01558
1291.72792	0.01576
1289.66775	0.01601
1287.60757	0.01625
1285.54740	0.01646
1283.48723	0.01665
1281.42706	0.01684
1279.36688	0.01704
1277.30671	0.01723
1275.24654	0.01739
1273.18637	0.01756
1271.12620	0.01779
1269.06602	0.01816
1267.00585	0.01866
1264.94568	0.01924
1262.88551	0.01983
1260.82534	0.02043
1258.76516	0.02101
1256.70499	0.02155
1254.64482	0.02201
1252.58465	0.02237
1250.52447	0.02263
1248.46430	0.02285
1246.40413	0.02305
1244.34396	0.02323
1242.28379	0.02333
1240.22361	0.02334
1238.16344	0.02323
1236.10327	0.02301
1234.04310	0.02265
1231.98293	0.02213
1229.92275	0.02145
1227.86258	0.02066
1225.80241	0.01980
1223.74224	0.01888
1221.68207	0.01792
1219.62189	0.01693
1217.56172	0.01589
1215.50155	0.01484
1213.44138	0.01379
1211.38120	0.01278
1209.32103	0.01180
1207.26086	0.01085
1205.20069	0.00988
1203.14052	0.00885
1201.08034	0.00772
1199.02017	0.00653
1196.96000	0.00535
1194.89983	0.00432
1192.83966	0.00355
1190.77948	0.00305
1188.71931	0.00278
1186.65914	0.00265
1184.59897	0.00264
1182.53880	0.00275
1180.47862	0.00309
1178.41845	0.00383
1176.35828	0.00500
1174.29811	0.00651
1172.23793	0.00827
1170.17776	0.01012
1168.11759	0.01174
1166.05742	0.01278
1163.99725	0.01324
1161.93707	0.01350
1159.87690	0.01383
1157.81673	0.01430
1155.75656	0.01484
1153.69639	0.01546
1151.63621	0.01620
1149.57604	0.01707
1147.51587	0.01800
1145.45570	0.01887
1143.39552	0.01963
1141.33535	0.02026
1139.27518	0.02079
1137.21501	0.02130
1135.15484	0.02186
1133.09466	0.02247
1131.03449	0.02316
1128.97432	0.02397
1126.91415	0.02480
1124.85398	0.02563
1122.79380	0.02655
1120.73363	0.02763
1118.67346	0.02874
1116.61329	0.02970
1114.55312	0.03052
1112.49294	0.03133
1110.43277	0.03217
1108.37260	0.03301
1106.31243	0.03388
1104.25225	0.03481
1102.19208	0.03584
1100.13191	0.03704
1098.07174	0.03845
1096.01157	0.03998
1093.95139	0.04156
1091.89122	0.04313
1089.83105	0.04459
1087.77088	0.04592
1085.71071	0.04726
1083.65053	0.04872
1081.59036	0.05026
1079.53019	0.05178
1077.47002	0.05336
1075.40985	0.05510
1073.34967	0.05688
1071.28950	0.05851
1069.22933	0.05989
1067.16916	0.06102
1065.10898	0.06192
1063.04881	0.06274
1060.98864	0.06365
1058.92847	0.06465
1056.86830	0.06573
1054.80812	0.06698
1052.74795	0.06848
1050.68778	0.07019
1048.62761	0.07194
1046.56744	0.07357
1044.50726	0.07517
1042.44709	0.07688
1040.38692	0.07857
1038.32675	0.07999
1036.26657	0.08102
1034.20640	0.08170
1032.14623	0.08207
1030.08606	0.08214
1028.02589	0.08202
1025.96571	0.08178
1023.90554	0.08145
1021.84537	0.08114
1019.78520	0.08091
1017.72503	0.08073
1015.66485	0.08063
1013.60468	0.08063
1011.54451	0.08072
1009.48434	0.08081
1007.42417	0.08082
1005.36399	0.08069
1003.30382	0.08036
1001.24365	0.07974
999.18348	0.07885
997.12330	0.07778
995.06313	0.07662
993.00296	0.07540
990.94279	0.07411
988.88262	0.07281
986.82244	0.07155
984.76227	0.07040
982.70210	0.06938
980.64193	0.06849
978.58176	0.06760
976.52158	0.06655
974.46141	0.06533
972.40124	0.06404
970.34107	0.06268
968.28089	0.06118
966.22072	0.05968
964.16055	0.05833
962.10038	0.05711
960.04021	0.05589
957.98003	0.05461
955.91986	0.05326
953.85969	0.05195
951.79952	0.05075
949.73935	0.04971
947.67917	0.04871
945.61900	0.04756
943.55883	0.04608
941.49866	0.04423
939.43849	0.04203
937.37831	0.03959
935.31814	0.03707
933.25797	0.03459
931.19780	0.03225
929.13762	0.03017
927.07745	0.02838
925.01728	0.02677
922.95711	0.02531
920.89694	0.02401
918.83676	0.02274
916.77659	0.02141
914.71642	0.02003
912.65625	0.01871
910.59608	0.01754
908.53590	0.01658
906.47573	0.01578
904.41556	0.01512
902.35539	0.01471
900.29522	0.01463
898.23504	0.01474
896.17487	0.01492
894.11470	0.01508
892.05453	0.01515
889.99435	0.01504
887.93418	0.01469
885.87401	0.01410
883.81384	0.01330
881.75367	0.01238
879.69349	0.01143
877.63332	0.01058
875.57315	0.00989
873.51298	0.00941
871.45281	0.00909
869.39263	0.00882
867.33246	0.00856
865.27229	0.00831
863.21212	0.00811
861.15194	0.00803
859.09177	0.00807
857.03160	0.00815
854.97143	0.00820
852.91126	0.00821
850.85108	0.00818
848.79091	0.00815
846.73074	0.00816
844.67057	0.00813
842.61040	0.00794
840.55022	0.00768
838.49005	0.00748
836.42988	0.00733
834.36971	0.00724
832.30954	0.00710
830.24936	0.00668
828.18919	0.00602
826.12902	0.00538
824.06885	0.00498
822.00867	0.00481
819.94850	0.00475
817.88833	0.00479
815.82816	0.00500
813.76799	0.00522
811.70781	0.00513
809.64764	0.00470
807.58747	0.00441
805.52730	0.00448
803.46713	0.00474
801.40695	0.00487
799.34678	0.00465
797.28661	0.00419
795.22644	0.00376
793.16627	0.00342
791.10609	0.00317
789.04592	0.00307
786.98575	0.00330
784.92558	0.00372
782.86540	0.00406
780.80523	0.00416
778.74506	0.00398
776.68489	0.00358
774.62472	0.00321
772.56454	0.00311
770.50437	0.00324
768.44420	0.00333
766.38403	0.00329
764.32386	0.00324
762.26368	0.00327
760.20351	0.00332
758.14334	0.00332
756.08317	0.00332
754.02299	0.00328
751.96282	0.00321
749.90265	0.00297
747.84248	0.00269
745.78231	0.00221
743.72213	0.00164
741.66196	0.00114
739.60179	0.00081
737.54162	0.00072
735.48145	0.00086
733.42127	0.00109
731.36110	0.00118
729.30093	0.00110
727.24076	0.00105
725.18059	0.00120
723.12041	0.00162
721.06024	0.00216
719.00007	0.00261
716.93990	0.00284
714.87972	0.00292
712.81955	0.00304
710.75938	0.00331
708.69921	0.00371
706.63904	0.00415
704.57886	0.00456
702.51869	0.00489
700.45852	0.00507
698.39835	0.00507
696.33818	0.00491
694.27800	0.00468
692.21783	0.00439
690.15766	0.00398
688.09749	0.00339
686.03731	0.00266
683.97714	0.00196
681.91697	0.00146
679.85680	0.00120
677.79663	0.00106
675.73645	0.00095
673.67628	0.00090
671.61611	0.00096
669.55594	0.00114
667.49577	0.00134
665.43559	0.00150
663.37542	0.00160
661.31525	0.00167
659.25508	0.00176
657.19491	0.00194
655.13473	0.00219
653.07456	0.00234
651.01439	0.00227
648.95422	0.00204
646.89404	0.00172
644.83387	0.00159
642.77370	0.00177
640.71353	0.00215
638.65336	0.00245
636.59318	0.00243
634.53301	0.00208
632.47284	0.00161
630.41267	0.00127
628.35250	0.00121
626.29232	0.00150
624.23215	0.00170
622.17198	0.00131
620.11181	0.00075
618.05164	0.00070
615.99146	0.00131
613.93129	0.00184
611.87112	0.00162
609.81095	0.00085
607.75077	0.00032
605.69060	0.00012
603.63043	0.00007
601.57026	0.00000
599.51009	0.00000
