3996.73391	0.00006
3994.67373	0.00015
3992.61356	0.00019
3990.55339	0.00016
3988.49322	0.00008
3986.43305	0.00002
3984.37287	0.00000
3982.31270	0.00001
3980.25253	0.00004
3978.19236	0.00010
3976.13219	0.00023
3974.07201	0.00042
3972.01184	0.00060
3969.95167	0.00070
3967.89150	0.00070
3965.83133	0.00067
3963.77115	0.00066
3961.71098	0.00072
3959.65081	0.00084
3957.59064	0.00098
3955.53046	0.00110
3953.47029	0.00117
3951.41012	0.00115
3949.34995	0.00108
3947.28978	0.00107
3945.22960	0.00119
3943.16943	0.00139
3941.10926	0.00154
3939.04909	0.00156
3936.98892	0.00143
3934.92874	0.00124
3932.86857	0.00109
3930.80840	0.00108
3928.74823	0.00122
3926.68805	0.00144
3924.62788	0.00157
3922.56771	0.00154
3920.50754	0.00145
3918.44737	0.00139
3916.38719	0.00137
3914.32702	0.00136
3912.26685	0.00136
3910.20668	0.00140
3908.14651	0.00151
3906.08633	0.00164
3904.02616	0.00171
3901.96599	0.00169
3899.90582	0.00165
3897.84565	0.00161
3895.78547	0.00159
3893.72530	0.00158
3891.66513	0.00157
3889.60496	0.00155
3887.54478	0.00157
3885.48461	0.00159
3883.42444	0.00157
3881.36427	0.00154
3879.30410	0.00157
3877.24392	0.00167
3875.18375	0.00177
3873.12358	0.00177
3871.06341	0.00166
3869.00324	0.00157
3866.94306	0.00153
3864.88289	0.00154
3862.82272	0.00155
3860.76255	0.00160
3858.70237	0.00167
3856.64220	0.00169
3854.58203	0.00167
3852.52186	0.00166
3850.46169	0.00172
3848.40151	0.00178
3846.34134	0.00176
3844.28117	0.00164
3842.22100	0.00147
3840.16083	0.00141
3838.10065	0.00154
3836.04048	0.00180
3833.98031	0.00204
3831.92014	0.00220
3829.85997	0.00225
3827.79979	0.00225
3825.73962	0.00224
3823.67945	0.00223
3821.61928	0.00217
3819.55910	0.00208
3817.49893	0.00207
3815.43876	0.00209
3813.37859	0.00204
3811.31842	0.00191
3809.25824	0.00171
3807.19807	0.00153
3805.13790	0.00149
3803.07773	0.00159
3801.01756	0.00173
3798.95738	0.00183
3796.89721	0.00196
3794.83704	0.00214
3792.77687	0.00235
3790.71670	0.00254
3788.65652	0.00267
3786.59635	0.00273
3784.53618	0.00272
3782.47601	0.00266
3780.41583	0.00260
3778.35566	0.00255
3776.29549	0.00249
3774.23532	0.00240
3772.17515	0.00223
3770.11497	0.00204
3768.05480	0.00193
3765.99463	0.00196
3763.93446	0.00207
3761.87429	0.00217
3759.81411	0.00219
3757.75394	0.00212
3755.69377	0.00198
3753.63360	0.00179
3751.57342	0.00157
3749.51325	0.00132
3747.45308	0.00118
3745.39291	0.00122
3743.33274	0.00148
3741.27256	0.00185
3739.21239	0.00217
3737.15222	0.00229
3735.09205	0.00216
3733.03188	0.00196
3730.97170	0.00191
3728.91153	0.00202
3726.85136	0.00218
3724.79119	0.00227
3722.73102	0.00231
3720.67084	0.00231
3718.61067	0.00225
3716.55050	0.00213
3714.49033	0.00200
3712.43015	0.00193
3710.36998	0.00200
3708.30981	0.00215
3706.24964	0.00228
3704.18947	0.00235
3702.12929	0.00234
3700.06912	0.00227
3698.00895	0.00221
3695.94878	0.00215
3693.88861	0.00211
3691.82843	0.00208
3689.76826	0.00205
3687.70809	0.00199
3685.64792	0.00197
3683.58775	0.00209
3681.52757	0.00230
3679.46740	0.00245
3677.40723	0.00246
3675.34706	0.00234
3673.28688	0.00222
3671.22671	0.00223
3669.16654	0.00232
3667.10637	0.00245
3665.04620	0.00264
3662.98602	0.00289
3660.92585	0.00315
3658.86568	0.00335
3656.80551	0.00340
3654.74534	0.00330
3652.68516	0.00314
3650.62499	0.00306
3648.56482	0.00314
3646.50465	0.00338
3644.44447	0.00368
3642.38430	0.00392
3640.32413	0.00403
3638.26396	0.00398
3636.20379	0.00387
3634.14361	0.00381
3632.08344	0.00389
3630.02327	0.00410
3627.96310	0.00436
3625.90293	0.00464
3623.84275	0.00494
3621.78258	0.00524
3619.72241	0.00554
3617.66224	0.00579
3615.60207	0.00595
3613.54189	0.00602
3611.48172	0.00606
3609.42155	0.00614
3607.36138	0.00626
3605.30120	0.00644
3603.24103	0.00669
3601.18086	0.00698
3599.12069	0.00721
3597.06052	0.00735
3595.00034	0.00742
3592.94017	0.00743
3590.88000	0.00745
3588.81983	0.00757
3586.75966	0.00790
3584.69948	0.00845
3582.63931	0.00907
3580.57914	0.00962
3578.51897	0.01002
3576.45879	0.01030
3574.39862	0.01052
3572.33845	0.01072
3570.27828	0.01088
3568.21811	0.01097
3566.15793	0.01107
3564.09776	0.01136
3562.03759	0.01186
3559.97742	0.01247
3557.91725	0.01308
3555.85707	0.01362
3553.79690	0.01402
3551.73673	0.01427
3549.67656	0.01438
3547.61639	0.01444
3545.55621	0.01454
3543.49604	0.01481
3541.43587	0.01529
3539.37570	0.01591
3537.31552	0.01658
3535.25535	0.01716
3533.19518	0.01756
3531.13501	0.01783
3529.07484	0.01807
3527.01466	0.01835
3524.95449	0.01871
3522.89432	0.01909
3520.83415	0.01946
3518.77398	0.01980
3516.71380	0.02013
3514.65363	0.02044
3512.59346	0.02071
3510.53329	0.02098
3508.47312	0.02126
3506.41294	0.02158
3504.35277	0.02198
3502.29260	0.02247
3500.23243	0.02297
3498.17225	0.02338
3496.11208	0.02370
3494.05191	0.02401
3491.99174	0.02441
3489.93157	0.02485
3487.87139	0.02522
3485.81122	0.02551
3483.75105	0.02581
3481.69088	0.02618
3479.63071	0.02665
3477.57053	0.02719
3475.51036	0.02773
3473.45019	0.02825
3471.39002	0.02871
3469.32984	0.02907
3467.26967	0.02941
3465.20950	0.02979
3463.14933	0.03020
3461.08916	0.03049
3459.02898	0.03065
3456.96881	0.03075
3454.90864	0.03090
3452.84847	0.03116
3450.78830	0.03155
3448.72812	0.03199
3446.66795	0.03239
3444.60778	0.03271
3442.54761	0.03300
3440.48744	0.03328
3438.42726	0.03355
3436.36709	0.03383
3434.30692	0.03416
3432.24675	0.03453
3430.18657	0.03490
3428.12640	0.03525
3426.06623	0.03557
3424.00606	0.03590
3421.94589	0.03622
3419.88571	0.03652
3417.82554	0.03680
3415.76537	0.03704
3413.70520	0.03722
3411.64503	0.03737
3409.58485	0.03760
3407.52468	0.03793
3405.46451	0.03827
3403.40434	0.03854
3401.34416	0.03873
3399.28399	0.03891
3397.22382	0.03913
3395.16365	0.03941
3393.10348	0.03975
3391.04330	0.04012
3388.98313	0.04046
3386.92296	0.04069
3384.86279	0.04079
3382.80262	0.04082
3380.74244	0.04089
3378.68227	0.04104
3376.62210	0.04125
3374.56193	0.04150
3372.50176	0.04173
3370.44158	0.04190
3368.38141	0.04200
3366.32124	0.04206
3364.26107	0.04211
3362.20089	0.04223
3360.14072	0.04244
3358.08055	0.04266
3356.02038	0.04282
3353.96021	0.04294
3351.90003	0.04306
3349.83986	0.04319
3347.77969	0.04330
3345.71952	0.04340
3343.65935	0.04349
3341.59917	0.04356
3339.53900	0.04362
3337.47883	0.04368
3335.41866	0.04377
3333.35849	0.04385
3331.29831	0.04388
3329.23814	0.04385
3327.17797	0.04382
3325.11780	0.04387
3323.05762	0.04400
3320.99745	0.04415
3318.93728	0.04426
3316.87711	0.04433
3314.81694	0.04438
3312.75676	0.04444
3310.69659	0.04450
3308.63642	0.04454
3306.57625	0.04457
3304.51608	0.04461
3302.45590	0.04465
3300.39573	0.04467
3298.33556	0.04464
3296.27539	0.04459
3294.21521	0.04452
3292.15504	0.04444
3290.09487	0.04435
3288.03470	0.04428
3285.97453	0.04427
3283.91435	0.04433
3281.85418	0.04439
3279.79401	0.04441
3277.73384	0.04438
3275.67367	0.04433
3273.61349	0.04428
3271.55332	0.04423
3269.49315	0.04414
3267.43298	0.04398
3265.37281	0.04378
3263.31263	0.04366
3261.25246	0.04367
3259.19229	0.04374
3257.13212	0.04379
3255.07194	0.04378
3253.01177	0.04371
3250.95160	0.04358
3248.89143	0.04339
3246.83126	0.04313
3244.77108	0.04287
3242.71091	0.04265
3240.65074	0.04250
3238.59057	0.04239
3236.53040	0.04229
3234.47022	0.04220
3232.41005	0.04211
3230.34988	0.04204
3228.28971	0.04200
3226.22954	0.04192
3224.16936	0.04177
3222.10919	0.04158
3220.04902	0.04139
3217.98885	0.04122
3215.92867	0.04108
3213.86850	0.04095
3211.80833	0.04084
3209.74816	0.04077
3207.68799	0.04073
3205.62781	0.04064
3203.56764	0.04049
3201.50747	0.04030
3199.44730	0.04009
3197.38713	0.03982
3195.32695	0.03950
3193.26678	0.03917
3191.20661	0.03887
3189.14644	0.03862
3187.08626	0.03842
3185.02609	0.03827
3182.96592	0.03818
3180.90575	0.03812
3178.84558	0.03802
3176.78540	0.03783
3174.72523	0.03758
3172.66506	0.03729
3170.60489	0.03700
3168.54472	0.03671
3166.48454	0.03641
3164.42437	0.03610
3162.36420	0.03578
3160.30403	0.03547
3158.24386	0.03521
3156.18368	0.03503
3154.12351	0.03493
3152.06334	0.03489
3150.00317	0.03485
3147.94299	0.03475
3145.88282	0.03458
3143.82265	0.03435
3141.76248	0.03406
3139.70231	0.03371
3137.64213	0.03330
3135.58196	0.03288
3133.52179	0.03249
3131.46162	0.03218
3129.40145	0.03195
3127.34127	0.03178
3125.28110	0.03162
3123.22093	0.03145
3121.16076	0.03124
3119.10058	0.03096
3117.04041	0.03064
3114.98024	0.03032
3112.92007	0.03005
3110.85990	0.02985
3108.79972	0.02968
3106.73955	0.02951
3104.67938	0.02929
3102.61921	0.02903
3100.55904	0.02875
3098.49886	0.02844
3096.43869	0.02814
3094.37852	0.02787
3092.31835	0.02765
3090.25818	0.02746
3088.19800	0.02730
3086.13783	0.02717
3084.07766	0.02705
3082.01749	0.02691
3079.95731	0.02675
3077.89714	0.02656
3075.83697	0.02636
3073.77680	0.02615
3071.71663	0.02592
3069.65645	0.02569
3067.59628	0.02544
3065.53611	0.02520
3063.47594	0.02497
3061.41577	0.02471
3059.35559	0.02442
3057.29542	0.02413
3055.23525	0.02387
3053.17508	0.02365
3051.11491	0.02348
3049.05473	0.02336
3046.99456	0.02325
3044.93439	0.02313
3042.87422	0.02300
3040.81404	0.02283
3038.75387	0.02261
3036.69370	0.02236
3034.63353	0.02212
3032.57336	0.02192
3030.51318	0.02172
3028.45301	0.02152
3026.39284	0.02136
3024.33267	0.02128
3022.27250	0.02130
3020.21232	0.02134
3018.15215	0.02133
3016.09198	0.02126
3014.03181	0.02114
3011.97163	0.02100
3009.91146	0.02087
3007.85129	0.02073
3005.79112	0.02059
3003.73095	0.02047
3001.67077	0.02039
2999.61060	0.02033
2997.55043	0.02021
2995.49026	0.01998
2993.43009	0.01980
2991.36991	0.01977
2989.30974	0.01982
2987.24957	0.01993
2985.18940	0.02010
2983.12923	0.02029
2981.06905	0.02050
2979.00888	0.02076
2976.94871	0.02111
2974.88854	0.02163
2972.82836	0.02234
2970.76819	0.02310
2968.70802	0.02391
2966.64785	0.02497
2964.58768	0.02630
2962.52750	0.02775
2960.46733	0.02915
2958.40716	0.03040
2956.34699	0.03155
2954.28682	0.03275
2952.22664	0.03413
2950.16647	0.03565
2948.10630	0.03723
2946.04613	0.03890
2943.98596	0.04070
2941.92578	0.04257
2939.86561	0.04448
2937.80544	0.04651
2935.74527	0.04866
2933.68509	0.05086
2931.62492	0.05298
2929.56475	0.05487
2927.50458	0.05636
2925.44441	0.05743
2923.38423	0.05815
2921.32406	0.05858
2919.26389	0.05863
2917.20372	0.05809
2915.14355	0.05672
2913.08337	0.05459
2911.02320	0.05215
2908.96303	0.05000
2906.90286	0.04837
2904.84268	0.04705
2902.78251	0.04573
2900.72234	0.04440
2898.66217	0.04312
2896.60200	0.04187
2894.54182	0.04063
2892.48165	0.03946
2890.42148	0.03843
2888.36131	0.03758
2886.30114	0.03686
2884.24096	0.03619
2882.18079	0.03559
2880.12062	0.03520
2878.06045	0.03507
2876.00028	0.03519
2873.94010	0.03550
2871.87993	0.03587
2869.81976	0.03618
2867.75959	0.03662
2865.69941	0.03732
2863.63924	0.03828
2861.57907	0.03948
2859.51890	0.04096
2857.45873	0.04256
2855.39855	0.04400
2853.33838	0.04510
2851.27821	0.04554
2849.21804	0.04485
2847.15787	0.04277
2845.09769	0.03975
2843.03752	0.03669
2840.97735	0.03423
2838.91718	0.03243
2836.85700	0.03097
2834.79683	0.02969
2832.73666	0.02862
2830.67649	0.02772
2828.61632	0.02687
2826.55614	0.02607
2824.49597	0.02542
2822.43580	0.02493
2820.37563	0.02452
2818.31546	0.02409
2816.25528	0.02367
2814.19511	0.02333
2812.13494	0.02305
2810.07477	0.02280
2808.01460	0.02256
2805.95442	0.02230
2803.89425	0.02203
2801.83408	0.02172
2799.77391	0.02138
2797.71373	0.02104
2795.65356	0.02078
2793.59339	0.02063
2791.53322	0.02047
2789.47305	0.02027
2787.41287	0.02010
2785.35270	0.01997
2783.29253	0.01978
2781.23236	0.01950
2779.17219	0.01927
2777.11201	0.01913
2775.05184	0.01906
2772.99167	0.01906
2770.93150	0.01909
2768.87133	0.01905
2766.81115	0.01893
2764.75098	0.01881
2762.69081	0.01874
2760.63064	0.01865
2758.57046	0.01854
2756.51029	0.01844
2754.45012	0.01834
2752.38995	0.01828
2750.32978	0.01829
2748.26960	0.01829
2746.20943	0.01821
2744.14926	0.01807
2742.08909	0.01795
2740.02892	0.01791
2737.96874	0.01788
2735.90857	0.01779
2733.84840	0.01771
2731.78823	0.01773
2729.72805	0.01783
2727.66788	0.01789
2725.60771	0.01787
2723.54754	0.01781
2721.48737	0.01776
2719.42719	0.01770
2717.36702	0.01763
2715.30685	0.01753
2713.24668	0.01739
2711.18651	0.01723
2709.12633	0.01716
2707.06616	0.01717
2705.00599	0.01712
2702.94582	0.01700
2700.88565	0.01693
2698.82547	0.01690
2696.76530	0.01681
2694.70513	0.01668
2692.64496	0.01662
2690.58478	0.01666
2688.52461	0.01672
2686.46444	0.01673
2684.40427	0.01671
2682.34410	0.01674
2680.28392	0.01678
2678.22375	0.01674
2676.16358	0.01662
2674.10341	0.01652
2672.04324	0.01646
2669.98306	0.01644
2667.92289	0.01641
2665.86272	0.01633
2663.80255	0.01618
2661.74238	0.01607
2659.68220	0.01603
2657.62203	0.01603
2655.56186	0.01599
2653.50169	0.01591
2651.44151	0.01582
2649.38134	0.01572
2647.32117	0.01560
2645.26100	0.01545
2643.20083	0.01535
2641.14065	0.01533
2639.08048	0.01529
2637.02031	0.01523
2634.96014	0.01517
2632.89997	0.01511
2630.83979	0.01503
2628.77962	0.01493
2626.71945	0.01485
2624.65928	0.01480
2622.59910	0.01479
2620.53893	0.01473
2618.47876	0.01453
2616.41859	0.01428
2614.35842	0.01412
2612.29824	0.01403
2610.23807	0.01399
2608.17790	0.01397
2606.11773	0.01390
2604.05756	0.01378
2601.99738	0.01368
2599.93721	0.01367
2597.87704	0.01372
2595.81687	0.01368
2593.75670	0.01349
2591.69652	0.01327
2589.63635	0.01319
2587.57618	0.01314
2585.51601	0.01294
2583.45583	0.01267
2581.39566	0.01259
2579.33549	0.01268
2577.27532	0.01275
2575.21515	0.01277
2573.15497	0.01273
2571.09480	0.01255
2569.03463	0.01228
2566.97446	0.01205
2564.91429	0.01195
2562.85411	0.01203
2560.79394	0.01216
2558.73377	0.01218
2556.67360	0.01210
2554.61342	0.01198
2552.55325	0.01182
2550.49308	0.01172
2548.43291	0.01182
2546.37274	0.01200
2544.31256	0.01197
2542.25239	0.01174
2540.19222	0.01161
2538.13205	0.01160
2536.07188	0.01160
2534.01170	0.01153
2531.95153	0.01139
2529.89136	0.01127
2527.83119	0.01126
2525.77102	0.01134
2523.71084	0.01143
2521.65067	0.01143
2519.59050	0.01133
2517.53033	0.01112
2515.47015	0.01088
2513.40998	0.01068
2511.34981	0.01053
2509.28964	0.01045
2507.22947	0.01048
2505.16929	0.01057
2503.10912	0.01060
2501.04895	0.01058
2498.98878	0.01058
2496.92861	0.01060
2494.86843	0.01057
2492.80826	0.01046
2490.74809	0.01032
2488.68792	0.01016
2486.62775	0.01001
2484.56757	0.01002
2482.50740	0.01018
2480.44723	0.01030
2478.38706	0.01020
2476.32688	0.01001
2474.26671	0.00991
2472.20654	0.00998
2470.14637	0.01008
2468.08620	0.01006
2466.02602	0.00992
2463.96585	0.00986
2461.90568	0.00997
2459.84551	0.01014
2457.78534	0.01015
2455.72516	0.00989
2453.66499	0.00961
2451.60482	0.00953
2449.54465	0.00961
2447.48447	0.00966
2445.42430	0.00959
2443.36413	0.00951
2441.30396	0.00952
2439.24379	0.00962
2437.18361	0.00972
2435.12344	0.00971
2433.06327	0.00959
2431.00310	0.00953
2428.94293	0.00956
2426.88275	0.00953
2424.82258	0.00939
2422.76241	0.00928
2420.70224	0.00929
2418.64207	0.00932
2416.58189	0.00927
2414.52172	0.00912
2412.46155	0.00895
2410.40138	0.00888
2408.34120	0.00895
2406.28103	0.00910
2404.22086	0.00923
2402.16069	0.00926
2400.10052	0.00919
2398.04034	0.00909
2395.98017	0.00901
2393.92000	0.00901
2391.85983	0.00906
2389.79966	0.00910
2387.73948	0.00910
2385.67931	0.00903
2383.61914	0.00890
2381.55897	0.00874
2379.49880	0.00860
2377.43862	0.00854
2375.37845	0.00859
2373.31828	0.00867
2371.25811	0.00863
2369.19793	0.00842
2367.13776	0.00818
2365.07759	0.00817
2363.01742	0.00836
2360.95725	0.00846
2358.89707	0.00837
2356.83690	0.00819
2354.77673	0.00813
2352.71656	0.00825
2350.65639	0.00852
2348.59621	0.00883
2346.53604	0.00906
2344.47587	0.00918
2342.41570	0.00919
2340.35552	0.00912
2338.29535	0.00895
2336.23518	0.00876
2334.17501	0.00865
2332.11484	0.00867
2330.05466	0.00882
2327.99449	0.00908
2325.93432	0.00931
2323.87415	0.00936
2321.81398	0.00915
2319.75380	0.00874
2317.69363	0.00831
2315.63346	0.00802
2313.57329	0.00799
2311.51312	0.00814
2309.45294	0.00834
2307.39277	0.00843
2305.33260	0.00839
2303.27243	0.00829
2301.21225	0.00816
2299.15208	0.00804
2297.09191	0.00794
2295.03174	0.00792
2292.97157	0.00799
2290.91139	0.00812
2288.85122	0.00822
2286.79105	0.00821
2284.73088	0.00813
2282.67071	0.00808
2280.61053	0.00804
2278.55036	0.00790
2276.49019	0.00761
2274.43002	0.00727
2272.36984	0.00700
2270.30967	0.00689
2268.24950	0.00695
2266.18933	0.00714
2264.12916	0.00735
2262.06898	0.00743
2260.00881	0.00729
2257.94864	0.00699
2255.88847	0.00671
2253.82830	0.00656
2251.76812	0.00661
2249.70795	0.00680
2247.64778	0.00699
2245.58761	0.00707
2243.52744	0.00724
2241.46726	0.00757
2239.40709	0.00757
2237.34692	0.00696
2235.28675	0.00633
2233.22657	0.00619
2231.16640	0.00633
2229.10623	0.00644
2227.04606	0.00639
2224.98589	0.00620
2222.92571	0.00609
2220.86554	0.00632
2218.80537	0.00686
2216.74520	0.00733
2214.68503	0.00732
2212.62485	0.00684
2210.56468	0.00622
2208.50451	0.00573
2206.44434	0.00547
2204.38417	0.00545
2202.32399	0.00564
2200.26382	0.00595
2198.20365	0.00610
2196.14348	0.00603
2194.08330	0.00599
2192.02313	0.00612
2189.96296	0.00601
2187.90279	0.00549
2185.84262	0.00508
2183.78244	0.00510
2181.72227	0.00516
2179.66210	0.00519
2177.60193	0.00533
2175.54176	0.00542
2173.48158	0.00535
2171.42141	0.00528
2169.36124	0.00527
2167.30107	0.00544
2165.24089	0.00599
2163.18072	0.00653
2161.12055	0.00608
2159.06038	0.00478
2157.00021	0.00395
2154.94003	0.00397
2152.87986	0.00414
2150.81969	0.00400
2148.75952	0.00366
2146.69935	0.00353
2144.63917	0.00379
2142.57900	0.00428
2140.51883	0.00472
2138.45866	0.00475
2136.39849	0.00440
2134.33831	0.00432
2132.27814	0.00485
2130.21797	0.00536
2128.15780	0.00535
2126.09762	0.00517
2124.03745	0.00535
2121.97728	0.00587
2119.91711	0.00633
2117.85694	0.00629
2115.79676	0.00589
2113.73659	0.00580
2111.67642	0.00617
2109.61625	0.00657
2107.55608	0.00660
2105.49590	0.00613
2103.43573	0.00551
2101.37556	0.00524
2099.31539	0.00521
2097.25521	0.00519
2095.19504	0.00516
2093.13487	0.00528
2091.07470	0.00559
2089.01453	0.00594
2086.95435	0.00609
2084.89418	0.00599
2082.83401	0.00573
2080.77384	0.00545
2078.71367	0.00527
2076.65349	0.00519
2074.59332	0.00517
2072.53315	0.00517
2070.47298	0.00518
2068.41281	0.00518
2066.35263	0.00507
2064.29246	0.00484
2062.23229	0.00470
2060.17212	0.00486
2058.11194	0.00526
2056.05177	0.00562
2053.99160	0.00576
2051.93143	0.00566
2049.87126	0.00535
2047.81108	0.00490
2045.75091	0.00445
2043.69074	0.00412
2041.63057	0.00399
2039.57040	0.00396
2037.51022	0.00387
2035.45005	0.00363
2033.38988	0.00328
2031.32971	0.00299
2029.26954	0.00295
2027.20936	0.00328
2025.14919	0.00383
2023.08902	0.00419
2021.02885	0.00404
2018.96867	0.00346
2016.90850	0.00285
2014.84833	0.00248
2012.78816	0.00236
2010.72799	0.00237
2008.66781	0.00247
2006.60764	0.00276
2004.54747	0.00332
2002.48730	0.00394
2000.42713	0.00425
1998.36695	0.00407
1996.30678	0.00356
1994.24661	0.00316
1992.18644	0.00320
1990.12626	0.00371
1988.06609	0.00440
1986.00592	0.00490
1983.94575	0.00499
1981.88558	0.00462
1979.82540	0.00394
1977.76523	0.00322
1975.70506	0.00266
1973.64489	0.00228
1971.58472	0.00209
1969.52454	0.00217
1967.46437	0.00244
1965.40420	0.00271
1963.34403	0.00293
1961.28386	0.00312
1959.22368	0.00326
1957.16351	0.00336
1955.10334	0.00341
1953.04317	0.00342
1950.98299	0.00342
1948.92282	0.00344
1946.86265	0.00344
1944.80248	0.00344
1942.74231	0.00350
1940.68213	0.00366
1938.62196	0.00382
1936.56179	0.00383
1934.50162	0.00365
1932.44145	0.00343
1930.38127	0.00332
1928.32110	0.00335
1926.26093	0.00345
1924.20076	0.00353
1922.14059	0.00360
1920.08041	0.00365
1918.02024	0.00364
1915.96007	0.00354
1913.89990	0.00342
1911.83972	0.00339
1909.77955	0.00346
1907.71938	0.00356
1905.65921	0.00362
1903.59904	0.00360
1901.53886	0.00353
1899.47869	0.00341
1897.41852	0.00323
1895.35835	0.00306
1893.29818	0.00300
1891.23800	0.00308
1889.17783	0.00321
1887.11766	0.00328
1885.05749	0.00331
1882.99731	0.00339
1880.93714	0.00353
1878.87697	0.00367
1876.81680	0.00374
1874.75663	0.00371
1872.69645	0.00359
1870.63628	0.00343
1868.57611	0.00329
1866.51594	0.00319
1864.45577	0.00315
1862.39559	0.00315
1860.33542	0.00318
1858.27525	0.00321
1856.21508	0.00318
1854.15491	0.00307
1852.09473	0.00290
1850.03456	0.00275
1847.97439	0.00270
1845.91422	0.00276
1843.85404	0.00287
1841.79387	0.00296
1839.73370	0.00299
1837.67353	0.00298
1835.61336	0.00296
1833.55318	0.00294
1831.49301	0.00291
1829.43284	0.00286
1827.37267	0.00281
1825.31250	0.00275
1823.25232	0.00266
1821.19215	0.00254
1819.13198	0.00246
1817.07181	0.00246
1815.01163	0.00253
1812.95146	0.00259
1810.89129	0.00256
1808.83112	0.00247
1806.77095	0.00239
1804.71077	0.00236
1802.65060	0.00238
1800.59043	0.00244
1798.53026	0.00246
1796.47009	0.00243
1794.40991	0.00241
1792.34974	0.00247
1790.28957	0.00260
1788.22940	0.00271
1786.16923	0.00272
1784.10905	0.00258
1782.04888	0.00239
1779.98871	0.00224
1777.92854	0.00219
1775.86836	0.00216
1773.80819	0.00224
1771.74802	0.00243
1769.68785	0.00272
1767.62768	0.00314
1765.56750	0.00368
1763.50733	0.00437
1761.44716	0.00524
1759.38699	0.00630
1757.32682	0.00756
1755.26664	0.00895
1753.20647	0.01045
1751.14630	0.01208
1749.08613	0.01373
1747.02596	0.01517
1744.96578	0.01624
1742.90561	0.01695
1740.84544	0.01735
1738.78527	0.01750
1736.72509	0.01746
1734.66492	0.01731
1732.60475	0.01714
1730.54458	0.01707
1728.48441	0.01715
1726.42423	0.01730
1724.36406	0.01745
1722.30389	0.01754
1720.24372	0.01753
1718.18355	0.01744
1716.12337	0.01731
1714.06320	0.01726
1712.00303	0.01726
1709.94286	0.01719
1707.88268	0.01696
1705.82251	0.01658
1703.76234	0.01615
1701.70217	0.01578
1699.64200	0.01558
1697.58182	0.01566
1695.52165	0.01609
1693.46148	0.01678
1691.40131	0.01766
1689.34114	0.01870
1687.28096	0.01998
1685.22079	0.02157
1683.16062	0.02340
1681.10045	0.02526
1679.04028	0.02692
1676.98010	0.02825
1674.91993	0.02918
1672.85976	0.02970
1670.79959	0.02983
1668.73941	0.02961
1666.67924	0.02916
1664.61907	0.02861
1662.55890	0.02801
1660.49873	0.02742
1658.43855	0.02693
1656.37838	0.02651
1654.31821	0.02606
1652.25804	0.02562
1650.19787	0.02538
1648.13769	0.02539
1646.07752	0.02553
1644.01735	0.02574
1641.95718	0.02603
1639.89701	0.02644
1637.83683	0.02698
1635.77666	0.02762
1633.71649	0.02827
1631.65632	0.02886
1629.59614	0.02935
1627.53597	0.02973
1625.47580	0.03001
1623.41563	0.03025
1621.35546	0.03049
1619.29528	0.03080
1617.23511	0.03124
1615.17494	0.03184
1613.11477	0.03266
1611.05460	0.03370
1608.99442	0.03480
1606.93425	0.03566
1604.87408	0.03597
1602.81391	0.03559
1600.75373	0.03460
1598.69356	0.03328
1596.63339	0.03186
1594.57322	0.03054
1592.51305	0.02940
1590.45287	0.02847
1588.39270	0.02767
1586.33253	0.02688
1584.27236	0.02602
1582.21219	0.02513
1580.15201	0.02429
1578.09184	0.02354
1576.03167	0.02286
1573.97150	0.02223
1571.91133	0.02164
1569.85115	0.02096
1567.79098	0.02016
1565.73081	0.01933
1563.67064	0.01854
1561.61046	0.01770
1559.55029	0.01667
1557.49012	0.01545
1555.42995	0.01440
1553.36978	0.01366
1551.30960	0.01311
1549.24943	0.01257
1547.18926	0.01197
1545.12909	0.01127
1543.06892	0.01050
1541.00874	0.00970
1538.94857	0.00896
1536.88840	0.00839
1534.82823	0.00800
1532.76805	0.00771
1530.70788	0.00748
1528.64771	0.00731
1526.58754	0.00725
1524.52737	0.00743
1522.46719	0.00803
1520.40702	0.00905
1518.34685	0.01026
1516.28668	0.01128
1514.22651	0.01174
1512.16633	0.01148
1510.10616	0.01059
1508.04599	0.00926
1505.98582	0.00781
1503.92565	0.00660
1501.86547	0.00576
1499.80530	0.00514
1497.74513	0.00455
1495.68496	0.00397
1493.62478	0.00343
1491.56461	0.00297
1489.50444	0.00258
1487.44427	0.00234
1485.38410	0.00232
1483.32392	0.00253
1481.26375	0.00290
1479.20358	0.00345
1477.14341	0.00429
1475.08324	0.00558
1473.02306	0.00736
1470.96289	0.00942
1468.90272	0.01148
1466.84255	0.01334
1464.78238	0.01490
1462.72220	0.01611
1460.66203	0.01704
1458.60186	0.01782
1456.54169	0.01855
1454.48151	0.01928
1452.42134	0.02006
1450.36117	0.02089
1448.30100	0.02174
1446.24083	0.02259
1444.18065	0.02341
1442.12048	0.02417
1440.06031	0.02482
1438.00014	0.02536
1435.93997	0.02579
1433.87979	0.02614
1431.81962	0.02642
1429.75945	0.02662
1427.69928	0.02674
1425.63910	0.02684
1423.57893	0.02693
1421.51876	0.02697
1419.45859	0.02697
1417.39842	0.02695
1415.33824	0.02694
1413.27807	0.02685
1411.21790	0.02659
1409.15773	0.02614
1407.09756	0.02554
1405.03738	0.02485
1402.97721	0.02410
1400.91704	0.02332
1398.85687	0.02254
1396.79670	0.02181
1394.73652	0.02126
1392.67635	0.02096
1390.61618	0.02094
1388.55601	0.02116
1386.49583	0.02154
1384.43566	0.02206
1382.37549	0.02268
1380.31532	0.02335
1378.25515	0.02399
1376.19497	0.02451
1374.13480	0.02486
1372.07463	0.02503
1370.01446	0.02505
1367.95429	0.02491
1365.89411	0.02459
1363.83394	0.02411
1361.77377	0.02358
1359.71360	0.02315
1357.65343	0.02288
1355.59325	0.02274
1353.53308	0.02267
1351.47291	0.02264
1349.41274	0.02261
1347.35256	0.02257
1345.29239	0.02250
1343.23222	0.02238
1341.17205	0.02221
1339.11188	0.02204
1337.05170	0.02199
1334.99153	0.02206
1332.93136	0.02220
1330.87119	0.02231
1328.81102	0.02238
1326.75084	0.02241
1324.69067	0.02244
1322.63050	0.02246
1320.57033	0.02245
1318.51015	0.02239
1316.44998	0.02228
1314.38981	0.02210
1312.32964	0.02185
1310.26947	0.02149
1308.20929	0.02105
1306.14912	0.02051
1304.08895	0.01993
1302.02878	0.01936
1299.96861	0.01885
1297.90843	0.01848
1295.84826	0.01831
1293.78809	0.01833
1291.72792	0.01849
1289.66775	0.01872
1287.60757	0.01897
1285.54740	0.01921
1283.48723	0.01941
1281.42706	0.01956
1279.36688	0.01966
1277.30671	0.01976
1275.24654	0.01990
1273.18637	0.02013
1271.12620	0.02048
1269.06602	0.02100
1267.00585	0.02167
1264.94568	0.02245
1262.88551	0.02326
1260.82534	0.02404
1258.76516	0.02475
1256.70499	0.02537
1254.64482	0.02591
1252.58465	0.02634
1250.52447	0.02668
1248.46430	0.02697
1246.40413	0.02725
1244.34396	0.02749
1242.28379	0.02765
1240.22361	0.02767
1238.16344	0.02754
1236.10327	0.02724
1234.04310	0.02675
1231.98293	0.02611
1229.92275	0.02533
1227.86258	0.02444
1225.80241	0.02344
1223.74224	0.02236
1221.68207	0.02121
1219.62189	0.02000
1217.56172	0.01874
1215.50155	0.01746
1213.44138	0.01620
1211.38120	0.01500
1209.32103	0.01384
1207.26086	0.01268
1205.20069	0.01147
1203.14052	0.01017
1201.08034	0.00877
1199.02017	0.00732
1196.96000	0.00593
1194.89983	0.00475
1192.83966	0.00383
1190.77948	0.00315
1188.71931	0.00268
1186.65914	0.00249
1184.59897	0.00255
1182.53880	0.00284
1180.47862	0.00332
1178.41845	0.00409
1176.35828	0.00534
1174.29811	0.00712
1172.23793	0.00929
1170.17776	0.01159
1168.11759	0.01355
1166.05742	0.01478
1163.99725	0.01542
1161.93707	0.01586
1159.87690	0.01631
1157.81673	0.01680
1155.75656	0.01734
1153.69639	0.01801
1151.63621	0.01886
1149.57604	0.01992
1147.51587	0.02110
1145.45570	0.02222
1143.39552	0.02315
1141.33535	0.02388
1139.27518	0.02453
1137.21501	0.02521
1135.15484	0.02588
1133.09466	0.02654
1131.03449	0.02728
1128.97432	0.02813
1126.91415	0.02903
1124.85398	0.03003
1122.79380	0.03122
1120.73363	0.03255
1118.67346	0.03389
1116.61329	0.03511
1114.55312	0.03619
1112.49294	0.03713
1110.43277	0.03801
1108.37260	0.03891
1106.31243	0.03993
1104.25225	0.04107
1102.19208	0.04233
1100.13191	0.04379
1098.07174	0.04552
1096.01157	0.04743
1093.95139	0.04939
1091.89122	0.05134
1089.83105	0.05319
1087.77088	0.05491
1085.71071	0.05661
1083.65053	0.05840
1081.59036	0.06025
1079.53019	0.06216
1077.47002	0.06419
1075.40985	0.06635
1073.34967	0.06847
1071.28950	0.07036
1069.22933	0.07196
1067.16916	0.07329
1065.10898	0.07448
1063.04881	0.07565
1060.98864	0.07685
1058.92847	0.07811
1056.86830	0.07949
1054.80812	0.08113
1052.74795	0.08304
1050.68778	0.08509
1048.62761	0.08720
1046.56744	0.08932
1044.50726	0.09142
1042.44709	0.09351
1040.38692	0.09550
1038.32675	0.09719
1036.26657	0.09850
1034.20640	0.09941
1032.14623	0.09990
1030.08606	0.10003
1028.02589	0.09993
1025.96571	0.09959
1023.90554	0.09905
1021.84537	0.09848
1019.78520	0.09803
1017.72503	0.09775
1015.66485	0.09773
1013.60468	0.09793
1011.54451	0.09817
1009.48434	0.09834
1007.42417	0.09840
1005.36399	0.09831
1003.30382	0.09792
1001.24365	0.09712
999.18348	0.09599
997.12330	0.09473
995.06313	0.09339
993.00296	0.09196
990.94279	0.09047
988.88262	0.08895
986.82244	0.08738
984.76227	0.08583
982.70210	0.08447
980.64193	0.08324
978.58176	0.08195
976.52158	0.08055
974.46141	0.07914
972.40124	0.07773
970.34107	0.07619
968.28089	0.07448
966.22072	0.07278
964.16055	0.07120
962.10038	0.06962
960.04021	0.06794
957.98003	0.06625
955.91986	0.06467
953.85969	0.06327
951.79952	0.06201
949.73935	0.06081
947.67917	0.05954
945.61900	0.05796
943.55883	0.05597
941.49866	0.05363
939.43849	0.05110
937.37831	0.04844
935.31814	0.04554
933.25797	0.04238
931.19780	0.03922
929.13762	0.03640
927.07745	0.03404
925.01728	0.03202
922.95711	0.03021
920.89694	0.02855
918.83676	0.02703
916.77659	0.02555
914.71642	0.02408
912.65625	0.02259
910.59608	0.02109
908.53590	0.01969
906.47573	0.01858
904.41556	0.01790
902.35539	0.01757
900.29522	0.01746
898.23504	0.01756
896.17487	0.01789
894.11470	0.01826
892.05453	0.01840
889.99435	0.01811
887.93418	0.01742
885.87401	0.01647
883.81384	0.01538
881.75367	0.01425
879.69349	0.01312
877.63332	0.01210
875.57315	0.01122
873.51298	0.01053
871.45281	0.01007
869.39263	0.00983
867.33246	0.00972
865.27229	0.00957
863.21212	0.00940
861.15194	0.00927
859.09177	0.00923
857.03160	0.00922
854.97143	0.00911
852.91126	0.00890
850.85108	0.00863
848.79091	0.00845
846.73074	0.00852
844.67057	0.00862
842.61040	0.00849
840.55022	0.00822
838.49005	0.00799
836.42988	0.00784
834.36971	0.00768
832.30954	0.00738
830.24936	0.00683
828.18919	0.00617
826.12902	0.00563
824.06885	0.00524
822.00867	0.00495
819.94850	0.00477
817.88833	0.00465
815.82816	0.00459
813.76799	0.00462
811.70781	0.00460
809.64764	0.00454
807.58747	0.00460
805.52730	0.00475
803.46713	0.00480
801.40695	0.00472
799.34678	0.00448
797.28661	0.00411
795.22644	0.00370
793.16627	0.00329
791.10609	0.00290
789.04592	0.00270
786.98575	0.00278
784.92558	0.00314
782.86540	0.00349
780.80523	0.00368
778.74506	0.00373
776.68489	0.00353
774.62472	0.00308
772.56454	0.00263
770.50437	0.00251
768.44420	0.00276
766.38403	0.00304
764.32386	0.00301
762.26368	0.00281
760.20351	0.00272
758.14334	0.00266
756.08317	0.00257
754.02299	0.00258
751.96282	0.00271
749.90265	0.00249
747.84248	0.00202
745.78231	0.00144
743.72213	0.00107
741.66196	0.00093
739.60179	0.00077
737.54162	0.00041
735.48145	0.00006
733.42127	0.00000
731.36110	0.00019
729.30093	0.00044
727.24076	0.00055
725.18059	0.00056
723.12041	0.00080
721.06024	0.00127
719.00007	0.00179
716.93990	0.00215
714.87972	0.00235
712.81955	0.00259
710.75938	0.00302
708.69921	0.00359
706.63904	0.00421
704.57886	0.00479
702.51869	0.00523
700.45852	0.00545
698.39835	0.00540
696.33818	0.00506
694.27800	0.00449
692.21783	0.00383
690.15766	0.00315
688.09749	0.00244
686.03731	0.00171
683.97714	0.00106
681.91697	0.00064
679.85680	0.00044
677.79663	0.00033
675.73645	0.00023
673.67628	0.00010
671.61611	0.00000
669.55594	0.00006
667.49577	0.00034
665.43559	0.00065
663.37542	0.00075
661.31525	0.00065
659.25508	0.00060
657.19491	0.00084
655.13473	0.00126
653.07456	0.00159
651.01439	0.00177
648.95422	0.00187
646.89404	0.00183
644.83387	0.00165
642.77370	0.00150
640.71353	0.00143
638.65336	0.00143
636.59318	0.00164
634.53301	0.00222
632.47284	0.00296
630.41267	0.00330
628.35250	0.00264
626.29232	0.00105
624.23215	0.00000
622.17198	0.00006
620.11181	0.00061
618.05164	0.00098
615.99146	0.00111
613.93129	0.00135
611.87112	0.00148
609.81095	0.00100
607.75077	0.00043
605.69060	0.00034
603.63043	0.00028
601.57026	0.00006
599.51009	0.00000
