3996.73391	0.00040
3994.67373	0.00045
3992.61356	0.00046
3990.55339	0.00042
3988.49322	0.00035
3986.43305	0.00027
3984.37287	0.00021
3982.31270	0.00019
3980.25253	0.00016
3978.19236	0.00014
3976.13219	0.00013
3974.07201	0.00018
3972.01184	0.00024
3969.95167	0.00025
3967.89150	0.00021
3965.83133	0.00012
3963.77115	0.00003
3961.71098	0.00000
3959.65081	0.00005
3957.59064	0.00017
3955.53046	0.00030
3953.47029	0.00039
3951.41012	0.00039
3949.34995	0.00031
3947.28978	0.00018
3945.22960	0.00011
3943.16943	0.00015
3941.10926	0.00027
3939.04909	0.00042
3936.98892	0.00053
3934.92874	0.00054
3932.86857	0.00051
3930.80840	0.00055
3928.74823	0.00069
3926.68805	0.00082
3924.62788	0.00078
3922.56771	0.00057
3920.50754	0.00031
3918.44737	0.00012
3916.38719	0.00003
3914.32702	0.00005
3912.26685	0.00012
3910.20668	0.00023
3908.14651	0.00034
3906.08633	0.00043
3904.02616	0.00048
3901.96599	0.00057
3899.90582	0.00073
3897.84565	0.00088
3895.78547	0.00092
3893.72530	0.00085
3891.66513	0.00069
3889.60496	0.00054
3887.54478	0.00052
3885.48461	0.00059
3883.42444	0.00064
3881.36427	0.00063
3879.30410	0.00058
3877.24392	0.00052
3875.18375	0.00048
3873.12358	0.00042
3871.06341	0.00033
3869.00324	0.00032
3866.94306	0.00040
3864.88289	0.00048
3862.82272	0.00046
3860.76255	0.00041
3858.70237	0.00042
3856.64220	0.00050
3854.58203	0.00056
3852.52186	0.00054
3850.46169	0.00052
3848.40151	0.00057
3846.34134	0.00071
3844.28117	0.00083
3842.22100	0.00084
3840.16083	0.00076
3838.10065	0.00065
3836.04048	0.00059
3833.98031	0.00061
3831.92014	0.00067
3829.85997	0.00075
3827.79979	0.00085
3825.73962	0.00093
3823.67945	0.00090
3821.61928	0.00067
3819.55910	0.00033
3817.49893	0.00014
3815.43876	0.00021
3813.37859	0.00041
3811.31842	0.00061
3809.25824	0.00074
3807.19807	0.00079
3805.13790	0.00084
3803.07773	0.00093
3801.01756	0.00097
3798.95738	0.00091
3796.89721	0.00084
3794.83704	0.00081
3792.77687	0.00083
3790.71670	0.00088
3788.65652	0.00093
3786.59635	0.00100
3784.53618	0.00106
3782.47601	0.00109
3780.41583	0.00110
3778.35566	0.00107
3776.29549	0.00103
3774.23532	0.00099
3772.17515	0.00095
3770.11497	0.00087
3768.05480	0.00074
3765.99463	0.00061
3763.93446	0.00056
3761.87429	0.00063
3759.81411	0.00076
3757.75394	0.00084
3755.69377	0.00090
3753.63360	0.00097
3751.57342	0.00098
3749.51325	0.00077
3747.45308	0.00049
3745.39291	0.00030
3743.33274	0.00022
3741.27256	0.00022
3739.21239	0.00030
3737.15222	0.00040
3735.09205	0.00040
3733.03188	0.00029
3730.97170	0.00023
3728.91153	0.00031
3726.85136	0.00049
3724.79119	0.00059
3722.73102	0.00055
3720.67084	0.00045
3718.61067	0.00034
3716.55050	0.00029
3714.49033	0.00035
3712.43015	0.00050
3710.36998	0.00064
3708.30981	0.00071
3706.24964	0.00072
3704.18947	0.00073
3702.12929	0.00073
3700.06912	0.00074
3698.00895	0.00077
3695.94878	0.00083
3693.88861	0.00087
3691.82843	0.00086
3689.76826	0.00072
3687.70809	0.00052
3685.64792	0.00040
3683.58775	0.00046
3681.52757	0.00063
3679.46740	0.00078
3677.40723	0.00078
3675.34706	0.00061
3673.28688	0.00045
3671.22671	0.00054
3669.16654	0.00077
3667.10637	0.00100
3665.04620	0.00119
3662.98602	0.00139
3660.92585	0.00159
3658.86568	0.00175
3656.80551	0.00174
3654.74534	0.00151
3652.68516	0.00122
3650.62499	0.00099
3648.56482	0.00092
3646.50465	0.00106
3644.44447	0.00136
3642.38430	0.00167
3640.32413	0.00188
3638.26396	0.00195
3636.20379	0.00195
3634.14361	0.00197
3632.08344	0.00206
3630.02327	0.00216
3627.96310	0.00229
3625.90293	0.00254
3623.84275	0.00290
3621.78258	0.00326
3619.72241	0.00355
3617.66224	0.00376
3615.60207	0.00395
3613.54189	0.00414
3611.48172	0.00427
3609.42155	0.00432
3607.36138	0.00433
3605.30120	0.00446
3603.24103	0.00480
3601.18086	0.00526
3599.12069	0.00558
3597.06052	0.00565
3595.00034	0.00556
3592.94017	0.00545
3590.88000	0.00543
3588.81983	0.00552
3586.75966	0.00570
3584.69948	0.00597
3582.63931	0.00630
3580.57914	0.00662
3578.51897	0.00685
3576.45879	0.00700
3574.39862	0.00716
3572.33845	0.00739
3570.27828	0.00771
3568.21811	0.00806
3566.15793	0.00837
3564.09776	0.00868
3562.03759	0.00910
3559.97742	0.00960
3557.91725	0.01012
3555.85707	0.01055
3553.79690	0.01085
3551.73673	0.01104
3549.67656	0.01116
3547.61639	0.01130
3545.55621	0.01153
3543.49604	0.01189
3541.43587	0.01230
3539.37570	0.01268
3537.31552	0.01300
3535.25535	0.01330
3533.19518	0.01358
3531.13501	0.01386
3529.07484	0.01412
3527.01466	0.01443
3524.95449	0.01483
3522.89432	0.01529
3520.83415	0.01571
3518.77398	0.01604
3516.71380	0.01626
3514.65363	0.01641
3512.59346	0.01657
3510.53329	0.01682
3508.47312	0.01714
3506.41294	0.01746
3504.35277	0.01779
3502.29260	0.01812
3500.23243	0.01846
3498.17225	0.01880
3496.11208	0.01912
3494.05191	0.01943
3491.99174	0.01974
3489.93157	0.02008
3487.87139	0.02044
3485.81122	0.02083
3483.75105	0.02127
3481.69088	0.02173
3479.63071	0.02214
3477.57053	0.02246
3475.51036	0.02272
3473.45019	0.02297
3471.39002	0.02326
3469.32984	0.02360
3467.26967	0.02397
3465.20950	0.02436
3463.14933	0.02471
3461.08916	0.02496
3459.02898	0.02512
3456.96881	0.02525
3454.90864	0.02542
3452.84847	0.02568
3450.78830	0.02603
3448.72812	0.02641
3446.66795	0.02677
3444.60778	0.02709
3442.54761	0.02738
3440.48744	0.02764
3438.42726	0.02785
3436.36709	0.02807
3434.30692	0.02836
3432.24675	0.02873
3430.18657	0.02912
3428.12640	0.02946
3426.06623	0.02976
3424.00606	0.03006
3421.94589	0.03036
3419.88571	0.03060
3417.82554	0.03078
3415.76537	0.03098
3413.70520	0.03123
3411.64503	0.03148
3409.58485	0.03174
3407.52468	0.03195
3405.46451	0.03214
3403.40434	0.03232
3401.34416	0.03249
3399.28399	0.03266
3397.22382	0.03283
3395.16365	0.03302
3393.10348	0.03325
3391.04330	0.03351
3388.98313	0.03377
3386.92296	0.03396
3384.86279	0.03408
3382.80262	0.03418
3380.74244	0.03430
3378.68227	0.03446
3376.62210	0.03467
3374.56193	0.03490
3372.50176	0.03514
3370.44158	0.03538
3368.38141	0.03561
3366.32124	0.03579
3364.26107	0.03589
3362.20089	0.03592
3360.14072	0.03596
3358.08055	0.03604
3356.02038	0.03620
3353.96021	0.03640
3351.90003	0.03658
3349.83986	0.03670
3347.77969	0.03675
3345.71952	0.03680
3343.65935	0.03692
3341.59917	0.03706
3339.53900	0.03715
3337.47883	0.03717
3335.41866	0.03713
3333.35849	0.03708
3331.29831	0.03707
3329.23814	0.03711
3327.17797	0.03723
3325.11780	0.03740
3323.05762	0.03761
3320.99745	0.03780
3318.93728	0.03793
3316.87711	0.03801
3314.81694	0.03803
3312.75676	0.03800
3310.69659	0.03798
3308.63642	0.03802
3306.57625	0.03812
3304.51608	0.03822
3302.45590	0.03825
3300.39573	0.03818
3298.33556	0.03806
3296.27539	0.03795
3294.21521	0.03789
3292.15504	0.03785
3290.09487	0.03779
3288.03470	0.03770
3285.97453	0.03759
3283.91435	0.03751
3281.85418	0.03748
3279.79401	0.03753
3277.73384	0.03761
3275.67367	0.03769
3273.61349	0.03772
3271.55332	0.03772
3269.49315	0.03772
3267.43298	0.03772
3265.37281	0.03773
3263.31263	0.03772
3261.25246	0.03769
3259.19229	0.03763
3257.13212	0.03753
3255.07194	0.03740
3253.01177	0.03727
3250.95160	0.03716
3248.89143	0.03702
3246.83126	0.03684
3244.77108	0.03665
3242.71091	0.03650
3240.65074	0.03637
3238.59057	0.03625
3236.53040	0.03615
3234.47022	0.03611
3232.41005	0.03612
3230.34988	0.03615
3228.28971	0.03615
3226.22954	0.03609
3224.16936	0.03597
3222.10919	0.03582
3220.04902	0.03569
3217.98885	0.03556
3215.92867	0.03543
3213.86850	0.03529
3211.80833	0.03517
3209.74816	0.03506
3207.68799	0.03494
3205.62781	0.03476
3203.56764	0.03449
3201.50747	0.03422
3199.44730	0.03402
3197.38713	0.03392
3195.32695	0.03386
3193.26678	0.03381
3191.20661	0.03368
3189.14644	0.03347
3187.08626	0.03320
3185.02609	0.03297
3182.96592	0.03284
3180.90575	0.03278
3178.84558	0.03271
3176.78540	0.03259
3174.72523	0.03241
3172.66506	0.03217
3170.60489	0.03190
3168.54472	0.03163
3166.48454	0.03140
3164.42437	0.03119
3162.36420	0.03097
3160.30403	0.03075
3158.24386	0.03052
3156.18368	0.03027
3154.12351	0.03002
3152.06334	0.02981
3150.00317	0.02967
3147.94299	0.02957
3145.88282	0.02946
3143.82265	0.02933
3141.76248	0.02919
3139.70231	0.02906
3137.64213	0.02888
3135.58196	0.02865
3133.52179	0.02835
3131.46162	0.02801
3129.40145	0.02769
3127.34127	0.02742
3125.28110	0.02722
3123.22093	0.02707
3121.16076	0.02696
3119.10058	0.02686
3117.04041	0.02672
3114.98024	0.02654
3112.92007	0.02636
3110.85990	0.02621
3108.79972	0.02608
3106.73955	0.02590
3104.67938	0.02563
3102.61921	0.02532
3100.55904	0.02501
3098.49886	0.02474
3096.43869	0.02451
3094.37852	0.02432
3092.31835	0.02417
3090.25818	0.02405
3088.19800	0.02396
3086.13783	0.02388
3084.07766	0.02377
3082.01749	0.02358
3079.95731	0.02331
3077.89714	0.02302
3075.83697	0.02277
3073.77680	0.02257
3071.71663	0.02241
3069.65645	0.02227
3067.59628	0.02210
3065.53611	0.02190
3063.47594	0.02167
3061.41577	0.02147
3059.35559	0.02129
3057.29542	0.02111
3055.23525	0.02093
3053.17508	0.02077
3051.11491	0.02062
3049.05473	0.02048
3046.99456	0.02035
3044.93439	0.02022
3042.87422	0.02009
3040.81404	0.01995
3038.75387	0.01976
3036.69370	0.01953
3034.63353	0.01930
3032.57336	0.01908
3030.51318	0.01888
3028.45301	0.01873
3026.39284	0.01862
3024.33267	0.01858
3022.27250	0.01857
3020.21232	0.01857
3018.15215	0.01856
3016.09198	0.01851
3014.03181	0.01842
3011.97163	0.01831
3009.91146	0.01821
3007.85129	0.01813
3005.79112	0.01802
3003.73095	0.01786
3001.67077	0.01769
2999.61060	0.01757
2997.55043	0.01753
2995.49026	0.01747
2993.43009	0.01735
2991.36991	0.01728
2989.30974	0.01724
2987.24957	0.01725
2985.18940	0.01730
2983.12923	0.01739
2981.06905	0.01754
2979.00888	0.01788
2976.94871	0.01838
2974.88854	0.01894
2972.82836	0.01948
2970.76819	0.02002
2968.70802	0.02061
2966.64785	0.02142
2964.58768	0.02256
2962.52750	0.02392
2960.46733	0.02524
2958.40716	0.02636
2956.34699	0.02735
2954.28682	0.02844
2952.22664	0.02973
2950.16647	0.03114
2948.10630	0.03254
2946.04613	0.03397
2943.98596	0.03550
2941.92578	0.03709
2939.86561	0.03874
2937.80544	0.04050
2935.74527	0.04243
2933.68509	0.04442
2931.62492	0.04625
2929.56475	0.04772
2927.50458	0.04889
2925.44441	0.04996
2923.38423	0.05091
2921.32406	0.05157
2919.26389	0.05180
2917.20372	0.05137
2915.14355	0.05014
2913.08337	0.04825
2911.02320	0.04612
2908.96303	0.04418
2906.90286	0.04263
2904.84268	0.04136
2902.78251	0.04017
2900.72234	0.03897
2898.66217	0.03784
2896.60200	0.03682
2894.54182	0.03588
2892.48165	0.03496
2890.42148	0.03409
2888.36131	0.03332
2886.30114	0.03267
2884.24096	0.03213
2882.18079	0.03172
2880.12062	0.03142
2878.06045	0.03124
2876.00028	0.03118
2873.94010	0.03124
2871.87993	0.03140
2869.81976	0.03169
2867.75959	0.03218
2865.69941	0.03288
2863.63924	0.03378
2861.57907	0.03494
2859.51890	0.03637
2857.45873	0.03781
2855.39855	0.03901
2853.33838	0.03993
2851.27821	0.04039
2849.21804	0.03989
2847.15787	0.03813
2845.09769	0.03554
2843.03752	0.03288
2840.97735	0.03069
2838.91718	0.02898
2836.85700	0.02760
2834.79683	0.02647
2832.73666	0.02561
2830.67649	0.02490
2828.61632	0.02418
2826.55614	0.02347
2824.49597	0.02288
2822.43580	0.02242
2820.37563	0.02202
2818.31546	0.02166
2816.25528	0.02134
2814.19511	0.02109
2812.13494	0.02084
2810.07477	0.02057
2808.01460	0.02028
2805.95442	0.01998
2803.89425	0.01971
2801.83408	0.01944
2799.77391	0.01913
2797.71373	0.01888
2795.65356	0.01877
2793.59339	0.01869
2791.53322	0.01847
2789.47305	0.01819
2787.41287	0.01802
2785.35270	0.01796
2783.29253	0.01786
2781.23236	0.01769
2779.17219	0.01754
2777.11201	0.01741
2775.05184	0.01730
2772.99167	0.01721
2770.93150	0.01718
2768.87133	0.01715
2766.81115	0.01709
2764.75098	0.01697
2762.69081	0.01686
2760.63064	0.01681
2758.57046	0.01681
2756.51029	0.01681
2754.45012	0.01678
2752.38995	0.01672
2750.32978	0.01670
2748.26960	0.01668
2746.20943	0.01662
2744.14926	0.01650
2742.08909	0.01642
2740.02892	0.01640
2737.96874	0.01631
2735.90857	0.01610
2733.84840	0.01592
2731.78823	0.01589
2729.72805	0.01600
2727.66788	0.01612
2725.60771	0.01616
2723.54754	0.01614
2721.48737	0.01611
2719.42719	0.01606
2717.36702	0.01597
2715.30685	0.01586
2713.24668	0.01577
2711.18651	0.01573
2709.12633	0.01572
2707.06616	0.01570
2705.00599	0.01561
2702.94582	0.01552
2700.88565	0.01542
2698.82547	0.01531
2696.76530	0.01522
2694.70513	0.01518
2692.64496	0.01521
2690.58478	0.01530
2688.52461	0.01537
2686.46444	0.01537
2684.40427	0.01531
2682.34410	0.01525
2680.28392	0.01521
2678.22375	0.01513
2676.16358	0.01506
2674.10341	0.01505
2672.04324	0.01500
2669.98306	0.01488
2667.92289	0.01477
2665.86272	0.01476
2663.80255	0.01474
2661.74238	0.01467
2659.68220	0.01459
2657.62203	0.01452
2655.56186	0.01444
2653.50169	0.01439
2651.44151	0.01436
2649.38134	0.01429
2647.32117	0.01415
2645.26100	0.01399
2643.20083	0.01390
2641.14065	0.01394
2639.08048	0.01404
2637.02031	0.01409
2634.96014	0.01406
2632.89997	0.01403
2630.83979	0.01399
2628.77962	0.01396
2626.71945	0.01396
2624.65928	0.01394
2622.59910	0.01384
2620.53893	0.01368
2618.47876	0.01350
2616.41859	0.01337
2614.35842	0.01324
2612.29824	0.01304
2610.23807	0.01295
2608.17790	0.01307
2606.11773	0.01317
2604.05756	0.01304
2601.99738	0.01282
2599.93721	0.01267
2597.87704	0.01254
2595.81687	0.01237
2593.75670	0.01225
2591.69652	0.01222
2589.63635	0.01225
2587.57618	0.01225
2585.51601	0.01211
2583.45583	0.01186
2581.39566	0.01168
2579.33549	0.01158
2577.27532	0.01147
2575.21515	0.01142
2573.15497	0.01150
2571.09480	0.01152
2569.03463	0.01131
2566.97446	0.01100
2564.91429	0.01078
2562.85411	0.01079
2560.79394	0.01099
2558.73377	0.01119
2556.67360	0.01131
2554.61342	0.01132
2552.55325	0.01116
2550.49308	0.01089
2548.43291	0.01071
2546.37274	0.01065
2544.31256	0.01065
2542.25239	0.01068
2540.19222	0.01075
2538.13205	0.01083
2536.07188	0.01084
2534.01170	0.01074
2531.95153	0.01052
2529.89136	0.01029
2527.83119	0.01018
2525.77102	0.01024
2523.71084	0.01038
2521.65067	0.01048
2519.59050	0.01044
2517.53033	0.01024
2515.47015	0.01003
2513.40998	0.01002
2511.34981	0.01019
2509.28964	0.01030
2507.22947	0.01018
2505.16929	0.00994
2503.10912	0.00979
2501.04895	0.00986
2498.98878	0.01013
2496.92861	0.01041
2494.86843	0.01039
2492.80826	0.01011
2490.74809	0.00986
2488.68792	0.00970
2486.62775	0.00961
2484.56757	0.00962
2482.50740	0.00965
2480.44723	0.00951
2478.38706	0.00923
2476.32688	0.00902
2474.26671	0.00904
2472.20654	0.00920
2470.14637	0.00925
2468.08620	0.00916
2466.02602	0.00911
2463.96585	0.00919
2461.90568	0.00936
2459.84551	0.00954
2457.78534	0.00961
2455.72516	0.00948
2453.66499	0.00925
2451.60482	0.00907
2449.54465	0.00904
2447.48447	0.00909
2445.42430	0.00911
2443.36413	0.00908
2441.30396	0.00905
2439.24379	0.00903
2437.18361	0.00901
2435.12344	0.00895
2433.06327	0.00881
2431.00310	0.00869
2428.94293	0.00863
2426.88275	0.00855
2424.82258	0.00842
2422.76241	0.00842
2420.70224	0.00855
2418.64207	0.00865
2416.58189	0.00864
2414.52172	0.00858
2412.46155	0.00852
2410.40138	0.00847
2408.34120	0.00846
2406.28103	0.00845
2404.22086	0.00833
2402.16069	0.00813
2400.10052	0.00805
2398.04034	0.00813
2395.98017	0.00823
2393.92000	0.00828
2391.85983	0.00830
2389.79966	0.00832
2387.73948	0.00834
2385.67931	0.00836
2383.61914	0.00838
2381.55897	0.00839
2379.49880	0.00837
2377.43862	0.00831
2375.37845	0.00831
2373.31828	0.00840
2371.25811	0.00848
2369.19793	0.00836
2367.13776	0.00809
2365.07759	0.00784
2363.01742	0.00766
2360.95725	0.00746
2358.89707	0.00721
2356.83690	0.00705
2354.77673	0.00712
2352.71656	0.00746
2350.65639	0.00797
2348.59621	0.00837
2346.53604	0.00852
2344.47587	0.00850
2342.41570	0.00840
2340.35552	0.00832
2338.29535	0.00832
2336.23518	0.00832
2334.17501	0.00828
2332.11484	0.00825
2330.05466	0.00833
2327.99449	0.00854
2325.93432	0.00874
2323.87415	0.00872
2321.81398	0.00842
2319.75380	0.00799
2317.69363	0.00761
2315.63346	0.00740
2313.57329	0.00735
2311.51312	0.00741
2309.45294	0.00752
2307.39277	0.00760
2305.33260	0.00761
2303.27243	0.00757
2301.21225	0.00752
2299.15208	0.00749
2297.09191	0.00748
2295.03174	0.00751
2292.97157	0.00762
2290.91139	0.00777
2288.85122	0.00790
2286.79105	0.00795
2284.73088	0.00795
2282.67071	0.00789
2280.61053	0.00778
2278.55036	0.00759
2276.49019	0.00742
2274.43002	0.00733
2272.36984	0.00729
2270.30967	0.00720
2268.24950	0.00705
2266.18933	0.00691
2264.12916	0.00687
2262.06898	0.00690
2260.00881	0.00690
2257.94864	0.00680
2255.88847	0.00670
2253.82830	0.00670
2251.76812	0.00671
2249.70795	0.00663
2247.64778	0.00649
2245.58761	0.00662
2243.52744	0.00701
2241.46726	0.00714
2239.40709	0.00666
2237.34692	0.00593
2235.28675	0.00550
2233.22657	0.00550
2231.16640	0.00571
2229.10623	0.00587
2227.04606	0.00592
2224.98589	0.00591
2222.92571	0.00578
2220.86554	0.00562
2218.80537	0.00576
2216.74520	0.00613
2214.68503	0.00617
2212.62485	0.00575
2210.56468	0.00527
2208.50451	0.00510
2206.44434	0.00527
2204.38417	0.00548
2202.32399	0.00558
2200.26382	0.00580
2198.20365	0.00618
2196.14348	0.00639
2194.08330	0.00632
2192.02313	0.00603
2189.96296	0.00545
2187.90279	0.00469
2185.84262	0.00442
2183.78244	0.00504
2181.72227	0.00579
2179.66210	0.00579
2177.60193	0.00541
2175.54176	0.00529
2173.48158	0.00522
2171.42141	0.00496
2169.36124	0.00485
2167.30107	0.00523
2165.24089	0.00596
2163.18072	0.00631
2161.12055	0.00553
2159.06038	0.00404
2157.00021	0.00311
2154.94003	0.00290
2152.87986	0.00286
2150.81969	0.00297
2148.75952	0.00333
2146.69935	0.00360
2144.63917	0.00365
2142.57900	0.00384
2140.51883	0.00425
2138.45866	0.00455
2136.39849	0.00456
2134.33831	0.00462
2132.27814	0.00511
2130.21797	0.00570
2128.15780	0.00568
2126.09762	0.00521
2124.03745	0.00507
2121.97728	0.00553
2119.91711	0.00613
2117.85694	0.00626
2115.79676	0.00589
2113.73659	0.00553
2111.67642	0.00556
2109.61625	0.00592
2107.55608	0.00625
2105.49590	0.00622
2103.43573	0.00591
2101.37556	0.00565
2099.31539	0.00547
2097.25521	0.00532
2095.19504	0.00525
2093.13487	0.00532
2091.07470	0.00552
2089.01453	0.00576
2086.95435	0.00590
2084.89418	0.00590
2082.83401	0.00584
2080.77384	0.00574
2078.71367	0.00560
2076.65349	0.00548
2074.59332	0.00543
2072.53315	0.00542
2070.47298	0.00537
2068.41281	0.00518
2066.35263	0.00482
2064.29246	0.00438
2062.23229	0.00412
2060.17212	0.00426
2058.11194	0.00472
2056.05177	0.00519
2053.99160	0.00539
2051.93143	0.00527
2049.87126	0.00499
2047.81108	0.00472
2045.75091	0.00446
2043.69074	0.00418
2041.63057	0.00400
2039.57040	0.00402
2037.51022	0.00417
2035.45005	0.00424
2033.38988	0.00412
2031.32971	0.00404
2029.26954	0.00421
2027.20936	0.00455
2025.14919	0.00474
2023.08902	0.00458
2021.02885	0.00403
2018.96867	0.00326
2016.90850	0.00252
2014.84833	0.00208
2012.78816	0.00207
2010.72799	0.00238
2008.66781	0.00281
2006.60764	0.00317
2004.54747	0.00334
2002.48730	0.00341
2000.42713	0.00341
1998.36695	0.00332
1996.30678	0.00319
1994.24661	0.00322
1992.18644	0.00352
1990.12626	0.00395
1988.06609	0.00427
1986.00592	0.00438
1983.94575	0.00426
1981.88558	0.00395
1979.82540	0.00353
1977.76523	0.00320
1975.70506	0.00311
1973.64489	0.00316
1971.58472	0.00310
1969.52454	0.00285
1967.46437	0.00254
1965.40420	0.00225
1963.34403	0.00205
1961.28386	0.00198
1959.22368	0.00214
1957.16351	0.00259
1955.10334	0.00312
1953.04317	0.00347
1950.98299	0.00359
1948.92282	0.00356
1946.86265	0.00347
1944.80248	0.00336
1942.74231	0.00331
1940.68213	0.00340
1938.62196	0.00358
1936.56179	0.00369
1934.50162	0.00363
1932.44145	0.00349
1930.38127	0.00338
1928.32110	0.00339
1926.26093	0.00348
1924.20076	0.00358
1922.14059	0.00359
1920.08041	0.00357
1918.02024	0.00358
1915.96007	0.00360
1913.89990	0.00361
1911.83972	0.00367
1909.77955	0.00379
1907.71938	0.00393
1905.65921	0.00401
1903.59904	0.00401
1901.53886	0.00395
1899.47869	0.00387
1897.41852	0.00377
1895.35835	0.00367
1893.29818	0.00363
1891.23800	0.00363
1889.17783	0.00359
1887.11766	0.00351
1885.05749	0.00346
1882.99731	0.00349
1880.93714	0.00356
1878.87697	0.00363
1876.81680	0.00365
1874.75663	0.00356
1872.69645	0.00340
1870.63628	0.00321
1868.57611	0.00304
1866.51594	0.00294
1864.45577	0.00297
1862.39559	0.00310
1860.33542	0.00325
1858.27525	0.00334
1856.21508	0.00337
1854.15491	0.00332
1852.09473	0.00325
1850.03456	0.00320
1847.97439	0.00322
1845.91422	0.00327
1843.85404	0.00326
1841.79387	0.00320
1839.73370	0.00313
1837.67353	0.00307
1835.61336	0.00299
1833.55318	0.00292
1831.49301	0.00289
1829.43284	0.00285
1827.37267	0.00282
1825.31250	0.00282
1823.25232	0.00279
1821.19215	0.00269
1819.13198	0.00255
1817.07181	0.00247
1815.01163	0.00249
1812.95146	0.00259
1810.89129	0.00268
1808.83112	0.00268
1806.77095	0.00265
1804.71077	0.00262
1802.65060	0.00260
1800.59043	0.00259
1798.53026	0.00257
1796.47009	0.00250
1794.40991	0.00240
1792.34974	0.00233
1790.28957	0.00231
1788.22940	0.00233
1786.16923	0.00231
1784.10905	0.00224
1782.04888	0.00217
1779.98871	0.00216
1777.92854	0.00212
1775.86836	0.00213
1773.80819	0.00219
1771.74802	0.00228
1769.68785	0.00240
1767.62768	0.00264
1765.56750	0.00302
1763.50733	0.00360
1761.44716	0.00437
1759.38699	0.00531
1757.32682	0.00638
1755.26664	0.00754
1753.20647	0.00875
1751.14630	0.01001
1749.08613	0.01126
1747.02596	0.01237
1744.96578	0.01327
1742.90561	0.01396
1740.84544	0.01445
1738.78527	0.01476
1736.72509	0.01489
1734.66492	0.01488
1732.60475	0.01476
1730.54458	0.01469
1728.48441	0.01473
1726.42423	0.01489
1724.36406	0.01509
1722.30389	0.01528
1720.24372	0.01541
1718.18355	0.01543
1716.12337	0.01533
1714.06320	0.01524
1712.00303	0.01519
1709.94286	0.01511
1707.88268	0.01493
1705.82251	0.01464
1703.76234	0.01432
1701.70217	0.01408
1699.64200	0.01400
1697.58182	0.01412
1695.52165	0.01445
1693.46148	0.01497
1691.40131	0.01571
1689.34114	0.01673
1687.28096	0.01810
1685.22079	0.01974
1683.16062	0.02141
1681.10045	0.02290
1679.04028	0.02421
1676.98010	0.02532
1674.91993	0.02617
1672.85976	0.02669
1670.79959	0.02686
1668.73941	0.02665
1666.67924	0.02615
1664.61907	0.02553
1662.55890	0.02486
1660.49873	0.02423
1658.43855	0.02378
1656.37838	0.02349
1654.31821	0.02321
1652.25804	0.02284
1650.19787	0.02258
1648.13769	0.02257
1646.07752	0.02265
1644.01735	0.02276
1641.95718	0.02303
1639.89701	0.02350
1637.83683	0.02414
1635.77666	0.02478
1633.71649	0.02530
1631.65632	0.02571
1629.59614	0.02608
1627.53597	0.02640
1625.47580	0.02664
1623.41563	0.02681
1621.35546	0.02694
1619.29528	0.02715
1617.23511	0.02752
1615.17494	0.02806
1613.11477	0.02885
1611.05460	0.02989
1608.99442	0.03100
1606.93425	0.03186
1604.87408	0.03219
1602.81391	0.03187
1600.75373	0.03101
1598.69356	0.02986
1596.63339	0.02866
1594.57322	0.02755
1592.51305	0.02660
1590.45287	0.02582
1588.39270	0.02510
1586.33253	0.02435
1584.27236	0.02355
1582.21219	0.02278
1580.15201	0.02211
1578.09184	0.02155
1576.03167	0.02099
1573.97150	0.02038
1571.91133	0.01979
1569.85115	0.01917
1567.79098	0.01848
1565.73081	0.01782
1563.67064	0.01728
1561.61046	0.01677
1559.55029	0.01603
1557.49012	0.01489
1555.42995	0.01376
1553.36978	0.01292
1551.30960	0.01233
1549.24943	0.01184
1547.18926	0.01135
1545.12909	0.01086
1543.06892	0.01031
1541.00874	0.00965
1538.94857	0.00892
1536.88840	0.00830
1534.82823	0.00793
1532.76805	0.00769
1530.70788	0.00750
1528.64771	0.00737
1526.58754	0.00734
1524.52737	0.00753
1522.46719	0.00806
1520.40702	0.00888
1518.34685	0.00985
1516.28668	0.01072
1514.22651	0.01112
1512.16633	0.01091
1510.10616	0.01014
1508.04599	0.00897
1505.98582	0.00762
1503.92565	0.00642
1501.86547	0.00559
1499.80530	0.00500
1497.74513	0.00447
1495.68496	0.00396
1493.62478	0.00352
1491.56461	0.00318
1489.50444	0.00285
1487.44427	0.00259
1485.38410	0.00249
1483.32392	0.00258
1481.26375	0.00283
1479.20358	0.00329
1477.14341	0.00407
1475.08324	0.00527
1473.02306	0.00684
1470.96289	0.00856
1468.90272	0.01023
1466.84255	0.01178
1464.78238	0.01311
1462.72220	0.01415
1460.66203	0.01499
1458.60186	0.01572
1456.54169	0.01639
1454.48151	0.01703
1452.42134	0.01772
1450.36117	0.01848
1448.30100	0.01924
1446.24083	0.01995
1444.18065	0.02064
1442.12048	0.02130
1440.06031	0.02194
1438.00014	0.02248
1435.93997	0.02291
1433.87979	0.02323
1431.81962	0.02351
1429.75945	0.02373
1427.69928	0.02387
1425.63910	0.02397
1423.57893	0.02407
1421.51876	0.02414
1419.45859	0.02418
1417.39842	0.02416
1415.33824	0.02409
1413.27807	0.02395
1411.21790	0.02368
1409.15773	0.02325
1407.09756	0.02270
1405.03738	0.02206
1402.97721	0.02140
1400.91704	0.02075
1398.85687	0.02012
1396.79670	0.01953
1394.73652	0.01908
1392.67635	0.01884
1390.61618	0.01884
1388.55601	0.01907
1386.49583	0.01942
1384.43566	0.01985
1382.37549	0.02034
1380.31532	0.02086
1378.25515	0.02136
1376.19497	0.02177
1374.13480	0.02205
1372.07463	0.02218
1370.01446	0.02222
1367.95429	0.02215
1365.89411	0.02195
1363.83394	0.02162
1361.77377	0.02124
1359.71360	0.02092
1357.65343	0.02069
1355.59325	0.02056
1353.53308	0.02047
1351.47291	0.02041
1349.41274	0.02037
1347.35256	0.02032
1345.29239	0.02026
1343.23222	0.02018
1341.17205	0.02008
1339.11188	0.01996
1337.05170	0.01989
1334.99153	0.01990
1332.93136	0.01998
1330.87119	0.02007
1328.81102	0.02013
1326.75084	0.02018
1324.69067	0.02022
1322.63050	0.02025
1320.57033	0.02026
1318.51015	0.02023
1316.44998	0.02014
1314.38981	0.01998
1312.32964	0.01974
1310.26947	0.01943
1308.20929	0.01904
1306.14912	0.01858
1304.08895	0.01807
1302.02878	0.01756
1299.96861	0.01710
1297.90843	0.01675
1295.84826	0.01656
1293.78809	0.01657
1291.72792	0.01673
1289.66775	0.01694
1287.60757	0.01717
1285.54740	0.01739
1283.48723	0.01760
1281.42706	0.01777
1279.36688	0.01788
1277.30671	0.01797
1275.24654	0.01808
1273.18637	0.01825
1271.12620	0.01853
1269.06602	0.01892
1267.00585	0.01942
1264.94568	0.02001
1262.88551	0.02065
1260.82534	0.02130
1258.76516	0.02190
1256.70499	0.02242
1254.64482	0.02286
1252.58465	0.02324
1250.52447	0.02357
1248.46430	0.02384
1246.40413	0.02408
1244.34396	0.02427
1242.28379	0.02442
1240.22361	0.02448
1238.16344	0.02442
1236.10327	0.02419
1234.04310	0.02380
1231.98293	0.02326
1229.92275	0.02260
1227.86258	0.02184
1225.80241	0.02099
1223.74224	0.02004
1221.68207	0.01902
1219.62189	0.01794
1217.56172	0.01684
1215.50155	0.01575
1213.44138	0.01471
1211.38120	0.01373
1209.32103	0.01277
1207.26086	0.01180
1205.20069	0.01076
1203.14052	0.00964
1201.08034	0.00844
1199.02017	0.00720
1196.96000	0.00599
1194.89983	0.00489
1192.83966	0.00395
1190.77948	0.00326
1188.71931	0.00287
1186.65914	0.00274
1184.59897	0.00271
1182.53880	0.00278
1180.47862	0.00307
1178.41845	0.00369
1176.35828	0.00472
1174.29811	0.00621
1172.23793	0.00809
1170.17776	0.01008
1168.11759	0.01175
1166.05742	0.01282
1163.99725	0.01338
1161.93707	0.01366
1159.87690	0.01390
1157.81673	0.01425
1155.75656	0.01479
1153.69639	0.01548
1151.63621	0.01633
1149.57604	0.01732
1147.51587	0.01831
1145.45570	0.01917
1143.39552	0.01988
1141.33535	0.02050
1139.27518	0.02103
1137.21501	0.02149
1135.15484	0.02204
1133.09466	0.02276
1131.03449	0.02361
1128.97432	0.02449
1126.91415	0.02533
1124.85398	0.02617
1122.79380	0.02712
1120.73363	0.02819
1118.67346	0.02926
1116.61329	0.03024
1114.55312	0.03113
1112.49294	0.03202
1110.43277	0.03290
1108.37260	0.03377
1106.31243	0.03466
1104.25225	0.03562
1102.19208	0.03670
1100.13191	0.03795
1098.07174	0.03937
1096.01157	0.04095
1093.95139	0.04261
1091.89122	0.04427
1089.83105	0.04589
1087.77088	0.04744
1085.71071	0.04889
1083.65053	0.05032
1081.59036	0.05185
1079.53019	0.05351
1077.47002	0.05536
1075.40985	0.05739
1073.34967	0.05932
1071.28950	0.06091
1069.22933	0.06220
1067.16916	0.06335
1065.10898	0.06439
1063.04881	0.06539
1060.98864	0.06643
1058.92847	0.06752
1056.86830	0.06872
1054.80812	0.07014
1052.74795	0.07178
1050.68778	0.07357
1048.62761	0.07544
1046.56744	0.07732
1044.50726	0.07922
1042.44709	0.08110
1040.38692	0.08286
1038.32675	0.08435
1036.26657	0.08548
1034.20640	0.08625
1032.14623	0.08669
1030.08606	0.08689
1028.02589	0.08686
1025.96571	0.08658
1023.90554	0.08614
1021.84537	0.08576
1019.78520	0.08549
1017.72503	0.08525
1015.66485	0.08505
1013.60468	0.08500
1011.54451	0.08509
1009.48434	0.08523
1007.42417	0.08536
1005.36399	0.08541
1003.30382	0.08524
1001.24365	0.08466
999.18348	0.08367
997.12330	0.08246
995.06313	0.08120
993.00296	0.08000
990.94279	0.07885
988.88262	0.07764
986.82244	0.07632
984.76227	0.07492
982.70210	0.07364
980.64193	0.07256
978.58176	0.07159
976.52158	0.07056
974.46141	0.06939
972.40124	0.06806
970.34107	0.06664
968.28089	0.06525
966.22072	0.06394
964.16055	0.06260
962.10038	0.06111
960.04021	0.05959
957.98003	0.05828
955.91986	0.05713
953.85969	0.05591
951.79952	0.05462
949.73935	0.05343
947.67917	0.05231
945.61900	0.05104
943.55883	0.04952
941.49866	0.04775
939.43849	0.04568
937.37831	0.04330
935.31814	0.04066
933.25797	0.03789
931.19780	0.03528
929.13762	0.03307
927.07745	0.03126
925.01728	0.02967
922.95711	0.02818
920.89694	0.02666
918.83676	0.02508
916.77659	0.02357
914.71642	0.02223
912.65625	0.02097
910.59608	0.01967
908.53590	0.01845
906.47573	0.01744
904.41556	0.01681
902.35539	0.01656
900.29522	0.01654
898.23504	0.01657
896.17487	0.01661
894.11470	0.01673
892.05453	0.01681
889.99435	0.01658
887.93418	0.01600
885.87401	0.01526
883.81384	0.01445
881.75367	0.01356
879.69349	0.01262
877.63332	0.01176
875.57315	0.01102
873.51298	0.01039
871.45281	0.00997
869.39263	0.00971
867.33246	0.00945
865.27229	0.00921
863.21212	0.00910
861.15194	0.00913
859.09177	0.00919
857.03160	0.00915
854.97143	0.00892
852.91126	0.00861
850.85108	0.00837
848.79091	0.00824
846.73074	0.00818
844.67057	0.00813
842.61040	0.00810
840.55022	0.00811
838.49005	0.00810
836.42988	0.00796
834.36971	0.00775
832.30954	0.00747
830.24936	0.00698
828.18919	0.00628
826.12902	0.00560
824.06885	0.00521
822.00867	0.00523
819.94850	0.00540
817.88833	0.00531
815.82816	0.00499
813.76799	0.00478
811.70781	0.00473
809.64764	0.00470
807.58747	0.00476
805.52730	0.00491
803.46713	0.00494
801.40695	0.00468
799.34678	0.00415
797.28661	0.00361
795.22644	0.00329
793.16627	0.00313
791.10609	0.00296
789.04592	0.00286
786.98575	0.00298
784.92558	0.00330
782.86540	0.00361
780.80523	0.00372
778.74506	0.00364
776.68489	0.00348
774.62472	0.00333
772.56454	0.00319
770.50437	0.00300
768.44420	0.00283
766.38403	0.00292
764.32386	0.00323
762.26368	0.00343
760.20351	0.00338
758.14334	0.00318
756.08317	0.00297
754.02299	0.00295
751.96282	0.00317
749.90265	0.00313
747.84248	0.00281
745.78231	0.00234
743.72213	0.00197
741.66196	0.00167
739.60179	0.00129
737.54162	0.00078
735.48145	0.00032
733.42127	0.00021
731.36110	0.00030
729.30093	0.00031
727.24076	0.00025
725.18059	0.00040
723.12041	0.00084
721.06024	0.00138
719.00007	0.00184
716.93990	0.00213
714.87972	0.00236
712.81955	0.00263
710.75938	0.00297
708.69921	0.00331
706.63904	0.00366
704.57886	0.00405
702.51869	0.00437
700.45852	0.00453
698.39835	0.00443
696.33818	0.00413
694.27800	0.00376
692.21783	0.00345
690.15766	0.00320
688.09749	0.00294
686.03731	0.00262
683.97714	0.00222
681.91697	0.00178
679.85680	0.00136
677.79663	0.00104
675.73645	0.00082
673.67628	0.00063
671.61611	0.00043
669.55594	0.00028
667.49577	0.00042
665.43559	0.00080
663.37542	0.00106
661.31525	0.00107
659.25508	0.00102
657.19491	0.00115
655.13473	0.00146
653.07456	0.00180
651.01439	0.00203
648.95422	0.00210
646.89404	0.00201
644.83387	0.00188
642.77370	0.00182
640.71353	0.00182
638.65336	0.00174
636.59318	0.00151
634.53301	0.00120
632.47284	0.00099
630.41267	0.00107
628.35250	0.00155
626.29232	0.00221
624.23215	0.00254
622.17198	0.00257
620.11181	0.00261
618.05164	0.00250
615.99146	0.00193
613.93129	0.00112
611.87112	0.00052
609.81095	0.00022
607.75077	0.00000
605.69060	0.00007
603.63043	0.00024
601.57026	0.00025
599.51009	0.00000
