3996.73391,0.00000
3994.67373,0.00000
3992.61356,0.00011
3990.55339,0.00031
3988.49322,0.00040
3986.43305,0.00038
3984.37287,0.00045
3982.31270,0.00053
3980.25253,0.00037
3978.19236,0.00011
3976.13219,0.00009
3974.07201,0.00023
3972.01184,0.00033
3969.95167,0.00049
3967.89150,0.00062
3965.83133,0.00053
3963.77115,0.00031
3961.71098,0.00019
3959.65081,0.00020
3957.59064,0.00026
3955.53046,0.00029
3953.47029,0.00027
3951.41012,0.00021
3949.34995,0.00016
3947.28978,0.00022
3945.22960,0.00042
3943.16943,0.00065
3941.10926,0.00080
3939.04909,0.00075
3936.98892,0.00054
3934.92874,0.00034
3932.86857,0.00021
3930.80840,0.00020
3928.74823,0.00029
3926.68805,0.00034
3924.62788,0.00032
3922.56771,0.00023
3920.50754,0.00016
3918.44737,0.00021
3916.38719,0.00038
3914.32702,0.00044
3912.26685,0.00035
3910.20668,0.00033
3908.14651,0.00034
3906.08633,0.00025
3904.02616,0.00032
3901.96599,0.00066
3899.90582,0.00080
3897.84565,0.00061
3895.78547,0.00045
3893.72530,0.00047
3891.66513,0.00064
3889.60496,0.00085
3887.54478,0.00088
3885.48461,0.00071
3883.42444,0.00051
3881.36427,0.00051
3879.30410,0.00083
3877.24392,0.00106
3875.18375,0.00072
3873.12358,0.00017
3871.06341,0.00027
3869.00324,0.00096
3866.94306,0.00138
3864.88289,0.00128
3862.82272,0.00102
3860.76255,0.00083
3858.70237,0.00082
3856.64220,0.00097
3854.58203,0.00101
3852.52186,0.00078
3850.46169,0.00059
3848.40151,0.00056
3846.34134,0.00062
3844.28117,0.00065
3842.22100,0.00058
3840.16083,0.00054
3838.10065,0.00066
3836.04048,0.00074
3833.98031,0.00080
3831.92014,0.00094
3829.85997,0.00096
3827.79979,0.00083
3825.73962,0.00078
3823.67945,0.00076
3821.61928,0.00074
3819.55910,0.00100
3817.49893,0.00137
3815.43876,0.00145
3813.37859,0.00125
3811.31842,0.00110
3809.25824,0.00111
3807.19807,0.00111
3805.13790,0.00092
3803.07773,0.00070
3801.01756,0.00072
3798.95738,0.00086
3796.89721,0.00084
3794.83704,0.00084
3792.77687,0.00100
3790.71670,0.00113
3788.65652,0.00099
3786.59635,0.00077
3784.53618,0.00070
3782.47601,0.00071
3780.41583,0.00071
3778.35566,0.00090
3776.29549,0.00123
3774.23532,0.00132
3772.17515,0.00119
3770.11497,0.00109
3768.05480,0.00109
3765.99463,0.00109
3763.93446,0.00109
3761.87429,0.00107
3759.81411,0.00115
3757.75394,0.00128
3755.69377,0.00121
3753.63360,0.00100
3751.57342,0.00105
3749.51325,0.00140
3747.45308,0.00155
3745.39291,0.00133
3743.33274,0.00112
3741.27256,0.00110
3739.21239,0.00110
3737.15222,0.00092
3735.09205,0.00045
3733.03188,0.00016
3730.97170,0.00042
3728.91153,0.00086
3726.85136,0.00118
3724.79119,0.00141
3722.73102,0.00153
3720.67084,0.00146
3718.61067,0.00144
3716.55050,0.00144
3714.49033,0.00136
3712.43015,0.00134
3710.36998,0.00135
3708.30981,0.00133
3706.24964,0.00124
3704.18947,0.00120
3702.12929,0.00122
3700.06912,0.00126
3698.00895,0.00130
3695.94878,0.00117
3693.88861,0.00071
3691.82843,0.00022
3689.76826,0.00031
3687.70809,0.00075
3685.64792,0.00095
3683.58775,0.00094
3681.52757,0.00096
3679.46740,0.00102
3677.40723,0.00110
3675.34706,0.00120
3673.28688,0.00123
3671.22671,0.00129
3669.16654,0.00148
3667.10637,0.00162
3665.04620,0.00158
3662.98602,0.00149
3660.92585,0.00154
3658.86568,0.00176
3656.80551,0.00193
3654.74534,0.00189
3652.68516,0.00179
3650.62499,0.00195
3648.56482,0.00245
3646.50465,0.00280
3644.44447,0.00268
3642.38430,0.00236
3640.32413,0.00224
3638.26396,0.00241
3636.20379,0.00277
3634.14361,0.00328
3632.08344,0.00371
3630.02327,0.00382
3627.96310,0.00361
3625.90293,0.00342
3623.84275,0.00329
3621.78258,0.00317
3619.72241,0.00326
3617.66224,0.00353
3615.60207,0.00367
3613.54189,0.00363
3611.48172,0.00376
3609.42155,0.00416
3607.36138,0.00445
3605.30120,0.00455
3603.24103,0.00469
3601.18086,0.00492
3599.12069,0.00514
3597.06052,0.00536
3595.00034,0.00545
3592.94017,0.00540
3590.88000,0.00538
3588.81983,0.00556
3586.75966,0.00573
3584.69948,0.00578
3582.63931,0.00584
3580.57914,0.00616
3578.51897,0.00662
3576.45879,0.00681
3574.39862,0.00673
3572.33845,0.00673
3570.27828,0.00698
3568.21811,0.00742
3566.15793,0.00790
3564.09776,0.00809
3562.03759,0.00801
3559.97742,0.00798
3557.91725,0.00809
3555.85707,0.00816
3553.79690,0.00826
3551.73673,0.00850
3549.67656,0.00872
3547.61639,0.00878
3545.55621,0.00876
3543.49604,0.00889
3541.43587,0.00928
3539.37570,0.00969
3537.31552,0.00994
3535.25535,0.01006
3533.19518,0.01009
3531.13501,0.01012
3529.07484,0.01026
3527.01466,0.01048
3524.95449,0.01069
3522.89432,0.01075
3520.83415,0.01064
3518.77398,0.01059
3516.71380,0.01086
3514.65363,0.01138
3512.59346,0.01183
3510.53329,0.01203
3508.47312,0.01215
3506.41294,0.01226
3504.35277,0.01223
3502.29260,0.01221
3500.23243,0.01235
3498.17225,0.01255
3496.11208,0.01276
3494.05191,0.01292
3491.99174,0.01309
3489.93157,0.01336
3487.87139,0.01369
3485.81122,0.01384
3483.75105,0.01374
3481.69088,0.01360
3479.63071,0.01361
3477.57053,0.01378
3475.51036,0.01404
3473.45019,0.01429
3471.39002,0.01444
3469.32984,0.01464
3467.26967,0.01491
3465.20950,0.01503
3463.14933,0.01501
3461.08916,0.01508
3459.02898,0.01527
3456.96881,0.01550
3454.90864,0.01563
3452.84847,0.01564
3450.78830,0.01575
3448.72812,0.01606
3446.66795,0.01637
3444.60778,0.01657
3442.54761,0.01661
3440.48744,0.01645
3438.42726,0.01639
3436.36709,0.01666
3434.30692,0.01700
3432.24675,0.01717
3430.18657,0.01725
3428.12640,0.01727
3426.06623,0.01727
3424.00606,0.01727
3421.94589,0.01725
3419.88571,0.01736
3417.82554,0.01758
3415.76537,0.01769
3413.70520,0.01773
3411.64503,0.01801
3409.58485,0.01835
3407.52468,0.01837
3405.46451,0.01830
3403.40434,0.01841
3401.34416,0.01855
3399.28399,0.01859
3397.22382,0.01855
3395.16365,0.01861
3393.10348,0.01880
3391.04330,0.01897
3388.98313,0.01910
3386.92296,0.01917
3384.86279,0.01916
3382.80262,0.01918
3380.74244,0.01935
3378.68227,0.01964
3376.62210,0.01986
3374.56193,0.01992
3372.50176,0.01995
3370.44158,0.02000
3368.38141,0.01988
3366.32124,0.01966
3364.26107,0.01961
3362.20089,0.01969
3360.14072,0.01978
3358.08055,0.01993
3356.02038,0.02013
3353.96021,0.02022
3351.90003,0.02006
3349.83986,0.01981
3347.77969,0.01984
3345.71952,0.02025
3343.65935,0.02066
3341.59917,0.02080
3339.53900,0.02073
3337.47883,0.02060
3335.41866,0.02048
3333.35849,0.02040
3331.29831,0.02046
3329.23814,0.02068
3327.17797,0.02089
3325.11780,0.02077
3323.05762,0.02040
3320.99745,0.02023
3318.93728,0.02037
3316.87711,0.02059
3314.81694,0.02069
3312.75676,0.02066
3310.69659,0.02062
3308.63642,0.02072
3306.57625,0.02086
3304.51608,0.02092
3302.45590,0.02102
3300.39573,0.02115
3298.33556,0.02111
3296.27539,0.02084
3294.21521,0.02062
3292.15504,0.02063
3290.09487,0.02068
3288.03470,0.02062
3285.97453,0.02056
3283.91435,0.02060
3281.85418,0.02075
3279.79401,0.02095
3277.73384,0.02109
3275.67367,0.02103
3273.61349,0.02078
3271.55332,0.02063
3269.49315,0.02066
3267.43298,0.02075
3265.37281,0.02081
3263.31263,0.02081
3261.25246,0.02081
3259.19229,0.02086
3257.13212,0.02088
3255.07194,0.02075
3253.01177,0.02059
3250.95160,0.02049
3248.89143,0.02043
3246.83126,0.02042
3244.77108,0.02039
3242.71091,0.02027
3240.65074,0.02014
3238.59057,0.02002
3236.53040,0.02003
3234.47022,0.02012
3232.41005,0.02014
3230.34988,0.02006
3228.28971,0.01992
3226.22954,0.01975
3224.16936,0.01963
3222.10919,0.01956
3220.04902,0.01950
3217.98885,0.01935
3215.92867,0.01916
3213.86850,0.01913
3211.80833,0.01931
3209.74816,0.01941
3207.68799,0.01922
3205.62781,0.01889
3203.56764,0.01864
3201.50747,0.01861
3199.44730,0.01865
3197.38713,0.01867
3195.32695,0.01861
3193.26678,0.01841
3191.20661,0.01825
3189.14644,0.01825
3187.08626,0.01826
3185.02609,0.01819
3182.96592,0.01803
3180.90575,0.01789
3178.84558,0.01787
3176.78540,0.01776
3174.72523,0.01745
3172.66506,0.01720
3170.60489,0.01718
3168.54472,0.01726
3166.48454,0.01723
3164.42437,0.01704
3162.36420,0.01678
3160.30403,0.01654
3158.24386,0.01629
3156.18368,0.01598
3154.12351,0.01580
3152.06334,0.01590
3150.00317,0.01590
3147.94299,0.01561
3145.88282,0.01541
3143.82265,0.01541
3141.76248,0.01546
3139.70231,0.01537
3137.64213,0.01510
3135.58196,0.01489
3133.52179,0.01483
3131.46162,0.01473
3129.40145,0.01456
3127.34127,0.01438
3125.28110,0.01416
3123.22093,0.01395
3121.16076,0.01381
3119.10058,0.01367
3117.04041,0.01345
3114.98024,0.01328
3112.92007,0.01318
3110.85990,0.01306
3108.79972,0.01297
3106.73955,0.01297
3104.67938,0.01290
3102.61921,0.01269
3100.55904,0.01242
3098.49886,0.01219
3096.43869,0.01207
3094.37852,0.01202
3092.31835,0.01200
3090.25818,0.01195
3088.19800,0.01186
3086.13783,0.01173
3084.07766,0.01157
3082.01749,0.01146
3079.95731,0.01138
3077.89714,0.01127
3075.83697,0.01108
3073.77680,0.01087
3071.71663,0.01073
3069.65645,0.01060
3067.59628,0.01053
3065.53611,0.01061
3063.47594,0.01067
3061.41577,0.01059
3059.35559,0.01037
3057.29542,0.01010
3055.23525,0.00995
3053.17508,0.00999
3051.11491,0.01003
3049.05473,0.00994
3046.99456,0.00968
3044.93439,0.00934
3042.87422,0.00909
3040.81404,0.00902
3038.75387,0.00902
3036.69370,0.00898
3034.63353,0.00887
3032.57336,0.00879
3030.51318,0.00878
3028.45301,0.00880
3026.39284,0.00883
3024.33267,0.00883
3022.27250,0.00868
3020.21232,0.00839
3018.15215,0.00818
3016.09198,0.00813
3014.03181,0.00819
3011.97163,0.00824
3009.91146,0.00824
3007.85129,0.00820
3005.79112,0.00812
3003.73095,0.00793
3001.67077,0.00772
2999.61060,0.00766
2997.55043,0.00771
2995.49026,0.00773
2993.43009,0.00777
2991.36991,0.00789
2989.30974,0.00796
2987.24957,0.00793
2985.18940,0.00795
2983.12923,0.00808
2981.06905,0.00815
2979.00888,0.00809
2976.94871,0.00813
2974.88854,0.00827
2972.82836,0.00848
2970.76819,0.00869
2968.70802,0.00876
2966.64785,0.00878
2964.58768,0.00892
2962.52750,0.00911
2960.46733,0.00938
2958.40716,0.00971
2956.34699,0.00992
2954.28682,0.01000
2952.22664,0.01014
2950.16647,0.01052
2948.10630,0.01094
2946.04613,0.01108
2943.98596,0.01106
2941.92578,0.01110
2939.86561,0.01119
2937.80544,0.01126
2935.74527,0.01131
2933.68509,0.01137
2931.62492,0.01135
2929.56475,0.01135
2927.50458,0.01138
2925.44441,0.01138
2923.38423,0.01138
2921.32406,0.01139
2919.26389,0.01132
2917.20372,0.01113
2915.14355,0.01093
2913.08337,0.01091
2911.02320,0.01092
2908.96303,0.01077
2906.90286,0.01065
2904.84268,0.01074
2902.78251,0.01086
2900.72234,0.01090
2898.66217,0.01086
2896.60200,0.01075
2894.54182,0.01061
2892.48165,0.01043
2890.42148,0.01026
2888.36131,0.01017
2886.30114,0.01012
2884.24096,0.01011
2882.18079,0.01011
2880.12062,0.00996
2878.06045,0.00981
2876.00028,0.00979
2873.94010,0.00979
2871.87993,0.00964
2869.81976,0.00940
2867.75959,0.00928
2865.69941,0.00928
2863.63924,0.00920
2861.57907,0.00904
2859.51890,0.00891
2857.45873,0.00875
2855.39855,0.00858
2853.33838,0.00845
2851.27821,0.00831
2849.21804,0.00819
2847.15787,0.00813
2845.09769,0.00808
2843.03752,0.00811
2840.97735,0.00815
2838.91718,0.00799
2836.85700,0.00766
2834.79683,0.00747
2832.73666,0.00739
2830.67649,0.00731
2828.61632,0.00730
2826.55614,0.00733
2824.49597,0.00731
2822.43580,0.00720
2820.37563,0.00705
2818.31546,0.00696
2816.25528,0.00695
2814.19511,0.00701
2812.13494,0.00707
2810.07477,0.00705
2808.01460,0.00699
2805.95442,0.00691
2803.89425,0.00678
2801.83408,0.00669
2799.77391,0.00667
2797.71373,0.00663
2795.65356,0.00658
2793.59339,0.00655
2791.53322,0.00651
2789.47305,0.00650
2787.41287,0.00647
2785.35270,0.00640
2783.29253,0.00637
2781.23236,0.00633
2779.17219,0.00616
2777.11201,0.00604
2775.05184,0.00618
2772.99167,0.00642
2770.93150,0.00646
2768.87133,0.00635
2766.81115,0.00622
2764.75098,0.00615
2762.69081,0.00617
2760.63064,0.00614
2758.57046,0.00603
2756.51029,0.00593
2754.45012,0.00590
2752.38995,0.00593
2750.32978,0.00595
2748.26960,0.00602
2746.20943,0.00610
2744.14926,0.00619
2742.08909,0.00627
2740.02892,0.00623
2737.96874,0.00609
2735.90857,0.00596
2733.84840,0.00586
2731.78823,0.00578
2729.72805,0.00585
2727.66788,0.00599
2725.60771,0.00604
2723.54754,0.00600
2721.48737,0.00596
2719.42719,0.00596
2717.36702,0.00587
2715.30685,0.00574
2713.24668,0.00565
2711.18651,0.00563
2709.12633,0.00574
2707.06616,0.00580
2705.00599,0.00578
2702.94582,0.00575
2700.88565,0.00565
2698.82547,0.00554
2696.76530,0.00555
2694.70513,0.00551
2692.64496,0.00544
2690.58478,0.00553
2688.52461,0.00565
2686.46444,0.00566
2684.40427,0.00567
2682.34410,0.00567
2680.28392,0.00567
2678.22375,0.00565
2676.16358,0.00554
2674.10341,0.00535
2672.04324,0.00532
2669.98306,0.00544
2667.92289,0.00550
2665.86272,0.00546
2663.80255,0.00546
2661.74238,0.00546
2659.68220,0.00542
2657.62203,0.00541
2655.56186,0.00543
2653.50169,0.00540
2651.44151,0.00533
2649.38134,0.00525
2647.32117,0.00521
2645.26100,0.00520
2643.20083,0.00519
2641.14065,0.00524
2639.08048,0.00531
2637.02031,0.00519
2634.96014,0.00491
2632.89997,0.00481
2630.83979,0.00487
2628.77962,0.00482
2626.71945,0.00477
2624.65928,0.00483
2622.59910,0.00482
2620.53893,0.00477
2618.47876,0.00482
2616.41859,0.00497
2614.35842,0.00508
2612.29824,0.00510
2610.23807,0.00510
2608.17790,0.00506
2606.11773,0.00488
2604.05756,0.00460
2601.99738,0.00446
2599.93721,0.00456
2597.87704,0.00480
2595.81687,0.00495
2593.75670,0.00480
2591.69652,0.00449
2589.63635,0.00427
2587.57618,0.00420
2585.51601,0.00426
2583.45583,0.00440
2581.39566,0.00449
2579.33549,0.00447
2577.27532,0.00437
2575.21515,0.00434
2573.15497,0.00452
2571.09480,0.00455
2569.03463,0.00432
2566.97446,0.00409
2564.91429,0.00393
2562.85411,0.00391
2560.79394,0.00413
2558.73377,0.00441
2556.67360,0.00452
2554.61342,0.00442
2552.55325,0.00430
2550.49308,0.00431
2548.43291,0.00442
2546.37274,0.00442
2544.31256,0.00430
2542.25239,0.00420
2540.19222,0.00408
2538.13205,0.00389
2536.07188,0.00372
2534.01170,0.00377
2531.95153,0.00401
2529.89136,0.00418
2527.83119,0.00420
2525.77102,0.00425
2523.71084,0.00429
2521.65067,0.00415
2519.59050,0.00394
2517.53033,0.00387
2515.47015,0.00390
2513.40998,0.00387
2511.34981,0.00380
2509.28964,0.00379
2507.22947,0.00388
2505.16929,0.00396
2503.10912,0.00378
2501.04895,0.00344
2498.98878,0.00333
2496.92861,0.00345
2494.86843,0.00359
2492.80826,0.00370
2490.74809,0.00375
2488.68792,0.00389
2486.62775,0.00401
2484.56757,0.00390
2482.50740,0.00378
2480.44723,0.00388
2478.38706,0.00409
2476.32688,0.00411
2474.26671,0.00409
2472.20654,0.00414
2470.14637,0.00406
2468.08620,0.00396
2466.02602,0.00393
2463.96585,0.00381
2461.90568,0.00359
2459.84551,0.00357
2457.78534,0.00376
2455.72516,0.00379
2453.66499,0.00363
2451.60482,0.00350
2449.54465,0.00334
2447.48447,0.00308
2445.42430,0.00285
2443.36413,0.00285
2441.30396,0.00310
2439.24379,0.00348
2437.18361,0.00376
2435.12344,0.00386
2433.06327,0.00381
2431.00310,0.00365
2428.94293,0.00353
2426.88275,0.00343
2424.82258,0.00330
2422.76241,0.00333
2420.70224,0.00344
2418.64207,0.00337
2416.58189,0.00330
2414.52172,0.00355
2412.46155,0.00387
2410.40138,0.00394
2408.34120,0.00378
2406.28103,0.00359
2404.22086,0.00357
2402.16069,0.00363
2400.10052,0.00356
2398.04034,0.00339
2395.98017,0.00348
2393.92000,0.00377
2391.85983,0.00386
2389.79966,0.00370
2387.73948,0.00360
2385.67931,0.00356
2383.61914,0.00339
2381.55897,0.00316
2379.49880,0.00311
2377.43862,0.00311
2375.37845,0.00311
2373.31828,0.00288
2371.25811,0.00290
2369.19793,0.00357
2367.13776,0.00408
2365.07759,0.00415
2363.01742,0.00456
2360.95725,0.00371
2358.89707,0.00308
2356.83690,0.00281
2354.77673,0.00323
2352.71656,0.00370
2350.65639,0.00260
2348.59621,0.00178
2346.53604,0.00389
2344.47587,0.00402
2342.41570,0.00377
2340.35552,0.00390
2338.29535,0.00364
2336.23518,0.00328
2334.17501,0.00289
2332.11484,0.00290
2330.05466,0.00337
2327.99449,0.00436
2325.93432,0.00434
2323.87415,0.00406
2321.81398,0.00391
2319.75380,0.00454
2317.69363,0.00449
2315.63346,0.00437
2313.57329,0.00445
2311.51312,0.00419
2309.45294,0.00369
2307.39277,0.00341
2305.33260,0.00352
2303.27243,0.00374
2301.21225,0.00398
2299.15208,0.00401
2297.09191,0.00383
2295.03174,0.00368
2292.97157,0.00376
2290.91139,0.00402
2288.85122,0.00418
2286.79105,0.00411
2284.73088,0.00392
2282.67071,0.00374
2280.61053,0.00373
2278.55036,0.00382
2276.49019,0.00380
2274.43002,0.00370
2272.36984,0.00384
2270.30967,0.00405
2268.24950,0.00392
2266.18933,0.00360
2264.12916,0.00355
2262.06898,0.00377
2260.00881,0.00392
2257.94864,0.00375
2255.88847,0.00359
2253.82830,0.00374
2251.76812,0.00383
2249.70795,0.00360
2247.64778,0.00319
2245.58761,0.00280
2243.52744,0.00303
2241.46726,0.00359
2239.40709,0.00378
2237.34692,0.00390
2235.28675,0.00420
2233.22657,0.00449
2231.16640,0.00471
2229.10623,0.00485
2227.04606,0.00465
2224.98589,0.00437
2222.92571,0.00430
2220.86554,0.00405
2218.80537,0.00370
2216.74520,0.00367
2214.68503,0.00357
2212.62485,0.00328
2210.56468,0.00329
2208.50451,0.00340
2206.44434,0.00322
2204.38417,0.00306
2202.32399,0.00315
2200.26382,0.00355
2198.20365,0.00404
2196.14348,0.00407
2194.08330,0.00408
2192.02313,0.00450
2189.96296,0.00453
2187.90279,0.00397
2185.84262,0.00346
2183.78244,0.00310
2181.72227,0.00278
2179.66210,0.00286
2177.60193,0.00295
2175.54176,0.00283
2173.48158,0.00281
2171.42141,0.00261
2169.36124,0.00251
2167.30107,0.00306
2165.24089,0.00363
2163.18072,0.00352
2161.12055,0.00241
2159.06038,0.00054
2157.00021,0.00023
2154.94003,0.00181
2152.87986,0.00286
2150.81969,0.00262
2148.75952,0.00211
2146.69935,0.00193
2144.63917,0.00198
2142.57900,0.00223
2140.51883,0.00242
2138.45866,0.00246
2136.39849,0.00253
2134.33831,0.00260
2132.27814,0.00277
2130.21797,0.00311
2128.15780,0.00334
2126.09762,0.00310
2124.03745,0.00283
2121.97728,0.00306
2119.91711,0.00327
2117.85694,0.00315
2115.79676,0.00327
2113.73659,0.00374
2111.67642,0.00376
2109.61625,0.00325
2107.55608,0.00302
2105.49590,0.00308
2103.43573,0.00300
2101.37556,0.00305
2099.31539,0.00339
2097.25521,0.00347
2095.19504,0.00318
2093.13487,0.00304
2091.07470,0.00311
2089.01453,0.00316
2086.95435,0.00329
2084.89418,0.00352
2082.83401,0.00345
2080.77384,0.00312
2078.71367,0.00311
2076.65349,0.00330
2074.59332,0.00329
2072.53315,0.00321
2070.47298,0.00321
2068.41281,0.00335
2066.35263,0.00357
2064.29246,0.00369
2062.23229,0.00358
2060.17212,0.00330
2058.11194,0.00318
2056.05177,0.00323
2053.99160,0.00345
2051.93143,0.00385
2049.87126,0.00403
2047.81108,0.00366
2045.75091,0.00294
2043.69074,0.00231
2041.63057,0.00180
2039.57040,0.00097
2037.51022,0.00024
2035.45005,0.00067
2033.38988,0.00183
2031.32971,0.00209
2029.26954,0.00151
2027.20936,0.00137
2025.14919,0.00162
2023.08902,0.00172
2021.02885,0.00205
2018.96867,0.00230
2016.90850,0.00175
2014.84833,0.00128
2012.78816,0.00143
2010.72799,0.00101
2008.66781,0.00018
2006.60764,0.00016
2004.54747,0.00064
2002.48730,0.00099
2000.42713,0.00164
1998.36695,0.00262
1996.30678,0.00320
1994.24661,0.00302
1992.18644,0.00236
1990.12626,0.00210
1988.06609,0.00246
1986.00592,0.00247
1983.94575,0.00229
1981.88558,0.00254
1979.82540,0.00261
1977.76523,0.00232
1975.70506,0.00188
1973.64489,0.00124
1971.58472,0.00108
1969.52454,0.00144
1967.46437,0.00144
1965.40420,0.00101
1963.34403,0.00082
1961.28386,0.00112
1959.22368,0.00136
1957.16351,0.00125
1955.10334,0.00094
1953.04317,0.00068
1950.98299,0.00073
1948.92282,0.00110
1946.86265,0.00140
1944.80248,0.00130
1942.74231,0.00105
1940.68213,0.00102
1938.62196,0.00106
1936.56179,0.00098
1934.50162,0.00106
1932.44145,0.00144
1930.38127,0.00167
1928.32110,0.00164
1926.26093,0.00163
1924.20076,0.00169
1922.14059,0.00162
1920.08041,0.00139
1918.02024,0.00127
1915.96007,0.00131
1913.89990,0.00130
1911.83972,0.00133
1909.77955,0.00144
1907.71938,0.00137
1905.65921,0.00105
1903.59904,0.00082
1901.53886,0.00084
1899.47869,0.00083
1897.41852,0.00075
1895.35835,0.00101
1893.29818,0.00148
1891.23800,0.00171
1889.17783,0.00180
1887.11766,0.00182
1885.05749,0.00158
1882.99731,0.00126
1880.93714,0.00123
1878.87697,0.00144
1876.81680,0.00152
1874.75663,0.00132
1872.69645,0.00108
1870.63628,0.00109
1868.57611,0.00133
1866.51594,0.00143
1864.45577,0.00140
1862.39559,0.00134
1860.33542,0.00124
1858.27525,0.00114
1856.21508,0.00111
1854.15491,0.00105
1852.09473,0.00096
1850.03456,0.00101
1847.97439,0.00120
1845.91422,0.00141
1843.85404,0.00149
1841.79387,0.00141
1839.73370,0.00124
1837.67353,0.00113
1835.61336,0.00115
1833.55318,0.00120
1831.49301,0.00129
1829.43284,0.00141
1827.37267,0.00135
1825.31250,0.00117
1823.25232,0.00103
1821.19215,0.00092
1819.13198,0.00079
1817.07181,0.00065
1815.01163,0.00052
1812.95146,0.00048
1810.89129,0.00060
1808.83112,0.00077
1806.77095,0.00080
1804.71077,0.00075
1802.65060,0.00074
1800.59043,0.00073
1798.53026,0.00072
1796.47009,0.00081
1794.40991,0.00091
1792.34974,0.00092
1790.28957,0.00090
1788.22940,0.00086
1786.16923,0.00078
1784.10905,0.00076
1782.04888,0.00078
1779.98871,0.00082
1777.92854,0.00087
1775.86836,0.00091
1773.80819,0.00092
1771.74802,0.00095
1769.68785,0.00101
1767.62768,0.00106
1765.56750,0.00114
1763.50733,0.00131
1761.44716,0.00157
1759.38699,0.00184
1757.32682,0.00215
1755.26664,0.00246
1753.20647,0.00266
1751.14630,0.00281
1749.08613,0.00308
1747.02596,0.00340
1744.96578,0.00368
1742.90561,0.00394
1740.84544,0.00412
1738.78527,0.00415
1736.72509,0.00415
1734.66492,0.00418
1732.60475,0.00430
1730.54458,0.00449
1728.48441,0.00463
1726.42423,0.00465
1724.36406,0.00452
1722.30389,0.00430
1720.24372,0.00399
1718.18355,0.00359
1716.12337,0.00328
1714.06320,0.00318
1712.00303,0.00311
1709.94286,0.00300
1707.88268,0.00286
1705.82251,0.00265
1703.76234,0.00246
1701.70217,0.00243
1699.64200,0.00242
1697.58182,0.00237
1695.52165,0.00247
1693.46148,0.00261
1691.40131,0.00264
1689.34114,0.00264
1687.28096,0.00269
1685.22079,0.00283
1683.16062,0.00311
1681.10045,0.00341
1679.04028,0.00357
1676.98010,0.00370
1674.91993,0.00400
1672.85976,0.00442
1670.79959,0.00486
1668.73941,0.00533
1666.67924,0.00571
1664.61907,0.00593
1662.55890,0.00610
1660.49873,0.00632
1658.43855,0.00655
1656.37838,0.00674
1654.31821,0.00690
1652.25804,0.00710
1650.19787,0.00730
1648.13769,0.00749
1646.07752,0.00775
1644.01735,0.00797
1641.95718,0.00808
1639.89701,0.00819
1637.83683,0.00835
1635.77666,0.00851
1633.71649,0.00862
1631.65632,0.00870
1629.59614,0.00877
1627.53597,0.00886
1625.47580,0.00898
1623.41563,0.00908
1621.35546,0.00920
1619.29528,0.00938
1617.23511,0.00950
1615.17494,0.00948
1613.11477,0.00937
1611.05460,0.00918
1608.99442,0.00902
1606.93425,0.00897
1604.87408,0.00880
1602.81391,0.00839
1600.75373,0.00791
1598.69356,0.00749
1596.63339,0.00706
1594.57322,0.00662
1592.51305,0.00617
1590.45287,0.00565
1588.39270,0.00509
1586.33253,0.00457
1584.27236,0.00413
1582.21219,0.00378
1580.15201,0.00351
1578.09184,0.00323
1576.03167,0.00289
1573.97150,0.00260
1571.91133,0.00242
1569.85115,0.00227
1567.79098,0.00208
1565.73081,0.00194
1563.67064,0.00186
1561.61046,0.00177
1559.55029,0.00158
1557.49012,0.00139
1555.42995,0.00138
1553.36978,0.00143
1551.30960,0.00136
1549.24943,0.00118
1547.18926,0.00107
1545.12909,0.00104
1543.06892,0.00100
1541.00874,0.00087
1538.94857,0.00070
1536.88840,0.00060
1534.82823,0.00062
1532.76805,0.00072
1530.70788,0.00082
1528.64771,0.00087
1526.58754,0.00084
1524.52737,0.00079
1522.46719,0.00073
1520.40702,0.00059
1518.34685,0.00041
1516.28668,0.00041
1514.22651,0.00055
1512.16633,0.00061
1510.10616,0.00048
1508.04599,0.00026
1505.98582,0.00032
1503.92565,0.00064
1501.86547,0.00089
1499.80530,0.00102
1497.74513,0.00105
1495.68496,0.00107
1493.62478,0.00113
1491.56461,0.00119
1489.50444,0.00124
1487.44427,0.00135
1485.38410,0.00152
1483.32392,0.00171
1481.26375,0.00192
1479.20358,0.00210
1477.14341,0.00222
1475.08324,0.00235
1473.02306,0.00255
1470.96289,0.00289
1468.90272,0.00334
1466.84255,0.00382
1464.78238,0.00429
1462.72220,0.00463
1460.66203,0.00476
1458.60186,0.00472
1456.54169,0.00468
1454.48151,0.00481
1452.42134,0.00501
1450.36117,0.00518
1448.30100,0.00533
1446.24083,0.00550
1444.18065,0.00569
1442.12048,0.00589
1440.06031,0.00611
1438.00014,0.00637
1435.93997,0.00662
1433.87979,0.00682
1431.81962,0.00699
1429.75945,0.00714
1427.69928,0.00730
1425.63910,0.00747
1423.57893,0.00760
1421.51876,0.00775
1419.45859,0.00800
1417.39842,0.00827
1415.33824,0.00839
1413.27807,0.00836
1411.21790,0.00828
1409.15773,0.00818
1407.09756,0.00805
1405.03738,0.00787
1402.97721,0.00768
1400.91704,0.00749
1398.85687,0.00724
1396.79670,0.00702
1394.73652,0.00693
1392.67635,0.00696
1390.61618,0.00699
1388.55601,0.00696
1386.49583,0.00694
1384.43566,0.00706
1382.37549,0.00728
1380.31532,0.00747
1378.25515,0.00760
1376.19497,0.00776
1374.13480,0.00801
1372.07463,0.00815
1370.01446,0.00809
1367.95429,0.00792
1365.89411,0.00779
1363.83394,0.00773
1361.77377,0.00769
1359.71360,0.00762
1357.65343,0.00755
1355.59325,0.00742
1353.53308,0.00725
1351.47291,0.00713
1349.41274,0.00708
1347.35256,0.00700
1345.29239,0.00689
1343.23222,0.00677
1341.17205,0.00667
1339.11188,0.00662
1337.05170,0.00663
1334.99153,0.00666
1332.93136,0.00667
1330.87119,0.00661
1328.81102,0.00660
1326.75084,0.00671
1324.69067,0.00684
1322.63050,0.00692
1320.57033,0.00700
1318.51015,0.00707
1316.44998,0.00706
1314.38981,0.00697
1312.32964,0.00690
1310.26947,0.00686
1308.20929,0.00682
1306.14912,0.00669
1304.08895,0.00649
1302.02878,0.00632
1299.96861,0.00619
1297.90843,0.00606
1295.84826,0.00593
1293.78809,0.00576
1291.72792,0.00561
1289.66775,0.00554
1287.60757,0.00553
1285.54740,0.00552
1283.48723,0.00548
1281.42706,0.00542
1279.36688,0.00544
1277.30671,0.00550
1275.24654,0.00555
1273.18637,0.00566
1271.12620,0.00588
1269.06602,0.00614
1267.00585,0.00642
1264.94568,0.00674
1262.88551,0.00701
1260.82534,0.00720
1258.76516,0.00737
1256.70499,0.00757
1254.64482,0.00781
1252.58465,0.00807
1250.52447,0.00819
1248.46430,0.00816
1246.40413,0.00819
1244.34396,0.00827
1242.28379,0.00817
1240.22361,0.00790
1238.16344,0.00764
1236.10327,0.00745
1234.04310,0.00729
1231.98293,0.00716
1229.92275,0.00698
1227.86258,0.00669
1225.80241,0.00635
1223.74224,0.00608
1221.68207,0.00583
1219.62189,0.00557
1217.56172,0.00530
1215.50155,0.00493
1213.44138,0.00450
1211.38120,0.00409
1209.32103,0.00368
1207.26086,0.00325
1205.20069,0.00283
1203.14052,0.00240
1201.08034,0.00193
1199.02017,0.00148
1196.96000,0.00113
1194.89983,0.00081
1192.83966,0.00047
1190.77948,0.00027
1188.71931,0.00020
1186.65914,0.00014
1184.59897,0.00010
1182.53880,0.00025
1180.47862,0.00063
1178.41845,0.00104
1176.35828,0.00146
1174.29811,0.00197
1172.23793,0.00259
1170.17776,0.00325
1168.11759,0.00378
1166.05742,0.00418
1163.99725,0.00468
1161.93707,0.00533
1159.87690,0.00589
1157.81673,0.00630
1155.75656,0.00666
1153.69639,0.00706
1151.63621,0.00748
1149.57604,0.00788
1147.51587,0.00824
1145.45570,0.00848
1143.39552,0.00862
1141.33535,0.00882
1139.27518,0.00915
1137.21501,0.00956
1135.15484,0.00994
1133.09466,0.01021
1131.03449,0.01035
1128.97432,0.01049
1126.91415,0.01092
1124.85398,0.01154
1122.79380,0.01212
1120.73363,0.01265
1118.67346,0.01323
1116.61329,0.01383
1114.55312,0.01428
1112.49294,0.01457
1110.43277,0.01483
1108.37260,0.01518
1106.31243,0.01576
1104.25225,0.01651
1102.19208,0.01727
1100.13191,0.01795
1098.07174,0.01857
1096.01157,0.01924
1093.95139,0.02009
1091.89122,0.02095
1089.83105,0.02159
1087.77088,0.02210
1085.71071,0.02265
1083.65053,0.02324
1081.59036,0.02393
1079.53019,0.02480
1077.47002,0.02559
1075.40985,0.02615
1073.34967,0.02673
1071.28950,0.02742
1069.22933,0.02796
1067.16916,0.02824
1065.10898,0.02841
1063.04881,0.02856
1060.98864,0.02874
1058.92847,0.02896
1056.86830,0.02925
1054.80812,0.02959
1052.74795,0.02993
1050.68778,0.03035
1048.62761,0.03080
1046.56744,0.03118
1044.50726,0.03161
1042.44709,0.03213
1040.38692,0.03260
1038.32675,0.03295
1036.26657,0.03318
1034.20640,0.03334
1032.14623,0.03344
1030.08606,0.03345
1028.02589,0.03345
1025.96571,0.03355
1023.90554,0.03358
1021.84537,0.03337
1019.78520,0.03318
1017.72503,0.03323
1015.66485,0.03329
1013.60468,0.03316
1011.54451,0.03285
1009.48434,0.03251
1007.42417,0.03223
1005.36399,0.03200
1003.30382,0.03168
1001.24365,0.03116
999.18348,0.03046
997.12330,0.02973
995.06313,0.02915
993.00296,0.02865
990.94279,0.02817
988.88262,0.02783
986.82244,0.02764
984.76227,0.02747
982.70210,0.02729
980.64193,0.02694
978.58176,0.02636
976.52158,0.02590
974.46141,0.02567
972.40124,0.02534
970.34107,0.02487
968.28089,0.02439
966.22072,0.02394
964.16055,0.02355
962.10038,0.02313
960.04021,0.02270
957.98003,0.02219
955.91986,0.02151
953.85969,0.02090
951.79952,0.02049
949.73935,0.02008
947.67917,0.01945
945.61900,0.01852
943.55883,0.01728
941.49866,0.01597
939.43849,0.01485
937.37831,0.01387
935.31814,0.01285
933.25797,0.01175
931.19780,0.01069
929.13762,0.00971
927.07745,0.00879
925.01728,0.00806
922.95711,0.00762
920.89694,0.00740
918.83676,0.00714
916.77659,0.00659
914.71642,0.00585
912.65625,0.00509
910.59608,0.00455
908.53590,0.00439
906.47573,0.00438
904.41556,0.00434
902.35539,0.00444
900.29522,0.00474
898.23504,0.00500
896.17487,0.00512
894.11470,0.00528
892.05453,0.00534
889.99435,0.00519
887.93418,0.00489
885.87401,0.00439
883.81384,0.00391
881.75367,0.00366
879.69349,0.00358
877.63332,0.00357
875.57315,0.00339
873.51298,0.00310
871.45281,0.00307
869.39263,0.00321
867.33246,0.00329
865.27229,0.00339
863.21212,0.00345
861.15194,0.00347
859.09177,0.00344
857.03160,0.00328
854.97143,0.00318
852.91126,0.00322
850.85108,0.00322
848.79091,0.00300
846.73074,0.00264
844.67057,0.00228
842.61040,0.00204
840.55022,0.00180
838.49005,0.00139
836.42988,0.00097
834.36971,0.00065
832.30954,0.00050
830.24936,0.00038
828.18919,0.00029
826.12902,0.00041
824.06885,0.00062
822.00867,0.00076
819.94850,0.00068
817.88833,0.00053
815.82816,0.00055
813.76799,0.00073
811.70781,0.00108
809.64764,0.00141
807.58747,0.00156
805.52730,0.00176
803.46713,0.00207
801.40695,0.00215
799.34678,0.00197
797.28661,0.00156
795.22644,0.00092
793.16627,0.00049
791.10609,0.00043
789.04592,0.00029
786.98575,0.00022
784.92558,0.00060
782.86540,0.00095
780.80523,0.00097
778.74506,0.00080
776.68489,0.00067
774.62472,0.00070
772.56454,0.00072
770.50437,0.00084
768.44420,0.00115
766.38403,0.00149
764.32386,0.00174
762.26368,0.00174
760.20351,0.00161
758.14334,0.00161
756.08317,0.00152
754.02299,0.00113
751.96282,0.00093
749.90265,0.00117
747.84248,0.00128
745.78231,0.00119
743.72213,0.00126
741.66196,0.00139
739.60179,0.00146
737.54162,0.00167
735.48145,0.00192
733.42127,0.00190
731.36110,0.00171
729.30093,0.00159
727.24076,0.00160
725.18059,0.00169
723.12041,0.00154
721.06024,0.00162
719.00007,0.00151
716.93990,0.00176
714.87972,0.00215
712.81955,0.00236
710.75938,0.00262
708.69921,0.00311
706.63904,0.00367
704.57886,0.00389
702.51869,0.00379
700.45852,0.00382
698.39835,0.00417
696.33818,0.00419
694.27800,0.00341
692.21783,0.00267
690.15766,0.00260
688.09749,0.00260
686.03731,0.00249
683.97714,0.00273
681.91697,0.00319
679.85680,0.00332
677.79663,0.00318
675.73645,0.00314
673.67628,0.00233
671.61611,0.00030
669.55594,0.00164
667.49577,0.00504
665.43559,0.00038
663.37542,0.00153
661.31525,0.00327
659.25508,0.00333
657.19491,0.00279
655.13473,0.00274
653.07456,0.00322
651.01439,0.00368
648.95422,0.00371
646.89404,0.00319
644.83387,0.00288
642.77370,0.00239
640.71353,0.00135
638.65336,0.00030
636.59318,0.00000
634.53301,0.00063
632.47284,0.00132
630.41267,0.00136
628.35250,0.00110
626.29232,0.00092
624.23215,0.00069
622.17198,0.00053
620.11181,0.00125
618.05164,0.00280
615.99146,0.00338
613.93129,0.00239
611.87112,0.00118
609.81095,0.00088
607.75077,0.00134
605.69060,0.00210
603.63043,0.00195
601.57026,0.00073
599.51009,0.00000
