3996.73391,-0.00012
3994.67373,0.00017
3992.61356,0.00035
3990.55339,0.00036
3988.49322,0.00033
3986.43305,0.00037
3984.37287,0.00050
3982.31270,0.00062
3980.25253,0.00067
3978.19236,0.00064
3976.13219,0.00056
3974.07201,0.00050
3972.01184,0.00049
3969.95167,0.00047
3967.89150,0.00036
3965.83133,0.00019
3963.77115,0.00005
3961.71098,0.00000
3959.65081,0.00004
3957.59064,0.00010
3955.53046,0.00017
3953.47029,0.00023
3951.41012,0.00033
3949.34995,0.00051
3947.28978,0.00073
3945.22960,0.00086
3943.16943,0.00093
3941.10926,0.00106
3939.04909,0.00127
3936.98892,0.00143
3934.92874,0.00146
3932.86857,0.00139
3930.80840,0.00130
3928.74823,0.00122
3926.68805,0.00111
3924.62788,0.00085
3922.56771,0.00045
3920.50754,0.00016
3918.44737,0.00024
3916.38719,0.00062
3914.32702,0.00098
3912.26685,0.00106
3910.20668,0.00091
3908.14651,0.00063
3906.08633,0.00038
3904.02616,0.00038
3901.96599,0.00065
3899.90582,0.00095
3897.84565,0.00105
3895.78547,0.00092
3893.72530,0.00062
3891.66513,0.00027
3889.60496,0.00003
3887.54478,-0.00006
3885.48461,0.00001
3883.42444,0.00021
3881.36427,0.00044
3879.30410,0.00070
3877.24392,0.00098
3875.18375,0.00116
3873.12358,0.00115
3871.06341,0.00105
3869.00324,0.00104
3866.94306,0.00122
3864.88289,0.00157
3862.82272,0.00190
3860.76255,0.00194
3858.70237,0.00158
3856.64220,0.00103
3854.58203,0.00058
3852.52186,0.00037
3850.46169,0.00027
3848.40151,0.00021
3846.34134,0.00016
3844.28117,0.00012
3842.22100,0.00005
3840.16083,0.00000
3838.10065,0.00012
3836.04048,0.00060
3833.98031,0.00126
3831.92014,0.00171
3829.85997,0.00175
3827.79979,0.00155
3825.73962,0.00135
3823.67945,0.00119
3821.61928,0.00101
3819.55910,0.00079
3817.49893,0.00057
3815.43876,0.00046
3813.37859,0.00047
3811.31842,0.00049
3809.25824,0.00049
3807.19807,0.00047
3805.13790,0.00046
3803.07773,0.00047
3801.01756,0.00056
3798.95738,0.00081
3796.89721,0.00114
3794.83704,0.00141
3792.77687,0.00150
3790.71670,0.00139
3788.65652,0.00116
3786.59635,0.00087
3784.53618,0.00058
3782.47601,0.00036
3780.41583,0.00026
3778.35566,0.00033
3776.29549,0.00050
3774.23532,0.00070
3772.17515,0.00090
3770.11497,0.00112
3768.05480,0.00126
3765.99463,0.00126
3763.93446,0.00119
3761.87429,0.00116
3759.81411,0.00125
3757.75394,0.00137
3755.69377,0.00139
3753.63360,0.00128
3751.57342,0.00111
3749.51325,0.00093
3747.45308,0.00081
3745.39291,0.00081
3743.33274,0.00094
3741.27256,0.00110
3739.21239,0.00120
3737.15222,0.00123
3735.09205,0.00124
3733.03188,0.00133
3730.97170,0.00146
3728.91153,0.00158
3726.85136,0.00166
3724.79119,0.00174
3722.73102,0.00187
3720.67084,0.00203
3718.61067,0.00216
3716.55050,0.00216
3714.49033,0.00197
3712.43015,0.00159
3710.36998,0.00110
3708.30981,0.00070
3706.24964,0.00048
3704.18947,0.00049
3702.12929,0.00073
3700.06912,0.00109
3698.00895,0.00141
3695.94878,0.00157
3693.88861,0.00155
3691.82843,0.00143
3689.76826,0.00141
3687.70809,0.00160
3685.64792,0.00174
3683.58775,0.00158
3681.52757,0.00118
3679.46740,0.00085
3677.40723,0.00076
3675.34706,0.00080
3673.28688,0.00069
3671.22671,0.00040
3669.16654,0.00023
3667.10637,0.00035
3665.04620,0.00064
3662.98602,0.00092
3660.92585,0.00110
3658.86568,0.00119
3656.80551,0.00130
3654.74534,0.00152
3652.68516,0.00178
3650.62499,0.00197
3648.56482,0.00199
3646.50465,0.00191
3644.44447,0.00184
3642.38430,0.00180
3640.32413,0.00180
3638.26396,0.00195
3636.20379,0.00227
3634.14361,0.00261
3632.08344,0.00276
3630.02327,0.00274
3627.96310,0.00278
3625.90293,0.00288
3623.84275,0.00288
3621.78258,0.00274
3619.72241,0.00266
3617.66224,0.00279
3615.60207,0.00307
3613.54189,0.00333
3611.48172,0.00347
3609.42155,0.00356
3607.36138,0.00372
3605.30120,0.00394
3603.24103,0.00419
3601.18086,0.00443
3599.12069,0.00464
3597.06052,0.00479
3595.00034,0.00492
3592.94017,0.00506
3590.88000,0.00519
3588.81983,0.00532
3586.75966,0.00544
3584.69948,0.00557
3582.63931,0.00577
3580.57914,0.00607
3578.51897,0.00637
3576.45879,0.00660
3574.39862,0.00672
3572.33845,0.00667
3570.27828,0.00649
3568.21811,0.00637
3566.15793,0.00645
3564.09776,0.00663
3562.03759,0.00672
3559.97742,0.00674
3557.91725,0.00683
3555.85707,0.00706
3553.79690,0.00737
3551.73673,0.00767
3549.67656,0.00792
3547.61639,0.00809
3545.55621,0.00820
3543.49604,0.00829
3541.43587,0.00840
3539.37570,0.00856
3537.31552,0.00871
3535.25535,0.00880
3533.19518,0.00882
3531.13501,0.00880
3529.07484,0.00874
3527.01466,0.00867
3524.95449,0.00876
3522.89432,0.00912
3520.83415,0.00968
3518.77398,0.01026
3516.71380,0.01069
3514.65363,0.01086
3512.59346,0.01072
3510.53329,0.01039
3508.47312,0.01010
3506.41294,0.01007
3504.35277,0.01036
3502.29260,0.01092
3500.23243,0.01151
3498.17225,0.01186
3496.11208,0.01184
3494.05191,0.01159
3491.99174,0.01133
3489.93157,0.01121
3487.87139,0.01134
3485.81122,0.01170
3483.75105,0.01218
3481.69088,0.01255
3479.63071,0.01269
3477.57053,0.01268
3475.51036,0.01272
3473.45019,0.01290
3471.39002,0.01312
3469.32984,0.01328
3467.26967,0.01338
3465.20950,0.01346
3463.14933,0.01349
3461.08916,0.01345
3459.02898,0.01340
3456.96881,0.01347
3454.90864,0.01368
3452.84847,0.01392
3450.78830,0.01411
3448.72812,0.01427
3446.66795,0.01447
3444.60778,0.01469
3442.54761,0.01480
3440.48744,0.01477
3438.42726,0.01469
3436.36709,0.01466
3434.30692,0.01474
3432.24675,0.01492
3430.18657,0.01517
3428.12640,0.01544
3426.06623,0.01568
3424.00606,0.01587
3421.94589,0.01597
3419.88571,0.01599
3417.82554,0.01597
3415.76537,0.01592
3413.70520,0.01585
3411.64503,0.01578
3409.58485,0.01575
3407.52468,0.01584
3405.46451,0.01602
3403.40434,0.01619
3401.34416,0.01638
3399.28399,0.01658
3397.22382,0.01674
3395.16365,0.01683
3393.10348,0.01693
3391.04330,0.01710
3388.98313,0.01722
3386.92296,0.01724
3384.86279,0.01720
3382.80262,0.01719
3380.74244,0.01723
3378.68227,0.01734
3376.62210,0.01752
3374.56193,0.01778
3372.50176,0.01799
3370.44158,0.01809
3368.38141,0.01808
3366.32124,0.01801
3364.26107,0.01791
3362.20089,0.01779
3360.14072,0.01775
3358.08055,0.01785
3356.02038,0.01809
3353.96021,0.01836
3351.90003,0.01854
3349.83986,0.01865
3347.77969,0.01873
3345.71952,0.01877
3343.65935,0.01874
3341.59917,0.01871
3339.53900,0.01876
3337.47883,0.01888
3335.41866,0.01899
3333.35849,0.01905
3331.29831,0.01903
3329.23814,0.01892
3327.17797,0.01876
3325.11780,0.01861
3323.05762,0.01848
3320.99745,0.01842
3318.93728,0.01849
3316.87711,0.01868
3314.81694,0.01898
3312.75676,0.01935
3310.69659,0.01968
3308.63642,0.01983
3306.57625,0.01972
3304.51608,0.01941
3302.45590,0.01907
3300.39573,0.01888
3298.33556,0.01886
3296.27539,0.01895
3294.21521,0.01903
3292.15504,0.01903
3290.09487,0.01896
3288.03470,0.01887
3285.97453,0.01883
3283.91435,0.01885
3281.85418,0.01888
3279.79401,0.01890
3277.73384,0.01889
3275.67367,0.01888
3273.61349,0.01889
3271.55332,0.01895
3269.49315,0.01905
3267.43298,0.01916
3265.37281,0.01929
3263.31263,0.01939
3261.25246,0.01939
3259.19229,0.01931
3257.13212,0.01924
3255.07194,0.01921
3253.01177,0.01919
3250.95160,0.01914
3248.89143,0.01908
3246.83126,0.01899
3244.77108,0.01886
3242.71091,0.01870
3240.65074,0.01856
3238.59057,0.01848
3236.53040,0.01848
3234.47022,0.01852
3232.41005,0.01856
3230.34988,0.01858
3228.28971,0.01852
3226.22954,0.01837
3224.16936,0.01817
3222.10919,0.01804
3220.04902,0.01798
3217.98885,0.01790
3215.92867,0.01777
3213.86850,0.01763
3211.80833,0.01747
3209.74816,0.01726
3207.68799,0.01705
3205.62781,0.01693
3203.56764,0.01688
3201.50747,0.01688
3199.44730,0.01692
3197.38713,0.01697
3195.32695,0.01700
3193.26678,0.01697
3191.20661,0.01685
3189.14644,0.01670
3187.08626,0.01662
3185.02609,0.01670
3182.96592,0.01687
3180.90575,0.01695
3178.84558,0.01682
3176.78540,0.01658
3174.72523,0.01639
3172.66506,0.01629
3170.60489,0.01617
3168.54472,0.01592
3166.48454,0.01560
3164.42437,0.01534
3162.36420,0.01517
3160.30403,0.01504
3158.24386,0.01493
3156.18368,0.01487
3154.12351,0.01488
3152.06334,0.01487
3150.00317,0.01477
3147.94299,0.01453
3145.88282,0.01417
3143.82265,0.01373
3141.76248,0.01332
3139.70231,0.01304
3137.64213,0.01290
3135.58196,0.01284
3133.52179,0.01280
3131.46162,0.01272
3129.40145,0.01264
3127.34127,0.01257
3125.28110,0.01247
3123.22093,0.01229
3121.16076,0.01206
3119.10058,0.01189
3117.04041,0.01186
3114.98024,0.01186
3112.92007,0.01172
3110.85990,0.01143
3108.79972,0.01116
3106.73955,0.01105
3104.67938,0.01111
3102.61921,0.01123
3100.55904,0.01123
3098.49886,0.01107
3096.43869,0.01082
3094.37852,0.01058
3092.31835,0.01036
3090.25818,0.01019
3088.19800,0.01005
3086.13783,0.00990
3084.07766,0.00979
3082.01749,0.00976
3079.95731,0.00979
3077.89714,0.00980
3075.83697,0.00976
3073.77680,0.00966
3071.71663,0.00944
3069.65645,0.00919
3067.59628,0.00905
3065.53611,0.00906
3063.47594,0.00914
3061.41577,0.00915
3059.35559,0.00909
3057.29542,0.00898
3055.23525,0.00882
3053.17508,0.00860
3051.11491,0.00834
3049.05473,0.00809
3046.99456,0.00794
3044.93439,0.00789
3042.87422,0.00793
3040.81404,0.00798
3038.75387,0.00800
3036.69370,0.00792
3034.63353,0.00774
3032.57336,0.00748
3030.51318,0.00720
3028.45301,0.00692
3026.39284,0.00673
3024.33267,0.00672
3022.27250,0.00684
3020.21232,0.00695
3018.15215,0.00692
3016.09198,0.00676
3014.03181,0.00661
3011.97163,0.00653
3009.91146,0.00649
3007.85129,0.00647
3005.79112,0.00651
3003.73095,0.00665
3001.67077,0.00681
2999.61060,0.00682
2997.55043,0.00669
2995.49026,0.00669
2993.43009,0.00682
2991.36991,0.00682
2989.30974,0.00671
2987.24957,0.00671
2985.18940,0.00689
2983.12923,0.00703
2981.06905,0.00693
2979.00888,0.00676
2976.94871,0.00677
2974.88854,0.00690
2972.82836,0.00696
2970.76819,0.00704
2968.70802,0.00734
2966.64785,0.00775
2964.58768,0.00795
2962.52750,0.00790
2960.46733,0.00792
2958.40716,0.00815
2956.34699,0.00844
2954.28682,0.00872
2952.22664,0.00903
2950.16647,0.00927
2948.10630,0.00931
2946.04613,0.00926
2943.98596,0.00926
2941.92578,0.00934
2939.86561,0.00947
2937.80544,0.00958
2935.74527,0.00972
2933.68509,0.00995
2931.62492,0.01000
2929.56475,0.00980
2927.50458,0.00960
2925.44441,0.00941
2923.38423,0.00911
2921.32406,0.00889
2919.26389,0.00898
2917.20372,0.00926
2915.14355,0.00938
2913.08337,0.00919
2911.02320,0.00895
2908.96303,0.00892
2906.90286,0.00900
2904.84268,0.00903
2902.78251,0.00902
2900.72234,0.00898
2898.66217,0.00885
2896.60200,0.00867
2894.54182,0.00856
2892.48165,0.00853
2890.42148,0.00840
2888.36131,0.00816
2886.30114,0.00798
2884.24096,0.00805
2882.18079,0.00840
2880.12062,0.00873
2878.06045,0.00878
2876.00028,0.00858
2873.94010,0.00832
2871.87993,0.00813
2869.81976,0.00802
2867.75959,0.00791
2865.69941,0.00774
2863.63924,0.00748
2861.57907,0.00719
2859.51890,0.00692
2857.45873,0.00666
2855.39855,0.00649
2853.33838,0.00655
2851.27821,0.00679
2849.21804,0.00695
2847.15787,0.00692
2845.09769,0.00683
2843.03752,0.00681
2840.97735,0.00678
2838.91718,0.00667
2836.85700,0.00660
2834.79683,0.00666
2832.73666,0.00666
2830.67649,0.00648
2828.61632,0.00623
2826.55614,0.00600
2824.49597,0.00588
2822.43580,0.00592
2820.37563,0.00596
2818.31546,0.00588
2816.25528,0.00575
2814.19511,0.00574
2812.13494,0.00593
2810.07477,0.00610
2808.01460,0.00598
2805.95442,0.00579
2803.89425,0.00579
2801.83408,0.00585
2799.77391,0.00569
2797.71373,0.00526
2795.65356,0.00483
2793.59339,0.00480
2791.53322,0.00519
2789.47305,0.00563
2787.41287,0.00581
2785.35270,0.00566
2783.29253,0.00533
2781.23236,0.00506
2779.17219,0.00499
2777.11201,0.00509
2775.05184,0.00518
2772.99167,0.00515
2770.93150,0.00496
2768.87133,0.00481
2766.81115,0.00482
2764.75098,0.00487
2762.69081,0.00486
2760.63064,0.00485
2758.57046,0.00491
2756.51029,0.00495
2754.45012,0.00493
2752.38995,0.00491
2750.32978,0.00488
2748.26960,0.00473
2746.20943,0.00450
2744.14926,0.00441
2742.08909,0.00463
2740.02892,0.00493
2737.96874,0.00496
2735.90857,0.00472
2733.84840,0.00450
2731.78823,0.00450
2729.72805,0.00469
2727.66788,0.00487
2725.60771,0.00484
2723.54754,0.00460
2721.48737,0.00435
2719.42719,0.00423
2717.36702,0.00425
2715.30685,0.00439
2713.24668,0.00452
2711.18651,0.00457
2709.12633,0.00455
2707.06616,0.00450
2705.00599,0.00445
2702.94582,0.00445
2700.88565,0.00444
2698.82547,0.00437
2696.76530,0.00429
2694.70513,0.00423
2692.64496,0.00421
2690.58478,0.00424
2688.52461,0.00426
2686.46444,0.00424
2684.40427,0.00422
2682.34410,0.00420
2680.28392,0.00417
2678.22375,0.00423
2676.16358,0.00432
2674.10341,0.00430
2672.04324,0.00427
2669.98306,0.00433
2667.92289,0.00439
2665.86272,0.00433
2663.80255,0.00423
2661.74238,0.00421
2659.68220,0.00424
2657.62203,0.00416
2655.56186,0.00401
2653.50169,0.00400
2651.44151,0.00419
2649.38134,0.00431
2647.32117,0.00426
2645.26100,0.00422
2643.20083,0.00437
2641.14065,0.00464
2639.08048,0.00476
2637.02031,0.00464
2634.96014,0.00449
2632.89997,0.00444
2630.83979,0.00430
2628.77962,0.00398
2626.71945,0.00369
2624.65928,0.00355
2622.59910,0.00355
2620.53893,0.00369
2618.47876,0.00391
2616.41859,0.00406
2614.35842,0.00399
2612.29824,0.00378
2610.23807,0.00356
2608.17790,0.00350
2606.11773,0.00359
2604.05756,0.00361
2601.99738,0.00348
2599.93721,0.00333
2597.87704,0.00317
2595.81687,0.00297
2593.75670,0.00288
2591.69652,0.00300
2589.63635,0.00314
2587.57618,0.00314
2585.51601,0.00305
2583.45583,0.00294
2581.39566,0.00283
2579.33549,0.00277
2577.27532,0.00276
2575.21515,0.00272
2573.15497,0.00273
2571.09480,0.00283
2569.03463,0.00284
2566.97446,0.00272
2564.91429,0.00270
2562.85411,0.00288
2560.79394,0.00313
2558.73377,0.00322
2556.67360,0.00304
2554.61342,0.00275
2552.55325,0.00265
2550.49308,0.00284
2548.43291,0.00321
2546.37274,0.00345
2544.31256,0.00350
2542.25239,0.00359
2540.19222,0.00375
2538.13205,0.00388
2536.07188,0.00393
2534.01170,0.00387
2531.95153,0.00380
2529.89136,0.00378
2527.83119,0.00360
2525.77102,0.00326
2523.71084,0.00304
2521.65067,0.00299
2519.59050,0.00296
2517.53033,0.00280
2515.47015,0.00257
2513.40998,0.00242
2511.34981,0.00237
2509.28964,0.00237
2507.22947,0.00245
2505.16929,0.00265
2503.10912,0.00292
2501.04895,0.00322
2498.98878,0.00330
2496.92861,0.00298
2494.86843,0.00272
2492.80826,0.00294
2490.74809,0.00340
2488.68792,0.00362
2486.62775,0.00344
2484.56757,0.00286
2482.50740,0.00213
2480.44723,0.00171
2478.38706,0.00185
2476.32688,0.00239
2474.26671,0.00301
2472.20654,0.00343
2470.14637,0.00356
2468.08620,0.00341
2466.02602,0.00311
2463.96585,0.00291
2461.90568,0.00300
2459.84551,0.00308
2457.78534,0.00288
2455.72516,0.00270
2453.66499,0.00282
2451.60482,0.00309
2449.54465,0.00320
2447.48447,0.00310
2445.42430,0.00301
2443.36413,0.00313
2441.30396,0.00330
2439.24379,0.00317
2437.18361,0.00277
2435.12344,0.00254
2433.06327,0.00267
2431.00310,0.00291
2428.94293,0.00296
2426.88275,0.00289
2424.82258,0.00293
2422.76241,0.00301
2420.70224,0.00293
2418.64207,0.00276
2416.58189,0.00258
2414.52172,0.00238
2412.46155,0.00222
2410.40138,0.00214
2408.34120,0.00212
2406.28103,0.00217
2404.22086,0.00226
2402.16069,0.00231
2400.10052,0.00233
2398.04034,0.00237
2395.98017,0.00236
2393.92000,0.00229
2391.85983,0.00224
2389.79966,0.00229
2387.73948,0.00237
2385.67931,0.00234
2383.61914,0.00215
2381.55897,0.00186
2379.49880,0.00161
2377.43862,0.00148
2375.37845,0.00147
2373.31828,0.00148
2371.25811,0.00140
2369.19793,0.00120
2367.13776,0.00107
2365.07759,0.00133
2363.01742,0.00214
2360.95725,0.00327
2358.89707,0.00434
2356.83690,0.00493
2354.77673,0.00465
2352.71656,0.00367
2350.65639,0.00264
2348.59621,0.00186
2346.53604,0.00126
2344.47587,0.00074
2342.41570,0.00051
2340.35552,0.00072
2338.29535,0.00122
2336.23518,0.00177
2334.17501,0.00233
2332.11484,0.00285
2330.05466,0.00311
2327.99449,0.00304
2325.93432,0.00274
2323.87415,0.00246
2321.81398,0.00253
2319.75380,0.00301
2317.69363,0.00357
2315.63346,0.00384
2313.57329,0.00370
2311.51312,0.00327
2309.45294,0.00273
2307.39277,0.00228
2305.33260,0.00206
2303.27243,0.00202
2301.21225,0.00212
2299.15208,0.00231
2297.09191,0.00253
2295.03174,0.00272
2292.97157,0.00288
2290.91139,0.00305
2288.85122,0.00317
2286.79105,0.00318
2284.73088,0.00309
2282.67071,0.00302
2280.61053,0.00303
2278.55036,0.00306
2276.49019,0.00300
2274.43002,0.00285
2272.36984,0.00273
2270.30967,0.00274
2268.24950,0.00288
2266.18933,0.00305
2264.12916,0.00314
2262.06898,0.00320
2260.00881,0.00333
2257.94864,0.00352
2255.88847,0.00365
2253.82830,0.00359
2251.76812,0.00335
2249.70795,0.00305
2247.64778,0.00286
2245.58761,0.00285
2243.52744,0.00313
2241.46726,0.00372
2239.40709,0.00414
2237.34692,0.00380
2235.28675,0.00302
2233.22657,0.00259
2231.16640,0.00243
2229.10623,0.00210
2227.04606,0.00187
2224.98589,0.00222
2222.92571,0.00299
2220.86554,0.00337
2218.80537,0.00291
2216.74520,0.00218
2214.68503,0.00206
2212.62485,0.00256
2210.56468,0.00310
2208.50451,0.00336
2206.44434,0.00343
2204.38417,0.00363
2202.32399,0.00382
2200.26382,0.00361
2198.20365,0.00317
2196.14348,0.00261
2194.08330,0.00198
2192.02313,0.00172
2189.96296,0.00194
2187.90279,0.00213
2185.84262,0.00204
2183.78244,0.00182
2181.72227,0.00184
2179.66210,0.00223
2177.60193,0.00256
2175.54176,0.00271
2173.48158,0.00320
2171.42141,0.00399
2169.36124,0.00423
2167.30107,0.00337
2165.24089,0.00216
2163.18072,0.00186
2161.12055,0.00248
2159.06038,0.00274
2157.00021,0.00238
2154.94003,0.00236
2152.87986,0.00277
2150.81969,0.00290
2148.75952,0.00261
2146.69935,0.00245
2144.63917,0.00267
2142.57900,0.00263
2140.51883,0.00219
2138.45866,0.00182
2136.39849,0.00128
2134.33831,0.00062
2132.27814,0.00069
2130.21797,0.00159
2128.15780,0.00264
2126.09762,0.00337
2124.03745,0.00360
2121.97728,0.00341
2119.91711,0.00315
2117.85694,0.00318
2115.79676,0.00342
2113.73659,0.00342
2111.67642,0.00316
2109.61625,0.00300
2107.55608,0.00312
2105.49590,0.00346
2103.43573,0.00368
2101.37556,0.00345
2099.31539,0.00313
2097.25521,0.00299
2095.19504,0.00300
2093.13487,0.00297
2091.07470,0.00285
2089.01453,0.00275
2086.95435,0.00279
2084.89418,0.00299
2082.83401,0.00325
2080.77384,0.00337
2078.71367,0.00323
2076.65349,0.00294
2074.59332,0.00278
2072.53315,0.00291
2070.47298,0.00327
2068.41281,0.00359
2066.35263,0.00362
2064.29246,0.00334
2062.23229,0.00295
2060.17212,0.00262
2058.11194,0.00244
2056.05177,0.00236
2053.99160,0.00236
2051.93143,0.00245
2049.87126,0.00256
2047.81108,0.00267
2045.75091,0.00282
2043.69074,0.00305
2041.63057,0.00344
2039.57040,0.00395
2037.51022,0.00437
2035.45005,0.00459
2033.38988,0.00473
2031.32971,0.00473
2029.26954,0.00437
2027.20936,0.00364
2025.14919,0.00258
2023.08902,0.00135
2021.02885,0.00037
2018.96867,0.00000
2016.90850,0.00019
2014.84833,0.00064
2012.78816,0.00108
2010.72799,0.00144
2008.66781,0.00183
2006.60764,0.00252
2004.54747,0.00352
2002.48730,0.00432
2000.42713,0.00448
1998.36695,0.00399
1996.30678,0.00321
1994.24661,0.00263
1992.18644,0.00240
1990.12626,0.00222
1988.06609,0.00190
1986.00592,0.00166
1983.94575,0.00171
1981.88558,0.00199
1979.82540,0.00221
1977.76523,0.00206
1975.70506,0.00157
1973.64489,0.00100
1971.58472,0.00044
1969.52454,0.00008
1967.46437,0.00014
1965.40420,0.00057
1963.34403,0.00105
1961.28386,0.00128
1959.22368,0.00117
1957.16351,0.00101
1955.10334,0.00112
1953.04317,0.00139
1950.98299,0.00148
1948.92282,0.00135
1946.86265,0.00119
1944.80248,0.00110
1942.74231,0.00103
1940.68213,0.00087
1938.62196,0.00067
1936.56179,0.00065
1934.50162,0.00085
1932.44145,0.00106
1930.38127,0.00116
1928.32110,0.00123
1926.26093,0.00127
1924.20076,0.00116
1922.14059,0.00088
1920.08041,0.00057
1918.02024,0.00045
1915.96007,0.00062
1913.89990,0.00093
1911.83972,0.00119
1909.77955,0.00132
1907.71938,0.00139
1905.65921,0.00153
1903.59904,0.00179
1901.53886,0.00202
1899.47869,0.00193
1897.41852,0.00146
1895.35835,0.00085
1893.29818,0.00047
1891.23800,0.00043
1889.17783,0.00062
1887.11766,0.00092
1885.05749,0.00131
1882.99731,0.00171
1880.93714,0.00204
1878.87697,0.00220
1876.81680,0.00210
1874.75663,0.00171
1872.69645,0.00125
1870.63628,0.00094
1868.57611,0.00084
1866.51594,0.00080
1864.45577,0.00073
1862.39559,0.00068
1860.33542,0.00071
1858.27525,0.00079
1856.21508,0.00083
1854.15491,0.00078
1852.09473,0.00063
1850.03456,0.00043
1847.97439,0.00025
1845.91422,0.00018
1843.85404,0.00021
1841.79387,0.00033
1839.73370,0.00047
1837.67353,0.00056
1835.61336,0.00059
1833.55318,0.00062
1831.49301,0.00071
1829.43284,0.00085
1827.37267,0.00094
1825.31250,0.00095
1823.25232,0.00092
1821.19215,0.00088
1819.13198,0.00083
1817.07181,0.00075
1815.01163,0.00063
1812.95146,0.00048
1810.89129,0.00033
1808.83112,0.00027
1806.77095,0.00037
1804.71077,0.00057
1802.65060,0.00078
1800.59043,0.00094
1798.53026,0.00107
1796.47009,0.00115
1794.40991,0.00112
1792.34974,0.00095
1790.28957,0.00073
1788.22940,0.00053
1786.16923,0.00039
1784.10905,0.00030
1782.04888,0.00025
1779.98871,0.00022
1777.92854,0.00021
1775.86836,0.00022
1773.80819,0.00027
1771.74802,0.00038
1769.68785,0.00056
1767.62768,0.00077
1765.56750,0.00096
1763.50733,0.00110
1761.44716,0.00126
1759.38699,0.00151
1757.32682,0.00184
1755.26664,0.00219
1753.20647,0.00250
1751.14630,0.00278
1749.08613,0.00306
1747.02596,0.00334
1744.96578,0.00360
1742.90561,0.00381
1740.84544,0.00396
1738.78527,0.00407
1736.72509,0.00418
1734.66492,0.00434
1732.60475,0.00458
1730.54458,0.00478
1728.48441,0.00484
1726.42423,0.00479
1724.36406,0.00467
1722.30389,0.00450
1720.24372,0.00427
1718.18355,0.00401
1716.12337,0.00377
1714.06320,0.00349
1712.00303,0.00314
1709.94286,0.00274
1707.88268,0.00237
1705.82251,0.00206
1703.76234,0.00183
1701.70217,0.00169
1699.64200,0.00169
1697.58182,0.00177
1695.52165,0.00192
1693.46148,0.00208
1691.40131,0.00215
1689.34114,0.00212
1687.28096,0.00210
1685.22079,0.00228
1683.16062,0.00270
1681.10045,0.00319
1679.04028,0.00359
1676.98010,0.00390
1674.91993,0.00422
1672.85976,0.00460
1670.79959,0.00502
1668.73941,0.00546
1666.67924,0.00591
1664.61907,0.00631
1662.55890,0.00663
1660.49873,0.00678
1658.43855,0.00671
1656.37838,0.00647
1654.31821,0.00632
1652.25804,0.00649
1650.19787,0.00696
1648.13769,0.00754
1646.07752,0.00811
1644.01735,0.00853
1641.95718,0.00871
1639.89701,0.00876
1637.83683,0.00884
1635.77666,0.00901
1633.71649,0.00916
1631.65632,0.00918
1629.59614,0.00914
1627.53597,0.00910
1625.47580,0.00908
1623.41563,0.00903
1621.35546,0.00896
1619.29528,0.00888
1617.23511,0.00889
1615.17494,0.00903
1613.11477,0.00922
1611.05460,0.00928
1608.99442,0.00916
1606.93425,0.00887
1604.87408,0.00850
1602.81391,0.00813
1600.75373,0.00780
1598.69356,0.00745
1596.63339,0.00699
1594.57322,0.00643
1592.51305,0.00586
1590.45287,0.00529
1588.39270,0.00473
1586.33253,0.00419
1584.27236,0.00373
1582.21219,0.00338
1580.15201,0.00311
1578.09184,0.00289
1576.03167,0.00269
1573.97150,0.00249
1571.91133,0.00231
1569.85115,0.00214
1567.79098,0.00197
1565.73081,0.00183
1563.67064,0.00174
1561.61046,0.00165
1559.55029,0.00154
1557.49012,0.00143
1555.42995,0.00137
1553.36978,0.00129
1551.30960,0.00115
1549.24943,0.00095
1547.18926,0.00070
1545.12909,0.00040
1543.06892,0.00013
1541.00874,0.00000
1538.94857,0.00004
1536.88840,0.00017
1534.82823,0.00028
1532.76805,0.00032
1530.70788,0.00030
1528.64771,0.00023
1526.58754,0.00016
1524.52737,0.00009
1522.46719,0.00004
1520.40702,0.00002
1518.34685,0.00001
1516.28668,0.00004
1514.22651,0.00015
1512.16633,0.00029
1510.10616,0.00042
1508.04599,0.00057
1505.98582,0.00072
1503.92565,0.00082
1501.86547,0.00080
1499.80530,0.00073
1497.74513,0.00071
1495.68496,0.00075
1493.62478,0.00075
1491.56461,0.00068
1489.50444,0.00065
1487.44427,0.00073
1485.38410,0.00088
1483.32392,0.00104
1481.26375,0.00118
1479.20358,0.00133
1477.14341,0.00153
1475.08324,0.00183
1473.02306,0.00222
1470.96289,0.00264
1468.90272,0.00298
1466.84255,0.00319
1464.78238,0.00328
1462.72220,0.00332
1460.66203,0.00336
1458.60186,0.00350
1456.54169,0.00378
1454.48151,0.00414
1452.42134,0.00448
1450.36117,0.00475
1448.30100,0.00498
1446.24083,0.00521
1444.18065,0.00542
1442.12048,0.00556
1440.06031,0.00566
1438.00014,0.00580
1435.93997,0.00601
1433.87979,0.00623
1431.81962,0.00642
1429.75945,0.00659
1427.69928,0.00677
1425.63910,0.00697
1423.57893,0.00720
1421.51876,0.00743
1419.45859,0.00768
1417.39842,0.00798
1415.33824,0.00826
1413.27807,0.00841
1411.21790,0.00842
1409.15773,0.00832
1407.09756,0.00818
1405.03738,0.00803
1402.97721,0.00785
1400.91704,0.00766
1398.85687,0.00744
1396.79670,0.00721
1394.73652,0.00699
1392.67635,0.00687
1390.61618,0.00686
1388.55601,0.00694
1386.49583,0.00705
1384.43566,0.00714
1382.37549,0.00721
1380.31532,0.00730
1378.25515,0.00743
1376.19497,0.00756
1374.13480,0.00768
1372.07463,0.00777
1370.01446,0.00780
1367.95429,0.00772
1365.89411,0.00757
1363.83394,0.00745
1361.77377,0.00740
1359.71360,0.00738
1357.65343,0.00731
1355.59325,0.00721
1353.53308,0.00711
1351.47291,0.00702
1349.41274,0.00690
1347.35256,0.00676
1345.29239,0.00663
1343.23222,0.00652
1341.17205,0.00642
1339.11188,0.00633
1337.05170,0.00629
1334.99153,0.00631
1332.93136,0.00636
1330.87119,0.00643
1328.81102,0.00647
1326.75084,0.00646
1324.69067,0.00646
1322.63050,0.00651
1320.57033,0.00662
1318.51015,0.00674
1316.44998,0.00680
1314.38981,0.00678
1312.32964,0.00672
1310.26947,0.00664
1308.20929,0.00654
1306.14912,0.00642
1304.08895,0.00629
1302.02878,0.00616
1299.96861,0.00598
1297.90843,0.00579
1295.84826,0.00562
1293.78809,0.00549
1291.72792,0.00539
1289.66775,0.00532
1287.60757,0.00526
1285.54740,0.00520
1283.48723,0.00519
1281.42706,0.00525
1279.36688,0.00538
1277.30671,0.00555
1275.24654,0.00572
1273.18637,0.00587
1271.12620,0.00604
1269.06602,0.00624
1267.00585,0.00646
1264.94568,0.00669
1262.88551,0.00695
1260.82534,0.00724
1258.76516,0.00756
1256.70499,0.00789
1254.64482,0.00817
1252.58465,0.00835
1250.52447,0.00842
1248.46430,0.00842
1246.40413,0.00835
1244.34396,0.00820
1242.28379,0.00801
1240.22361,0.00782
1238.16344,0.00764
1236.10327,0.00747
1234.04310,0.00729
1231.98293,0.00706
1229.92275,0.00674
1227.86258,0.00638
1225.80241,0.00603
1223.74224,0.00571
1221.68207,0.00546
1219.62189,0.00527
1217.56172,0.00513
1215.50155,0.00495
1213.44138,0.00465
1211.38120,0.00417
1209.32103,0.00354
1207.26086,0.00289
1205.20069,0.00232
1203.14052,0.00184
1201.08034,0.00140
1199.02017,0.00096
1196.96000,0.00053
1194.89983,0.00025
1192.83966,0.00012
1190.77948,0.00004
1188.71931,0.00000
1186.65914,-0.00002
1184.59897,0.00004
1182.53880,0.00021
1180.47862,0.00047
1178.41845,0.00085
1176.35828,0.00138
1174.29811,0.00201
1172.23793,0.00256
1170.17776,0.00296
1168.11759,0.00336
1166.05742,0.00391
1163.99725,0.00458
1161.93707,0.00524
1159.87690,0.00580
1157.81673,0.00636
1155.75656,0.00697
1153.69639,0.00759
1151.63621,0.00812
1149.57604,0.00847
1147.51587,0.00866
1145.45570,0.00878
1143.39552,0.00890
1141.33535,0.00903
1139.27518,0.00913
1137.21501,0.00920
1135.15484,0.00941
1133.09466,0.00978
1131.03449,0.01012
1128.97432,0.01042
1126.91415,0.01092
1124.85398,0.01158
1122.79380,0.01216
1120.73363,0.01252
1118.67346,0.01280
1116.61329,0.01317
1114.55312,0.01362
1112.49294,0.01411
1110.43277,0.01457
1108.37260,0.01507
1106.31243,0.01571
1104.25225,0.01637
1102.19208,0.01698
1100.13191,0.01768
1098.07174,0.01852
1096.01157,0.01934
1093.95139,0.02013
1091.89122,0.02091
1089.83105,0.02157
1087.77088,0.02203
1085.71071,0.02236
1083.65053,0.02278
1081.59036,0.02340
1079.53019,0.02408
1077.47002,0.02466
1075.40985,0.02522
1073.34967,0.02584
1071.28950,0.02652
1069.22933,0.02712
1067.16916,0.02765
1065.10898,0.02824
1063.04881,0.02883
1060.98864,0.02914
1058.92847,0.02924
1056.86830,0.02939
1054.80812,0.02969
1052.74795,0.03018
1050.68778,0.03074
1048.62761,0.03135
1046.56744,0.03197
1044.50726,0.03242
1042.44709,0.03258
1040.38692,0.03262
1038.32675,0.03267
1036.26657,0.03277
1034.20640,0.03297
1032.14623,0.03323
1030.08606,0.03352
1028.02589,0.03380
1025.96571,0.03403
1023.90554,0.03421
1021.84537,0.03443
1019.78520,0.03467
1017.72503,0.03486
1015.66485,0.03497
1013.60468,0.03492
1011.54451,0.03472
1009.48434,0.03460
1007.42417,0.03466
1005.36399,0.03472
1003.30382,0.03461
1001.24365,0.03427
999.18348,0.03371
997.12330,0.03292
995.06313,0.03194
993.00296,0.03099
990.94279,0.03036
988.88262,0.03013
986.82244,0.03015
984.76227,0.03023
982.70210,0.03031
980.64193,0.03024
978.58176,0.02988
976.52158,0.02934
974.46141,0.02884
972.40124,0.02840
970.34107,0.02798
968.28089,0.02766
966.22072,0.02743
964.16055,0.02721
962.10038,0.02698
960.04021,0.02672
957.98003,0.02633
955.91986,0.02579
953.85969,0.02524
951.79952,0.02470
949.73935,0.02399
947.67917,0.02317
945.61900,0.02254
943.55883,0.02214
941.49866,0.02148
939.43849,0.02024
937.37831,0.01861
935.31814,0.01703
933.25797,0.01567
931.19780,0.01438
929.13762,0.01310
927.07745,0.01195
925.01728,0.01096
922.95711,0.01009
920.89694,0.00935
918.83676,0.00868
916.77659,0.00808
914.71642,0.00760
912.65625,0.00714
910.59608,0.00672
908.53590,0.00644
906.47573,0.00624
904.41556,0.00606
902.35539,0.00598
900.29522,0.00600
898.23504,0.00599
896.17487,0.00595
894.11470,0.00594
892.05453,0.00590
889.99435,0.00583
887.93418,0.00567
885.87401,0.00536
883.81384,0.00504
881.75367,0.00475
879.69349,0.00437
877.63332,0.00381
875.57315,0.00320
873.51298,0.00269
871.45281,0.00243
869.39263,0.00249
867.33246,0.00278
865.27229,0.00314
863.21212,0.00321
861.15194,0.00272
859.09177,0.00194
857.03160,0.00148
854.97143,0.00158
852.91126,0.00199
850.85108,0.00233
848.79091,0.00244
846.73074,0.00230
844.67057,0.00190
842.61040,0.00143
840.55022,0.00116
838.49005,0.00118
836.42988,0.00130
834.36971,0.00133
832.30954,0.00111
830.24936,0.00061
828.18919,0.00016
826.12902,0.00000
824.06885,-0.00000
822.00867,0.00010
819.94850,0.00021
817.88833,0.00031
815.82816,0.00064
813.76799,0.00110
811.70781,0.00129
809.64764,0.00121
807.58747,0.00116
805.52730,0.00117
803.46713,0.00109
801.40695,0.00085
799.34678,0.00062
797.28661,0.00053
795.22644,0.00051
793.16627,0.00061
791.10609,0.00089
789.04592,0.00119
786.98575,0.00134
784.92558,0.00137
782.86540,0.00122
780.80523,0.00078
778.74506,0.00017
776.68489,-0.00022
774.62472,-0.00024
772.56454,-0.00005
770.50437,0.00023
768.44420,0.00043
766.38403,0.00031
764.32386,-0.00001
762.26368,-0.00024
760.20351,-0.00023
758.14334,0.00003
756.08317,0.00044
754.02299,0.00079
751.96282,0.00069
749.90265,0.00024
747.84248,0.00000
745.78231,-0.00005
743.72213,-0.00016
741.66196,-0.00024
739.60179,-0.00013
737.54162,-0.00006
735.48145,-0.00015
733.42127,-0.00012
731.36110,0.00013
729.30093,0.00038
727.24076,0.00030
725.18059,-0.00011
723.12041,-0.00025
721.06024,-0.00010
719.00007,0.00006
716.93990,0.00005
714.87972,0.00004
712.81955,0.00021
710.75938,0.00061
708.69921,0.00126
706.63904,0.00202
704.57886,0.00260
702.51869,0.00279
700.45852,0.00265
698.39835,0.00241
696.33818,0.00228
694.27800,0.00230
692.21783,0.00238
690.15766,0.00237
688.09749,0.00216
686.03731,0.00178
683.97714,0.00135
681.91697,0.00108
679.85680,0.00107
677.79663,0.00122
675.73645,0.00125
673.67628,0.00107
671.61611,0.00089
669.55594,0.00090
667.49577,0.00102
665.43559,0.00101
663.37542,0.00094
661.31525,0.00096
659.25508,0.00087
657.19491,0.00044
655.13473,-0.00012
653.07456,-0.00039
651.01439,-0.00030
648.95422,0.00000
646.89404,0.00027
644.83387,0.00072
642.77370,0.00132
640.71353,0.00190
638.65336,0.00226
636.59318,0.00243
634.53301,0.00238
632.47284,0.00220
630.41267,0.00232
628.35250,0.00300
626.29232,0.00375
624.23215,0.00351
622.17198,0.00250
620.11181,0.00136
618.05164,0.00074
615.99146,0.00099
613.93129,0.00153
611.87112,0.00161
609.81095,0.00070
607.75077,-0.00095
605.69060,-0.00153
603.63043,-0.00050
601.57026,0.00029
599.51009,0.00000
