3996.73391,0.00010
3994.67373,0.00036
3992.61356,0.00041
3990.55339,0.00042
3988.49322,0.00061
3986.43305,0.00079
3984.37287,0.00067
3982.31270,0.00033
3980.25253,0.00006
3978.19236,0.00000
3976.13219,0.00017
3974.07201,0.00072
3972.01184,0.00135
3969.95167,0.00148
3967.89150,0.00112
3965.83133,0.00065
3963.77115,0.00037
3961.71098,0.00059
3959.65081,0.00120
3957.59064,0.00153
3955.53046,0.00129
3953.47029,0.00086
3951.41012,0.00069
3949.34995,0.00098
3947.28978,0.00151
3945.22960,0.00169
3943.16943,0.00146
3941.10926,0.00124
3939.04909,0.00110
3936.98892,0.00096
3934.92874,0.00094
3932.86857,0.00113
3930.80840,0.00122
3928.74823,0.00085
3926.68805,0.00021
3924.62788,0.00000
3922.56771,0.00051
3920.50754,0.00122
3918.44737,0.00172
3916.38719,0.00182
3914.32702,0.00144
3912.26685,0.00099
3910.20668,0.00077
3908.14651,0.00086
3906.08633,0.00135
3904.02616,0.00175
3901.96599,0.00131
3899.90582,0.00050
3897.84565,0.00040
3895.78547,0.00088
3893.72530,0.00121
3891.66513,0.00115
3889.60496,0.00101
3887.54478,0.00117
3885.48461,0.00150
3883.42444,0.00156
3881.36427,0.00156
3879.30410,0.00161
3877.24392,0.00134
3875.18375,0.00097
3873.12358,0.00109
3871.06341,0.00140
3869.00324,0.00133
3866.94306,0.00114
3864.88289,0.00119
3862.82272,0.00134
3860.76255,0.00140
3858.70237,0.00131
3856.64220,0.00092
3854.58203,0.00043
3852.52186,0.00088
3850.46169,0.00203
3848.40151,0.00243
3846.34134,0.00194
3844.28117,0.00122
3842.22100,0.00079
3840.16083,0.00098
3838.10065,0.00173
3836.04048,0.00232
3833.98031,0.00242
3831.92014,0.00238
3829.85997,0.00239
3827.79979,0.00247
3825.73962,0.00256
3823.67945,0.00256
3821.61928,0.00253
3819.55910,0.00247
3817.49893,0.00219
3815.43876,0.00188
3813.37859,0.00184
3811.31842,0.00212
3809.25824,0.00230
3807.19807,0.00220
3805.13790,0.00204
3803.07773,0.00189
3801.01756,0.00175
3798.95738,0.00182
3796.89721,0.00196
3794.83704,0.00200
3792.77687,0.00200
3790.71670,0.00192
3788.65652,0.00156
3786.59635,0.00117
3784.53618,0.00126
3782.47601,0.00164
3780.41583,0.00207
3778.35566,0.00250
3776.29549,0.00228
3774.23532,0.00131
3772.17515,0.00032
3770.11497,0.00000
3768.05480,0.00058
3765.99463,0.00173
3763.93446,0.00248
3761.87429,0.00222
3759.81411,0.00143
3757.75394,0.00087
3755.69377,0.00068
3753.63360,0.00064
3751.57342,0.00087
3749.51325,0.00134
3747.45308,0.00167
3745.39291,0.00184
3743.33274,0.00182
3741.27256,0.00178
3739.21239,0.00196
3737.15222,0.00213
3735.09205,0.00205
3733.03188,0.00174
3730.97170,0.00148
3728.91153,0.00156
3726.85136,0.00173
3724.79119,0.00152
3722.73102,0.00111
3720.67084,0.00091
3718.61067,0.00102
3716.55050,0.00145
3714.49033,0.00217
3712.43015,0.00280
3710.36998,0.00271
3708.30981,0.00198
3706.24964,0.00128
3704.18947,0.00107
3702.12929,0.00142
3700.06912,0.00187
3698.00895,0.00196
3695.94878,0.00191
3693.88861,0.00178
3691.82843,0.00134
3689.76826,0.00100
3687.70809,0.00128
3685.64792,0.00183
3683.58775,0.00218
3681.52757,0.00247
3679.46740,0.00286
3677.40723,0.00329
3675.34706,0.00311
3673.28688,0.00185
3671.22671,0.00064
3669.16654,0.00060
3667.10637,0.00115
3665.04620,0.00145
3662.98602,0.00182
3660.92585,0.00236
3658.86568,0.00275
3656.80551,0.00301
3654.74534,0.00305
3652.68516,0.00265
3650.62499,0.00224
3648.56482,0.00256
3646.50465,0.00308
3644.44447,0.00308
3642.38430,0.00305
3640.32413,0.00322
3638.26396,0.00324
3636.20379,0.00308
3634.14361,0.00301
3632.08344,0.00299
3630.02327,0.00304
3627.96310,0.00317
3625.90293,0.00309
3623.84275,0.00284
3621.78258,0.00262
3619.72241,0.00274
3617.66224,0.00358
3615.60207,0.00460
3613.54189,0.00492
3611.48172,0.00464
3609.42155,0.00458
3607.36138,0.00489
3605.30120,0.00516
3603.24103,0.00530
3601.18086,0.00556
3599.12069,0.00590
3597.06052,0.00600
3595.00034,0.00589
3592.94017,0.00589
3590.88000,0.00597
3588.81983,0.00619
3586.75966,0.00657
3584.69948,0.00667
3582.63931,0.00654
3580.57914,0.00681
3578.51897,0.00746
3576.45879,0.00795
3574.39862,0.00800
3572.33845,0.00766
3570.27828,0.00743
3568.21811,0.00796
3566.15793,0.00914
3564.09776,0.00995
3562.03759,0.00979
3559.97742,0.00920
3557.91725,0.00905
3555.85707,0.00958
3553.79690,0.01024
3551.73673,0.01041
3549.67656,0.01030
3547.61639,0.01072
3545.55621,0.01175
3543.49604,0.01250
3541.43587,0.01251
3539.37570,0.01241
3537.31552,0.01272
3535.25535,0.01340
3533.19518,0.01391
3531.13501,0.01393
3529.07484,0.01398
3527.01466,0.01436
3524.95449,0.01455
3522.89432,0.01460
3520.83415,0.01508
3518.77398,0.01579
3516.71380,0.01629
3514.65363,0.01666
3512.59346,0.01678
3510.53329,0.01656
3508.47312,0.01663
3506.41294,0.01726
3504.35277,0.01800
3502.29260,0.01861
3500.23243,0.01929
3498.17225,0.01992
3496.11208,0.02009
3494.05191,0.01994
3491.99174,0.01989
3489.93157,0.01996
3487.87139,0.02016
3485.81122,0.02053
3483.75105,0.02090
3481.69088,0.02133
3479.63071,0.02200
3477.57053,0.02256
3475.51036,0.02261
3473.45019,0.02273
3471.39002,0.02340
3469.32984,0.02389
3467.26967,0.02383
3465.20950,0.02383
3463.14933,0.02416
3461.08916,0.02452
3459.02898,0.02477
3456.96881,0.02504
3454.90864,0.02523
3452.84847,0.02519
3450.78830,0.02537
3448.72812,0.02608
3446.66795,0.02682
3444.60778,0.02708
3442.54761,0.02704
3440.48744,0.02704
3438.42726,0.02719
3436.36709,0.02745
3434.30692,0.02784
3432.24675,0.02855
3430.18657,0.02921
3428.12640,0.02938
3426.06623,0.02952
3424.00606,0.02971
3421.94589,0.02975
3419.88571,0.02995
3417.82554,0.03028
3415.76537,0.03048
3413.70520,0.03052
3411.64503,0.03053
3409.58485,0.03078
3407.52468,0.03119
3405.46451,0.03149
3403.40434,0.03184
3401.34416,0.03228
3399.28399,0.03256
3397.22382,0.03285
3395.16365,0.03306
3393.10348,0.03280
3391.04330,0.03263
3388.98313,0.03303
3386.92296,0.03351
3384.86279,0.03373
3382.80262,0.03392
3380.74244,0.03413
3378.68227,0.03430
3376.62210,0.03477
3374.56193,0.03536
3372.50176,0.03534
3370.44158,0.03489
3368.38141,0.03457
3366.32124,0.03461
3364.26107,0.03518
3362.20089,0.03574
3360.14072,0.03570
3358.08055,0.03553
3356.02038,0.03578
3353.96021,0.03624
3351.90003,0.03654
3349.83986,0.03665
3347.77969,0.03660
3345.71952,0.03635
3343.65935,0.03621
3341.59917,0.03640
3339.53900,0.03666
3337.47883,0.03683
3335.41866,0.03699
3333.35849,0.03716
3331.29831,0.03734
3329.23814,0.03751
3327.17797,0.03755
3325.11780,0.03737
3323.05762,0.03715
3320.99745,0.03715
3318.93728,0.03734
3316.87711,0.03731
3314.81694,0.03706
3312.75676,0.03693
3310.69659,0.03707
3308.63642,0.03739
3306.57625,0.03761
3304.51608,0.03773
3302.45590,0.03795
3300.39573,0.03793
3298.33556,0.03754
3296.27539,0.03722
3294.21521,0.03722
3292.15504,0.03752
3290.09487,0.03780
3288.03470,0.03777
3285.97453,0.03789
3283.91435,0.03835
3281.85418,0.03851
3279.79401,0.03823
3277.73384,0.03804
3275.67367,0.03822
3273.61349,0.03858
3271.55332,0.03870
3269.49315,0.03839
3267.43298,0.03797
3265.37281,0.03785
3263.31263,0.03797
3261.25246,0.03799
3259.19229,0.03790
3257.13212,0.03784
3255.07194,0.03773
3253.01177,0.03756
3250.95160,0.03748
3248.89143,0.03750
3246.83126,0.03736
3244.77108,0.03698
3242.71091,0.03678
3240.65074,0.03693
3238.59057,0.03710
3236.53040,0.03703
3234.47022,0.03698
3232.41005,0.03716
3230.34988,0.03706
3228.28971,0.03637
3226.22954,0.03567
3224.16936,0.03568
3222.10919,0.03606
3220.04902,0.03603
3217.98885,0.03572
3215.92867,0.03540
3213.86850,0.03505
3211.80833,0.03478
3209.74816,0.03480
3207.68799,0.03519
3205.62781,0.03559
3203.56764,0.03540
3201.50747,0.03476
3199.44730,0.03432
3197.38713,0.03427
3195.32695,0.03433
3193.26678,0.03420
3191.20661,0.03406
3189.14644,0.03420
3187.08626,0.03440
3185.02609,0.03403
3182.96592,0.03317
3180.90575,0.03255
3178.84558,0.03241
3176.78540,0.03225
3174.72523,0.03200
3172.66506,0.03222
3170.60489,0.03248
3168.54472,0.03200
3166.48454,0.03143
3164.42437,0.03134
3162.36420,0.03137
3160.30403,0.03145
3158.24386,0.03155
3156.18368,0.03158
3154.12351,0.03147
3152.06334,0.03097
3150.00317,0.03037
3147.94299,0.03011
3145.88282,0.02989
3143.82265,0.02944
3141.76248,0.02888
3139.70231,0.02831
3137.64213,0.02800
3135.58196,0.02802
3133.52179,0.02820
3131.46162,0.02833
3129.40145,0.02819
3127.34127,0.02809
3125.28110,0.02824
3123.22093,0.02832
3121.16076,0.02813
3119.10058,0.02771
3117.04041,0.02732
3114.98024,0.02716
3112.92007,0.02693
3110.85990,0.02653
3108.79972,0.02624
3106.73955,0.02616
3104.67938,0.02622
3102.61921,0.02621
3100.55904,0.02589
3098.49886,0.02546
3096.43869,0.02521
3094.37852,0.02496
3092.31835,0.02455
3090.25818,0.02436
3088.19800,0.02462
3086.13783,0.02495
3084.07766,0.02494
3082.01749,0.02459
3079.95731,0.02398
3077.89714,0.02335
3075.83697,0.02325
3073.77680,0.02365
3071.71663,0.02375
3069.65645,0.02338
3067.59628,0.02312
3065.53611,0.02297
3063.47594,0.02248
3061.41577,0.02199
3059.35559,0.02188
3057.29542,0.02176
3055.23525,0.02153
3053.17508,0.02130
3051.11491,0.02095
3049.05473,0.02079
3046.99456,0.02094
3044.93439,0.02090
3042.87422,0.02072
3040.81404,0.02064
3038.75387,0.02056
3036.69370,0.02037
3034.63353,0.02012
3032.57336,0.02019
3030.51318,0.02048
3028.45301,0.02014
3026.39284,0.01943
3024.33267,0.01936
3022.27250,0.01968
3020.21232,0.01961
3018.15215,0.01934
3016.09198,0.01922
3014.03181,0.01906
3011.97163,0.01871
3009.91146,0.01842
3007.85129,0.01841
3005.79112,0.01849
3003.73095,0.01847
3001.67077,0.01856
2999.61060,0.01871
2997.55043,0.01850
2995.49026,0.01817
2993.43009,0.01829
2991.36991,0.01843
2989.30974,0.01811
2987.24957,0.01778
2985.18940,0.01783
2983.12923,0.01813
2981.06905,0.01847
2979.00888,0.01865
2976.94871,0.01862
2974.88854,0.01871
2972.82836,0.01921
2970.76819,0.02005
2968.70802,0.02098
2966.64785,0.02175
2964.58768,0.02245
2962.52750,0.02352
2960.46733,0.02492
2958.40716,0.02613
2956.34699,0.02701
2954.28682,0.02784
2952.22664,0.02889
2950.16647,0.03007
2948.10630,0.03131
2946.04613,0.03279
2943.98596,0.03449
2941.92578,0.03631
2939.86561,0.03813
2937.80544,0.03991
2935.74527,0.04165
2933.68509,0.04348
2931.62492,0.04516
2929.56475,0.04641
2927.50458,0.04764
2925.44441,0.04894
2923.38423,0.04998
2921.32406,0.05055
2919.26389,0.05044
2917.20372,0.04951
2915.14355,0.04800
2913.08337,0.04652
2911.02320,0.04535
2908.96303,0.04409
2906.90286,0.04231
2904.84268,0.04024
2902.78251,0.03847
2900.72234,0.03742
2898.66217,0.03694
2896.60200,0.03643
2894.54182,0.03575
2892.48165,0.03510
2890.42148,0.03432
2888.36131,0.03330
2886.30114,0.03250
2884.24096,0.03215
2882.18079,0.03184
2880.12062,0.03142
2878.06045,0.03098
2876.00028,0.03062
2873.94010,0.03076
2871.87993,0.03140
2869.81976,0.03188
2867.75959,0.03217
2865.69941,0.03283
2863.63924,0.03396
2861.57907,0.03535
2859.51890,0.03656
2857.45873,0.03758
2855.39855,0.03864
2853.33838,0.03948
2851.27821,0.03982
2849.21804,0.03934
2847.15787,0.03767
2845.09769,0.03518
2843.03752,0.03265
2840.97735,0.03062
2838.91718,0.02926
2836.85700,0.02817
2834.79683,0.02699
2832.73666,0.02590
2830.67649,0.02515
2828.61632,0.02472
2826.55614,0.02429
2824.49597,0.02358
2822.43580,0.02286
2820.37563,0.02243
2818.31546,0.02225
2816.25528,0.02215
2814.19511,0.02196
2812.13494,0.02150
2810.07477,0.02089
2808.01460,0.02065
2805.95442,0.02068
2803.89425,0.02059
2801.83408,0.02033
2799.77391,0.01999
2797.71373,0.01960
2795.65356,0.01924
2793.59339,0.01899
2791.53322,0.01891
2789.47305,0.01908
2787.41287,0.01940
2785.35270,0.01944
2783.29253,0.01903
2781.23236,0.01854
2779.17219,0.01835
2777.11201,0.01830
2775.05184,0.01811
2772.99167,0.01796
2770.93150,0.01806
2768.87133,0.01830
2766.81115,0.01848
2764.75098,0.01837
2762.69081,0.01807
2760.63064,0.01783
2758.57046,0.01775
2756.51029,0.01772
2754.45012,0.01761
2752.38995,0.01746
2750.32978,0.01744
2748.26960,0.01765
2746.20943,0.01789
2744.14926,0.01780
2742.08909,0.01741
2740.02892,0.01713
2737.96874,0.01699
2735.90857,0.01695
2733.84840,0.01707
2731.78823,0.01705
2729.72805,0.01690
2727.66788,0.01687
2725.60771,0.01686
2723.54754,0.01703
2721.48737,0.01732
2719.42719,0.01720
2717.36702,0.01681
2715.30685,0.01661
2713.24668,0.01660
2711.18651,0.01667
2709.12633,0.01677
2707.06616,0.01677
2705.00599,0.01662
2702.94582,0.01646
2700.88565,0.01640
2698.82547,0.01624
2696.76530,0.01598
2694.70513,0.01591
2692.64496,0.01601
2690.58478,0.01613
2688.52461,0.01628
2686.46444,0.01631
2684.40427,0.01605
2682.34410,0.01570
2680.28392,0.01560
2678.22375,0.01570
2676.16358,0.01574
2674.10341,0.01568
2672.04324,0.01582
2669.98306,0.01609
2667.92289,0.01620
2665.86272,0.01613
2663.80255,0.01610
2661.74238,0.01605
2659.68220,0.01582
2657.62203,0.01557
2655.56186,0.01541
2653.50169,0.01525
2651.44151,0.01511
2649.38134,0.01507
2647.32117,0.01525
2645.26100,0.01550
2643.20083,0.01551
2641.14065,0.01535
2639.08048,0.01515
2637.02031,0.01501
2634.96014,0.01510
2632.89997,0.01513
2630.83979,0.01479
2628.77962,0.01434
2626.71945,0.01403
2624.65928,0.01384
2622.59910,0.01384
2620.53893,0.01399
2618.47876,0.01399
2616.41859,0.01369
2614.35842,0.01360
2612.29824,0.01383
2610.23807,0.01388
2608.17790,0.01382
2606.11773,0.01394
2604.05756,0.01410
2601.99738,0.01389
2599.93721,0.01335
2597.87704,0.01308
2595.81687,0.01300
2593.75670,0.01284
2591.69652,0.01290
2589.63635,0.01315
2587.57618,0.01327
2585.51601,0.01315
2583.45583,0.01298
2581.39566,0.01301
2579.33549,0.01309
2577.27532,0.01311
2575.21515,0.01305
2573.15497,0.01276
2571.09480,0.01253
2569.03463,0.01234
2566.97446,0.01191
2564.91429,0.01189
2562.85411,0.01269
2560.79394,0.01358
2558.73377,0.01370
2556.67360,0.01290
2554.61342,0.01197
2552.55325,0.01187
2550.49308,0.01238
2548.43291,0.01241
2546.37274,0.01186
2544.31256,0.01143
2542.25239,0.01138
2540.19222,0.01145
2538.13205,0.01129
2536.07188,0.01093
2534.01170,0.01086
2531.95153,0.01088
2529.89136,0.01059
2527.83119,0.01061
2525.77102,0.01113
2523.71084,0.01157
2521.65067,0.01163
2519.59050,0.01134
2517.53033,0.01110
2515.47015,0.01140
2513.40998,0.01171
2511.34981,0.01147
2509.28964,0.01101
2507.22947,0.01074
2505.16929,0.01095
2503.10912,0.01137
2501.04895,0.01133
2498.98878,0.01088
2496.92861,0.01048
2494.86843,0.01025
2492.80826,0.01010
2490.74809,0.01009
2488.68792,0.01017
2486.62775,0.01032
2484.56757,0.01029
2482.50740,0.00986
2480.44723,0.00959
2478.38706,0.01010
2476.32688,0.01079
2474.26671,0.01080
2472.20654,0.01038
2470.14637,0.01015
2468.08620,0.01033
2466.02602,0.01050
2463.96585,0.01011
2461.90568,0.00965
2459.84551,0.01009
2457.78534,0.01104
2455.72516,0.01119
2453.66499,0.01051
2451.60482,0.01025
2449.54465,0.01058
2447.48447,0.01052
2445.42430,0.00981
2443.36413,0.00902
2441.30396,0.00868
2439.24379,0.00876
2437.18361,0.00896
2435.12344,0.00925
2433.06327,0.00957
2431.00310,0.00977
2428.94293,0.00983
2426.88275,0.00971
2424.82258,0.00947
2422.76241,0.00926
2420.70224,0.00899
2418.64207,0.00884
2416.58189,0.00905
2414.52172,0.00939
2412.46155,0.00950
2410.40138,0.00917
2408.34120,0.00868
2406.28103,0.00874
2404.22086,0.00931
2402.16069,0.00976
2400.10052,0.00956
2398.04034,0.00888
2395.98017,0.00860
2393.92000,0.00894
2391.85983,0.00923
2389.79966,0.00914
2387.73948,0.00889
2385.67931,0.00857
2383.61914,0.00824
2381.55897,0.00813
2379.49880,0.00839
2377.43862,0.00902
2375.37845,0.01026
2373.31828,0.01113
2371.25811,0.01010
2369.19793,0.00792
2367.13776,0.00633
2365.07759,0.00661
2363.01742,0.00893
2360.95725,0.00904
2358.89707,0.00546
2356.83690,0.00214
2354.77673,0.00340
2352.71656,0.00742
2350.65639,0.00862
2348.59621,0.00738
2346.53604,0.00701
2344.47587,0.00632
2342.41570,0.00725
2340.35552,0.00945
2338.29535,0.01149
2336.23518,0.01299
2334.17501,0.01277
2332.11484,0.01066
2330.05466,0.00767
2327.99449,0.00571
2325.93432,0.00512
2323.87415,0.00644
2321.81398,0.00898
2319.75380,0.01076
2317.69363,0.01005
2315.63346,0.00848
2313.57329,0.00776
2311.51312,0.00811
2309.45294,0.00872
2307.39277,0.00909
2305.33260,0.00930
2303.27243,0.00926
2301.21225,0.00904
2299.15208,0.00861
2297.09191,0.00810
2295.03174,0.00779
2292.97157,0.00778
2290.91139,0.00795
2288.85122,0.00815
2286.79105,0.00819
2284.73088,0.00804
2282.67071,0.00795
2280.61053,0.00804
2278.55036,0.00841
2276.49019,0.00895
2274.43002,0.00928
2272.36984,0.00929
2270.30967,0.00886
2268.24950,0.00796
2266.18933,0.00705
2264.12916,0.00640
2262.06898,0.00571
2260.00881,0.00547
2257.94864,0.00646
2255.88847,0.00761
2253.82830,0.00770
2251.76812,0.00727
2249.70795,0.00696
2247.64778,0.00692
2245.58761,0.00710
2243.52744,0.00718
2241.46726,0.00694
2239.40709,0.00631
2237.34692,0.00601
2235.28675,0.00670
2233.22657,0.00744
2231.16640,0.00744
2229.10623,0.00663
2227.04606,0.00546
2224.98589,0.00541
2222.92571,0.00623
2220.86554,0.00651
2218.80537,0.00683
2216.74520,0.00741
2214.68503,0.00732
2212.62485,0.00700
2210.56468,0.00677
2208.50451,0.00572
2206.44434,0.00494
2204.38417,0.00548
2202.32399,0.00620
2200.26382,0.00698
2198.20365,0.00760
2196.14348,0.00777
2194.08330,0.00822
2192.02313,0.00825
2189.96296,0.00736
2187.90279,0.00608
2185.84262,0.00465
2183.78244,0.00329
2181.72227,0.00223
2179.66210,0.00191
2177.60193,0.00302
2175.54176,0.00553
2173.48158,0.00697
2171.42141,0.00579
2169.36124,0.00453
2167.30107,0.00484
2165.24089,0.00546
2163.18072,0.00530
2161.12055,0.00473
2159.06038,0.00522
2157.00021,0.00659
2154.94003,0.00585
2152.87986,0.00360
2150.81969,0.00348
2148.75952,0.00502
2146.69935,0.00524
2144.63917,0.00388
2142.57900,0.00260
2140.51883,0.00243
2138.45866,0.00400
2136.39849,0.00592
2134.33831,0.00635
2132.27814,0.00638
2130.21797,0.00638
2128.15780,0.00578
2126.09762,0.00577
2124.03745,0.00673
2121.97728,0.00682
2119.91711,0.00558
2117.85694,0.00484
2115.79676,0.00518
2113.73659,0.00564
2111.67642,0.00599
2109.61625,0.00641
2107.55608,0.00716
2105.49590,0.00784
2103.43573,0.00768
2101.37556,0.00721
2099.31539,0.00684
2097.25521,0.00657
2095.19504,0.00643
2093.13487,0.00608
2091.07470,0.00577
2089.01453,0.00573
2086.95435,0.00551
2084.89418,0.00516
2082.83401,0.00513
2080.77384,0.00548
2078.71367,0.00595
2076.65349,0.00650
2074.59332,0.00664
2072.53315,0.00639
2070.47298,0.00612
2068.41281,0.00551
2066.35263,0.00567
2064.29246,0.00656
2062.23229,0.00677
2060.17212,0.00709
2058.11194,0.00780
2056.05177,0.00823
2053.99160,0.00801
2051.93143,0.00718
2049.87126,0.00639
2047.81108,0.00622
2045.75091,0.00721
2043.69074,0.00824
2041.63057,0.00748
2039.57040,0.00549
2037.51022,0.00340
2035.45005,0.00168
2033.38988,0.00175
2031.32971,0.00345
2029.26954,0.00500
2027.20936,0.00559
2025.14919,0.00470
2023.08902,0.00306
2021.02885,0.00272
2018.96867,0.00419
2016.90850,0.00515
2014.84833,0.00369
2012.78816,0.00139
2010.72799,0.00000
2008.66781,0.00008
2006.60764,0.00188
2004.54747,0.00371
2002.48730,0.00429
2000.42713,0.00413
1998.36695,0.00390
1996.30678,0.00375
1994.24661,0.00358
1992.18644,0.00344
1990.12626,0.00356
1988.06609,0.00442
1986.00592,0.00597
1983.94575,0.00708
1981.88558,0.00571
1979.82540,0.00218
1977.76523,0.00044
1975.70506,0.00152
1973.64489,0.00246
1971.58472,0.00271
1969.52454,0.00336
1967.46437,0.00416
1965.40420,0.00376
1963.34403,0.00199
1961.28386,0.00125
1959.22368,0.00278
1957.16351,0.00427
1955.10334,0.00429
1953.04317,0.00377
1950.98299,0.00356
1948.92282,0.00323
1946.86265,0.00233
1944.80248,0.00213
1942.74231,0.00323
1940.68213,0.00418
1938.62196,0.00408
1936.56179,0.00356
1934.50162,0.00339
1932.44145,0.00330
1930.38127,0.00298
1928.32110,0.00296
1926.26093,0.00325
1924.20076,0.00305
1922.14059,0.00270
1920.08041,0.00321
1918.02024,0.00401
1915.96007,0.00380
1913.89990,0.00299
1911.83972,0.00283
1909.77955,0.00331
1907.71938,0.00360
1905.65921,0.00356
1903.59904,0.00327
1901.53886,0.00261
1899.47869,0.00189
1897.41852,0.00156
1895.35835,0.00156
1893.29818,0.00179
1891.23800,0.00243
1889.17783,0.00319
1887.11766,0.00350
1885.05749,0.00352
1882.99731,0.00337
1880.93714,0.00305
1878.87697,0.00264
1876.81680,0.00210
1874.75663,0.00176
1872.69645,0.00195
1870.63628,0.00216
1868.57611,0.00207
1866.51594,0.00222
1864.45577,0.00259
1862.39559,0.00276
1860.33542,0.00238
1858.27525,0.00155
1856.21508,0.00097
1854.15491,0.00104
1852.09473,0.00152
1850.03456,0.00197
1847.97439,0.00193
1845.91422,0.00135
1843.85404,0.00095
1841.79387,0.00125
1839.73370,0.00176
1837.67353,0.00203
1835.61336,0.00195
1833.55318,0.00156
1831.49301,0.00104
1829.43284,0.00056
1827.37267,0.00039
1825.31250,0.00095
1823.25232,0.00184
1821.19215,0.00203
1819.13198,0.00165
1817.07181,0.00132
1815.01163,0.00117
1812.95146,0.00104
1810.89129,0.00078
1808.83112,0.00056
1806.77095,0.00061
1804.71077,0.00077
1802.65060,0.00079
1800.59043,0.00063
1798.53026,0.00041
1796.47009,0.00017
1794.40991,-0.00005
1792.34974,-0.00009
1790.28957,0.00007
1788.22940,0.00017
1786.16923,0.00024
1784.10905,0.00042
1782.04888,0.00055
1779.98871,0.00042
1777.92854,0.00025
1775.86836,0.00018
1773.80819,0.00004
1771.74802,0.00000
1769.68785,0.00042
1767.62768,0.00109
1765.56750,0.00140
1763.50733,0.00129
1761.44716,0.00143
1759.38699,0.00241
1757.32682,0.00398
1755.26664,0.00548
1753.20647,0.00658
1751.14630,0.00778
1749.08613,0.00938
1747.02596,0.01065
1744.96578,0.01123
1742.90561,0.01148
1740.84544,0.01176
1738.78527,0.01223
1736.72509,0.01270
1734.66492,0.01276
1732.60475,0.01229
1730.54458,0.01193
1728.48441,0.01209
1726.42423,0.01235
1724.36406,0.01236
1722.30389,0.01228
1720.24372,0.01218
1718.18355,0.01203
1716.12337,0.01203
1714.06320,0.01229
1712.00303,0.01253
1709.94286,0.01240
1707.88268,0.01209
1705.82251,0.01217
1703.76234,0.01251
1701.70217,0.01262
1699.64200,0.01267
1697.58182,0.01298
1695.52165,0.01335
1693.46148,0.01364
1691.40131,0.01408
1689.34114,0.01481
1687.28096,0.01561
1685.22079,0.01671
1683.16062,0.01863
1681.10045,0.02069
1679.04028,0.02213
1676.98010,0.02317
1674.91993,0.02438
1672.85976,0.02557
1670.79959,0.02595
1668.73941,0.02529
1666.67924,0.02433
1664.61907,0.02356
1662.55890,0.02283
1660.49873,0.02216
1658.43855,0.02169
1656.37838,0.02125
1654.31821,0.02068
1652.25804,0.02039
1650.19787,0.02056
1648.13769,0.02053
1646.07752,0.02050
1644.01735,0.02093
1641.95718,0.02150
1639.89701,0.02211
1637.83683,0.02298
1635.77666,0.02395
1633.71649,0.02438
1631.65632,0.02438
1629.59614,0.02451
1627.53597,0.02490
1625.47580,0.02529
1623.41563,0.02547
1621.35546,0.02555
1619.29528,0.02556
1617.23511,0.02572
1615.17494,0.02636
1613.11477,0.02721
1611.05460,0.02814
1608.99442,0.02941
1606.93425,0.03080
1604.87408,0.03149
1602.81391,0.03108
1600.75373,0.02989
1598.69356,0.02855
1596.63339,0.02738
1594.57322,0.02634
1592.51305,0.02536
1590.45287,0.02439
1588.39270,0.02353
1586.33253,0.02291
1584.27236,0.02235
1582.21219,0.02158
1580.15201,0.02074
1578.09184,0.02012
1576.03167,0.01967
1573.97150,0.01932
1571.91133,0.01908
1569.85115,0.01865
1567.79098,0.01782
1565.73081,0.01692
1563.67064,0.01631
1561.61046,0.01576
1559.55029,0.01453
1557.49012,0.01304
1555.42995,0.01267
1553.36978,0.01262
1551.30960,0.01215
1549.24943,0.01148
1547.18926,0.01083
1545.12909,0.01016
1543.06892,0.00939
1541.00874,0.00868
1538.94857,0.00819
1536.88840,0.00780
1534.82823,0.00719
1532.76805,0.00642
1530.70788,0.00601
1528.64771,0.00592
1526.58754,0.00572
1524.52737,0.00550
1522.46719,0.00584
1520.40702,0.00687
1518.34685,0.00801
1516.28668,0.00906
1514.22651,0.00974
1512.16633,0.00964
1510.10616,0.00871
1508.04599,0.00728
1505.98582,0.00597
1503.92565,0.00527
1501.86547,0.00474
1499.80530,0.00391
1497.74513,0.00284
1495.68496,0.00204
1493.62478,0.00155
1491.56461,0.00099
1489.50444,0.00051
1487.44427,0.00047
1485.38410,0.00064
1483.32392,0.00080
1481.26375,0.00102
1479.20358,0.00130
1477.14341,0.00162
1475.08324,0.00228
1473.02306,0.00384
1470.96289,0.00605
1468.90272,0.00791
1466.84255,0.00932
1464.78238,0.01077
1462.72220,0.01213
1460.66203,0.01296
1458.60186,0.01362
1456.54169,0.01468
1454.48151,0.01559
1452.42134,0.01592
1450.36117,0.01624
1448.30100,0.01710
1446.24083,0.01826
1444.18065,0.01910
1442.12048,0.01958
1440.06031,0.01992
1438.00014,0.02035
1435.93997,0.02094
1433.87979,0.02137
1431.81962,0.02146
1429.75945,0.02138
1427.69928,0.02135
1425.63910,0.02148
1423.57893,0.02183
1421.51876,0.02229
1419.45859,0.02252
1417.39842,0.02235
1415.33824,0.02212
1413.27807,0.02198
1411.21790,0.02165
1409.15773,0.02110
1407.09756,0.02053
1405.03738,0.01999
1402.97721,0.01940
1400.91704,0.01865
1398.85687,0.01785
1396.79670,0.01730
1394.73652,0.01703
1392.67635,0.01689
1390.61618,0.01681
1388.55601,0.01685
1386.49583,0.01718
1384.43566,0.01772
1382.37549,0.01824
1380.31532,0.01884
1378.25515,0.01950
1376.19497,0.01984
1374.13480,0.01986
1372.07463,0.01995
1370.01446,0.02019
1367.95429,0.02030
1365.89411,0.02005
1363.83394,0.01948
1361.77377,0.01884
1359.71360,0.01845
1357.65343,0.01821
1355.59325,0.01802
1353.53308,0.01796
1351.47291,0.01802
1349.41274,0.01806
1347.35256,0.01817
1345.29239,0.01831
1343.23222,0.01824
1341.17205,0.01794
1339.11188,0.01770
1337.05170,0.01762
1334.99153,0.01770
1332.93136,0.01794
1330.87119,0.01832
1328.81102,0.01856
1326.75084,0.01841
1324.69067,0.01809
1322.63050,0.01799
1320.57033,0.01813
1318.51015,0.01824
1316.44998,0.01816
1314.38981,0.01795
1312.32964,0.01769
1310.26947,0.01734
1308.20929,0.01681
1306.14912,0.01621
1304.08895,0.01579
1302.02878,0.01548
1299.96861,0.01512
1297.90843,0.01486
1295.84826,0.01482
1293.78809,0.01485
1291.72792,0.01483
1289.66775,0.01479
1287.60757,0.01490
1285.54740,0.01523
1283.48723,0.01558
1281.42706,0.01577
1279.36688,0.01577
1277.30671,0.01573
1275.24654,0.01584
1273.18637,0.01615
1271.12620,0.01666
1269.06602,0.01733
1267.00585,0.01793
1264.94568,0.01832
1262.88551,0.01868
1260.82534,0.01926
1258.76516,0.01998
1256.70499,0.02063
1254.64482,0.02105
1252.58465,0.02124
1250.52447,0.02142
1248.46430,0.02169
1246.40413,0.02193
1244.34396,0.02204
1242.28379,0.02217
1240.22361,0.02238
1238.16344,0.02233
1236.10327,0.02184
1234.04310,0.02136
1231.98293,0.02097
1229.92275,0.02037
1227.86258,0.01975
1225.80241,0.01927
1223.74224,0.01859
1221.68207,0.01758
1219.62189,0.01638
1217.56172,0.01512
1215.50155,0.01396
1213.44138,0.01298
1211.38120,0.01205
1209.32103,0.01100
1207.26086,0.00991
1205.20069,0.00901
1203.14052,0.00814
1201.08034,0.00694
1199.02017,0.00528
1196.96000,0.00364
1194.89983,0.00269
1192.83966,0.00214
1190.77948,0.00149
1188.71931,0.00077
1186.65914,0.00019
1184.59897,0.00000
1182.53880,0.00036
1180.47862,0.00109
1178.41845,0.00184
1176.35828,0.00279
1174.29811,0.00421
1172.23793,0.00597
1170.17776,0.00790
1168.11759,0.00953
1166.05742,0.01050
1163.99725,0.01114
1161.93707,0.01176
1159.87690,0.01235
1157.81673,0.01283
1155.75656,0.01322
1153.69639,0.01367
1151.63621,0.01423
1149.57604,0.01487
1147.51587,0.01560
1145.45570,0.01658
1143.39552,0.01785
1141.33535,0.01894
1139.27518,0.01956
1137.21501,0.01991
1135.15484,0.02020
1133.09466,0.02052
1131.03449,0.02104
1128.97432,0.02198
1126.91415,0.02316
1124.85398,0.02432
1122.79380,0.02551
1120.73363,0.02644
1118.67346,0.02710
1116.61329,0.02796
1114.55312,0.02913
1112.49294,0.03029
1110.43277,0.03138
1108.37260,0.03244
1106.31243,0.03309
1104.25225,0.03356
1102.19208,0.03465
1100.13191,0.03641
1098.07174,0.03828
1096.01157,0.03970
1093.95139,0.04090
1091.89122,0.04227
1089.83105,0.04353
1087.77088,0.04472
1085.71071,0.04621
1083.65053,0.04809
1081.59036,0.05010
1079.53019,0.05199
1077.47002,0.05361
1075.40985,0.05505
1073.34967,0.05696
1071.28950,0.05943
1069.22933,0.06142
1067.16916,0.06232
1065.10898,0.06281
1063.04881,0.06361
1060.98864,0.06480
1058.92847,0.06639
1056.86830,0.06804
1054.80812,0.06924
1052.74795,0.07033
1050.68778,0.07184
1048.62761,0.07396
1046.56744,0.07650
1044.50726,0.07895
1042.44709,0.08100
1040.38692,0.08263
1038.32675,0.08372
1036.26657,0.08441
1034.20640,0.08523
1032.14623,0.08604
1030.08606,0.08622
1028.02589,0.08598
1025.96571,0.08591
1023.90554,0.08593
1021.84537,0.08570
1019.78520,0.08520
1017.72503,0.08483
1015.66485,0.08488
1013.60468,0.08495
1011.54451,0.08479
1009.48434,0.08482
1007.42417,0.08535
1005.36399,0.08555
1003.30382,0.08484
1001.24365,0.08381
999.18348,0.08294
997.12330,0.08190
995.06313,0.08050
993.00296,0.07915
990.94279,0.07807
988.88262,0.07694
986.82244,0.07558
984.76227,0.07417
982.70210,0.07289
980.64193,0.07174
978.58176,0.07059
976.52158,0.06930
974.46141,0.06804
972.40124,0.06685
970.34107,0.06546
968.28089,0.06400
966.22072,0.06269
964.16055,0.06123
962.10038,0.05966
960.04021,0.05854
957.98003,0.05752
955.91986,0.05608
953.85969,0.05488
951.79952,0.05418
949.73935,0.05324
947.67917,0.05202
945.61900,0.05052
943.55883,0.04870
941.49866,0.04691
939.43849,0.04472
937.37831,0.04178
935.31814,0.03870
933.25797,0.03593
931.19780,0.03326
929.13762,0.03096
927.07745,0.02973
925.01728,0.02859
922.95711,0.02646
920.89694,0.02453
918.83676,0.02347
916.77659,0.02238
914.71642,0.02105
912.65625,0.01974
910.59608,0.01841
908.53590,0.01713
906.47573,0.01599
904.41556,0.01529
902.35539,0.01504
900.29522,0.01467
898.23504,0.01464
896.17487,0.01556
894.11470,0.01647
892.05453,0.01673
889.99435,0.01632
887.93418,0.01525
885.87401,0.01431
883.81384,0.01369
881.75367,0.01278
879.69349,0.01158
877.63332,0.01057
875.57315,0.00994
873.51298,0.00924
871.45281,0.00824
869.39263,0.00750
867.33246,0.00743
865.27229,0.00772
863.21212,0.00757
861.15194,0.00724
859.09177,0.00754
857.03160,0.00775
854.97143,0.00735
852.91126,0.00726
850.85108,0.00788
848.79091,0.00834
846.73074,0.00827
844.67057,0.00808
842.61040,0.00775
840.55022,0.00717
838.49005,0.00652
836.42988,0.00600
834.36971,0.00526
832.30954,0.00451
830.24936,0.00435
828.18919,0.00447
826.12902,0.00427
824.06885,0.00345
822.00867,0.00243
819.94850,0.00209
817.88833,0.00262
815.82816,0.00347
813.76799,0.00445
811.70781,0.00476
809.64764,0.00393
807.58747,0.00312
805.52730,0.00294
803.46713,0.00309
801.40695,0.00371
799.34678,0.00408
797.28661,0.00280
795.22644,0.00069
793.16627,0.00000
791.10609,0.00085
789.04592,0.00184
786.98575,0.00217
784.92558,0.00222
782.86540,0.00228
780.80523,0.00206
778.74506,0.00153
776.68489,0.00128
774.62472,0.00113
772.56454,0.00044
770.50437,-0.00033
768.44420,-0.00060
766.38403,-0.00088
764.32386,-0.00141
762.26368,-0.00168
760.20351,-0.00122
758.14334,-0.00045
756.08317,-0.00006
754.02299,0.00003
751.96282,0.00000
749.90265,-0.00021
747.84248,-0.00066
745.78231,-0.00054
743.72213,0.00025
741.66196,0.00015
739.60179,-0.00047
737.54162,-0.00036
735.48145,-0.00041
733.42127,-0.00140
731.36110,-0.00205
729.30093,-0.00118
727.24076,0.00064
725.18059,0.00220
723.12041,0.00214
721.06024,0.00130
719.00007,0.00066
716.93990,0.00103
714.87972,0.00216
712.81955,0.00365
710.75938,0.00466
708.69921,0.00456
706.63904,0.00438
704.57886,0.00488
702.51869,0.00560
700.45852,0.00620
698.39835,0.00663
696.33818,0.00716
694.27800,0.00796
692.21783,0.00885
690.15766,0.00905
688.09749,0.00743
686.03731,0.00475
683.97714,0.00246
681.91697,0.00067
679.85680,0.00000
677.79663,0.00070
675.73645,0.00201
673.67628,0.00261
671.61611,0.00273
669.55594,0.00557
667.49577,0.00732
665.43559,0.00346
663.37542,0.00370
661.31525,0.00520
659.25508,0.00430
657.19491,0.00142
655.13473,-0.00043
653.07456,-0.00055
651.01439,-0.00031
648.95422,0.00000
646.89404,-0.00053
644.83387,-0.00159
642.77370,-0.00159
640.71353,0.00008
638.65336,0.00165
636.59318,0.00202
634.53301,0.00069
632.47284,-0.00222
630.41267,-0.00403
628.35250,-0.00303
626.29232,-0.00043
624.23215,0.00267
622.17198,0.00511
620.11181,0.00562
618.05164,0.00362
615.99146,-0.00259
613.93129,-0.00852
611.87112,-0.00843
609.81095,-0.00608
607.75077,-0.00355
605.69060,0.00004
603.63043,0.00086
601.57026,-0.00052
599.51009,0.00000
