3996.73391,0.00033
3994.67373,0.00014
3992.61356,0.00006
3990.55339,0.00011
3988.49322,0.00016
3986.43305,0.00027
3984.37287,0.00035
3982.31270,0.00026
3980.25253,0.00003
3978.19236,-0.00012
3976.13219,-0.00013
3974.07201,-0.00004
3972.01184,0.00017
3969.95167,0.00040
3967.89150,0.00042
3965.83133,0.00015
3963.77115,0.00000
3961.71098,0.00018
3959.65081,0.00043
3957.59064,0.00066
3955.53046,0.00077
3953.47029,0.00076
3951.41012,0.00085
3949.34995,0.00097
3947.28978,0.00082
3945.22960,0.00080
3943.16943,0.00100
3941.10926,0.00070
3939.04909,0.00041
3936.98892,0.00044
3934.92874,0.00054
3932.86857,0.00068
3930.80840,0.00053
3928.74823,0.00019
3926.68805,0.00029
3924.62788,0.00058
3922.56771,0.00057
3920.50754,0.00085
3918.44737,0.00125
3916.38719,0.00115
3914.32702,0.00082
3912.26685,0.00079
3910.20668,0.00063
3908.14651,0.00048
3906.08633,0.00110
3904.02616,0.00157
3901.96599,0.00122
3899.90582,0.00119
3897.84565,0.00092
3895.78547,0.00052
3893.72530,0.00110
3891.66513,0.00166
3889.60496,0.00091
3887.54478,0.00102
3885.48461,0.00163
3883.42444,0.00123
3881.36427,0.00178
3879.30410,0.00174
3877.24392,0.00088
3875.18375,0.00111
3873.12358,0.00118
3871.06341,0.00134
3869.00324,0.00087
3866.94306,0.00037
3864.88289,0.00155
3862.82272,0.00200
3860.76255,0.00103
3858.70237,0.00000
3856.64220,0.00054
3854.58203,0.00284
3852.52186,0.00307
3850.46169,0.00127
3848.40151,0.00078
3846.34134,0.00124
3844.28117,0.00155
3842.22100,0.00143
3840.16083,0.00197
3838.10065,0.00262
3836.04048,0.00211
3833.98031,0.00179
3831.92014,0.00207
3829.85997,0.00204
3827.79979,0.00203
3825.73962,0.00154
3823.67945,0.00159
3821.61928,0.00268
3819.55910,0.00197
3817.49893,0.00221
3815.43876,0.00314
3813.37859,0.00222
3811.31842,0.00146
3809.25824,0.00195
3807.19807,0.00244
3805.13790,0.00159
3803.07773,0.00209
3801.01756,0.00267
3798.95738,0.00175
3796.89721,0.00206
3794.83704,0.00218
3792.77687,0.00182
3790.71670,0.00168
3788.65652,0.00166
3786.59635,0.00201
3784.53618,0.00224
3782.47601,0.00216
3780.41583,0.00270
3778.35566,0.00275
3776.29549,0.00180
3774.23532,0.00109
3772.17515,0.00121
3770.11497,0.00160
3768.05480,0.00139
3765.99463,0.00137
3763.93446,0.00108
3761.87429,0.00133
3759.81411,0.00236
3757.75394,0.00221
3755.69377,0.00109
3753.63360,0.00110
3751.57342,0.00204
3749.51325,0.00118
3747.45308,0.00000
3745.39291,0.00130
3743.33274,0.00142
3741.27256,0.00018
3739.21239,0.00039
3737.15222,0.00147
3735.09205,0.00186
3733.03188,0.00146
3730.97170,0.00099
3728.91153,0.00120
3726.85136,0.00208
3724.79119,0.00197
3722.73102,0.00141
3720.67084,0.00114
3718.61067,0.00097
3716.55050,0.00073
3714.49033,0.00124
3712.43015,0.00250
3710.36998,0.00254
3708.30981,0.00156
3706.24964,0.00120
3704.18947,0.00197
3702.12929,0.00295
3700.06912,0.00271
3698.00895,0.00202
3695.94878,0.00145
3693.88861,0.00088
3691.82843,0.00127
3689.76826,0.00227
3687.70809,0.00201
3685.64792,0.00116
3683.58775,0.00115
3681.52757,0.00129
3679.46740,0.00125
3677.40723,0.00219
3675.34706,0.00300
3673.28688,0.00157
3671.22671,0.00203
3669.16654,0.00292
3667.10637,0.00212
3665.04620,0.00199
3662.98602,0.00240
3660.92585,0.00235
3658.86568,0.00252
3656.80551,0.00298
3654.74534,0.00218
3652.68516,0.00196
3650.62499,0.00331
3648.56482,0.00340
3646.50465,0.00223
3644.44447,0.00173
3642.38430,0.00227
3640.32413,0.00273
3638.26396,0.00284
3636.20379,0.00280
3634.14361,0.00239
3632.08344,0.00195
3630.02327,0.00317
3627.96310,0.00391
3625.90293,0.00291
3623.84275,0.00260
3621.78258,0.00334
3619.72241,0.00412
3617.66224,0.00374
3615.60207,0.00342
3613.54189,0.00374
3611.48172,0.00389
3609.42155,0.00467
3607.36138,0.00535
3605.30120,0.00506
3603.24103,0.00508
3601.18086,0.00561
3599.12069,0.00594
3597.06052,0.00645
3595.00034,0.00706
3592.94017,0.00663
3590.88000,0.00590
3588.81983,0.00638
3586.75966,0.00685
3584.69948,0.00656
3582.63931,0.00677
3580.57914,0.00743
3578.51897,0.00792
3576.45879,0.00827
3574.39862,0.00850
3572.33845,0.00841
3570.27828,0.00855
3568.21811,0.00922
3566.15793,0.00916
3564.09776,0.00865
3562.03759,0.00917
3559.97742,0.00993
3557.91725,0.01003
3555.85707,0.01008
3553.79690,0.01070
3551.73673,0.01124
3549.67656,0.01133
3547.61639,0.01172
3545.55621,0.01233
3543.49604,0.01267
3541.43587,0.01289
3539.37570,0.01317
3537.31552,0.01348
3535.25535,0.01361
3533.19518,0.01380
3531.13501,0.01440
3529.07484,0.01503
3527.01466,0.01531
3524.95449,0.01553
3522.89432,0.01591
3520.83415,0.01622
3518.77398,0.01646
3516.71380,0.01662
3514.65363,0.01688
3512.59346,0.01738
3510.53329,0.01796
3508.47312,0.01819
3506.41294,0.01821
3504.35277,0.01856
3502.29260,0.01890
3500.23243,0.01925
3498.17225,0.01989
3496.11208,0.02044
3494.05191,0.02074
3491.99174,0.02101
3489.93157,0.02137
3487.87139,0.02170
3485.81122,0.02179
3483.75105,0.02199
3481.69088,0.02233
3479.63071,0.02265
3477.57053,0.02313
3475.51036,0.02350
3473.45019,0.02366
3471.39002,0.02390
3469.32984,0.02428
3467.26967,0.02463
3465.20950,0.02500
3463.14933,0.02558
3461.08916,0.02604
3459.02898,0.02622
3456.96881,0.02645
3454.90864,0.02671
3452.84847,0.02684
3450.78830,0.02692
3448.72812,0.02732
3446.66795,0.02788
3444.60778,0.02821
3442.54761,0.02838
3440.48744,0.02832
3438.42726,0.02850
3436.36709,0.02914
3434.30692,0.02978
3432.24675,0.03022
3430.18657,0.03045
3428.12640,0.03056
3426.06623,0.03070
3424.00606,0.03087
3421.94589,0.03111
3419.88571,0.03131
3417.82554,0.03143
3415.76537,0.03162
3413.70520,0.03176
3411.64503,0.03188
3409.58485,0.03219
3407.52468,0.03266
3405.46451,0.03308
3403.40434,0.03348
3401.34416,0.03373
3399.28399,0.03374
3397.22382,0.03386
3395.16365,0.03428
3393.10348,0.03464
3391.04330,0.03454
3388.98313,0.03458
3386.92296,0.03510
3384.86279,0.03559
3382.80262,0.03577
3380.74244,0.03568
3378.68227,0.03555
3376.62210,0.03571
3374.56193,0.03611
3372.50176,0.03638
3370.44158,0.03648
3368.38141,0.03673
3366.32124,0.03709
3364.26107,0.03722
3362.20089,0.03727
3360.14072,0.03738
3358.08055,0.03747
3356.02038,0.03767
3353.96021,0.03786
3351.90003,0.03777
3349.83986,0.03761
3347.77969,0.03757
3345.71952,0.03765
3343.65935,0.03793
3341.59917,0.03840
3339.53900,0.03871
3337.47883,0.03875
3335.41866,0.03859
3333.35849,0.03844
3331.29831,0.03835
3329.23814,0.03827
3327.17797,0.03842
3325.11780,0.03877
3323.05762,0.03901
3320.99745,0.03903
3318.93728,0.03900
3316.87711,0.03899
3314.81694,0.03893
3312.75676,0.03892
3310.69659,0.03909
3308.63642,0.03919
3306.57625,0.03904
3304.51608,0.03891
3302.45590,0.03890
3300.39573,0.03904
3298.33556,0.03932
3296.27539,0.03949
3294.21521,0.03948
3292.15504,0.03961
3290.09487,0.03974
3288.03470,0.03949
3285.97453,0.03914
3283.91435,0.03905
3281.85418,0.03909
3279.79401,0.03920
3277.73384,0.03942
3275.67367,0.03966
3273.61349,0.03981
3271.55332,0.03967
3269.49315,0.03924
3267.43298,0.03887
3265.37281,0.03865
3263.31263,0.03850
3261.25246,0.03856
3259.19229,0.03872
3257.13212,0.03864
3255.07194,0.03845
3253.01177,0.03851
3250.95160,0.03871
3248.89143,0.03880
3246.83126,0.03877
3244.77108,0.03882
3242.71091,0.03875
3240.65074,0.03839
3238.59057,0.03799
3236.53040,0.03771
3234.47022,0.03760
3232.41005,0.03768
3230.34988,0.03764
3228.28971,0.03750
3226.22954,0.03743
3224.16936,0.03735
3222.10919,0.03721
3220.04902,0.03702
3217.98885,0.03673
3215.92867,0.03656
3213.86850,0.03661
3211.80833,0.03647
3209.74816,0.03618
3207.68799,0.03603
3205.62781,0.03601
3203.56764,0.03581
3201.50747,0.03548
3199.44730,0.03531
3197.38713,0.03530
3195.32695,0.03526
3193.26678,0.03515
3191.20661,0.03504
3189.14644,0.03492
3187.08626,0.03456
3185.02609,0.03405
3182.96592,0.03380
3180.90575,0.03377
3178.84558,0.03363
3176.78540,0.03328
3174.72523,0.03303
3172.66506,0.03309
3170.60489,0.03319
3168.54472,0.03301
3166.48454,0.03270
3164.42437,0.03252
3162.36420,0.03234
3160.30403,0.03217
3158.24386,0.03203
3156.18368,0.03177
3154.12351,0.03152
3152.06334,0.03135
3150.00317,0.03103
3147.94299,0.03059
3145.88282,0.03022
3143.82265,0.02986
3141.76248,0.02957
3139.70231,0.02958
3137.64213,0.02968
3135.58196,0.02948
3133.52179,0.02923
3131.46162,0.02909
3129.40145,0.02901
3127.34127,0.02899
3125.28110,0.02889
3123.22093,0.02869
3121.16076,0.02844
3119.10058,0.02824
3117.04041,0.02806
3114.98024,0.02778
3112.92007,0.02750
3110.85990,0.02718
3108.79972,0.02689
3106.73955,0.02677
3104.67938,0.02662
3102.61921,0.02626
3100.55904,0.02570
3098.49886,0.02521
3096.43869,0.02519
3094.37852,0.02538
3092.31835,0.02537
3090.25818,0.02527
3088.19800,0.02524
3086.13783,0.02522
3084.07766,0.02511
3082.01749,0.02494
3079.95731,0.02458
3077.89714,0.02407
3075.83697,0.02372
3073.77680,0.02361
3071.71663,0.02355
3069.65645,0.02346
3067.59628,0.02338
3065.53611,0.02316
3063.47594,0.02283
3061.41577,0.02261
3059.35559,0.02249
3057.29542,0.02234
3055.23525,0.02207
3053.17508,0.02176
3051.11491,0.02151
3049.05473,0.02124
3046.99456,0.02103
3044.93439,0.02101
3042.87422,0.02109
3040.81404,0.02102
3038.75387,0.02075
3036.69370,0.02042
3034.63353,0.02007
3032.57336,0.01988
3030.51318,0.01990
3028.45301,0.01982
3026.39284,0.01961
3024.33267,0.01940
3022.27250,0.01911
3020.21232,0.01880
3018.15215,0.01866
3016.09198,0.01868
3014.03181,0.01876
3011.97163,0.01880
3009.91146,0.01862
3007.85129,0.01838
3005.79112,0.01819
3003.73095,0.01800
3001.67077,0.01791
2999.61060,0.01791
2997.55043,0.01780
2995.49026,0.01762
2993.43009,0.01763
2991.36991,0.01770
2989.30974,0.01757
2987.24957,0.01763
2985.18940,0.01794
2983.12923,0.01816
2981.06905,0.01837
2979.00888,0.01862
2976.94871,0.01880
2974.88854,0.01907
2972.82836,0.01957
2970.76819,0.02031
2968.70802,0.02119
2966.64785,0.02209
2964.58768,0.02302
2962.52750,0.02403
2960.46733,0.02500
2958.40716,0.02609
2956.34699,0.02748
2954.28682,0.02885
2952.22664,0.02999
2950.16647,0.03112
2948.10630,0.03244
2946.04613,0.03392
2943.98596,0.03550
2941.92578,0.03715
2939.86561,0.03888
2937.80544,0.04069
2935.74527,0.04253
2933.68509,0.04441
2931.62492,0.04619
2929.56475,0.04771
2927.50458,0.04901
2925.44441,0.05011
2923.38423,0.05098
2921.32406,0.05160
2919.26389,0.05170
2917.20372,0.05107
2915.14355,0.04984
2913.08337,0.04817
2911.02320,0.04630
2908.96303,0.04463
2906.90286,0.04323
2904.84268,0.04191
2902.78251,0.04068
2900.72234,0.03954
2898.66217,0.03842
2896.60200,0.03739
2894.54182,0.03648
2892.48165,0.03561
2890.42148,0.03479
2888.36131,0.03403
2886.30114,0.03337
2884.24096,0.03279
2882.18079,0.03219
2880.12062,0.03179
2878.06045,0.03171
2876.00028,0.03175
2873.94010,0.03186
2871.87993,0.03206
2869.81976,0.03239
2867.75959,0.03289
2865.69941,0.03360
2863.63924,0.03463
2861.57907,0.03590
2859.51890,0.03716
2857.45873,0.03841
2855.39855,0.03966
2853.33838,0.04063
2851.27821,0.04098
2849.21804,0.04025
2847.15787,0.03830
2845.09769,0.03573
2843.03752,0.03332
2840.97735,0.03129
2838.91718,0.02963
2836.85700,0.02833
2834.79683,0.02717
2832.73666,0.02619
2830.67649,0.02537
2828.61632,0.02466
2826.55614,0.02411
2824.49597,0.02364
2822.43580,0.02305
2820.37563,0.02240
2818.31546,0.02206
2816.25528,0.02195
2814.19511,0.02172
2812.13494,0.02138
2810.07477,0.02100
2808.01460,0.02068
2805.95442,0.02053
2803.89425,0.02035
2801.83408,0.02008
2799.77391,0.01988
2797.71373,0.01972
2795.65356,0.01941
2793.59339,0.01910
2791.53322,0.01900
2789.47305,0.01886
2787.41287,0.01859
2785.35270,0.01845
2783.29253,0.01837
2781.23236,0.01823
2779.17219,0.01807
2777.11201,0.01787
2775.05184,0.01769
2772.99167,0.01760
2770.93150,0.01754
2768.87133,0.01747
2766.81115,0.01741
2764.75098,0.01727
2762.69081,0.01706
2760.63064,0.01695
2758.57046,0.01704
2756.51029,0.01715
2754.45012,0.01715
2752.38995,0.01705
2750.32978,0.01695
2748.26960,0.01690
2746.20943,0.01685
2744.14926,0.01673
2742.08909,0.01663
2740.02892,0.01659
2737.96874,0.01655
2735.90857,0.01648
2733.84840,0.01639
2731.78823,0.01628
2729.72805,0.01631
2727.66788,0.01633
2725.60771,0.01626
2723.54754,0.01629
2721.48737,0.01639
2719.42719,0.01638
2717.36702,0.01623
2715.30685,0.01600
2713.24668,0.01593
2711.18651,0.01603
2709.12633,0.01605
2707.06616,0.01588
2705.00599,0.01569
2702.94582,0.01572
2700.88565,0.01578
2698.82547,0.01557
2696.76530,0.01541
2694.70513,0.01558
2692.64496,0.01578
2690.58478,0.01567
2688.52461,0.01547
2686.46444,0.01552
2684.40427,0.01558
2682.34410,0.01541
2680.28392,0.01534
2678.22375,0.01548
2676.16358,0.01549
2674.10341,0.01532
2672.04324,0.01516
2669.98306,0.01511
2667.92289,0.01506
2665.86272,0.01486
2663.80255,0.01468
2661.74238,0.01464
2659.68220,0.01460
2657.62203,0.01459
2655.56186,0.01458
2653.50169,0.01441
2651.44151,0.01432
2649.38134,0.01441
2647.32117,0.01443
2645.26100,0.01436
2643.20083,0.01418
2641.14065,0.01397
2639.08048,0.01379
2637.02031,0.01354
2634.96014,0.01338
2632.89997,0.01349
2630.83979,0.01359
2628.77962,0.01345
2626.71945,0.01337
2624.65928,0.01339
2622.59910,0.01336
2620.53893,0.01325
2618.47876,0.01305
2616.41859,0.01291
2614.35842,0.01291
2612.29824,0.01289
2610.23807,0.01285
2608.17790,0.01281
2606.11773,0.01270
2604.05756,0.01259
2601.99738,0.01250
2599.93721,0.01240
2597.87704,0.01224
2595.81687,0.01209
2593.75670,0.01207
2591.69652,0.01213
2589.63635,0.01212
2587.57618,0.01200
2585.51601,0.01177
2583.45583,0.01153
2581.39566,0.01143
2579.33549,0.01148
2577.27532,0.01149
2575.21515,0.01145
2573.15497,0.01148
2571.09480,0.01143
2569.03463,0.01122
2566.97446,0.01110
2564.91429,0.01103
2562.85411,0.01098
2560.79394,0.01122
2558.73377,0.01138
2556.67360,0.01107
2554.61342,0.01066
2552.55325,0.01042
2550.49308,0.01053
2548.43291,0.01085
2546.37274,0.01093
2544.31256,0.01075
2542.25239,0.01053
2540.19222,0.01025
2538.13205,0.00995
2536.07188,0.01001
2534.01170,0.01033
2531.95153,0.01032
2529.89136,0.01005
2527.83119,0.00997
2525.77102,0.01007
2523.71084,0.01016
2521.65067,0.01009
2519.59050,0.00985
2517.53033,0.00978
2515.47015,0.00997
2513.40998,0.01020
2511.34981,0.01024
2509.28964,0.01009
2507.22947,0.01000
2505.16929,0.00991
2503.10912,0.00978
2501.04895,0.00975
2498.98878,0.00977
2496.92861,0.00971
2494.86843,0.00943
2492.80826,0.00897
2490.74809,0.00872
2488.68792,0.00872
2486.62775,0.00874
2484.56757,0.00881
2482.50740,0.00879
2480.44723,0.00870
2478.38706,0.00895
2476.32688,0.00937
2474.26671,0.00938
2472.20654,0.00908
2470.14637,0.00887
2468.08620,0.00897
2466.02602,0.00929
2463.96585,0.00938
2461.90568,0.00906
2459.84551,0.00894
2457.78534,0.00926
2455.72516,0.00949
2453.66499,0.00924
2451.60482,0.00881
2449.54465,0.00866
2447.48447,0.00869
2445.42430,0.00883
2443.36413,0.00888
2441.30396,0.00849
2439.24379,0.00811
2437.18361,0.00829
2435.12344,0.00863
2433.06327,0.00861
2431.00310,0.00833
2428.94293,0.00826
2426.88275,0.00850
2424.82258,0.00862
2422.76241,0.00841
2420.70224,0.00796
2418.64207,0.00751
2416.58189,0.00739
2414.52172,0.00748
2412.46155,0.00752
2410.40138,0.00754
2408.34120,0.00756
2406.28103,0.00755
2404.22086,0.00754
2402.16069,0.00753
2400.10052,0.00746
2398.04034,0.00741
2395.98017,0.00745
2393.92000,0.00750
2391.85983,0.00752
2389.79966,0.00746
2387.73948,0.00734
2385.67931,0.00732
2383.61914,0.00732
2381.55897,0.00731
2379.49880,0.00729
2377.43862,0.00722
2375.37845,0.00726
2373.31828,0.00709
2371.25811,0.00656
2369.19793,0.00617
2367.13776,0.00540
2365.07759,0.00413
2363.01742,0.00404
2360.95725,0.00362
2358.89707,0.00244
2356.83690,0.00210
2354.77673,0.00409
2352.71656,0.00675
2350.65639,0.00649
2348.59621,0.00498
2346.53604,0.00590
2344.47587,0.00733
2342.41570,0.00828
2340.35552,0.00738
2338.29535,0.00648
2336.23518,0.00651
2334.17501,0.00582
2332.11484,0.00548
2330.05466,0.00632
2327.99449,0.00737
2325.93432,0.00757
2323.87415,0.00809
2321.81398,0.00904
2319.75380,0.00951
2317.69363,0.00879
2315.63346,0.00810
2313.57329,0.00776
2311.51312,0.00737
2309.45294,0.00688
2307.39277,0.00656
2305.33260,0.00639
2303.27243,0.00626
2301.21225,0.00637
2299.15208,0.00668
2297.09191,0.00704
2295.03174,0.00729
2292.97157,0.00744
2290.91139,0.00753
2288.85122,0.00755
2286.79105,0.00745
2284.73088,0.00715
2282.67071,0.00669
2280.61053,0.00636
2278.55036,0.00629
2276.49019,0.00620
2274.43002,0.00603
2272.36984,0.00607
2270.30967,0.00612
2268.24950,0.00581
2266.18933,0.00515
2264.12916,0.00459
2262.06898,0.00444
2260.00881,0.00468
2257.94864,0.00509
2255.88847,0.00550
2253.82830,0.00569
2251.76812,0.00557
2249.70795,0.00534
2247.64778,0.00548
2245.58761,0.00605
2243.52744,0.00651
2241.46726,0.00637
2239.40709,0.00561
2237.34692,0.00513
2235.28675,0.00542
2233.22657,0.00568
2231.16640,0.00532
2229.10623,0.00507
2227.04606,0.00520
2224.98589,0.00508
2222.92571,0.00500
2220.86554,0.00532
2218.80537,0.00565
2216.74520,0.00556
2214.68503,0.00504
2212.62485,0.00477
2210.56468,0.00494
2208.50451,0.00476
2206.44434,0.00423
2204.38417,0.00419
2202.32399,0.00431
2200.26382,0.00400
2198.20365,0.00353
2196.14348,0.00298
2194.08330,0.00286
2192.02313,0.00357
2189.96296,0.00418
2187.90279,0.00366
2185.84262,0.00253
2183.78244,0.00186
2181.72227,0.00173
2179.66210,0.00212
2177.60193,0.00286
2175.54176,0.00396
2173.48158,0.00532
2171.42141,0.00583
2169.36124,0.00484
2167.30107,0.00297
2165.24089,0.00165
2163.18072,0.00139
2161.12055,0.00156
2159.06038,0.00183
2157.00021,0.00207
2154.94003,0.00222
2152.87986,0.00263
2150.81969,0.00394
2148.75952,0.00501
2146.69935,0.00416
2144.63917,0.00253
2142.57900,0.00142
2140.51883,0.00071
2138.45866,0.00094
2136.39849,0.00200
2134.33831,0.00308
2132.27814,0.00383
2130.21797,0.00413
2128.15780,0.00421
2126.09762,0.00416
2124.03745,0.00400
2121.97728,0.00395
2119.91711,0.00377
2117.85694,0.00360
2115.79676,0.00397
2113.73659,0.00432
2111.67642,0.00406
2109.61625,0.00371
2107.55608,0.00383
2105.49590,0.00423
2103.43573,0.00478
2101.37556,0.00537
2099.31539,0.00510
2097.25521,0.00422
2095.19504,0.00387
2093.13487,0.00395
2091.07470,0.00413
2089.01453,0.00438
2086.95435,0.00429
2084.89418,0.00405
2082.83401,0.00408
2080.77384,0.00388
2078.71367,0.00337
2076.65349,0.00338
2074.59332,0.00376
2072.53315,0.00326
2070.47298,0.00184
2068.41281,0.00100
2066.35263,0.00174
2064.29246,0.00310
2062.23229,0.00375
2060.17212,0.00387
2058.11194,0.00382
2056.05177,0.00361
2053.99160,0.00332
2051.93143,0.00335
2049.87126,0.00394
2047.81108,0.00414
2045.75091,0.00316
2043.69074,0.00210
2041.63057,0.00227
2039.57040,0.00315
2037.51022,0.00380
2035.45005,0.00413
2033.38988,0.00425
2031.32971,0.00359
2029.26954,0.00193
2027.20936,0.00079
2025.14919,0.00123
2023.08902,0.00217
2021.02885,0.00210
2018.96867,0.00104
2016.90850,0.00063
2014.84833,0.00130
2012.78816,0.00183
2010.72799,0.00121
2008.66781,0.00000
2006.60764,0.00003
2004.54747,0.00134
2002.48730,0.00218
2000.42713,0.00223
1998.36695,0.00212
1996.30678,0.00162
1994.24661,0.00069
1992.18644,0.00018
1990.12626,0.00070
1988.06609,0.00208
1986.00592,0.00311
1983.94575,0.00309
1981.88558,0.00212
1979.82540,0.00133
1977.76523,0.00173
1975.70506,0.00238
1973.64489,0.00234
1971.58472,0.00201
1969.52454,0.00195
1967.46437,0.00152
1965.40420,0.00028
1963.34403,0.00001
1961.28386,0.00136
1959.22368,0.00267
1957.16351,0.00304
1955.10334,0.00273
1953.04317,0.00214
1950.98299,0.00184
1948.92282,0.00176
1946.86265,0.00121
1944.80248,0.00085
1942.74231,0.00172
1940.68213,0.00246
1938.62196,0.00236
1936.56179,0.00207
1934.50162,0.00211
1932.44145,0.00238
1930.38127,0.00255
1928.32110,0.00254
1926.26093,0.00227
1924.20076,0.00200
1922.14059,0.00143
1920.08041,0.00124
1918.02024,0.00200
1915.96007,0.00214
1913.89990,0.00184
1911.83972,0.00184
1909.77955,0.00215
1907.71938,0.00241
1905.65921,0.00258
1903.59904,0.00258
1901.53886,0.00210
1899.47869,0.00143
1897.41852,0.00114
1895.35835,0.00119
1893.29818,0.00118
1891.23800,0.00163
1889.17783,0.00195
1887.11766,0.00141
1885.05749,0.00129
1882.99731,0.00166
1880.93714,0.00190
1878.87697,0.00188
1876.81680,0.00165
1874.75663,0.00127
1872.69645,0.00097
1870.63628,0.00112
1868.57611,0.00130
1866.51594,0.00114
1864.45577,0.00142
1862.39559,0.00191
1860.33542,0.00180
1858.27525,0.00120
1856.21508,0.00078
1854.15491,0.00091
1852.09473,0.00126
1850.03456,0.00129
1847.97439,0.00095
1845.91422,0.00112
1843.85404,0.00159
1841.79387,0.00113
1839.73370,0.00103
1837.67353,0.00145
1835.61336,0.00133
1833.55318,0.00088
1831.49301,0.00102
1829.43284,0.00097
1827.37267,0.00063
1825.31250,0.00123
1823.25232,0.00152
1821.19215,0.00119
1819.13198,0.00104
1817.07181,0.00106
1815.01163,0.00103
1812.95146,0.00119
1810.89129,0.00135
1808.83112,0.00106
1806.77095,0.00074
1804.71077,0.00073
1802.65060,0.00113
1800.59043,0.00139
1798.53026,0.00089
1796.47009,0.00029
1794.40991,0.00055
1792.34974,0.00120
1790.28957,0.00061
1788.22940,0.00000
1786.16923,0.00036
1784.10905,0.00062
1782.04888,0.00065
1779.98871,0.00058
1777.92854,0.00014
1775.86836,0.00000
1773.80819,0.00064
1771.74802,0.00109
1769.68785,0.00068
1767.62768,0.00057
1765.56750,0.00066
1763.50733,0.00164
1761.44716,0.00277
1759.38699,0.00333
1757.32682,0.00448
1755.26664,0.00519
1753.20647,0.00610
1751.14630,0.00800
1749.08613,0.00945
1747.02596,0.01027
1744.96578,0.01106
1742.90561,0.01197
1740.84544,0.01279
1738.78527,0.01248
1736.72509,0.01236
1734.66492,0.01405
1732.60475,0.01380
1730.54458,0.01264
1728.48441,0.01264
1726.42423,0.01305
1724.36406,0.01338
1722.30389,0.01304
1720.24372,0.01336
1718.18355,0.01458
1716.12337,0.01414
1714.06320,0.01317
1712.00303,0.01294
1709.94286,0.01307
1707.88268,0.01332
1705.82251,0.01315
1703.76234,0.01219
1701.70217,0.01294
1699.64200,0.01365
1697.58182,0.01322
1695.52165,0.01386
1693.46148,0.01353
1691.40131,0.01389
1689.34114,0.01466
1687.28096,0.01565
1685.22079,0.01884
1683.16062,0.02093
1681.10045,0.02105
1679.04028,0.02215
1676.98010,0.02428
1674.91993,0.02557
1672.85976,0.02524
1670.79959,0.02587
1668.73941,0.02576
1666.67924,0.02418
1664.61907,0.02417
1662.55890,0.02462
1660.49873,0.02317
1658.43855,0.02154
1656.37838,0.02166
1654.31821,0.02354
1652.25804,0.02209
1650.19787,0.01908
1648.13769,0.02059
1646.07752,0.02241
1644.01735,0.02167
1641.95718,0.02129
1639.89701,0.02168
1637.83683,0.02334
1635.77666,0.02546
1633.71649,0.02484
1631.65632,0.02423
1629.59614,0.02531
1627.53597,0.02595
1625.47580,0.02609
1623.41563,0.02641
1621.35546,0.02561
1619.29528,0.02589
1617.23511,0.02789
1615.17494,0.02808
1613.11477,0.02782
1611.05460,0.02915
1608.99442,0.03088
1606.93425,0.03196
1604.87408,0.03247
1602.81391,0.03239
1600.75373,0.03138
1598.69356,0.02983
1596.63339,0.02841
1594.57322,0.02726
1592.51305,0.02636
1590.45287,0.02577
1588.39270,0.02518
1586.33253,0.02441
1584.27236,0.02350
1582.21219,0.02231
1580.15201,0.02117
1578.09184,0.02134
1576.03167,0.02133
1573.97150,0.01913
1571.91133,0.01857
1569.85115,0.01953
1567.79098,0.01835
1565.73081,0.01657
1563.67064,0.01508
1561.61046,0.01544
1559.55029,0.01748
1557.49012,0.01457
1555.42995,0.01150
1553.36978,0.01104
1551.30960,0.01112
1549.24943,0.01062
1547.18926,0.00950
1545.12909,0.00897
1543.06892,0.00871
1541.00874,0.00897
1538.94857,0.00755
1536.88840,0.00518
1534.82823,0.00594
1532.76805,0.00686
1530.70788,0.00566
1528.64771,0.00517
1526.58754,0.00489
1524.52737,0.00447
1522.46719,0.00578
1520.40702,0.00697
1518.34685,0.00792
1516.28668,0.00941
1514.22651,0.00928
1512.16633,0.00815
1510.10616,0.00750
1508.04599,0.00850
1505.98582,0.00750
1503.92565,0.00397
1501.86547,0.00257
1499.80530,0.00299
1497.74513,0.00313
1495.68496,0.00186
1493.62478,0.00043
1491.56461,0.00095
1489.50444,0.00162
1487.44427,0.00074
1485.38410,0.00000
1483.32392,0.00035
1481.26375,0.00094
1479.20358,0.00100
1477.14341,0.00141
1475.08324,0.00282
1473.02306,0.00522
1470.96289,0.00659
1468.90272,0.00750
1466.84255,0.00997
1464.78238,0.01219
1462.72220,0.01206
1460.66203,0.01228
1458.60186,0.01479
1456.54169,0.01645
1454.48151,0.01558
1452.42134,0.01562
1450.36117,0.01694
1448.30100,0.01840
1446.24083,0.01910
1444.18065,0.01952
1442.12048,0.02000
1440.06031,0.02051
1438.00014,0.02193
1435.93997,0.02258
1433.87979,0.02174
1431.81962,0.02201
1429.75945,0.02267
1427.69928,0.02243
1425.63910,0.02240
1423.57893,0.02238
1421.51876,0.02258
1419.45859,0.02364
1417.39842,0.02340
1415.33824,0.02260
1413.27807,0.02250
1411.21790,0.02240
1409.15773,0.02196
1407.09756,0.02169
1405.03738,0.02124
1402.97721,0.01995
1400.91704,0.01910
1398.85687,0.01871
1396.79670,0.01811
1394.73652,0.01774
1392.67635,0.01707
1390.61618,0.01686
1388.55601,0.01763
1386.49583,0.01810
1384.43566,0.01819
1382.37549,0.01878
1380.31532,0.01953
1378.25515,0.02008
1376.19497,0.02074
1374.13480,0.02127
1372.07463,0.02109
1370.01446,0.02103
1367.95429,0.02093
1365.89411,0.02053
1363.83394,0.02055
1361.77377,0.02025
1359.71360,0.01945
1357.65343,0.01908
1355.59325,0.01909
1353.53308,0.01911
1351.47291,0.01913
1349.41274,0.01917
1347.35256,0.01909
1345.29239,0.01887
1343.23222,0.01861
1341.17205,0.01870
1339.11188,0.01879
1337.05170,0.01848
1334.99153,0.01832
1332.93136,0.01853
1330.87119,0.01888
1328.81102,0.01914
1326.75084,0.01927
1324.69067,0.01919
1322.63050,0.01895
1320.57033,0.01885
1318.51015,0.01877
1316.44998,0.01854
1314.38981,0.01851
1312.32964,0.01850
1310.26947,0.01829
1308.20929,0.01800
1306.14912,0.01749
1304.08895,0.01685
1302.02878,0.01623
1299.96861,0.01564
1297.90843,0.01519
1295.84826,0.01503
1293.78809,0.01508
1291.72792,0.01521
1289.66775,0.01537
1287.60757,0.01557
1285.54740,0.01572
1283.48723,0.01594
1281.42706,0.01621
1279.36688,0.01629
1277.30671,0.01626
1275.24654,0.01635
1273.18637,0.01660
1271.12620,0.01700
1269.06602,0.01751
1267.00585,0.01808
1264.94568,0.01873
1262.88551,0.01941
1260.82534,0.02010
1258.76516,0.02066
1256.70499,0.02121
1254.64482,0.02181
1252.58465,0.02220
1250.52447,0.02246
1248.46430,0.02271
1246.40413,0.02289
1244.34396,0.02305
1242.28379,0.02320
1240.22361,0.02324
1238.16344,0.02311
1236.10327,0.02281
1234.04310,0.02243
1231.98293,0.02199
1229.92275,0.02132
1227.86258,0.02049
1225.80241,0.01959
1223.74224,0.01858
1221.68207,0.01755
1219.62189,0.01653
1217.56172,0.01540
1215.50155,0.01424
1213.44138,0.01314
1211.38120,0.01208
1209.32103,0.01103
1207.26086,0.00989
1205.20069,0.00870
1203.14052,0.00761
1201.08034,0.00655
1199.02017,0.00531
1196.96000,0.00396
1194.89983,0.00273
1192.83966,0.00176
1190.77948,0.00113
1188.71931,0.00064
1186.65914,0.00017
1184.59897,0.00000
1182.53880,0.00013
1180.47862,0.00055
1178.41845,0.00134
1176.35828,0.00250
1174.29811,0.00403
1172.23793,0.00590
1170.17776,0.00789
1168.11759,0.00967
1166.05742,0.01090
1163.99725,0.01157
1161.93707,0.01191
1159.87690,0.01218
1157.81673,0.01258
1155.75656,0.01312
1153.69639,0.01372
1151.63621,0.01444
1149.57604,0.01538
1147.51587,0.01649
1145.45570,0.01758
1143.39552,0.01849
1141.33535,0.01917
1139.27518,0.01963
1137.21501,0.02002
1135.15484,0.02049
1133.09466,0.02109
1131.03449,0.02193
1128.97432,0.02308
1126.91415,0.02416
1124.85398,0.02512
1122.79380,0.02638
1120.73363,0.02771
1118.67346,0.02870
1116.61329,0.02942
1114.55312,0.03017
1112.49294,0.03117
1110.43277,0.03225
1108.37260,0.03329
1106.31243,0.03437
1104.25225,0.03551
1102.19208,0.03660
1100.13191,0.03768
1098.07174,0.03918
1096.01157,0.04116
1093.95139,0.04311
1091.89122,0.04473
1089.83105,0.04623
1087.77088,0.04780
1085.71071,0.04934
1083.65053,0.05080
1081.59036,0.05227
1079.53019,0.05405
1077.47002,0.05620
1075.40985,0.05827
1073.34967,0.06000
1071.28950,0.06167
1069.22933,0.06321
1067.16916,0.06441
1065.10898,0.06554
1063.04881,0.06669
1060.98864,0.06784
1058.92847,0.06911
1056.86830,0.07053
1054.80812,0.07215
1052.74795,0.07391
1050.68778,0.07563
1048.62761,0.07756
1046.56744,0.07985
1044.50726,0.08209
1042.44709,0.08399
1040.38692,0.08565
1038.32675,0.08715
1036.26657,0.08842
1034.20640,0.08949
1032.14623,0.09024
1030.08606,0.09044
1028.02589,0.09008
1025.96571,0.08955
1023.90554,0.08899
1021.84537,0.08844
1019.78520,0.08822
1017.72503,0.08833
1015.66485,0.08843
1013.60468,0.08830
1011.54451,0.08813
1009.48434,0.08827
1007.42417,0.08856
1005.36399,0.08851
1003.30382,0.08803
1001.24365,0.08730
999.18348,0.08639
997.12330,0.08535
995.06313,0.08408
993.00296,0.08260
990.94279,0.08108
988.88262,0.07966
986.82244,0.07833
984.76227,0.07708
982.70210,0.07593
980.64193,0.07474
978.58176,0.07342
976.52158,0.07196
974.46141,0.07055
972.40124,0.06940
970.34107,0.06815
968.28089,0.06659
966.22072,0.06510
964.16055,0.06369
962.10038,0.06219
960.04021,0.06061
957.98003,0.05903
955.91986,0.05769
953.85969,0.05676
951.79952,0.05592
949.73935,0.05471
947.67917,0.05332
945.61900,0.05211
943.55883,0.05077
941.49866,0.04887
939.43849,0.04618
937.37831,0.04295
935.31814,0.03991
933.25797,0.03719
931.19780,0.03464
929.13762,0.03240
927.07745,0.03049
925.01728,0.02871
922.95711,0.02691
920.89694,0.02536
918.83676,0.02413
916.77659,0.02274
914.71642,0.02116
912.65625,0.01963
910.59608,0.01829
908.53590,0.01727
906.47573,0.01638
904.41556,0.01573
902.35539,0.01540
900.29522,0.01521
898.23504,0.01536
896.17487,0.01577
894.11470,0.01599
892.05453,0.01584
889.99435,0.01541
887.93418,0.01484
885.87401,0.01434
883.81384,0.01375
881.75367,0.01288
879.69349,0.01180
877.63332,0.01072
875.57315,0.00969
873.51298,0.00879
871.45281,0.00823
869.39263,0.00780
867.33246,0.00749
865.27229,0.00748
863.21212,0.00756
861.15194,0.00751
859.09177,0.00725
857.03160,0.00688
854.97143,0.00671
852.91126,0.00685
850.85108,0.00706
848.79091,0.00721
846.73074,0.00714
844.67057,0.00656
842.61040,0.00591
840.55022,0.00580
838.49005,0.00583
836.42988,0.00576
834.36971,0.00567
832.30954,0.00541
830.24936,0.00495
828.18919,0.00463
826.12902,0.00450
824.06885,0.00401
822.00867,0.00335
819.94850,0.00328
817.88833,0.00341
815.82816,0.00324
813.76799,0.00334
811.70781,0.00342
809.64764,0.00299
807.58747,0.00256
805.52730,0.00237
803.46713,0.00230
801.40695,0.00236
799.34678,0.00232
797.28661,0.00176
795.22644,0.00095
793.16627,0.00048
791.10609,0.00033
789.04592,0.00019
786.98575,0.00000
784.92558,0.00011
782.86540,0.00081
780.80523,0.00156
778.74506,0.00181
776.68489,0.00147
774.62472,0.00086
772.56454,0.00054
770.50437,0.00076
768.44420,0.00101
766.38403,0.00088
764.32386,0.00052
762.26368,0.00045
760.20351,0.00091
758.14334,0.00117
756.08317,0.00075
754.02299,0.00024
751.96282,0.00000
749.90265,-0.00022
747.84248,-0.00038
745.78231,-0.00072
743.72213,-0.00125
741.66196,-0.00179
739.60179,-0.00166
737.54162,-0.00067
735.48145,-0.00012
733.42127,-0.00051
731.36110,-0.00082
729.30093,-0.00053
727.24076,0.00008
725.18059,0.00067
723.12041,0.00135
721.06024,0.00206
719.00007,0.00204
716.93990,0.00204
714.87972,0.00255
712.81955,0.00294
710.75938,0.00296
708.69921,0.00303
706.63904,0.00351
704.57886,0.00447
702.51869,0.00582
700.45852,0.00690
698.39835,0.00681
696.33818,0.00570
694.27800,0.00447
692.21783,0.00397
690.15766,0.00438
688.09749,0.00479
686.03731,0.00416
683.97714,0.00243
681.91697,0.00060
679.85680,0.00000
677.79663,0.00088
675.73645,0.00240
673.67628,0.00296
671.61611,0.00240
669.55594,0.00399
667.49577,0.00509
665.43559,0.00168
663.37542,0.00196
661.31525,0.00305
659.25508,0.00347
657.19491,0.00350
655.13473,0.00360
653.07456,0.00439
651.01439,0.00562
648.95422,0.00595
646.89404,0.00484
644.83387,0.00372
642.77370,0.00274
640.71353,0.00163
638.65336,0.00155
636.59318,0.00308
634.53301,0.00494
632.47284,0.00617
630.41267,0.00656
628.35250,0.00607
626.29232,0.00601
624.23215,0.00684
622.17198,0.00636
620.11181,0.00595
618.05164,0.00618
615.99146,0.00612
613.93129,0.00538
611.87112,0.00455
609.81095,0.00478
607.75077,0.00429
605.69060,0.00282
603.63043,0.00203
601.57026,0.00123
599.51009,0.00000
