3996.73391,0.00133
3994.67373,0.00112
3992.61356,0.00103
3990.55339,0.00096
3988.49322,0.00084
3986.43305,0.00068
3984.37287,0.00046
3982.31270,0.00020
3980.25253,0.00000
3978.19236,0.00005
3976.13219,0.00051
3974.07201,0.00116
3972.01184,0.00143
3969.95167,0.00121
3967.89150,0.00077
3965.83133,0.00057
3963.77115,0.00084
3961.71098,0.00137
3959.65081,0.00175
3957.59064,0.00177
3955.53046,0.00151
3953.47029,0.00119
3951.41012,0.00104
3949.34995,0.00113
3947.28978,0.00124
3945.22960,0.00130
3943.16943,0.00146
3941.10926,0.00159
3939.04909,0.00156
3936.98892,0.00135
3934.92874,0.00088
3932.86857,0.00045
3930.80840,0.00044
3928.74823,0.00060
3926.68805,0.00057
3924.62788,0.00054
3922.56771,0.00070
3920.50754,0.00090
3918.44737,0.00110
3916.38719,0.00133
3914.32702,0.00143
3912.26685,0.00131
3910.20668,0.00099
3908.14651,0.00053
3906.08633,0.00026
3904.02616,0.00046
3901.96599,0.00088
3899.90582,0.00122
3897.84565,0.00141
3895.78547,0.00136
3893.72530,0.00105
3891.66513,0.00066
3889.60496,0.00053
3887.54478,0.00075
3885.48461,0.00100
3883.42444,0.00102
3881.36427,0.00104
3879.30410,0.00118
3877.24392,0.00116
3875.18375,0.00102
3873.12358,0.00095
3871.06341,0.00094
3869.00324,0.00102
3866.94306,0.00115
3864.88289,0.00121
3862.82272,0.00129
3860.76255,0.00149
3858.70237,0.00156
3856.64220,0.00115
3854.58203,0.00044
3852.52186,0.00046
3850.46169,0.00111
3848.40151,0.00118
3846.34134,0.00074
3844.28117,0.00045
3842.22100,0.00067
3840.16083,0.00127
3838.10065,0.00156
3836.04048,0.00134
3833.98031,0.00123
3831.92014,0.00139
3829.85997,0.00163
3827.79979,0.00184
3825.73962,0.00182
3823.67945,0.00176
3821.61928,0.00218
3819.55910,0.00265
3817.49893,0.00248
3815.43876,0.00213
3813.37859,0.00195
3811.31842,0.00178
3809.25824,0.00154
3807.19807,0.00126
3805.13790,0.00103
3803.07773,0.00081
3801.01756,0.00075
3798.95738,0.00093
3796.89721,0.00110
3794.83704,0.00119
3792.77687,0.00121
3790.71670,0.00115
3788.65652,0.00115
3786.59635,0.00136
3784.53618,0.00176
3782.47601,0.00203
3780.41583,0.00185
3778.35566,0.00134
3776.29549,0.00100
3774.23532,0.00084
3772.17515,0.00059
3770.11497,0.00027
3768.05480,0.00016
3765.99463,0.00041
3763.93446,0.00087
3761.87429,0.00133
3759.81411,0.00168
3757.75394,0.00179
3755.69377,0.00155
3753.63360,0.00091
3751.57342,0.00043
3749.51325,0.00077
3747.45308,0.00112
3745.39291,0.00081
3743.33274,0.00062
3741.27256,0.00097
3739.21239,0.00122
3737.15222,0.00119
3735.09205,0.00134
3733.03188,0.00193
3730.97170,0.00261
3728.91153,0.00315
3726.85136,0.00321
3724.79119,0.00247
3722.73102,0.00153
3720.67084,0.00119
3718.61067,0.00131
3716.55050,0.00130
3714.49033,0.00117
3712.43015,0.00152
3710.36998,0.00223
3708.30981,0.00250
3706.24964,0.00221
3704.18947,0.00185
3702.12929,0.00179
3700.06912,0.00180
3698.00895,0.00149
3695.94878,0.00106
3693.88861,0.00083
3691.82843,0.00063
3689.76826,0.00024
3687.70809,0.00000
3685.64792,0.00037
3683.58775,0.00102
3681.52757,0.00170
3679.46740,0.00222
3677.40723,0.00239
3675.34706,0.00236
3673.28688,0.00213
3671.22671,0.00167
3669.16654,0.00145
3667.10637,0.00164
3665.04620,0.00198
3662.98602,0.00224
3660.92585,0.00238
3658.86568,0.00244
3656.80551,0.00230
3654.74534,0.00206
3652.68516,0.00208
3650.62499,0.00248
3648.56482,0.00293
3646.50465,0.00300
3644.44447,0.00284
3642.38430,0.00279
3640.32413,0.00287
3638.26396,0.00276
3636.20379,0.00255
3634.14361,0.00271
3632.08344,0.00321
3630.02327,0.00380
3627.96310,0.00420
3625.90293,0.00415
3623.84275,0.00377
3621.78258,0.00321
3619.72241,0.00280
3617.66224,0.00290
3615.60207,0.00335
3613.54189,0.00379
3611.48172,0.00411
3609.42155,0.00439
3607.36138,0.00475
3605.30120,0.00507
3603.24103,0.00514
3601.18086,0.00518
3599.12069,0.00551
3597.06052,0.00605
3595.00034,0.00654
3592.94017,0.00683
3590.88000,0.00665
3588.81983,0.00625
3586.75966,0.00635
3584.69948,0.00697
3582.63931,0.00739
3580.57914,0.00748
3578.51897,0.00764
3576.45879,0.00796
3574.39862,0.00825
3572.33845,0.00843
3570.27828,0.00859
3568.21811,0.00869
3566.15793,0.00882
3564.09776,0.00900
3562.03759,0.00913
3559.97742,0.00943
3557.91725,0.01003
3555.85707,0.01061
3553.79690,0.01096
3551.73673,0.01126
3549.67656,0.01160
3547.61639,0.01196
3545.55621,0.01236
3543.49604,0.01261
3541.43587,0.01263
3539.37570,0.01256
3537.31552,0.01260
3535.25535,0.01297
3533.19518,0.01364
3531.13501,0.01432
3529.07484,0.01479
3527.01466,0.01497
3524.95449,0.01503
3522.89432,0.01525
3520.83415,0.01561
3518.77398,0.01594
3516.71380,0.01625
3514.65363,0.01664
3512.59346,0.01714
3510.53329,0.01788
3508.47312,0.01876
3506.41294,0.01931
3504.35277,0.01938
3502.29260,0.01934
3500.23243,0.01939
3498.17225,0.01943
3496.11208,0.01958
3494.05191,0.01998
3491.99174,0.02033
3489.93157,0.02054
3487.87139,0.02090
3485.81122,0.02141
3483.75105,0.02174
3481.69088,0.02185
3479.63071,0.02214
3477.57053,0.02271
3475.51036,0.02323
3473.45019,0.02357
3471.39002,0.02389
3469.32984,0.02425
3467.26967,0.02446
3465.20950,0.02453
3463.14933,0.02473
3461.08916,0.02500
3459.02898,0.02521
3456.96881,0.02542
3454.90864,0.02560
3452.84847,0.02598
3450.78830,0.02667
3448.72812,0.02716
3446.66795,0.02735
3444.60778,0.02762
3442.54761,0.02782
3440.48744,0.02798
3438.42726,0.02843
3436.36709,0.02901
3434.30692,0.02934
3432.24675,0.02952
3430.18657,0.02966
3428.12640,0.02973
3426.06623,0.02980
3424.00606,0.02980
3421.94589,0.02981
3419.88571,0.03015
3417.82554,0.03067
3415.76537,0.03101
3413.70520,0.03108
3411.64503,0.03132
3409.58485,0.03211
3407.52468,0.03291
3405.46451,0.03320
3403.40434,0.03328
3401.34416,0.03327
3399.28399,0.03308
3397.22382,0.03317
3395.16365,0.03366
3393.10348,0.03404
3391.04330,0.03415
3388.98313,0.03426
3386.92296,0.03445
3384.86279,0.03461
3382.80262,0.03472
3380.74244,0.03473
3378.68227,0.03470
3376.62210,0.03496
3374.56193,0.03539
3372.50176,0.03557
3370.44158,0.03563
3368.38141,0.03593
3366.32124,0.03626
3364.26107,0.03632
3362.20089,0.03639
3360.14072,0.03671
3358.08055,0.03694
3356.02038,0.03699
3353.96021,0.03705
3351.90003,0.03705
3349.83986,0.03696
3347.77969,0.03706
3345.71952,0.03762
3343.65935,0.03811
3341.59917,0.03793
3339.53900,0.03753
3337.47883,0.03753
3335.41866,0.03758
3333.35849,0.03752
3331.29831,0.03760
3329.23814,0.03777
3327.17797,0.03796
3325.11780,0.03809
3323.05762,0.03809
3320.99745,0.03799
3318.93728,0.03776
3316.87711,0.03769
3314.81694,0.03816
3312.75676,0.03881
3310.69659,0.03887
3308.63642,0.03846
3306.57625,0.03826
3304.51608,0.03837
3302.45590,0.03844
3300.39573,0.03831
3298.33556,0.03813
3296.27539,0.03817
3294.21521,0.03849
3292.15504,0.03885
3290.09487,0.03888
3288.03470,0.03867
3285.97453,0.03862
3283.91435,0.03876
3281.85418,0.03871
3279.79401,0.03859
3277.73384,0.03870
3275.67367,0.03875
3273.61349,0.03866
3271.55332,0.03855
3269.49315,0.03856
3267.43298,0.03879
3265.37281,0.03889
3263.31263,0.03863
3261.25246,0.03830
3259.19229,0.03815
3257.13212,0.03806
3255.07194,0.03809
3253.01177,0.03821
3250.95160,0.03812
3248.89143,0.03783
3246.83126,0.03754
3244.77108,0.03736
3242.71091,0.03735
3240.65074,0.03752
3238.59057,0.03758
3236.53040,0.03749
3234.47022,0.03763
3232.41005,0.03796
3230.34988,0.03803
3228.28971,0.03775
3226.22954,0.03727
3224.16936,0.03677
3222.10919,0.03642
3220.04902,0.03634
3217.98885,0.03646
3215.92867,0.03645
3213.86850,0.03624
3211.80833,0.03598
3209.74816,0.03581
3207.68799,0.03570
3205.62781,0.03553
3203.56764,0.03537
3201.50747,0.03530
3199.44730,0.03511
3197.38713,0.03488
3195.32695,0.03480
3193.26678,0.03485
3191.20661,0.03491
3189.14644,0.03473
3187.08626,0.03428
3185.02609,0.03374
3182.96592,0.03327
3180.90575,0.03291
3178.84558,0.03265
3176.78540,0.03266
3174.72523,0.03298
3172.66506,0.03317
3170.60489,0.03294
3168.54472,0.03263
3166.48454,0.03242
3164.42437,0.03222
3162.36420,0.03216
3160.30403,0.03230
3158.24386,0.03227
3156.18368,0.03188
3154.12351,0.03139
3152.06334,0.03104
3150.00317,0.03078
3147.94299,0.03051
3145.88282,0.03023
3143.82265,0.02994
3141.76248,0.02961
3139.70231,0.02931
3137.64213,0.02906
3135.58196,0.02878
3133.52179,0.02867
3131.46162,0.02887
3129.40145,0.02887
3127.34127,0.02852
3125.28110,0.02828
3123.22093,0.02843
3121.16076,0.02866
3119.10058,0.02845
3117.04041,0.02790
3114.98024,0.02741
3112.92007,0.02703
3110.85990,0.02667
3108.79972,0.02643
3106.73955,0.02642
3104.67938,0.02639
3102.61921,0.02621
3100.55904,0.02596
3098.49886,0.02556
3096.43869,0.02519
3094.37852,0.02505
3092.31835,0.02496
3090.25818,0.02486
3088.19800,0.02488
3086.13783,0.02492
3084.07766,0.02476
3082.01749,0.02448
3079.95731,0.02412
3077.89714,0.02374
3075.83697,0.02357
3073.77680,0.02347
3071.71663,0.02332
3069.65645,0.02336
3067.59628,0.02350
3065.53611,0.02337
3063.47594,0.02298
3061.41577,0.02256
3059.35559,0.02217
3057.29542,0.02177
3055.23525,0.02140
3053.17508,0.02119
3051.11491,0.02112
3049.05473,0.02112
3046.99456,0.02125
3044.93439,0.02130
3042.87422,0.02103
3040.81404,0.02064
3038.75387,0.02036
3036.69370,0.02021
3034.63353,0.02019
3032.57336,0.02026
3030.51318,0.02022
3028.45301,0.01966
3026.39284,0.01883
3024.33267,0.01858
3022.27250,0.01878
3020.21232,0.01884
3018.15215,0.01885
3016.09198,0.01895
3014.03181,0.01901
3011.97163,0.01887
3009.91146,0.01861
3007.85129,0.01844
3005.79112,0.01820
3003.73095,0.01783
3001.67077,0.01766
2999.61060,0.01777
2997.55043,0.01789
2995.49026,0.01781
2993.43009,0.01764
2991.36991,0.01746
2989.30974,0.01740
2987.24957,0.01755
2985.18940,0.01768
2983.12923,0.01775
2981.06905,0.01796
2979.00888,0.01830
2976.94871,0.01867
2974.88854,0.01897
2972.82836,0.01924
2970.76819,0.01980
2968.70802,0.02080
2966.64785,0.02201
2964.58768,0.02316
2962.52750,0.02427
2960.46733,0.02542
2958.40716,0.02659
2956.34699,0.02776
2954.28682,0.02888
2952.22664,0.02993
2950.16647,0.03084
2948.10630,0.03184
2946.04613,0.03324
2943.98596,0.03488
2941.92578,0.03661
2939.86561,0.03875
2937.80544,0.04113
2935.74527,0.04304
2933.68509,0.04459
2931.62492,0.04625
2929.56475,0.04787
2927.50458,0.04904
2925.44441,0.04981
2923.38423,0.05067
2921.32406,0.05137
2919.26389,0.05135
2917.20372,0.05084
2915.14355,0.05003
2913.08337,0.04863
2911.02320,0.04664
2908.96303,0.04460
2906.90286,0.04290
2904.84268,0.04151
2902.78251,0.04026
2900.72234,0.03911
2898.66217,0.03811
2896.60200,0.03705
2894.54182,0.03594
2892.48165,0.03505
2890.42148,0.03444
2888.36131,0.03399
2886.30114,0.03344
2884.24096,0.03273
2882.18079,0.03220
2880.12062,0.03196
2878.06045,0.03180
2876.00028,0.03153
2873.94010,0.03143
2871.87993,0.03171
2869.81976,0.03220
2867.75959,0.03273
2865.69941,0.03322
2863.63924,0.03408
2861.57907,0.03546
2859.51890,0.03685
2857.45873,0.03809
2855.39855,0.03917
2853.33838,0.04006
2851.27821,0.04064
2849.21804,0.04027
2847.15787,0.03843
2845.09769,0.03572
2843.03752,0.03314
2840.97735,0.03107
2838.91718,0.02945
2836.85700,0.02816
2834.79683,0.02703
2832.73666,0.02614
2830.67649,0.02543
2828.61632,0.02471
2826.55614,0.02410
2824.49597,0.02360
2822.43580,0.02295
2820.37563,0.02229
2818.31546,0.02206
2816.25528,0.02213
2814.19511,0.02198
2812.13494,0.02156
2810.07477,0.02121
2808.01460,0.02097
2805.95442,0.02078
2803.89425,0.02067
2801.83408,0.02055
2799.77391,0.02020
2797.71373,0.01970
2795.65356,0.01940
2793.59339,0.01932
2791.53322,0.01925
2789.47305,0.01901
2787.41287,0.01876
2785.35270,0.01866
2783.29253,0.01857
2781.23236,0.01845
2779.17219,0.01825
2777.11201,0.01793
2775.05184,0.01770
2772.99167,0.01763
2770.93150,0.01759
2768.87133,0.01760
2766.81115,0.01771
2764.75098,0.01776
2762.69081,0.01768
2760.63064,0.01759
2758.57046,0.01745
2756.51029,0.01724
2754.45012,0.01712
2752.38995,0.01713
2750.32978,0.01720
2748.26960,0.01729
2746.20943,0.01725
2744.14926,0.01700
2742.08909,0.01682
2740.02892,0.01687
2737.96874,0.01686
2735.90857,0.01670
2733.84840,0.01650
2731.78823,0.01631
2729.72805,0.01623
2727.66788,0.01616
2725.60771,0.01609
2723.54754,0.01629
2721.48737,0.01659
2719.42719,0.01661
2717.36702,0.01640
2715.30685,0.01625
2713.24668,0.01619
2711.18651,0.01611
2709.12633,0.01614
2707.06616,0.01623
2705.00599,0.01617
2702.94582,0.01603
2700.88565,0.01592
2698.82547,0.01579
2696.76530,0.01574
2694.70513,0.01577
2692.64496,0.01581
2690.58478,0.01587
2688.52461,0.01589
2686.46444,0.01589
2684.40427,0.01588
2682.34410,0.01584
2680.28392,0.01589
2678.22375,0.01599
2676.16358,0.01585
2674.10341,0.01554
2672.04324,0.01535
2669.98306,0.01531
2667.92289,0.01526
2665.86272,0.01525
2663.80255,0.01545
2661.74238,0.01567
2659.68220,0.01561
2657.62203,0.01528
2655.56186,0.01488
2653.50169,0.01465
2651.44151,0.01464
2649.38134,0.01462
2647.32117,0.01465
2645.26100,0.01473
2643.20083,0.01466
2641.14065,0.01454
2639.08048,0.01447
2637.02031,0.01438
2634.96014,0.01423
2632.89997,0.01402
2630.83979,0.01392
2628.77962,0.01402
2626.71945,0.01413
2624.65928,0.01413
2622.59910,0.01410
2620.53893,0.01398
2618.47876,0.01369
2616.41859,0.01335
2614.35842,0.01303
2612.29824,0.01298
2610.23807,0.01321
2608.17790,0.01340
2606.11773,0.01340
2604.05756,0.01330
2601.99738,0.01320
2599.93721,0.01319
2597.87704,0.01317
2595.81687,0.01280
2593.75670,0.01230
2591.69652,0.01213
2589.63635,0.01225
2587.57618,0.01247
2585.51601,0.01260
2583.45583,0.01252
2581.39566,0.01233
2579.33549,0.01211
2577.27532,0.01201
2575.21515,0.01223
2573.15497,0.01235
2571.09480,0.01190
2569.03463,0.01132
2566.97446,0.01099
2564.91429,0.01090
2562.85411,0.01122
2560.79394,0.01184
2558.73377,0.01212
2556.67360,0.01190
2554.61342,0.01162
2552.55325,0.01137
2550.49308,0.01109
2548.43291,0.01089
2546.37274,0.01089
2544.31256,0.01124
2542.25239,0.01157
2540.19222,0.01119
2538.13205,0.01021
2536.07188,0.00956
2534.01170,0.00974
2531.95153,0.01034
2529.89136,0.01086
2527.83119,0.01111
2525.77102,0.01104
2523.71084,0.01096
2521.65067,0.01113
2519.59050,0.01117
2517.53033,0.01093
2515.47015,0.01059
2513.40998,0.01029
2511.34981,0.01046
2509.28964,0.01088
2507.22947,0.01097
2505.16929,0.01080
2503.10912,0.01084
2501.04895,0.01093
2498.98878,0.01066
2496.92861,0.01030
2494.86843,0.00996
2492.80826,0.00961
2490.74809,0.00948
2488.68792,0.00942
2486.62775,0.00931
2484.56757,0.00931
2482.50740,0.00943
2480.44723,0.00949
2478.38706,0.00940
2476.32688,0.00936
2474.26671,0.00976
2472.20654,0.01021
2470.14637,0.01013
2468.08620,0.00979
2466.02602,0.00987
2463.96585,0.01029
2461.90568,0.01017
2459.84551,0.00964
2457.78534,0.00947
2455.72516,0.00954
2453.66499,0.00933
2451.60482,0.00912
2449.54465,0.00929
2447.48447,0.00970
2445.42430,0.00973
2443.36413,0.00911
2441.30396,0.00873
2439.24379,0.00895
2437.18361,0.00918
2435.12344,0.00928
2433.06327,0.00935
2431.00310,0.00923
2428.94293,0.00921
2426.88275,0.00937
2424.82258,0.00925
2422.76241,0.00869
2420.70224,0.00788
2418.64207,0.00747
2416.58189,0.00789
2414.52172,0.00860
2412.46155,0.00886
2410.40138,0.00855
2408.34120,0.00804
2406.28103,0.00785
2404.22086,0.00821
2402.16069,0.00867
2400.10052,0.00870
2398.04034,0.00850
2395.98017,0.00837
2393.92000,0.00821
2391.85983,0.00804
2389.79966,0.00803
2387.73948,0.00816
2385.67931,0.00815
2383.61914,0.00777
2381.55897,0.00733
2379.49880,0.00731
2377.43862,0.00745
2375.37845,0.00768
2373.31828,0.00815
2371.25811,0.00836
2369.19793,0.00777
2367.13776,0.00702
2365.07759,0.00756
2363.01742,0.00845
2360.95725,0.00739
2358.89707,0.00757
2356.83690,0.00879
2354.77673,0.00848
2352.71656,0.00776
2350.65639,0.00683
2348.59621,0.00645
2346.53604,0.00753
2344.47587,0.00689
2342.41570,0.00592
2340.35552,0.00565
2338.29535,0.00659
2336.23518,0.00844
2334.17501,0.00928
2332.11484,0.00913
2330.05466,0.00819
2327.99449,0.00729
2325.93432,0.00755
2323.87415,0.00929
2321.81398,0.01035
2319.75380,0.01006
2317.69363,0.00894
2315.63346,0.00818
2313.57329,0.00787
2311.51312,0.00759
2309.45294,0.00740
2307.39277,0.00756
2305.33260,0.00796
2303.27243,0.00801
2301.21225,0.00763
2299.15208,0.00724
2297.09191,0.00722
2295.03174,0.00754
2292.97157,0.00795
2290.91139,0.00810
2288.85122,0.00785
2286.79105,0.00743
2284.73088,0.00698
2282.67071,0.00635
2280.61053,0.00585
2278.55036,0.00597
2276.49019,0.00645
2274.43002,0.00678
2272.36984,0.00701
2270.30967,0.00712
2268.24950,0.00686
2266.18933,0.00644
2264.12916,0.00623
2262.06898,0.00601
2260.00881,0.00582
2257.94864,0.00617
2255.88847,0.00689
2253.82830,0.00715
2251.76812,0.00686
2249.70795,0.00660
2247.64778,0.00670
2245.58761,0.00701
2243.52744,0.00714
2241.46726,0.00658
2239.40709,0.00542
2237.34692,0.00457
2235.28675,0.00482
2233.22657,0.00563
2231.16640,0.00591
2229.10623,0.00556
2227.04606,0.00538
2224.98589,0.00609
2222.92571,0.00696
2220.86554,0.00667
2218.80537,0.00579
2216.74520,0.00569
2214.68503,0.00611
2212.62485,0.00626
2210.56468,0.00610
2208.50451,0.00538
2206.44434,0.00436
2204.38417,0.00437
2202.32399,0.00551
2200.26382,0.00661
2198.20365,0.00656
2196.14348,0.00515
2194.08330,0.00421
2192.02313,0.00479
2189.96296,0.00510
2187.90279,0.00502
2185.84262,0.00557
2183.78244,0.00556
2181.72227,0.00507
2179.66210,0.00568
2177.60193,0.00623
2175.54176,0.00487
2173.48158,0.00360
2171.42141,0.00368
2169.36124,0.00298
2167.30107,0.00222
2165.24089,0.00334
2163.18072,0.00493
2161.12055,0.00472
2159.06038,0.00215
2157.00021,0.00004
2154.94003,0.00085
2152.87986,0.00330
2150.81969,0.00486
2148.75952,0.00432
2146.69935,0.00272
2144.63917,0.00192
2142.57900,0.00218
2140.51883,0.00262
2138.45866,0.00304
2136.39849,0.00336
2134.33831,0.00375
2132.27814,0.00420
2130.21797,0.00436
2128.15780,0.00439
2126.09762,0.00401
2124.03745,0.00353
2121.97728,0.00396
2119.91711,0.00460
2117.85694,0.00440
2115.79676,0.00403
2113.73659,0.00433
2111.67642,0.00501
2109.61625,0.00531
2107.55608,0.00526
2105.49590,0.00545
2103.43573,0.00542
2101.37556,0.00472
2099.31539,0.00382
2097.25521,0.00378
2095.19504,0.00466
2093.13487,0.00491
2091.07470,0.00411
2089.01453,0.00340
2086.95435,0.00359
2084.89418,0.00437
2082.83401,0.00480
2080.77384,0.00446
2078.71367,0.00373
2076.65349,0.00356
2074.59332,0.00405
2072.53315,0.00444
2070.47298,0.00450
2068.41281,0.00422
2066.35263,0.00424
2064.29246,0.00487
2062.23229,0.00483
2060.17212,0.00432
2058.11194,0.00470
2056.05177,0.00553
2053.99160,0.00551
2051.93143,0.00461
2049.87126,0.00346
2047.81108,0.00251
2045.75091,0.00248
2043.69074,0.00301
2041.63057,0.00324
2039.57040,0.00365
2037.51022,0.00385
2035.45005,0.00317
2033.38988,0.00290
2031.32971,0.00329
2029.26954,0.00406
2027.20936,0.00564
2025.14919,0.00575
2023.08902,0.00381
2021.02885,0.00282
2018.96867,0.00314
2016.90850,0.00304
2014.84833,0.00191
2012.78816,0.00061
2010.72799,0.00017
2008.66781,0.00000
2006.60764,0.00041
2004.54747,0.00192
2002.48730,0.00305
2000.42713,0.00348
1998.36695,0.00394
1996.30678,0.00430
1994.24661,0.00396
1992.18644,0.00349
1990.12626,0.00397
1988.06609,0.00513
1986.00592,0.00657
1983.94575,0.00731
1981.88558,0.00619
1979.82540,0.00393
1977.76523,0.00225
1975.70506,0.00214
1973.64489,0.00343
1971.58472,0.00483
1969.52454,0.00509
1967.46437,0.00375
1965.40420,0.00153
1963.34403,0.00044
1961.28386,0.00143
1959.22368,0.00347
1957.16351,0.00494
1955.10334,0.00476
1953.04317,0.00330
1950.98299,0.00205
1948.92282,0.00187
1946.86265,0.00242
1944.80248,0.00287
1942.74231,0.00289
1940.68213,0.00242
1938.62196,0.00165
1936.56179,0.00140
1934.50162,0.00178
1932.44145,0.00221
1930.38127,0.00246
1928.32110,0.00256
1926.26093,0.00251
1924.20076,0.00225
1922.14059,0.00213
1920.08041,0.00233
1918.02024,0.00262
1915.96007,0.00287
1913.89990,0.00286
1911.83972,0.00261
1909.77955,0.00247
1907.71938,0.00256
1905.65921,0.00262
1903.59904,0.00239
1901.53886,0.00219
1899.47869,0.00238
1897.41852,0.00264
1895.35835,0.00268
1893.29818,0.00269
1891.23800,0.00280
1889.17783,0.00254
1887.11766,0.00173
1885.05749,0.00114
1882.99731,0.00113
1880.93714,0.00129
1878.87697,0.00137
1876.81680,0.00135
1874.75663,0.00133
1872.69645,0.00143
1870.63628,0.00145
1868.57611,0.00127
1866.51594,0.00125
1864.45577,0.00171
1862.39559,0.00225
1860.33542,0.00229
1858.27525,0.00190
1856.21508,0.00179
1854.15491,0.00207
1852.09473,0.00213
1850.03456,0.00172
1847.97439,0.00124
1845.91422,0.00101
1843.85404,0.00102
1841.79387,0.00109
1839.73370,0.00111
1837.67353,0.00120
1835.61336,0.00137
1833.55318,0.00148
1831.49301,0.00140
1829.43284,0.00119
1827.37267,0.00112
1825.31250,0.00123
1823.25232,0.00125
1821.19215,0.00086
1819.13198,0.00034
1817.07181,0.00030
1815.01163,0.00071
1812.95146,0.00097
1810.89129,0.00090
1808.83112,0.00085
1806.77095,0.00092
1804.71077,0.00091
1802.65060,0.00080
1800.59043,0.00077
1798.53026,0.00075
1796.47009,0.00072
1794.40991,0.00068
1792.34974,0.00048
1790.28957,0.00021
1788.22940,0.00010
1786.16923,0.00018
1784.10905,0.00021
1782.04888,0.00005
1779.98871,0.00000
1777.92854,0.00023
1775.86836,0.00047
1773.80819,0.00044
1771.74802,0.00040
1769.68785,0.00056
1767.62768,0.00079
1765.56750,0.00097
1763.50733,0.00129
1761.44716,0.00196
1759.38699,0.00296
1757.32682,0.00417
1755.26664,0.00545
1753.20647,0.00650
1751.14630,0.00749
1749.08613,0.00881
1747.02596,0.01022
1744.96578,0.01117
1742.90561,0.01176
1740.84544,0.01227
1738.78527,0.01262
1736.72509,0.01275
1734.66492,0.01288
1732.60475,0.01288
1730.54458,0.01261
1728.48441,0.01248
1726.42423,0.01266
1724.36406,0.01294
1722.30389,0.01328
1720.24372,0.01363
1718.18355,0.01370
1716.12337,0.01348
1714.06320,0.01337
1712.00303,0.01336
1709.94286,0.01324
1707.88268,0.01309
1705.82251,0.01312
1703.76234,0.01311
1701.70217,0.01276
1699.64200,0.01226
1697.58182,0.01227
1695.52165,0.01299
1693.46148,0.01391
1691.40131,0.01470
1689.34114,0.01551
1687.28096,0.01658
1685.22079,0.01822
1683.16062,0.02029
1681.10045,0.02191
1679.04028,0.02298
1676.98010,0.02385
1674.91993,0.02464
1672.85976,0.02510
1670.79959,0.02504
1668.73941,0.02474
1666.67924,0.02446
1664.61907,0.02413
1662.55890,0.02357
1660.49873,0.02295
1658.43855,0.02255
1656.37838,0.02226
1654.31821,0.02176
1652.25804,0.02115
1650.19787,0.02092
1648.13769,0.02087
1646.07752,0.02101
1644.01735,0.02143
1641.95718,0.02176
1639.89701,0.02188
1637.83683,0.02214
1635.77666,0.02297
1633.71649,0.02404
1631.65632,0.02474
1629.59614,0.02520
1627.53597,0.02568
1625.47580,0.02606
1623.41563,0.02611
1621.35546,0.02601
1619.29528,0.02612
1617.23511,0.02647
1615.17494,0.02697
1613.11477,0.02769
1611.05460,0.02867
1608.99442,0.02981
1606.93425,0.03080
1604.87408,0.03136
1602.81391,0.03131
1600.75373,0.03052
1598.69356,0.02911
1596.63339,0.02752
1594.57322,0.02627
1592.51305,0.02551
1590.45287,0.02499
1588.39270,0.02438
1586.33253,0.02353
1584.27236,0.02260
1582.21219,0.02187
1580.15201,0.02131
1578.09184,0.02065
1576.03167,0.01990
1573.97150,0.01940
1571.91133,0.01899
1569.85115,0.01826
1567.79098,0.01732
1565.73081,0.01650
1563.67064,0.01596
1561.61046,0.01557
1559.55029,0.01473
1557.49012,0.01343
1555.42995,0.01260
1553.36978,0.01206
1551.30960,0.01152
1549.24943,0.01103
1547.18926,0.01068
1545.12909,0.01032
1543.06892,0.00967
1541.00874,0.00855
1538.94857,0.00739
1536.88840,0.00681
1534.82823,0.00658
1532.76805,0.00643
1530.70788,0.00631
1528.64771,0.00612
1526.58754,0.00582
1524.52737,0.00568
1522.46719,0.00609
1520.40702,0.00724
1518.34685,0.00869
1516.28668,0.00993
1514.22651,0.01046
1512.16633,0.01005
1510.10616,0.00898
1508.04599,0.00735
1505.98582,0.00538
1503.92565,0.00403
1501.86547,0.00335
1499.80530,0.00283
1497.74513,0.00227
1495.68496,0.00182
1493.62478,0.00149
1491.56461,0.00112
1489.50444,0.00066
1487.44427,0.00034
1485.38410,0.00028
1483.32392,0.00041
1481.26375,0.00073
1479.20358,0.00124
1477.14341,0.00187
1475.08324,0.00273
1473.02306,0.00422
1470.96289,0.00623
1468.90272,0.00810
1466.84255,0.00971
1464.78238,0.01117
1462.72220,0.01224
1460.66203,0.01277
1458.60186,0.01329
1456.54169,0.01440
1454.48151,0.01553
1452.42134,0.01610
1450.36117,0.01650
1448.30100,0.01713
1446.24083,0.01804
1444.18065,0.01902
1442.12048,0.01980
1440.06031,0.02036
1438.00014,0.02094
1435.93997,0.02160
1433.87979,0.02207
1431.81962,0.02233
1429.75945,0.02239
1427.69928,0.02224
1425.63910,0.02212
1423.57893,0.02225
1421.51876,0.02253
1419.45859,0.02261
1417.39842,0.02247
1415.33824,0.02240
1413.27807,0.02232
1411.21790,0.02201
1409.15773,0.02152
1407.09756,0.02103
1405.03738,0.02049
1402.97721,0.01973
1400.91704,0.01891
1398.85687,0.01824
1396.79670,0.01773
1394.73652,0.01730
1392.67635,0.01700
1390.61618,0.01688
1388.55601,0.01705
1386.49583,0.01758
1384.43566,0.01814
1382.37549,0.01856
1380.31532,0.01902
1378.25515,0.01964
1376.19497,0.02016
1374.13480,0.02040
1372.07463,0.02057
1370.01446,0.02078
1367.95429,0.02077
1365.89411,0.02041
1363.83394,0.01990
1361.77377,0.01951
1359.71360,0.01929
1357.65343,0.01904
1355.59325,0.01875
1353.53308,0.01862
1351.47291,0.01869
1349.41274,0.01875
1347.35256,0.01869
1345.29239,0.01857
1343.23222,0.01840
1341.17205,0.01818
1339.11188,0.01807
1337.05170,0.01809
1334.99153,0.01813
1332.93136,0.01815
1330.87119,0.01818
1328.81102,0.01828
1326.75084,0.01840
1324.69067,0.01842
1322.63050,0.01833
1320.57033,0.01832
1318.51015,0.01839
1316.44998,0.01826
1314.38981,0.01796
1312.32964,0.01773
1310.26947,0.01759
1308.20929,0.01728
1306.14912,0.01672
1304.08895,0.01607
1302.02878,0.01552
1299.96861,0.01513
1297.90843,0.01485
1295.84826,0.01474
1293.78809,0.01477
1291.72792,0.01478
1289.66775,0.01489
1287.60757,0.01530
1285.54740,0.01567
1283.48723,0.01568
1281.42706,0.01563
1279.36688,0.01580
1277.30671,0.01597
1275.24654,0.01603
1273.18637,0.01621
1271.12620,0.01659
1269.06602,0.01705
1267.00585,0.01761
1264.94568,0.01833
1262.88551,0.01902
1260.82534,0.01956
1258.76516,0.02011
1256.70499,0.02085
1254.64482,0.02159
1252.58465,0.02201
1250.52447,0.02216
1248.46430,0.02221
1246.40413,0.02234
1244.34396,0.02256
1242.28379,0.02274
1240.22361,0.02281
1238.16344,0.02267
1236.10327,0.02234
1234.04310,0.02200
1231.98293,0.02150
1229.92275,0.02070
1227.86258,0.01989
1225.80241,0.01917
1223.74224,0.01837
1221.68207,0.01744
1219.62189,0.01633
1217.56172,0.01503
1215.50155,0.01385
1213.44138,0.01290
1211.38120,0.01185
1209.32103,0.01061
1207.26086,0.00950
1205.20069,0.00853
1203.14052,0.00753
1201.08034,0.00642
1199.02017,0.00516
1196.96000,0.00389
1194.89983,0.00275
1192.83966,0.00177
1190.77948,0.00105
1188.71931,0.00055
1186.65914,0.00015
1184.59897,0.00000
1182.53880,0.00015
1180.47862,0.00065
1178.41845,0.00151
1176.35828,0.00274
1174.29811,0.00432
1172.23793,0.00613
1170.17776,0.00793
1168.11759,0.00946
1166.05742,0.01038
1163.99725,0.01086
1161.93707,0.01139
1159.87690,0.01203
1157.81673,0.01262
1155.75656,0.01320
1153.69639,0.01386
1151.63621,0.01460
1149.57604,0.01532
1147.51587,0.01606
1145.45570,0.01709
1143.39552,0.01818
1141.33535,0.01885
1139.27518,0.01918
1137.21501,0.01955
1135.15484,0.02005
1133.09466,0.02069
1131.03449,0.02148
1128.97432,0.02235
1126.91415,0.02338
1124.85398,0.02467
1122.79380,0.02593
1120.73363,0.02684
1118.67346,0.02788
1116.61329,0.02906
1114.55312,0.02999
1112.49294,0.03084
1110.43277,0.03180
1108.37260,0.03269
1106.31243,0.03358
1104.25225,0.03468
1102.19208,0.03595
1100.13191,0.03726
1098.07174,0.03878
1096.01157,0.04043
1093.95139,0.04195
1091.89122,0.04353
1089.83105,0.04518
1087.77088,0.04657
1085.71071,0.04794
1083.65053,0.04959
1081.59036,0.05140
1079.53019,0.05339
1077.47002,0.05539
1075.40985,0.05710
1073.34967,0.05875
1071.28950,0.06064
1069.22933,0.06238
1067.16916,0.06357
1065.10898,0.06454
1063.04881,0.06548
1060.98864,0.06637
1058.92847,0.06761
1056.86830,0.06935
1054.80812,0.07114
1052.74795,0.07279
1050.68778,0.07440
1048.62761,0.07623
1046.56744,0.07844
1044.50726,0.08077
1042.44709,0.08297
1040.38692,0.08487
1038.32675,0.08627
1036.26657,0.08724
1034.20640,0.08808
1032.14623,0.08874
1030.08606,0.08884
1028.02589,0.08860
1025.96571,0.08834
1023.90554,0.08782
1021.84537,0.08731
1019.78520,0.08714
1017.72503,0.08694
1015.66485,0.08666
1013.60468,0.08660
1011.54451,0.08682
1009.48434,0.08726
1007.42417,0.08758
1005.36399,0.08750
1003.30382,0.08705
1001.24365,0.08628
999.18348,0.08530
997.12330,0.08418
995.06313,0.08289
993.00296,0.08130
990.94279,0.07941
988.88262,0.07779
986.82244,0.07677
984.76227,0.07595
982.70210,0.07497
980.64193,0.07387
978.58176,0.07254
976.52158,0.07099
974.46141,0.06950
972.40124,0.06819
970.34107,0.06697
968.28089,0.06571
966.22072,0.06423
964.16055,0.06274
962.10038,0.06150
960.04021,0.06038
957.98003,0.05917
955.91986,0.05778
953.85969,0.05643
951.79952,0.05513
949.73935,0.05367
947.67917,0.05227
945.61900,0.05089
943.55883,0.04925
941.49866,0.04734
939.43849,0.04512
937.37831,0.04256
935.31814,0.03983
933.25797,0.03713
931.19780,0.03449
929.13762,0.03216
927.07745,0.03039
925.01728,0.02874
922.95711,0.02700
920.89694,0.02550
918.83676,0.02414
916.77659,0.02268
914.71642,0.02122
912.65625,0.01960
910.59608,0.01794
908.53590,0.01670
906.47573,0.01595
904.41556,0.01563
902.35539,0.01558
900.29522,0.01560
898.23504,0.01572
896.17487,0.01571
894.11470,0.01536
892.05453,0.01498
889.99435,0.01471
887.93418,0.01419
885.87401,0.01359
883.81384,0.01310
881.75367,0.01228
879.69349,0.01117
877.63332,0.01028
875.57315,0.00966
873.51298,0.00889
871.45281,0.00798
869.39263,0.00737
867.33246,0.00730
865.27229,0.00762
863.21212,0.00770
861.15194,0.00747
859.09177,0.00739
857.03160,0.00738
854.97143,0.00734
852.91126,0.00731
850.85108,0.00687
848.79091,0.00632
846.73074,0.00639
844.67057,0.00667
842.61040,0.00699
840.55022,0.00729
838.49005,0.00684
836.42988,0.00608
834.36971,0.00559
832.30954,0.00540
830.24936,0.00542
828.18919,0.00486
826.12902,0.00358
824.06885,0.00264
822.00867,0.00270
819.94850,0.00318
817.88833,0.00332
815.82816,0.00340
813.76799,0.00365
811.70781,0.00333
809.64764,0.00263
807.58747,0.00252
805.52730,0.00279
803.46713,0.00296
801.40695,0.00292
799.34678,0.00296
797.28661,0.00308
795.22644,0.00275
793.16627,0.00200
791.10609,0.00116
789.04592,0.00062
786.98575,0.00034
784.92558,0.00000
782.86540,0.00008
780.80523,0.00077
778.74506,0.00135
776.68489,0.00191
774.62472,0.00209
772.56454,0.00150
770.50437,0.00107
768.44420,0.00121
766.38403,0.00136
764.32386,0.00105
762.26368,0.00048
760.20351,0.00022
758.14334,0.00094
756.08317,0.00182
754.02299,0.00151
751.96282,0.00057
749.90265,0.00000
747.84248,-0.00006
745.78231,0.00022
743.72213,-0.00004
741.66196,-0.00039
739.60179,0.00013
737.54162,0.00070
735.48145,0.00044
733.42127,-0.00012
731.36110,-0.00023
729.30093,-0.00007
727.24076,-0.00011
725.18059,-0.00012
723.12041,0.00059
721.06024,0.00211
719.00007,0.00298
716.93990,0.00300
714.87972,0.00271
712.81955,0.00230
710.75938,0.00205
708.69921,0.00231
706.63904,0.00338
704.57886,0.00488
702.51869,0.00558
700.45852,0.00515
698.39835,0.00484
696.33818,0.00514
694.27800,0.00544
692.21783,0.00592
690.15766,0.00649
688.09749,0.00576
686.03731,0.00356
683.97714,0.00124
681.91697,0.00000
679.85680,-0.00013
677.79663,-0.00043
675.73645,-0.00116
673.67628,-0.00120
671.61611,0.00036
669.55594,0.00517
667.49577,0.00789
665.43559,0.00414
663.37542,0.00366
661.31525,0.00430
659.25508,0.00486
657.19491,0.00565
655.13473,0.00591
653.07456,0.00423
651.01439,0.00185
648.95422,0.00144
646.89404,0.00188
644.83387,0.00213
642.77370,0.00429
640.71353,0.00830
638.65336,0.00974
636.59318,0.00728
634.53301,0.00452
632.47284,0.00480
630.41267,0.00785
628.35250,0.01041
626.29232,0.01077
624.23215,0.01098
622.17198,0.01002
620.11181,0.00769
618.05164,0.00713
615.99146,0.00729
613.93129,0.00498
611.87112,0.00285
609.81095,0.00234
607.75077,0.00284
605.69060,0.00421
603.63043,0.00429
601.57026,0.00264
599.51009,0.00000
