3996.73391,0.00052
3994.67373,0.00051
3992.61356,0.00052
3990.55339,0.00066
3988.49322,0.00079
3986.43305,0.00063
3984.37287,0.00023
3982.31270,-0.00009
3980.25253,-0.00019
3978.19236,-0.00006
3976.13219,0.00028
3974.07201,0.00045
3972.01184,0.00021
3969.95167,0.00005
3967.89150,0.00017
3965.83133,0.00013
3963.77115,0.00000
3961.71098,0.00018
3959.65081,0.00044
3957.59064,0.00047
3955.53046,0.00060
3953.47029,0.00090
3951.41012,0.00107
3949.34995,0.00113
3947.28978,0.00119
3945.22960,0.00114
3943.16943,0.00089
3941.10926,0.00054
3939.04909,0.00042
3936.98892,0.00069
3934.92874,0.00105
3932.86857,0.00105
3930.80840,0.00054
3928.74823,0.00002
3926.68805,0.00004
3924.62788,0.00060
3922.56771,0.00124
3920.50754,0.00143
3918.44737,0.00123
3916.38719,0.00113
3914.32702,0.00128
3912.26685,0.00124
3910.20668,0.00072
3908.14651,0.00013
3906.08633,0.00000
3904.02616,0.00037
3901.96599,0.00084
3899.90582,0.00109
3897.84565,0.00133
3895.78547,0.00159
3893.72530,0.00160
3891.66513,0.00145
3889.60496,0.00139
3887.54478,0.00125
3885.48461,0.00107
3883.42444,0.00109
3881.36427,0.00118
3879.30410,0.00105
3877.24392,0.00064
3875.18375,0.00029
3873.12358,0.00043
3871.06341,0.00084
3869.00324,0.00092
3866.94306,0.00071
3864.88289,0.00084
3862.82272,0.00129
3860.76255,0.00140
3858.70237,0.00116
3856.64220,0.00094
3854.58203,0.00099
3852.52186,0.00142
3850.46169,0.00172
3848.40151,0.00158
3846.34134,0.00133
3844.28117,0.00132
3842.22100,0.00141
3840.16083,0.00115
3838.10065,0.00070
3836.04048,0.00056
3833.98031,0.00062
3831.92014,0.00074
3829.85997,0.00085
3827.79979,0.00076
3825.73962,0.00057
3823.67945,0.00051
3821.61928,0.00065
3819.55910,0.00105
3817.49893,0.00161
3815.43876,0.00223
3813.37859,0.00258
3811.31842,0.00249
3809.25824,0.00223
3807.19807,0.00198
3805.13790,0.00169
3803.07773,0.00133
3801.01756,0.00119
3798.95738,0.00157
3796.89721,0.00204
3794.83704,0.00203
3792.77687,0.00155
3790.71670,0.00113
3788.65652,0.00100
3786.59635,0.00096
3784.53618,0.00087
3782.47601,0.00092
3780.41583,0.00127
3778.35566,0.00167
3776.29549,0.00163
3774.23532,0.00118
3772.17515,0.00077
3770.11497,0.00070
3768.05480,0.00081
3765.99463,0.00080
3763.93446,0.00063
3761.87429,0.00043
3759.81411,0.00039
3757.75394,0.00059
3755.69377,0.00073
3753.63360,0.00044
3751.57342,0.00006
3749.51325,0.00036
3747.45308,0.00079
3745.39291,0.00043
3743.33274,0.00000
3741.27256,0.00030
3739.21239,0.00060
3737.15222,0.00032
3735.09205,0.00014
3733.03188,0.00085
3730.97170,0.00165
3728.91153,0.00191
3726.85136,0.00182
3724.79119,0.00163
3722.73102,0.00151
3720.67084,0.00148
3718.61067,0.00139
3716.55050,0.00128
3714.49033,0.00123
3712.43015,0.00123
3710.36998,0.00137
3708.30981,0.00185
3706.24964,0.00218
3704.18947,0.00207
3702.12929,0.00192
3700.06912,0.00180
3698.00895,0.00136
3695.94878,0.00084
3693.88861,0.00054
3691.82843,0.00028
3689.76826,0.00012
3687.70809,0.00032
3685.64792,0.00063
3683.58775,0.00073
3681.52757,0.00067
3679.46740,0.00072
3677.40723,0.00097
3675.34706,0.00126
3673.28688,0.00139
3671.22671,0.00166
3669.16654,0.00219
3667.10637,0.00235
3665.04620,0.00202
3662.98602,0.00178
3660.92585,0.00184
3658.86568,0.00201
3656.80551,0.00206
3654.74534,0.00184
3652.68516,0.00147
3650.62499,0.00119
3648.56482,0.00138
3646.50465,0.00200
3644.44447,0.00246
3642.38430,0.00268
3640.32413,0.00291
3638.26396,0.00314
3636.20379,0.00309
3634.14361,0.00268
3632.08344,0.00225
3630.02327,0.00249
3627.96310,0.00362
3625.90293,0.00457
3623.84275,0.00449
3621.78258,0.00358
3619.72241,0.00283
3617.66224,0.00292
3615.60207,0.00321
3613.54189,0.00342
3611.48172,0.00405
3609.42155,0.00482
3607.36138,0.00493
3605.30120,0.00458
3603.24103,0.00464
3601.18086,0.00517
3599.12069,0.00577
3597.06052,0.00655
3595.00034,0.00734
3592.94017,0.00742
3590.88000,0.00702
3588.81983,0.00711
3586.75966,0.00744
3584.69948,0.00722
3582.63931,0.00678
3580.57914,0.00679
3578.51897,0.00725
3576.45879,0.00783
3574.39862,0.00830
3572.33845,0.00844
3570.27828,0.00824
3568.21811,0.00809
3566.15793,0.00825
3564.09776,0.00849
3562.03759,0.00871
3559.97742,0.00903
3557.91725,0.00943
3555.85707,0.00979
3553.79690,0.01027
3551.73673,0.01098
3549.67656,0.01139
3547.61639,0.01134
3545.55621,0.01146
3543.49604,0.01188
3541.43587,0.01214
3539.37570,0.01222
3537.31552,0.01253
3535.25535,0.01324
3533.19518,0.01395
3531.13501,0.01427
3529.07484,0.01433
3527.01466,0.01448
3524.95449,0.01467
3522.89432,0.01482
3520.83415,0.01511
3518.77398,0.01546
3516.71380,0.01595
3514.65363,0.01657
3512.59346,0.01693
3510.53329,0.01724
3508.47312,0.01788
3506.41294,0.01836
3504.35277,0.01828
3502.29260,0.01820
3500.23243,0.01866
3498.17225,0.01941
3496.11208,0.01985
3494.05191,0.01989
3491.99174,0.01991
3489.93157,0.02014
3487.87139,0.02055
3485.81122,0.02089
3483.75105,0.02095
3481.69088,0.02108
3479.63071,0.02176
3477.57053,0.02260
3475.51036,0.02295
3473.45019,0.02285
3471.39002,0.02281
3469.32984,0.02330
3467.26967,0.02392
3465.20950,0.02414
3463.14933,0.02418
3461.08916,0.02452
3459.02898,0.02507
3456.96881,0.02549
3454.90864,0.02589
3452.84847,0.02636
3450.78830,0.02671
3448.72812,0.02695
3446.66795,0.02701
3444.60778,0.02699
3442.54761,0.02712
3440.48744,0.02740
3438.42726,0.02774
3436.36709,0.02805
3434.30692,0.02842
3432.24675,0.02901
3430.18657,0.02976
3428.12640,0.03022
3426.06623,0.03007
3424.00606,0.02963
3421.94589,0.02959
3419.88571,0.03015
3417.82554,0.03087
3415.76537,0.03138
3413.70520,0.03158
3411.64503,0.03150
3409.58485,0.03158
3407.52468,0.03191
3405.46451,0.03217
3403.40434,0.03256
3401.34416,0.03295
3399.28399,0.03285
3397.22382,0.03272
3395.16365,0.03296
3393.10348,0.03327
3391.04330,0.03347
3388.98313,0.03379
3386.92296,0.03423
3384.86279,0.03447
3382.80262,0.03449
3380.74244,0.03456
3378.68227,0.03465
3376.62210,0.03473
3374.56193,0.03487
3372.50176,0.03499
3370.44158,0.03508
3368.38141,0.03514
3366.32124,0.03502
3364.26107,0.03496
3362.20089,0.03539
3360.14072,0.03611
3358.08055,0.03656
3356.02038,0.03663
3353.96021,0.03660
3351.90003,0.03671
3349.83986,0.03697
3347.77969,0.03729
3345.71952,0.03752
3343.65935,0.03759
3341.59917,0.03764
3339.53900,0.03796
3337.47883,0.03824
3335.41866,0.03788
3333.35849,0.03725
3331.29831,0.03709
3329.23814,0.03728
3327.17797,0.03738
3325.11780,0.03735
3323.05762,0.03728
3320.99745,0.03713
3318.93728,0.03722
3316.87711,0.03771
3314.81694,0.03810
3312.75676,0.03815
3310.69659,0.03801
3308.63642,0.03799
3306.57625,0.03820
3304.51608,0.03840
3302.45590,0.03845
3300.39573,0.03847
3298.33556,0.03848
3296.27539,0.03831
3294.21521,0.03811
3292.15504,0.03813
3290.09487,0.03820
3288.03470,0.03793
3285.97453,0.03760
3283.91435,0.03775
3281.85418,0.03803
3279.79401,0.03801
3277.73384,0.03801
3275.67367,0.03815
3273.61349,0.03815
3271.55332,0.03803
3269.49315,0.03807
3267.43298,0.03831
3265.37281,0.03841
3263.31263,0.03835
3261.25246,0.03826
3259.19229,0.03796
3257.13212,0.03764
3255.07194,0.03768
3253.01177,0.03770
3250.95160,0.03746
3248.89143,0.03723
3246.83126,0.03705
3244.77108,0.03711
3242.71091,0.03731
3240.65074,0.03731
3238.59057,0.03713
3236.53040,0.03677
3234.47022,0.03652
3232.41005,0.03671
3230.34988,0.03697
3228.28971,0.03690
3226.22954,0.03654
3224.16936,0.03609
3222.10919,0.03569
3220.04902,0.03548
3217.98885,0.03566
3215.92867,0.03593
3213.86850,0.03588
3211.80833,0.03546
3209.74816,0.03505
3207.68799,0.03509
3205.62781,0.03527
3203.56764,0.03526
3201.50747,0.03522
3199.44730,0.03526
3197.38713,0.03527
3195.32695,0.03515
3193.26678,0.03502
3191.20661,0.03500
3189.14644,0.03484
3187.08626,0.03431
3185.02609,0.03379
3182.96592,0.03345
3180.90575,0.03298
3178.84558,0.03244
3176.78540,0.03236
3174.72523,0.03265
3172.66506,0.03290
3170.60489,0.03310
3168.54472,0.03294
3166.48454,0.03238
3164.42437,0.03203
3162.36420,0.03212
3160.30403,0.03226
3158.24386,0.03211
3156.18368,0.03176
3154.12351,0.03145
3152.06334,0.03127
3150.00317,0.03104
3147.94299,0.03054
3145.88282,0.03005
3143.82265,0.02986
3141.76248,0.02972
3139.70231,0.02939
3137.64213,0.02901
3135.58196,0.02870
3133.52179,0.02848
3131.46162,0.02835
3129.40145,0.02833
3127.34127,0.02830
3125.28110,0.02820
3123.22093,0.02806
3121.16076,0.02777
3119.10058,0.02745
3117.04041,0.02736
3114.98024,0.02751
3112.92007,0.02742
3110.85990,0.02688
3108.79972,0.02659
3106.73955,0.02676
3104.67938,0.02676
3102.61921,0.02629
3100.55904,0.02567
3098.49886,0.02537
3096.43869,0.02543
3094.37852,0.02536
3092.31835,0.02502
3090.25818,0.02486
3088.19800,0.02494
3086.13783,0.02494
3084.07766,0.02478
3082.01749,0.02447
3079.95731,0.02403
3077.89714,0.02372
3075.83697,0.02352
3073.77680,0.02321
3071.71663,0.02306
3069.65645,0.02312
3067.59628,0.02298
3065.53611,0.02263
3063.47594,0.02232
3061.41577,0.02205
3059.35559,0.02180
3057.29542,0.02163
3055.23525,0.02152
3053.17508,0.02144
3051.11491,0.02135
3049.05473,0.02133
3046.99456,0.02144
3044.93439,0.02139
3042.87422,0.02100
3040.81404,0.02065
3038.75387,0.02060
3036.69370,0.02062
3034.63353,0.02046
3032.57336,0.02019
3030.51318,0.01985
3028.45301,0.01932
3026.39284,0.01876
3024.33267,0.01860
3022.27250,0.01869
3020.21232,0.01864
3018.15215,0.01854
3016.09198,0.01863
3014.03181,0.01876
3011.97163,0.01871
3009.91146,0.01844
3007.85129,0.01816
3005.79112,0.01805
3003.73095,0.01804
3001.67077,0.01805
2999.61060,0.01809
2997.55043,0.01802
2995.49026,0.01791
2993.43009,0.01791
2991.36991,0.01783
2989.30974,0.01767
2987.24957,0.01759
2985.18940,0.01751
2983.12923,0.01759
2981.06905,0.01804
2979.00888,0.01847
2976.94871,0.01866
2974.88854,0.01899
2972.82836,0.01960
2970.76819,0.02039
2968.70802,0.02129
2966.64785,0.02206
2964.58768,0.02277
2962.52750,0.02369
2960.46733,0.02471
2958.40716,0.02584
2956.34699,0.02727
2954.28682,0.02875
2952.22664,0.02993
2950.16647,0.03082
2948.10630,0.03192
2946.04613,0.03335
2943.98596,0.03484
2941.92578,0.03650
2939.86561,0.03855
2937.80544,0.04066
2935.74527,0.04248
2933.68509,0.04401
2931.62492,0.04532
2929.56475,0.04672
2927.50458,0.04829
2925.44441,0.04960
2923.38423,0.05052
2921.32406,0.05111
2919.26389,0.05105
2917.20372,0.05023
2915.14355,0.04882
2913.08337,0.04711
2911.02320,0.04536
2908.96303,0.04373
2906.90286,0.04243
2904.84268,0.04118
2902.78251,0.03981
2900.72234,0.03868
2898.66217,0.03780
2896.60200,0.03680
2894.54182,0.03566
2892.48165,0.03464
2890.42148,0.03383
2888.36131,0.03307
2886.30114,0.03253
2884.24096,0.03229
2882.18079,0.03212
2880.12062,0.03206
2878.06045,0.03201
2876.00028,0.03181
2873.94010,0.03161
2871.87993,0.03152
2869.81976,0.03170
2867.75959,0.03233
2865.69941,0.03323
2863.63924,0.03433
2861.57907,0.03566
2859.51890,0.03711
2857.45873,0.03842
2855.39855,0.03938
2853.33838,0.04007
2851.27821,0.04016
2849.21804,0.03925
2847.15787,0.03746
2845.09769,0.03529
2843.03752,0.03328
2840.97735,0.03155
2838.91718,0.02990
2836.85700,0.02836
2834.79683,0.02718
2832.73666,0.02629
2830.67649,0.02553
2828.61632,0.02499
2826.55614,0.02445
2824.49597,0.02372
2822.43580,0.02294
2820.37563,0.02231
2818.31546,0.02208
2816.25528,0.02198
2814.19511,0.02159
2812.13494,0.02113
2810.07477,0.02091
2808.01460,0.02088
2805.95442,0.02088
2803.89425,0.02078
2801.83408,0.02054
2799.77391,0.02023
2797.71373,0.01986
2795.65356,0.01949
2793.59339,0.01926
2791.53322,0.01906
2789.47305,0.01875
2787.41287,0.01832
2785.35270,0.01806
2783.29253,0.01823
2781.23236,0.01846
2779.17219,0.01839
2777.11201,0.01818
2775.05184,0.01799
2772.99167,0.01784
2770.93150,0.01774
2768.87133,0.01769
2766.81115,0.01763
2764.75098,0.01753
2762.69081,0.01736
2760.63064,0.01716
2758.57046,0.01708
2756.51029,0.01702
2754.45012,0.01685
2752.38995,0.01683
2750.32978,0.01699
2748.26960,0.01719
2746.20943,0.01744
2744.14926,0.01754
2742.08909,0.01717
2740.02892,0.01667
2737.96874,0.01646
2735.90857,0.01650
2733.84840,0.01660
2731.78823,0.01659
2729.72805,0.01655
2727.66788,0.01654
2725.60771,0.01645
2723.54754,0.01645
2721.48737,0.01663
2719.42719,0.01668
2717.36702,0.01651
2715.30685,0.01636
2713.24668,0.01615
2711.18651,0.01594
2709.12633,0.01596
2707.06616,0.01613
2705.00599,0.01623
2702.94582,0.01627
2700.88565,0.01629
2698.82547,0.01621
2696.76530,0.01603
2694.70513,0.01590
2692.64496,0.01576
2690.58478,0.01566
2688.52461,0.01574
2686.46444,0.01584
2684.40427,0.01583
2682.34410,0.01571
2680.28392,0.01568
2678.22375,0.01578
2676.16358,0.01576
2674.10341,0.01557
2672.04324,0.01544
2669.98306,0.01549
2667.92289,0.01549
2665.86272,0.01531
2663.80255,0.01531
2661.74238,0.01551
2659.68220,0.01553
2657.62203,0.01543
2655.56186,0.01528
2653.50169,0.01500
2651.44151,0.01485
2649.38134,0.01491
2647.32117,0.01493
2645.26100,0.01491
2643.20083,0.01471
2641.14065,0.01435
2639.08048,0.01427
2637.02031,0.01423
2634.96014,0.01403
2632.89997,0.01401
2630.83979,0.01398
2628.77962,0.01368
2626.71945,0.01344
2624.65928,0.01344
2622.59910,0.01346
2620.53893,0.01343
2618.47876,0.01330
2616.41859,0.01332
2614.35842,0.01358
2612.29824,0.01346
2610.23807,0.01296
2608.17790,0.01261
2606.11773,0.01240
2604.05756,0.01254
2601.99738,0.01311
2599.93721,0.01343
2597.87704,0.01325
2595.81687,0.01303
2593.75670,0.01293
2591.69652,0.01274
2589.63635,0.01254
2587.57618,0.01265
2585.51601,0.01302
2583.45583,0.01318
2581.39566,0.01286
2579.33549,0.01213
2577.27532,0.01157
2575.21515,0.01165
2573.15497,0.01197
2571.09480,0.01193
2569.03463,0.01165
2566.97446,0.01153
2564.91429,0.01148
2562.85411,0.01141
2560.79394,0.01139
2558.73377,0.01128
2556.67360,0.01115
2554.61342,0.01121
2552.55325,0.01151
2550.49308,0.01213
2548.43291,0.01234
2546.37274,0.01160
2544.31256,0.01106
2542.25239,0.01143
2540.19222,0.01163
2538.13205,0.01120
2536.07188,0.01098
2534.01170,0.01110
2531.95153,0.01094
2529.89136,0.01049
2527.83119,0.01019
2525.77102,0.01022
2523.71084,0.01048
2521.65067,0.01084
2519.59050,0.01120
2517.53033,0.01128
2515.47015,0.01090
2513.40998,0.01059
2511.34981,0.01070
2509.28964,0.01087
2507.22947,0.01079
2505.16929,0.01031
2503.10912,0.00984
2501.04895,0.00994
2498.98878,0.01031
2496.92861,0.01043
2494.86843,0.01025
2492.80826,0.01005
2490.74809,0.01004
2488.68792,0.01024
2486.62775,0.01052
2484.56757,0.01052
2482.50740,0.01026
2480.44723,0.01008
2478.38706,0.01004
2476.32688,0.00989
2474.26671,0.00958
2472.20654,0.00941
2470.14637,0.00958
2468.08620,0.00989
2466.02602,0.01009
2463.96585,0.01004
2461.90568,0.00985
2459.84551,0.00973
2457.78534,0.00955
2455.72516,0.00930
2453.66499,0.00926
2451.60482,0.00947
2449.54465,0.00953
2447.48447,0.00937
2445.42430,0.00946
2443.36413,0.00933
2441.30396,0.00886
2439.24379,0.00888
2437.18361,0.00936
2435.12344,0.00963
2433.06327,0.00952
2431.00310,0.00923
2428.94293,0.00924
2426.88275,0.00976
2424.82258,0.00993
2422.76241,0.00914
2420.70224,0.00823
2418.64207,0.00802
2416.58189,0.00832
2414.52172,0.00856
2412.46155,0.00854
2410.40138,0.00836
2408.34120,0.00837
2406.28103,0.00864
2404.22086,0.00867
2402.16069,0.00846
2400.10052,0.00830
2398.04034,0.00815
2395.98017,0.00805
2393.92000,0.00808
2391.85983,0.00820
2389.79966,0.00833
2387.73948,0.00837
2385.67931,0.00839
2383.61914,0.00866
2381.55897,0.00931
2379.49880,0.00979
2377.43862,0.00952
2375.37845,0.00928
2373.31828,0.00989
2371.25811,0.01088
2369.19793,0.01092
2367.13776,0.00921
2365.07759,0.00815
2363.01742,0.01026
2360.95725,0.01115
2358.89707,0.00928
2356.83690,0.00780
2354.77673,0.00781
2352.71656,0.00833
2350.65639,0.00757
2348.59621,0.00691
2346.53604,0.00893
2344.47587,0.01116
2342.41570,0.01224
2340.35552,0.01100
2338.29535,0.00968
2336.23518,0.00927
2334.17501,0.00871
2332.11484,0.00855
2330.05466,0.00863
2327.99449,0.00936
2325.93432,0.01062
2323.87415,0.01163
2321.81398,0.01118
2319.75380,0.01010
2317.69363,0.00912
2315.63346,0.00861
2313.57329,0.00817
2311.51312,0.00782
2309.45294,0.00772
2307.39277,0.00762
2305.33260,0.00749
2303.27243,0.00749
2301.21225,0.00774
2299.15208,0.00801
2297.09191,0.00792
2295.03174,0.00754
2292.97157,0.00768
2290.91139,0.00862
2288.85122,0.00938
2286.79105,0.00913
2284.73088,0.00841
2282.67071,0.00786
2280.61053,0.00737
2278.55036,0.00706
2276.49019,0.00738
2274.43002,0.00788
2272.36984,0.00773
2270.30967,0.00717
2268.24950,0.00694
2266.18933,0.00712
2264.12916,0.00715
2262.06898,0.00651
2260.00881,0.00577
2257.94864,0.00602
2255.88847,0.00684
2253.82830,0.00683
2251.76812,0.00617
2249.70795,0.00606
2247.64778,0.00664
2245.58761,0.00677
2243.52744,0.00615
2241.46726,0.00562
2239.40709,0.00587
2237.34692,0.00701
2235.28675,0.00845
2233.22657,0.00926
2231.16640,0.00899
2229.10623,0.00832
2227.04606,0.00790
2224.98589,0.00737
2222.92571,0.00712
2220.86554,0.00769
2218.80537,0.00808
2216.74520,0.00762
2214.68503,0.00732
2212.62485,0.00814
2210.56468,0.00911
2208.50451,0.00884
2206.44434,0.00797
2204.38417,0.00734
2202.32399,0.00671
2200.26382,0.00661
2198.20365,0.00690
2196.14348,0.00655
2194.08330,0.00655
2192.02313,0.00738
2189.96296,0.00687
2187.90279,0.00505
2185.84262,0.00460
2183.78244,0.00529
2181.72227,0.00499
2179.66210,0.00341
2177.60193,0.00205
2175.54176,0.00211
2173.48158,0.00341
2171.42141,0.00529
2169.36124,0.00690
2167.30107,0.00726
2165.24089,0.00634
2163.18072,0.00537
2161.12055,0.00495
2159.06038,0.00448
2157.00021,0.00402
2154.94003,0.00429
2152.87986,0.00441
2150.81969,0.00373
2148.75952,0.00325
2146.69935,0.00293
2144.63917,0.00287
2142.57900,0.00334
2140.51883,0.00354
2138.45866,0.00382
2136.39849,0.00429
2134.33831,0.00401
2132.27814,0.00342
2130.21797,0.00376
2128.15780,0.00498
2126.09762,0.00598
2124.03745,0.00609
2121.97728,0.00572
2119.91711,0.00573
2117.85694,0.00641
2115.79676,0.00700
2113.73659,0.00677
2111.67642,0.00574
2109.61625,0.00440
2107.55608,0.00390
2105.49590,0.00441
2103.43573,0.00528
2101.37556,0.00584
2099.31539,0.00532
2097.25521,0.00441
2095.19504,0.00401
2093.13487,0.00392
2091.07470,0.00422
2089.01453,0.00479
2086.95435,0.00509
2084.89418,0.00558
2082.83401,0.00656
2080.77384,0.00712
2078.71367,0.00673
2076.65349,0.00621
2074.59332,0.00579
2072.53315,0.00510
2070.47298,0.00389
2068.41281,0.00255
2066.35263,0.00275
2064.29246,0.00438
2062.23229,0.00530
2060.17212,0.00538
2058.11194,0.00532
2056.05177,0.00502
2053.99160,0.00535
2051.93143,0.00689
2049.87126,0.00756
2047.81108,0.00601
2045.75091,0.00459
2043.69074,0.00468
2041.63057,0.00436
2039.57040,0.00309
2037.51022,0.00279
2035.45005,0.00317
2033.38988,0.00268
2031.32971,0.00255
2029.26954,0.00394
2027.20936,0.00511
2025.14919,0.00467
2023.08902,0.00402
2021.02885,0.00376
2018.96867,0.00260
2016.90850,0.00095
2014.84833,0.00045
2012.78816,0.00149
2010.72799,0.00291
2008.66781,0.00343
2006.60764,0.00382
2004.54747,0.00483
2002.48730,0.00521
2000.42713,0.00476
1998.36695,0.00445
1996.30678,0.00371
1994.24661,0.00208
1992.18644,0.00103
1990.12626,0.00148
1988.06609,0.00265
1986.00592,0.00395
1983.94575,0.00500
1981.88558,0.00458
1979.82540,0.00235
1977.76523,0.00023
1975.70506,0.00000
1973.64489,0.00150
1971.58472,0.00348
1969.52454,0.00457
1967.46437,0.00445
1965.40420,0.00364
1963.34403,0.00280
1961.28386,0.00244
1959.22368,0.00301
1957.16351,0.00442
1955.10334,0.00545
1953.04317,0.00552
1950.98299,0.00454
1948.92282,0.00311
1946.86265,0.00248
1944.80248,0.00252
1942.74231,0.00319
1940.68213,0.00461
1938.62196,0.00538
1936.56179,0.00511
1934.50162,0.00451
1932.44145,0.00369
1930.38127,0.00298
1928.32110,0.00275
1926.26093,0.00277
1924.20076,0.00289
1922.14059,0.00319
1920.08041,0.00353
1918.02024,0.00361
1915.96007,0.00330
1913.89990,0.00338
1911.83972,0.00423
1909.77955,0.00474
1907.71938,0.00447
1905.65921,0.00404
1903.59904,0.00340
1901.53886,0.00254
1899.47869,0.00195
1897.41852,0.00191
1895.35835,0.00243
1893.29818,0.00289
1891.23800,0.00280
1889.17783,0.00265
1887.11766,0.00295
1885.05749,0.00333
1882.99731,0.00318
1880.93714,0.00256
1878.87697,0.00213
1876.81680,0.00209
1874.75663,0.00214
1872.69645,0.00205
1870.63628,0.00183
1868.57611,0.00185
1866.51594,0.00221
1864.45577,0.00259
1862.39559,0.00269
1860.33542,0.00236
1858.27525,0.00185
1856.21508,0.00167
1854.15491,0.00191
1852.09473,0.00228
1850.03456,0.00248
1847.97439,0.00234
1845.91422,0.00191
1843.85404,0.00160
1841.79387,0.00167
1839.73370,0.00184
1837.67353,0.00197
1835.61336,0.00213
1833.55318,0.00220
1831.49301,0.00182
1829.43284,0.00110
1827.37267,0.00077
1825.31250,0.00112
1823.25232,0.00160
1821.19215,0.00162
1819.13198,0.00134
1817.07181,0.00118
1815.01163,0.00126
1812.95146,0.00134
1810.89129,0.00128
1808.83112,0.00121
1806.77095,0.00109
1804.71077,0.00102
1802.65060,0.00123
1800.59043,0.00151
1798.53026,0.00147
1796.47009,0.00105
1794.40991,0.00047
1792.34974,0.00000
1790.28957,-0.00003
1788.22940,0.00023
1786.16923,0.00036
1784.10905,0.00032
1782.04888,0.00019
1779.98871,0.00012
1777.92854,0.00017
1775.86836,0.00021
1773.80819,0.00027
1771.74802,0.00051
1769.68785,0.00080
1767.62768,0.00095
1765.56750,0.00115
1763.50733,0.00157
1761.44716,0.00226
1759.38699,0.00308
1757.32682,0.00410
1755.26664,0.00534
1753.20647,0.00645
1751.14630,0.00764
1749.08613,0.00923
1747.02596,0.01061
1744.96578,0.01129
1742.90561,0.01158
1740.84544,0.01192
1738.78527,0.01224
1736.72509,0.01232
1734.66492,0.01222
1732.60475,0.01219
1730.54458,0.01229
1728.48441,0.01253
1726.42423,0.01287
1724.36406,0.01309
1722.30389,0.01305
1720.24372,0.01282
1718.18355,0.01234
1716.12337,0.01202
1714.06320,0.01242
1712.00303,0.01294
1709.94286,0.01296
1707.88268,0.01263
1705.82251,0.01243
1703.76234,0.01255
1701.70217,0.01268
1699.64200,0.01262
1697.58182,0.01286
1695.52165,0.01347
1693.46148,0.01395
1691.40131,0.01427
1689.34114,0.01470
1687.28096,0.01547
1685.22079,0.01696
1683.16062,0.01929
1681.10045,0.02142
1679.04028,0.02290
1676.98010,0.02393
1674.91993,0.02473
1672.85976,0.02518
1670.79959,0.02508
1668.73941,0.02460
1666.67924,0.02426
1664.61907,0.02414
1662.55890,0.02391
1660.49873,0.02335
1658.43855,0.02267
1656.37838,0.02204
1654.31821,0.02131
1652.25804,0.02076
1650.19787,0.02069
1648.13769,0.02061
1646.07752,0.02060
1644.01735,0.02108
1641.95718,0.02169
1639.89701,0.02209
1637.83683,0.02245
1635.77666,0.02306
1633.71649,0.02388
1631.65632,0.02461
1629.59614,0.02513
1627.53597,0.02534
1625.47580,0.02519
1623.41563,0.02503
1621.35546,0.02527
1619.29528,0.02569
1617.23511,0.02615
1615.17494,0.02674
1613.11477,0.02743
1611.05460,0.02835
1608.99442,0.02962
1606.93425,0.03088
1604.87408,0.03158
1602.81391,0.03141
1600.75373,0.03037
1598.69356,0.02880
1596.63339,0.02728
1594.57322,0.02614
1592.51305,0.02533
1590.45287,0.02469
1588.39270,0.02412
1586.33253,0.02343
1584.27236,0.02251
1582.21219,0.02156
1580.15201,0.02086
1578.09184,0.02032
1576.03167,0.01971
1573.97150,0.01916
1571.91133,0.01877
1569.85115,0.01840
1567.79098,0.01779
1565.73081,0.01682
1563.67064,0.01587
1561.61046,0.01519
1559.55029,0.01440
1557.49012,0.01358
1555.42995,0.01299
1553.36978,0.01236
1551.30960,0.01171
1549.24943,0.01110
1547.18926,0.01047
1545.12909,0.00991
1543.06892,0.00943
1541.00874,0.00889
1538.94857,0.00824
1536.88840,0.00755
1534.82823,0.00695
1532.76805,0.00662
1530.70788,0.00633
1528.64771,0.00578
1526.58754,0.00524
1524.52737,0.00509
1522.46719,0.00547
1520.40702,0.00645
1518.34685,0.00782
1516.28668,0.00922
1514.22651,0.00999
1512.16633,0.00974
1510.10616,0.00863
1508.04599,0.00700
1505.98582,0.00557
1503.92565,0.00477
1501.86547,0.00403
1499.80530,0.00302
1497.74513,0.00204
1495.68496,0.00151
1493.62478,0.00119
1491.56461,0.00078
1489.50444,0.00035
1487.44427,0.00022
1485.38410,0.00041
1483.32392,0.00074
1481.26375,0.00110
1479.20358,0.00151
1477.14341,0.00200
1475.08324,0.00279
1473.02306,0.00434
1470.96289,0.00640
1468.90272,0.00814
1466.84255,0.00961
1464.78238,0.01101
1462.72220,0.01211
1460.66203,0.01278
1458.60186,0.01337
1456.54169,0.01422
1454.48151,0.01513
1452.42134,0.01579
1450.36117,0.01644
1448.30100,0.01730
1446.24083,0.01825
1444.18065,0.01907
1442.12048,0.01971
1440.06031,0.02016
1438.00014,0.02054
1435.93997,0.02112
1433.87979,0.02179
1431.81962,0.02217
1429.75945,0.02214
1427.69928,0.02190
1425.63910,0.02170
1423.57893,0.02167
1421.51876,0.02180
1419.45859,0.02186
1417.39842,0.02180
1415.33824,0.02184
1413.27807,0.02198
1411.21790,0.02194
1409.15773,0.02155
1407.09756,0.02092
1405.03738,0.02030
1402.97721,0.01977
1400.91704,0.01918
1398.85687,0.01846
1396.79670,0.01772
1394.73652,0.01706
1392.67635,0.01657
1390.61618,0.01644
1388.55601,0.01670
1386.49583,0.01723
1384.43566,0.01788
1382.37549,0.01858
1380.31532,0.01929
1378.25515,0.01993
1376.19497,0.02033
1374.13480,0.02040
1372.07463,0.02045
1370.01446,0.02060
1367.95429,0.02063
1365.89411,0.02027
1363.83394,0.01953
1361.77377,0.01886
1359.71360,0.01858
1357.65343,0.01845
1355.59325,0.01826
1353.53308,0.01816
1351.47291,0.01820
1349.41274,0.01824
1347.35256,0.01821
1345.29239,0.01812
1343.23222,0.01795
1341.17205,0.01778
1339.11188,0.01779
1337.05170,0.01799
1334.99153,0.01810
1332.93136,0.01804
1330.87119,0.01799
1328.81102,0.01803
1326.75084,0.01813
1324.69067,0.01813
1322.63050,0.01800
1320.57033,0.01790
1318.51015,0.01783
1316.44998,0.01769
1314.38981,0.01758
1312.32964,0.01765
1310.26947,0.01774
1308.20929,0.01748
1306.14912,0.01676
1304.08895,0.01597
1302.02878,0.01549
1299.96861,0.01514
1297.90843,0.01472
1295.84826,0.01440
1293.78809,0.01439
1291.72792,0.01462
1289.66775,0.01491
1287.60757,0.01515
1285.54740,0.01533
1283.48723,0.01548
1281.42706,0.01560
1279.36688,0.01557
1277.30671,0.01551
1275.24654,0.01570
1273.18637,0.01606
1271.12620,0.01630
1269.06602,0.01656
1267.00585,0.01718
1264.94568,0.01814
1262.88551,0.01903
1260.82534,0.01963
1258.76516,0.02012
1256.70499,0.02064
1254.64482,0.02108
1252.58465,0.02136
1250.52447,0.02163
1248.46430,0.02188
1246.40413,0.02210
1244.34396,0.02235
1242.28379,0.02255
1240.22361,0.02269
1238.16344,0.02279
1236.10327,0.02265
1234.04310,0.02214
1231.98293,0.02129
1229.92275,0.02031
1227.86258,0.01936
1225.80241,0.01858
1223.74224,0.01798
1221.68207,0.01714
1219.62189,0.01583
1217.56172,0.01447
1215.50155,0.01332
1213.44138,0.01224
1211.38120,0.01128
1209.32103,0.01045
1207.26086,0.00956
1205.20069,0.00858
1203.14052,0.00756
1201.08034,0.00643
1199.02017,0.00508
1196.96000,0.00371
1194.89983,0.00252
1192.83966,0.00167
1190.77948,0.00102
1188.71931,0.00039
1186.65914,0.00000
1184.59897,-0.00004
1182.53880,0.00019
1180.47862,0.00049
1178.41845,0.00103
1176.35828,0.00202
1174.29811,0.00349
1172.23793,0.00553
1170.17776,0.00771
1168.11759,0.00940
1166.05742,0.01038
1163.99725,0.01095
1161.93707,0.01135
1159.87690,0.01172
1157.81673,0.01223
1155.75656,0.01287
1153.69639,0.01349
1151.63621,0.01414
1149.57604,0.01506
1147.51587,0.01608
1145.45570,0.01687
1143.39552,0.01764
1141.33535,0.01851
1139.27518,0.01911
1137.21501,0.01940
1135.15484,0.01987
1133.09466,0.02057
1131.03449,0.02134
1128.97432,0.02233
1126.91415,0.02331
1124.85398,0.02403
1122.79380,0.02502
1120.73363,0.02628
1118.67346,0.02728
1116.61329,0.02814
1114.55312,0.02902
1112.49294,0.02992
1110.43277,0.03104
1108.37260,0.03239
1106.31243,0.03347
1104.25225,0.03423
1102.19208,0.03511
1100.13191,0.03626
1098.07174,0.03798
1096.01157,0.04006
1093.95139,0.04175
1091.89122,0.04317
1089.83105,0.04467
1087.77088,0.04609
1085.71071,0.04735
1083.65053,0.04857
1081.59036,0.05002
1079.53019,0.05185
1077.47002,0.05402
1075.40985,0.05638
1073.34967,0.05850
1071.28950,0.06018
1069.22933,0.06161
1067.16916,0.06294
1065.10898,0.06409
1063.04881,0.06513
1060.98864,0.06626
1058.92847,0.06733
1056.86830,0.06847
1054.80812,0.06997
1052.74795,0.07169
1050.68778,0.07359
1048.62761,0.07573
1046.56744,0.07776
1044.50726,0.07969
1042.44709,0.08163
1040.38692,0.08315
1038.32675,0.08436
1036.26657,0.08581
1034.20640,0.08714
1032.14623,0.08786
1030.08606,0.08794
1028.02589,0.08762
1025.96571,0.08744
1023.90554,0.08728
1021.84537,0.08666
1019.78520,0.08591
1017.72503,0.08560
1015.66485,0.08565
1013.60468,0.08588
1011.54451,0.08620
1009.48434,0.08643
1007.42417,0.08673
1005.36399,0.08684
1003.30382,0.08612
1001.24365,0.08482
999.18348,0.08357
997.12330,0.08266
995.06313,0.08187
993.00296,0.08060
990.94279,0.07886
988.88262,0.07744
986.82244,0.07662
984.76227,0.07585
982.70210,0.07455
980.64193,0.07288
978.58176,0.07138
976.52158,0.07004
974.46141,0.06870
972.40124,0.06754
970.34107,0.06632
968.28089,0.06477
966.22072,0.06339
964.16055,0.06224
962.10038,0.06099
960.04021,0.05950
957.98003,0.05777
955.91986,0.05617
953.85969,0.05492
951.79952,0.05387
949.73935,0.05271
947.67917,0.05123
945.61900,0.04964
943.55883,0.04820
941.49866,0.04642
939.43849,0.04403
937.37831,0.04177
935.31814,0.03972
933.25797,0.03705
931.19780,0.03416
929.13762,0.03176
927.07745,0.02987
925.01728,0.02843
922.95711,0.02697
920.89694,0.02512
918.83676,0.02330
916.77659,0.02164
914.71642,0.01989
912.65625,0.01848
910.59608,0.01761
908.53590,0.01692
906.47573,0.01646
904.41556,0.01601
902.35539,0.01517
900.29522,0.01447
898.23504,0.01463
896.17487,0.01538
894.11470,0.01597
892.05453,0.01603
889.99435,0.01571
887.93418,0.01502
885.87401,0.01380
883.81384,0.01259
881.75367,0.01181
879.69349,0.01087
877.63332,0.00962
875.57315,0.00877
873.51298,0.00849
871.45281,0.00802
869.39263,0.00711
867.33246,0.00642
865.27229,0.00633
863.21212,0.00667
861.15194,0.00687
859.09177,0.00670
857.03160,0.00676
854.97143,0.00711
852.91126,0.00697
850.85108,0.00623
848.79091,0.00583
846.73074,0.00633
844.67057,0.00713
842.61040,0.00742
840.55022,0.00708
838.49005,0.00636
836.42988,0.00556
834.36971,0.00498
832.30954,0.00477
830.24936,0.00468
828.18919,0.00438
826.12902,0.00422
824.06885,0.00426
822.00867,0.00393
819.94850,0.00346
817.88833,0.00310
815.82816,0.00266
813.76799,0.00238
811.70781,0.00192
809.64764,0.00128
807.58747,0.00123
805.52730,0.00186
803.46713,0.00235
801.40695,0.00258
799.34678,0.00302
797.28661,0.00266
795.22644,0.00140
793.16627,0.00044
791.10609,0.00000
789.04592,0.00023
786.98575,0.00079
784.92558,0.00099
782.86540,0.00124
780.80523,0.00173
778.74506,0.00210
776.68489,0.00213
774.62472,0.00182
772.56454,0.00166
770.50437,0.00182
768.44420,0.00175
766.38403,0.00151
764.32386,0.00179
762.26368,0.00243
760.20351,0.00253
758.14334,0.00181
756.08317,0.00081
754.02299,0.00028
751.96282,0.00018
749.90265,0.00000
747.84248,-0.00002
745.78231,0.00054
743.72213,0.00108
741.66196,0.00098
739.60179,0.00065
737.54162,0.00068
735.48145,0.00007
733.42127,-0.00092
731.36110,-0.00073
729.30093,0.00060
727.24076,0.00198
725.18059,0.00277
723.12041,0.00301
721.06024,0.00319
719.00007,0.00284
716.93990,0.00234
714.87972,0.00255
712.81955,0.00382
710.75938,0.00485
708.69921,0.00480
706.63904,0.00459
704.57886,0.00467
702.51869,0.00502
700.45852,0.00540
698.39835,0.00520
696.33818,0.00486
694.27800,0.00543
692.21783,0.00652
690.15766,0.00684
688.09749,0.00599
686.03731,0.00451
683.97714,0.00274
681.91697,0.00092
679.85680,0.00000
677.79663,0.00010
675.73645,0.00044
673.67628,0.00078
671.61611,0.00162
669.55594,0.00414
667.49577,0.00431
665.43559,0.00057
663.37542,0.00165
661.31525,0.00305
659.25508,0.00291
657.19491,0.00306
655.13473,0.00435
653.07456,0.00560
651.01439,0.00513
648.95422,0.00350
646.89404,0.00324
644.83387,0.00511
642.77370,0.00627
640.71353,0.00599
638.65336,0.00672
636.59318,0.00787
634.53301,0.00657
632.47284,0.00477
630.41267,0.00601
628.35250,0.00726
626.29232,0.00413
624.23215,0.00253
622.17198,0.00571
620.11181,0.00626
618.05164,0.00376
615.99146,0.00347
613.93129,0.00175
611.87112,-0.00091
609.81095,0.00032
607.75077,0.00326
605.69060,0.00361
603.63043,0.00149
601.57026,-0.00015
599.51009,0.00000
