3996.73391,0.00041
3994.67373,0.00033
3992.61356,0.00026
3990.55339,0.00030
3988.49322,0.00041
3986.43305,0.00040
3984.37287,0.00019
3982.31270,0.00009
3980.25253,0.00023
3978.19236,0.00032
3976.13219,0.00036
3974.07201,0.00046
3972.01184,0.00050
3969.95167,0.00045
3967.89150,0.00029
3965.83133,0.00006
3963.77115,0.00000
3961.71098,0.00016
3959.65081,0.00048
3957.59064,0.00090
3955.53046,0.00115
3953.47029,0.00105
3951.41012,0.00075
3949.34995,0.00056
3947.28978,0.00068
3945.22960,0.00085
3943.16943,0.00077
3941.10926,0.00059
3939.04909,0.00057
3936.98892,0.00052
3934.92874,0.00024
3932.86857,0.00003
3930.80840,0.00015
3928.74823,0.00040
3926.68805,0.00063
3924.62788,0.00082
3922.56771,0.00099
3920.50754,0.00118
3918.44737,0.00136
3916.38719,0.00144
3914.32702,0.00133
3912.26685,0.00109
3910.20668,0.00081
3908.14651,0.00062
3906.08633,0.00076
3904.02616,0.00120
3901.96599,0.00146
3899.90582,0.00134
3897.84565,0.00115
3895.78547,0.00099
3893.72530,0.00089
3891.66513,0.00108
3889.60496,0.00145
3887.54478,0.00167
3885.48461,0.00169
3883.42444,0.00167
3881.36427,0.00172
3879.30410,0.00161
3877.24392,0.00101
3875.18375,0.00025
3873.12358,0.00000
3871.06341,0.00037
3869.00324,0.00094
3866.94306,0.00126
3864.88289,0.00135
3862.82272,0.00143
3860.76255,0.00149
3858.70237,0.00146
3856.64220,0.00138
3854.58203,0.00132
3852.52186,0.00141
3850.46169,0.00161
3848.40151,0.00158
3846.34134,0.00111
3844.28117,0.00049
3842.22100,0.00021
3840.16083,0.00031
3838.10065,0.00054
3836.04048,0.00092
3833.98031,0.00132
3831.92014,0.00157
3829.85997,0.00167
3827.79979,0.00161
3825.73962,0.00139
3823.67945,0.00123
3821.61928,0.00145
3819.55910,0.00182
3817.49893,0.00201
3815.43876,0.00217
3813.37859,0.00215
3811.31842,0.00177
3809.25824,0.00137
3807.19807,0.00118
3805.13790,0.00104
3803.07773,0.00069
3801.01756,0.00045
3798.95738,0.00066
3796.89721,0.00099
3794.83704,0.00118
3792.77687,0.00127
3790.71670,0.00126
3788.65652,0.00107
3786.59635,0.00095
3784.53618,0.00113
3782.47601,0.00135
3780.41583,0.00132
3778.35566,0.00106
3776.29549,0.00068
3774.23532,0.00035
3772.17515,0.00024
3770.11497,0.00029
3768.05480,0.00030
3765.99463,0.00028
3763.93446,0.00038
3761.87429,0.00055
3759.81411,0.00081
3757.75394,0.00111
3755.69377,0.00122
3753.63360,0.00111
3751.57342,0.00094
3749.51325,0.00084
3747.45308,0.00067
3745.39291,0.00026
3743.33274,0.00000
3741.27256,0.00031
3739.21239,0.00080
3737.15222,0.00102
3735.09205,0.00079
3733.03188,0.00040
3730.97170,0.00021
3728.91153,0.00036
3726.85136,0.00074
3724.79119,0.00098
3722.73102,0.00095
3720.67084,0.00087
3718.61067,0.00075
3716.55050,0.00049
3714.49033,0.00042
3712.43015,0.00091
3710.36998,0.00162
3708.30981,0.00191
3706.24964,0.00169
3704.18947,0.00150
3702.12929,0.00149
3700.06912,0.00140
3698.00895,0.00114
3695.94878,0.00077
3693.88861,0.00045
3691.82843,0.00040
3689.76826,0.00067
3687.70809,0.00066
3685.64792,0.00029
3683.58775,0.00008
3681.52757,0.00035
3679.46740,0.00069
3677.40723,0.00067
3675.34706,0.00060
3673.28688,0.00070
3671.22671,0.00082
3669.16654,0.00115
3667.10637,0.00139
3665.04620,0.00120
3662.98602,0.00092
3660.92585,0.00089
3658.86568,0.00100
3656.80551,0.00106
3654.74534,0.00120
3652.68516,0.00137
3650.62499,0.00121
3648.56482,0.00096
3646.50465,0.00114
3644.44447,0.00148
3642.38430,0.00176
3640.32413,0.00193
3638.26396,0.00193
3636.20379,0.00189
3634.14361,0.00184
3632.08344,0.00170
3630.02327,0.00203
3627.96310,0.00299
3625.90293,0.00357
3623.84275,0.00340
3621.78258,0.00310
3619.72241,0.00317
3617.66224,0.00349
3615.60207,0.00350
3613.54189,0.00301
3611.48172,0.00266
3609.42155,0.00300
3607.36138,0.00376
3605.30120,0.00437
3603.24103,0.00457
3601.18086,0.00455
3599.12069,0.00462
3597.06052,0.00505
3595.00034,0.00557
3592.94017,0.00568
3590.88000,0.00535
3588.81983,0.00511
3586.75966,0.00527
3584.69948,0.00559
3582.63931,0.00570
3580.57914,0.00586
3578.51897,0.00634
3576.45879,0.00688
3574.39862,0.00721
3572.33845,0.00740
3570.27828,0.00759
3568.21811,0.00794
3566.15793,0.00835
3564.09776,0.00855
3562.03759,0.00852
3559.97742,0.00838
3557.91725,0.00836
3555.85707,0.00866
3553.79690,0.00926
3551.73673,0.00997
3549.67656,0.01035
3547.61639,0.01039
3545.55621,0.01064
3543.49604,0.01116
3541.43587,0.01160
3539.37570,0.01180
3537.31552,0.01194
3535.25535,0.01222
3533.19518,0.01264
3531.13501,0.01308
3529.07484,0.01344
3527.01466,0.01369
3524.95449,0.01399
3522.89432,0.01446
3520.83415,0.01493
3518.77398,0.01523
3516.71380,0.01549
3514.65363,0.01592
3512.59346,0.01649
3510.53329,0.01706
3508.47312,0.01749
3506.41294,0.01776
3504.35277,0.01798
3502.29260,0.01819
3500.23243,0.01835
3498.17225,0.01845
3496.11208,0.01857
3494.05191,0.01887
3491.99174,0.01937
3489.93157,0.01989
3487.87139,0.02039
3485.81122,0.02081
3483.75105,0.02092
3481.69088,0.02092
3479.63071,0.02130
3477.57053,0.02176
3475.51036,0.02199
3473.45019,0.02233
3471.39002,0.02280
3469.32984,0.02324
3467.26967,0.02367
3465.20950,0.02405
3463.14933,0.02429
3461.08916,0.02446
3459.02898,0.02459
3456.96881,0.02479
3454.90864,0.02530
3452.84847,0.02579
3450.78830,0.02590
3448.72812,0.02593
3446.66795,0.02624
3444.60778,0.02665
3442.54761,0.02681
3440.48744,0.02694
3438.42726,0.02742
3436.36709,0.02807
3434.30692,0.02857
3432.24675,0.02892
3430.18657,0.02914
3428.12640,0.02922
3426.06623,0.02942
3424.00606,0.02969
3421.94589,0.02982
3419.88571,0.02989
3417.82554,0.02997
3415.76537,0.03017
3413.70520,0.03053
3411.64503,0.03088
3409.58485,0.03120
3407.52468,0.03135
3405.46451,0.03145
3403.40434,0.03202
3401.34416,0.03270
3399.28399,0.03280
3397.22382,0.03260
3395.16365,0.03260
3393.10348,0.03280
3391.04330,0.03311
3388.98313,0.03357
3386.92296,0.03390
3384.86279,0.03389
3382.80262,0.03380
3380.74244,0.03378
3378.68227,0.03394
3376.62210,0.03442
3374.56193,0.03501
3372.50176,0.03528
3370.44158,0.03526
3368.38141,0.03532
3366.32124,0.03546
3364.26107,0.03546
3362.20089,0.03540
3360.14072,0.03551
3358.08055,0.03564
3356.02038,0.03565
3353.96021,0.03582
3351.90003,0.03613
3349.83986,0.03626
3347.77969,0.03635
3345.71952,0.03663
3343.65935,0.03686
3341.59917,0.03691
3339.53900,0.03699
3337.47883,0.03707
3335.41866,0.03706
3333.35849,0.03709
3331.29831,0.03714
3329.23814,0.03712
3327.17797,0.03708
3325.11780,0.03703
3323.05762,0.03707
3320.99745,0.03730
3318.93728,0.03765
3316.87711,0.03793
3314.81694,0.03813
3312.75676,0.03831
3310.69659,0.03828
3308.63642,0.03807
3306.57625,0.03802
3304.51608,0.03802
3302.45590,0.03783
3300.39573,0.03771
3298.33556,0.03784
3296.27539,0.03793
3294.21521,0.03800
3292.15504,0.03829
3290.09487,0.03849
3288.03470,0.03822
3285.97453,0.03790
3283.91435,0.03794
3281.85418,0.03803
3279.79401,0.03792
3277.73384,0.03781
3275.67367,0.03787
3273.61349,0.03810
3271.55332,0.03837
3269.49315,0.03842
3267.43298,0.03839
3265.37281,0.03836
3263.31263,0.03818
3261.25246,0.03798
3259.19229,0.03785
3257.13212,0.03764
3255.07194,0.03736
3253.01177,0.03722
3250.95160,0.03738
3248.89143,0.03777
3246.83126,0.03789
3244.77108,0.03763
3242.71091,0.03733
3240.65074,0.03719
3238.59057,0.03711
3236.53040,0.03684
3234.47022,0.03664
3232.41005,0.03680
3230.34988,0.03682
3228.28971,0.03654
3226.22954,0.03644
3224.16936,0.03645
3222.10919,0.03622
3220.04902,0.03585
3217.98885,0.03557
3215.92867,0.03539
3213.86850,0.03530
3211.80833,0.03533
3209.74816,0.03548
3207.68799,0.03569
3205.62781,0.03564
3203.56764,0.03513
3201.50747,0.03464
3199.44730,0.03450
3197.38713,0.03451
3195.32695,0.03446
3193.26678,0.03424
3191.20661,0.03397
3189.14644,0.03387
3187.08626,0.03382
3185.02609,0.03359
3182.96592,0.03330
3180.90575,0.03304
3178.84558,0.03276
3176.78540,0.03248
3174.72523,0.03236
3172.66506,0.03250
3170.60489,0.03252
3168.54472,0.03218
3166.48454,0.03183
3164.42437,0.03168
3162.36420,0.03152
3160.30403,0.03121
3158.24386,0.03090
3156.18368,0.03077
3154.12351,0.03079
3152.06334,0.03072
3150.00317,0.03036
3147.94299,0.02991
3145.88282,0.02969
3143.82265,0.02970
3141.76248,0.02960
3139.70231,0.02932
3137.64213,0.02905
3135.58196,0.02877
3133.52179,0.02862
3131.46162,0.02857
3129.40145,0.02834
3127.34127,0.02798
3125.28110,0.02770
3123.22093,0.02756
3121.16076,0.02744
3119.10058,0.02723
3117.04041,0.02698
3114.98024,0.02680
3112.92007,0.02660
3110.85990,0.02632
3108.79972,0.02621
3106.73955,0.02629
3104.67938,0.02608
3102.61921,0.02555
3100.55904,0.02510
3098.49886,0.02484
3096.43869,0.02467
3094.37852,0.02466
3092.31835,0.02464
3090.25818,0.02446
3088.19800,0.02415
3086.13783,0.02394
3084.07766,0.02392
3082.01749,0.02388
3079.95731,0.02363
3077.89714,0.02332
3075.83697,0.02328
3073.77680,0.02337
3071.71663,0.02319
3069.65645,0.02289
3067.59628,0.02282
3065.53611,0.02266
3063.47594,0.02208
3061.41577,0.02164
3059.35559,0.02163
3057.29542,0.02157
3055.23525,0.02130
3053.17508,0.02099
3051.11491,0.02070
3049.05473,0.02054
3046.99456,0.02044
3044.93439,0.02034
3042.87422,0.02028
3040.81404,0.02016
3038.75387,0.01991
3036.69370,0.01971
3034.63353,0.01966
3032.57336,0.01959
3030.51318,0.01941
3028.45301,0.01906
3026.39284,0.01866
3024.33267,0.01844
3022.27250,0.01827
3020.21232,0.01808
3018.15215,0.01812
3016.09198,0.01824
3014.03181,0.01813
3011.97163,0.01782
3009.91146,0.01764
3007.85129,0.01773
3005.79112,0.01779
3003.73095,0.01768
3001.67077,0.01761
2999.61060,0.01763
2997.55043,0.01753
2995.49026,0.01730
2993.43009,0.01716
2991.36991,0.01725
2989.30974,0.01744
2987.24957,0.01759
2985.18940,0.01759
2983.12923,0.01758
2981.06905,0.01778
2979.00888,0.01797
2976.94871,0.01805
2974.88854,0.01833
2972.82836,0.01893
2970.76819,0.01971
2968.70802,0.02060
2966.64785,0.02158
2964.58768,0.02263
2962.52750,0.02360
2960.46733,0.02441
2958.40716,0.02538
2956.34699,0.02676
2954.28682,0.02821
2952.22664,0.02940
2950.16647,0.03043
2948.10630,0.03165
2946.04613,0.03320
2943.98596,0.03493
2941.92578,0.03666
2939.86561,0.03833
2937.80544,0.04010
2935.74527,0.04202
2933.68509,0.04399
2931.62492,0.04581
2929.56475,0.04740
2927.50458,0.04878
2925.44441,0.04985
2923.38423,0.05072
2921.32406,0.05132
2919.26389,0.05130
2917.20372,0.05058
2915.14355,0.04929
2913.08337,0.04758
2911.02320,0.04563
2908.96303,0.04393
2906.90286,0.04272
2904.84268,0.04144
2902.78251,0.04002
2900.72234,0.03893
2898.66217,0.03800
2896.60200,0.03697
2894.54182,0.03591
2892.48165,0.03495
2890.42148,0.03408
2888.36131,0.03325
2886.30114,0.03254
2884.24096,0.03205
2882.18079,0.03167
2880.12062,0.03136
2878.06045,0.03135
2876.00028,0.03159
2873.94010,0.03176
2871.87993,0.03182
2869.81976,0.03206
2867.75959,0.03262
2865.69941,0.03328
2863.63924,0.03409
2861.57907,0.03532
2859.51890,0.03675
2857.45873,0.03804
2855.39855,0.03910
2853.33838,0.03990
2851.27821,0.04031
2849.21804,0.03972
2847.15787,0.03788
2845.09769,0.03545
2843.03752,0.03307
2840.97735,0.03099
2838.91718,0.02938
2836.85700,0.02816
2834.79683,0.02699
2832.73666,0.02585
2830.67649,0.02499
2828.61632,0.02443
2826.55614,0.02400
2824.49597,0.02353
2822.43580,0.02292
2820.37563,0.02238
2818.31546,0.02206
2816.25528,0.02179
2814.19511,0.02145
2812.13494,0.02112
2810.07477,0.02089
2808.01460,0.02075
2805.95442,0.02061
2803.89425,0.02035
2801.83408,0.01986
2799.77391,0.01935
2797.71373,0.01910
2795.65356,0.01907
2793.59339,0.01902
2791.53322,0.01885
2789.47305,0.01860
2787.41287,0.01832
2785.35270,0.01815
2783.29253,0.01816
2781.23236,0.01826
2779.17219,0.01822
2777.11201,0.01793
2775.05184,0.01745
2772.99167,0.01720
2770.93150,0.01737
2768.87133,0.01753
2766.81115,0.01742
2764.75098,0.01720
2762.69081,0.01704
2760.63064,0.01701
2758.57046,0.01708
2756.51029,0.01715
2754.45012,0.01713
2752.38995,0.01705
2750.32978,0.01692
2748.26960,0.01679
2746.20943,0.01675
2744.14926,0.01675
2742.08909,0.01665
2740.02892,0.01648
2737.96874,0.01634
2735.90857,0.01627
2733.84840,0.01614
2731.78823,0.01596
2729.72805,0.01598
2727.66788,0.01612
2725.60771,0.01625
2723.54754,0.01639
2721.48737,0.01648
2719.42719,0.01646
2717.36702,0.01637
2715.30685,0.01624
2713.24668,0.01622
2711.18651,0.01625
2709.12633,0.01621
2707.06616,0.01612
2705.00599,0.01594
2702.94582,0.01579
2700.88565,0.01577
2698.82547,0.01565
2696.76530,0.01547
2694.70513,0.01546
2692.64496,0.01551
2690.58478,0.01550
2688.52461,0.01547
2686.46444,0.01550
2684.40427,0.01555
2682.34410,0.01549
2680.28392,0.01544
2678.22375,0.01545
2676.16358,0.01541
2674.10341,0.01540
2672.04324,0.01544
2669.98306,0.01541
2667.92289,0.01529
2665.86272,0.01521
2663.80255,0.01525
2661.74238,0.01532
2659.68220,0.01528
2657.62203,0.01500
2655.56186,0.01453
2653.50169,0.01418
2651.44151,0.01412
2649.38134,0.01419
2647.32117,0.01436
2645.26100,0.01464
2643.20083,0.01475
2641.14065,0.01465
2639.08048,0.01443
2637.02031,0.01408
2634.96014,0.01392
2632.89997,0.01395
2630.83979,0.01383
2628.77962,0.01363
2626.71945,0.01363
2624.65928,0.01375
2622.59910,0.01382
2620.53893,0.01363
2618.47876,0.01319
2616.41859,0.01295
2614.35842,0.01302
2612.29824,0.01304
2610.23807,0.01293
2608.17790,0.01278
2606.11773,0.01258
2604.05756,0.01248
2601.99738,0.01251
2599.93721,0.01258
2597.87704,0.01270
2595.81687,0.01277
2593.75670,0.01282
2591.69652,0.01286
2589.63635,0.01276
2587.57618,0.01248
2585.51601,0.01208
2583.45583,0.01189
2581.39566,0.01206
2579.33549,0.01223
2577.27532,0.01222
2575.21515,0.01205
2573.15497,0.01182
2571.09480,0.01157
2569.03463,0.01117
2566.97446,0.01089
2564.91429,0.01098
2562.85411,0.01121
2560.79394,0.01150
2558.73377,0.01190
2556.67360,0.01198
2554.61342,0.01159
2552.55325,0.01131
2550.49308,0.01145
2548.43291,0.01148
2546.37274,0.01122
2544.31256,0.01093
2542.25239,0.01078
2540.19222,0.01092
2538.13205,0.01095
2536.07188,0.01066
2534.01170,0.01047
2531.95153,0.01048
2529.89136,0.01052
2527.83119,0.01063
2525.77102,0.01081
2523.71084,0.01073
2521.65067,0.01035
2519.59050,0.01010
2517.53033,0.01016
2515.47015,0.01022
2513.40998,0.01024
2511.34981,0.01047
2509.28964,0.01070
2507.22947,0.01053
2505.16929,0.01017
2503.10912,0.01005
2501.04895,0.01015
2498.98878,0.01026
2496.92861,0.01034
2494.86843,0.01032
2492.80826,0.01010
2490.74809,0.00988
2488.68792,0.00986
2486.62775,0.01000
2484.56757,0.00998
2482.50740,0.00977
2480.44723,0.00961
2478.38706,0.00925
2476.32688,0.00897
2474.26671,0.00920
2472.20654,0.00942
2470.14637,0.00935
2468.08620,0.00929
2466.02602,0.00946
2463.96585,0.00972
2461.90568,0.00968
2459.84551,0.00947
2457.78534,0.00938
2455.72516,0.00935
2453.66499,0.00934
2451.60482,0.00938
2449.54465,0.00925
2447.48447,0.00908
2445.42430,0.00910
2443.36413,0.00906
2441.30396,0.00892
2439.24379,0.00894
2437.18361,0.00915
2435.12344,0.00927
2433.06327,0.00913
2431.00310,0.00911
2428.94293,0.00940
2426.88275,0.00961
2424.82258,0.00951
2422.76241,0.00899
2420.70224,0.00833
2418.64207,0.00801
2416.58189,0.00806
2414.52172,0.00831
2412.46155,0.00847
2410.40138,0.00838
2408.34120,0.00843
2406.28103,0.00858
2404.22086,0.00842
2402.16069,0.00823
2400.10052,0.00830
2398.04034,0.00846
2395.98017,0.00852
2393.92000,0.00846
2391.85983,0.00838
2389.79966,0.00831
2387.73948,0.00831
2385.67931,0.00836
2383.61914,0.00833
2381.55897,0.00821
2379.49880,0.00820
2377.43862,0.00815
2375.37845,0.00816
2373.31828,0.00819
2371.25811,0.00857
2369.19793,0.01003
2367.13776,0.01124
2365.07759,0.01005
2363.01742,0.00733
2360.95725,0.00486
2358.89707,0.00706
2356.83690,0.01031
2354.77673,0.01057
2352.71656,0.00959
2350.65639,0.00660
2348.59621,0.00467
2346.53604,0.00732
2344.47587,0.00830
2342.41570,0.00859
2340.35552,0.00893
2338.29535,0.00932
2336.23518,0.01037
2334.17501,0.01102
2332.11484,0.01123
2330.05466,0.01075
2327.99449,0.01010
2325.93432,0.00944
2323.87415,0.01036
2321.81398,0.01149
2319.75380,0.01119
2317.69363,0.00907
2315.63346,0.00761
2313.57329,0.00750
2311.51312,0.00819
2309.45294,0.00875
2307.39277,0.00835
2305.33260,0.00740
2303.27243,0.00701
2301.21225,0.00759
2299.15208,0.00813
2297.09191,0.00822
2295.03174,0.00820
2292.97157,0.00833
2290.91139,0.00853
2288.85122,0.00862
2286.79105,0.00851
2284.73088,0.00822
2282.67071,0.00789
2280.61053,0.00761
2278.55036,0.00735
2276.49019,0.00715
2274.43002,0.00698
2272.36984,0.00705
2270.30967,0.00752
2268.24950,0.00770
2266.18933,0.00706
2264.12916,0.00615
2262.06898,0.00560
2260.00881,0.00540
2257.94864,0.00547
2255.88847,0.00617
2253.82830,0.00718
2251.76812,0.00750
2249.70795,0.00709
2247.64778,0.00674
2245.58761,0.00652
2243.52744,0.00620
2241.46726,0.00572
2239.40709,0.00520
2237.34692,0.00546
2235.28675,0.00672
2233.22657,0.00748
2231.16640,0.00708
2229.10623,0.00645
2227.04606,0.00631
2224.98589,0.00647
2222.92571,0.00669
2220.86554,0.00733
2218.80537,0.00828
2216.74520,0.00799
2214.68503,0.00630
2212.62485,0.00533
2210.56468,0.00522
2208.50451,0.00435
2206.44434,0.00331
2204.38417,0.00371
2202.32399,0.00518
2200.26382,0.00657
2198.20365,0.00696
2196.14348,0.00571
2194.08330,0.00477
2192.02313,0.00563
2189.96296,0.00609
2187.90279,0.00534
2185.84262,0.00435
2183.78244,0.00333
2181.72227,0.00375
2179.66210,0.00568
2177.60193,0.00677
2175.54176,0.00661
2173.48158,0.00592
2171.42141,0.00495
2169.36124,0.00436
2167.30107,0.00415
2165.24089,0.00376
2163.18072,0.00334
2161.12055,0.00302
2159.06038,0.00289
2157.00021,0.00318
2154.94003,0.00332
2152.87986,0.00302
2150.81969,0.00315
2148.75952,0.00315
2146.69935,0.00257
2144.63917,0.00273
2142.57900,0.00304
2140.51883,0.00244
2138.45866,0.00218
2136.39849,0.00298
2134.33831,0.00384
2132.27814,0.00419
2130.21797,0.00420
2128.15780,0.00436
2126.09762,0.00509
2124.03745,0.00599
2121.97728,0.00620
2119.91711,0.00551
2117.85694,0.00496
2115.79676,0.00527
2113.73659,0.00567
2111.67642,0.00529
2109.61625,0.00452
2107.55608,0.00446
2105.49590,0.00519
2103.43573,0.00598
2101.37556,0.00630
2099.31539,0.00601
2097.25521,0.00587
2095.19504,0.00615
2093.13487,0.00613
2091.07470,0.00589
2089.01453,0.00564
2086.95435,0.00539
2084.89418,0.00558
2082.83401,0.00579
2080.77384,0.00530
2078.71367,0.00509
2076.65349,0.00589
2074.59332,0.00625
2072.53315,0.00534
2070.47298,0.00405
2068.41281,0.00323
2066.35263,0.00334
2064.29246,0.00451
2062.23229,0.00594
2060.17212,0.00655
2058.11194,0.00615
2056.05177,0.00536
2053.99160,0.00501
2051.93143,0.00518
2049.87126,0.00496
2047.81108,0.00421
2045.75091,0.00423
2043.69074,0.00467
2041.63057,0.00393
2039.57040,0.00307
2037.51022,0.00364
2035.45005,0.00484
2033.38988,0.00532
2031.32971,0.00418
2029.26954,0.00228
2027.20936,0.00183
2025.14919,0.00284
2023.08902,0.00403
2021.02885,0.00457
2018.96867,0.00344
2016.90850,0.00129
2014.84833,0.00040
2012.78816,0.00148
2010.72799,0.00304
2008.66781,0.00318
2006.60764,0.00284
2004.54747,0.00369
2002.48730,0.00416
2000.42713,0.00351
1998.36695,0.00304
1996.30678,0.00268
1994.24661,0.00221
1992.18644,0.00232
1990.12626,0.00284
1988.06609,0.00325
1986.00592,0.00359
1983.94575,0.00396
1981.88558,0.00447
1979.82540,0.00456
1977.76523,0.00345
1975.70506,0.00200
1973.64489,0.00183
1971.58472,0.00296
1969.52454,0.00388
1967.46437,0.00366
1965.40420,0.00251
1963.34403,0.00095
1961.28386,0.00000
1959.22368,0.00060
1957.16351,0.00203
1955.10334,0.00283
1953.04317,0.00307
1950.98299,0.00335
1948.92282,0.00342
1946.86265,0.00327
1944.80248,0.00345
1942.74231,0.00408
1940.68213,0.00441
1938.62196,0.00392
1936.56179,0.00351
1934.50162,0.00358
1932.44145,0.00331
1930.38127,0.00291
1928.32110,0.00299
1926.26093,0.00305
1924.20076,0.00279
1922.14059,0.00273
1920.08041,0.00291
1918.02024,0.00305
1915.96007,0.00317
1913.89990,0.00322
1911.83972,0.00317
1909.77955,0.00336
1907.71938,0.00368
1905.65921,0.00360
1903.59904,0.00305
1901.53886,0.00237
1899.47869,0.00186
1897.41852,0.00184
1895.35835,0.00236
1893.29818,0.00281
1891.23800,0.00278
1889.17783,0.00264
1887.11766,0.00275
1885.05749,0.00307
1882.99731,0.00316
1880.93714,0.00279
1878.87697,0.00229
1876.81680,0.00200
1874.75663,0.00203
1872.69645,0.00228
1870.63628,0.00241
1868.57611,0.00227
1866.51594,0.00230
1864.45577,0.00269
1862.39559,0.00280
1860.33542,0.00223
1858.27525,0.00147
1856.21508,0.00117
1854.15491,0.00141
1852.09473,0.00178
1850.03456,0.00199
1847.97439,0.00212
1845.91422,0.00216
1843.85404,0.00206
1841.79387,0.00196
1839.73370,0.00193
1837.67353,0.00178
1835.61336,0.00142
1833.55318,0.00099
1831.49301,0.00076
1829.43284,0.00083
1827.37267,0.00095
1825.31250,0.00113
1823.25232,0.00136
1821.19215,0.00130
1819.13198,0.00105
1817.07181,0.00105
1815.01163,0.00127
1812.95146,0.00131
1810.89129,0.00110
1808.83112,0.00082
1806.77095,0.00071
1804.71077,0.00086
1802.65060,0.00116
1800.59043,0.00132
1798.53026,0.00110
1796.47009,0.00073
1794.40991,0.00043
1792.34974,0.00033
1790.28957,0.00041
1788.22940,0.00049
1786.16923,0.00054
1784.10905,0.00055
1782.04888,0.00041
1779.98871,0.00020
1777.92854,0.00009
1775.86836,0.00000
1773.80819,-0.00003
1771.74802,0.00025
1769.68785,0.00068
1767.62768,0.00102
1765.56750,0.00131
1763.50733,0.00169
1761.44716,0.00228
1759.38699,0.00301
1757.32682,0.00394
1755.26664,0.00516
1753.20647,0.00643
1751.14630,0.00767
1749.08613,0.00899
1747.02596,0.01029
1744.96578,0.01129
1742.90561,0.01201
1740.84544,0.01264
1738.78527,0.01304
1736.72509,0.01309
1734.66492,0.01298
1732.60475,0.01287
1730.54458,0.01271
1728.48441,0.01265
1726.42423,0.01278
1724.36406,0.01292
1722.30389,0.01293
1720.24372,0.01285
1718.18355,0.01272
1716.12337,0.01272
1714.06320,0.01303
1712.00303,0.01335
1709.94286,0.01348
1707.88268,0.01340
1705.82251,0.01322
1703.76234,0.01311
1701.70217,0.01311
1699.64200,0.01306
1697.58182,0.01309
1695.52165,0.01344
1693.46148,0.01394
1691.40131,0.01446
1689.34114,0.01507
1687.28096,0.01573
1685.22079,0.01682
1683.16062,0.01885
1681.10045,0.02109
1679.04028,0.02283
1676.98010,0.02408
1674.91993,0.02505
1672.85976,0.02560
1670.79959,0.02553
1668.73941,0.02510
1666.67924,0.02473
1664.61907,0.02436
1662.55890,0.02379
1660.49873,0.02316
1658.43855,0.02266
1656.37838,0.02216
1654.31821,0.02150
1652.25804,0.02099
1650.19787,0.02096
1648.13769,0.02098
1646.07752,0.02112
1644.01735,0.02158
1641.95718,0.02204
1639.89701,0.02240
1637.83683,0.02299
1635.77666,0.02389
1633.71649,0.02447
1631.65632,0.02464
1629.59614,0.02494
1627.53597,0.02553
1625.47580,0.02597
1623.41563,0.02606
1621.35546,0.02611
1619.29528,0.02635
1617.23511,0.02676
1615.17494,0.02729
1613.11477,0.02793
1611.05460,0.02888
1608.99442,0.03016
1606.93425,0.03129
1604.87408,0.03171
1602.81391,0.03130
1600.75373,0.03038
1598.69356,0.02921
1596.63339,0.02780
1594.57322,0.02641
1592.51305,0.02549
1590.45287,0.02498
1588.39270,0.02442
1586.33253,0.02359
1584.27236,0.02265
1582.21219,0.02173
1580.15201,0.02094
1578.09184,0.02038
1576.03167,0.02004
1573.97150,0.01980
1571.91133,0.01949
1569.85115,0.01897
1567.79098,0.01820
1565.73081,0.01727
1563.67064,0.01639
1561.61046,0.01569
1559.55029,0.01476
1557.49012,0.01357
1555.42995,0.01280
1553.36978,0.01215
1551.30960,0.01141
1549.24943,0.01078
1547.18926,0.01018
1545.12909,0.00949
1543.06892,0.00867
1541.00874,0.00778
1538.94857,0.00726
1536.88840,0.00724
1534.82823,0.00722
1532.76805,0.00701
1530.70788,0.00664
1528.64771,0.00614
1526.58754,0.00559
1524.52737,0.00526
1522.46719,0.00566
1520.40702,0.00705
1518.34685,0.00862
1516.28668,0.00965
1514.22651,0.00999
1512.16633,0.00972
1510.10616,0.00889
1508.04599,0.00742
1505.98582,0.00561
1503.92565,0.00445
1501.86547,0.00380
1499.80530,0.00314
1497.74513,0.00241
1495.68496,0.00187
1493.62478,0.00149
1491.56461,0.00101
1489.50444,0.00056
1487.44427,0.00035
1485.38410,0.00036
1483.32392,0.00049
1481.26375,0.00078
1479.20358,0.00125
1477.14341,0.00190
1475.08324,0.00280
1473.02306,0.00429
1470.96289,0.00632
1468.90272,0.00824
1466.84255,0.00995
1464.78238,0.01157
1462.72220,0.01276
1460.66203,0.01337
1458.60186,0.01388
1456.54169,0.01472
1454.48151,0.01551
1452.42134,0.01605
1450.36117,0.01670
1448.30100,0.01753
1446.24083,0.01839
1444.18065,0.01919
1442.12048,0.01986
1440.06031,0.02035
1438.00014,0.02079
1435.93997,0.02141
1433.87979,0.02199
1431.81962,0.02225
1429.75945,0.02229
1427.69928,0.02222
1425.63910,0.02208
1423.57893,0.02206
1421.51876,0.02226
1419.45859,0.02251
1417.39842,0.02261
1415.33824,0.02245
1413.27807,0.02211
1411.21790,0.02180
1409.15773,0.02159
1407.09756,0.02126
1405.03738,0.02058
1402.97721,0.01971
1400.91704,0.01894
1398.85687,0.01830
1396.79670,0.01779
1394.73652,0.01731
1392.67635,0.01693
1390.61618,0.01677
1388.55601,0.01695
1386.49583,0.01750
1384.43566,0.01818
1382.37549,0.01881
1380.31532,0.01939
1378.25515,0.01993
1376.19497,0.02031
1374.13480,0.02054
1372.07463,0.02079
1370.01446,0.02101
1367.95429,0.02099
1365.89411,0.02072
1363.83394,0.02036
1361.77377,0.01996
1359.71360,0.01948
1357.65343,0.01900
1355.59325,0.01861
1353.53308,0.01842
1351.47291,0.01842
1349.41274,0.01848
1347.35256,0.01852
1345.29239,0.01855
1343.23222,0.01848
1341.17205,0.01830
1339.11188,0.01814
1337.05170,0.01807
1334.99153,0.01810
1332.93136,0.01821
1330.87119,0.01839
1328.81102,0.01852
1326.75084,0.01855
1324.69067,0.01855
1322.63050,0.01854
1320.57033,0.01857
1318.51015,0.01858
1316.44998,0.01847
1314.38981,0.01825
1312.32964,0.01796
1310.26947,0.01765
1308.20929,0.01733
1306.14912,0.01697
1304.08895,0.01650
1302.02878,0.01593
1299.96861,0.01532
1297.90843,0.01487
1295.84826,0.01469
1293.78809,0.01471
1291.72792,0.01487
1289.66775,0.01509
1287.60757,0.01538
1285.54740,0.01562
1283.48723,0.01563
1281.42706,0.01552
1279.36688,0.01565
1277.30671,0.01606
1275.24654,0.01644
1273.18637,0.01665
1271.12620,0.01682
1269.06602,0.01714
1267.00585,0.01768
1264.94568,0.01837
1262.88551,0.01911
1260.82534,0.01976
1258.76516,0.02031
1256.70499,0.02097
1254.64482,0.02155
1252.58465,0.02174
1250.52447,0.02185
1248.46430,0.02220
1246.40413,0.02268
1244.34396,0.02307
1242.28379,0.02322
1240.22361,0.02309
1238.16344,0.02281
1236.10327,0.02246
1234.04310,0.02202
1231.98293,0.02151
1229.92275,0.02084
1227.86258,0.02002
1225.80241,0.01916
1223.74224,0.01828
1221.68207,0.01727
1219.62189,0.01611
1217.56172,0.01495
1215.50155,0.01390
1213.44138,0.01294
1211.38120,0.01195
1209.32103,0.01085
1207.26086,0.00972
1205.20069,0.00865
1203.14052,0.00749
1201.08034,0.00623
1199.02017,0.00500
1196.96000,0.00382
1194.89983,0.00269
1192.83966,0.00172
1190.77948,0.00103
1188.71931,0.00053
1186.65914,0.00015
1184.59897,0.00000
1182.53880,0.00009
1180.47862,0.00055
1178.41845,0.00136
1176.35828,0.00238
1174.29811,0.00375
1172.23793,0.00565
1170.17776,0.00764
1168.11759,0.00921
1166.05742,0.01025
1163.99725,0.01097
1161.93707,0.01155
1159.87690,0.01214
1157.81673,0.01286
1155.75656,0.01345
1153.69639,0.01376
1151.63621,0.01415
1149.57604,0.01492
1147.51587,0.01610
1145.45570,0.01744
1143.39552,0.01845
1141.33535,0.01912
1139.27518,0.01962
1137.21501,0.01990
1135.15484,0.02023
1133.09466,0.02078
1131.03449,0.02163
1128.97432,0.02273
1126.91415,0.02371
1124.85398,0.02460
1122.79380,0.02562
1120.73363,0.02663
1118.67346,0.02762
1116.61329,0.02858
1114.55312,0.02949
1112.49294,0.03050
1110.43277,0.03170
1108.37260,0.03295
1106.31243,0.03403
1104.25225,0.03494
1102.19208,0.03591
1100.13191,0.03717
1098.07174,0.03879
1096.01157,0.04057
1093.95139,0.04219
1091.89122,0.04370
1089.83105,0.04511
1087.77088,0.04648
1085.71071,0.04822
1083.65053,0.05022
1081.59036,0.05194
1079.53019,0.05357
1077.47002,0.05548
1075.40985,0.05740
1073.34967,0.05927
1071.28950,0.06120
1069.22933,0.06275
1067.16916,0.06381
1065.10898,0.06484
1063.04881,0.06601
1060.98864,0.06720
1058.92847,0.06849
1056.86830,0.07004
1054.80812,0.07172
1052.74795,0.07327
1050.68778,0.07478
1048.62761,0.07665
1046.56744,0.07890
1044.50726,0.08106
1042.44709,0.08304
1040.38692,0.08483
1038.32675,0.08624
1036.26657,0.08741
1034.20640,0.08848
1032.14623,0.08919
1030.08606,0.08923
1028.02589,0.08879
1025.96571,0.08840
1023.90554,0.08803
1021.84537,0.08767
1019.78520,0.08751
1017.72503,0.08754
1015.66485,0.08766
1013.60468,0.08766
1011.54451,0.08750
1009.48434,0.08758
1007.42417,0.08808
1005.36399,0.08836
1003.30382,0.08774
1001.24365,0.08641
999.18348,0.08504
997.12330,0.08391
995.06313,0.08294
993.00296,0.08176
990.94279,0.08026
988.88262,0.07872
986.82244,0.07735
984.76227,0.07621
982.70210,0.07528
980.64193,0.07426
978.58176,0.07292
976.52158,0.07138
974.46141,0.06981
972.40124,0.06839
970.34107,0.06704
968.28089,0.06560
966.22072,0.06419
964.16055,0.06280
962.10038,0.06129
960.04021,0.05985
957.98003,0.05861
955.91986,0.05736
953.85969,0.05616
951.79952,0.05498
949.73935,0.05369
947.67917,0.05236
945.61900,0.05081
943.55883,0.04903
941.49866,0.04721
939.43849,0.04506
937.37831,0.04241
935.31814,0.03956
933.25797,0.03685
931.19780,0.03431
929.13762,0.03201
927.07745,0.03010
925.01728,0.02837
922.95711,0.02654
920.89694,0.02505
918.83676,0.02406
916.77659,0.02284
914.71642,0.02115
912.65625,0.01949
910.59608,0.01812
908.53590,0.01693
906.47573,0.01590
904.41556,0.01527
902.35539,0.01499
900.29522,0.01480
898.23504,0.01479
896.17487,0.01513
894.11470,0.01546
892.05453,0.01559
889.99435,0.01567
887.93418,0.01551
885.87401,0.01489
883.81384,0.01396
881.75367,0.01292
879.69349,0.01196
877.63332,0.01107
875.57315,0.01004
873.51298,0.00898
871.45281,0.00823
869.39263,0.00766
867.33246,0.00703
865.27229,0.00672
863.21212,0.00690
861.15194,0.00719
859.09177,0.00735
857.03160,0.00717
854.97143,0.00710
852.91126,0.00741
850.85108,0.00719
848.79091,0.00645
846.73074,0.00615
844.67057,0.00616
842.61040,0.00599
840.55022,0.00575
838.49005,0.00544
836.42988,0.00512
834.36971,0.00517
832.30954,0.00516
830.24936,0.00457
828.18919,0.00406
826.12902,0.00401
824.06885,0.00380
822.00867,0.00334
819.94850,0.00314
817.88833,0.00306
815.82816,0.00285
813.76799,0.00288
811.70781,0.00288
809.64764,0.00230
807.58747,0.00188
805.52730,0.00236
803.46713,0.00296
801.40695,0.00302
799.34678,0.00300
797.28661,0.00265
795.22644,0.00173
793.16627,0.00104
791.10609,0.00113
789.04592,0.00166
786.98575,0.00145
784.92558,0.00065
782.86540,0.00060
780.80523,0.00115
778.74506,0.00158
776.68489,0.00160
774.62472,0.00143
772.56454,0.00122
770.50437,0.00088
768.44420,0.00089
766.38403,0.00114
764.32386,0.00112
762.26368,0.00173
760.20351,0.00282
758.14334,0.00274
756.08317,0.00169
754.02299,0.00121
751.96282,0.00134
749.90265,0.00129
747.84248,0.00134
745.78231,0.00145
743.72213,0.00088
741.66196,0.00000
739.60179,-0.00045
737.54162,-0.00025
735.48145,-0.00010
733.42127,0.00032
731.36110,0.00111
729.30093,0.00182
727.24076,0.00240
725.18059,0.00298
723.12041,0.00341
721.06024,0.00415
719.00007,0.00415
716.93990,0.00393
714.87972,0.00374
712.81955,0.00349
710.75938,0.00361
708.69921,0.00389
706.63904,0.00415
704.57886,0.00484
702.51869,0.00582
700.45852,0.00626
698.39835,0.00594
696.33818,0.00559
694.27800,0.00562
692.21783,0.00575
690.15766,0.00561
688.09749,0.00508
686.03731,0.00449
683.97714,0.00388
681.91697,0.00247
679.85680,0.00054
677.79663,0.00000
675.73645,0.00132
673.67628,0.00222
671.61611,0.00170
669.55594,0.00562
667.49577,0.00931
665.43559,0.00433
663.37542,0.00517
661.31525,0.00644
659.25508,0.00556
657.19491,0.00426
655.13473,0.00437
653.07456,0.00517
651.01439,0.00501
648.95422,0.00411
646.89404,0.00341
644.83387,0.00400
642.77370,0.00552
640.71353,0.00707
638.65336,0.00777
636.59318,0.00795
634.53301,0.00835
632.47284,0.00868
630.41267,0.00854
628.35250,0.00780
626.29232,0.00663
624.23215,0.00557
622.17198,0.00506
620.11181,0.00595
618.05164,0.00699
615.99146,0.00704
613.93129,0.00598
611.87112,0.00555
609.81095,0.00707
607.75077,0.00804
605.69060,0.00646
603.63043,0.00332
601.57026,0.00075
599.51009,0.00000
