3996.73391,0.00044
3994.67373,0.00038
3992.61356,0.00044
3990.55339,0.00048
3988.49322,0.00059
3986.43305,0.00070
3984.37287,0.00061
3982.31270,0.00038
3980.25253,0.00021
3978.19236,0.00006
3976.13219,0.00000
3974.07201,0.00016
3972.01184,0.00038
3969.95167,0.00058
3967.89150,0.00088
3965.83133,0.00105
3963.77115,0.00075
3961.71098,0.00040
3959.65081,0.00049
3957.59064,0.00069
3955.53046,0.00087
3953.47029,0.00101
3951.41012,0.00095
3949.34995,0.00096
3947.28978,0.00138
3945.22960,0.00147
3943.16943,0.00093
3941.10926,0.00082
3939.04909,0.00111
3936.98892,0.00130
3934.92874,0.00110
3932.86857,0.00062
3930.80840,0.00066
3928.74823,0.00100
3926.68805,0.00072
3924.62788,0.00040
3922.56771,0.00091
3920.50754,0.00126
3918.44737,0.00115
3916.38719,0.00132
3914.32702,0.00167
3912.26685,0.00168
3910.20668,0.00170
3908.14651,0.00167
3906.08633,0.00117
3904.02616,0.00105
3901.96599,0.00152
3899.90582,0.00151
3897.84565,0.00190
3895.78547,0.00242
3893.72530,0.00180
3891.66513,0.00134
3889.60496,0.00244
3887.54478,0.00258
3885.48461,0.00189
3883.42444,0.00217
3881.36427,0.00212
3879.30410,0.00273
3877.24392,0.00324
3875.18375,0.00218
3873.12358,0.00137
3871.06341,0.00090
3869.00324,0.00151
3866.94306,0.00234
3864.88289,0.00167
3862.82272,0.00178
3860.76255,0.00282
3858.70237,0.00339
3856.64220,0.00235
3854.58203,0.00000
3852.52186,0.00032
3850.46169,0.00295
3848.40151,0.00371
3846.34134,0.00274
3844.28117,0.00177
3842.22100,0.00180
3840.16083,0.00180
3838.10065,0.00191
3836.04048,0.00294
3833.98031,0.00340
3831.92014,0.00303
3829.85997,0.00293
3827.79979,0.00273
3825.73962,0.00279
3823.67945,0.00252
3821.61928,0.00202
3819.55910,0.00333
3817.49893,0.00314
3815.43876,0.00205
3813.37859,0.00269
3811.31842,0.00309
3809.25824,0.00243
3807.19807,0.00202
3805.13790,0.00273
3803.07773,0.00180
3801.01756,0.00081
3798.95738,0.00181
3796.89721,0.00219
3794.83704,0.00256
3792.77687,0.00270
3790.71670,0.00227
3788.65652,0.00196
3786.59635,0.00170
3784.53618,0.00186
3782.47601,0.00233
3780.41583,0.00194
3778.35566,0.00177
3776.29549,0.00218
3774.23532,0.00212
3772.17515,0.00139
3770.11497,0.00063
3768.05480,0.00081
3765.99463,0.00146
3763.93446,0.00251
3761.87429,0.00253
3759.81411,0.00152
3757.75394,0.00164
3755.69377,0.00223
3753.63360,0.00131
3751.57342,0.00017
3749.51325,0.00162
3747.45308,0.00274
3745.39291,0.00083
3743.33274,0.00056
3741.27256,0.00238
3739.21239,0.00278
3737.15222,0.00162
3735.09205,0.00057
3733.03188,0.00071
3730.97170,0.00160
3728.91153,0.00196
3726.85136,0.00134
3724.79119,0.00102
3722.73102,0.00100
3720.67084,0.00127
3718.61067,0.00188
3716.55050,0.00249
3714.49033,0.00201
3712.43015,0.00073
3710.36998,0.00088
3708.30981,0.00200
3706.24964,0.00241
3704.18947,0.00169
3702.12929,0.00092
3700.06912,0.00131
3698.00895,0.00163
3695.94878,0.00159
3693.88861,0.00173
3691.82843,0.00115
3689.76826,0.00000
3687.70809,0.00034
3685.64792,0.00161
3683.58775,0.00209
3681.52757,0.00225
3679.46740,0.00238
3677.40723,0.00144
3675.34706,0.00102
3673.28688,0.00267
3671.22671,0.00205
3669.16654,0.00122
3667.10637,0.00231
3665.04620,0.00252
3662.98602,0.00205
3660.92585,0.00211
3658.86568,0.00221
3656.80551,0.00221
3654.74534,0.00325
3652.68516,0.00332
3650.62499,0.00141
3648.56482,0.00081
3646.50465,0.00220
3644.44447,0.00320
3642.38430,0.00316
3640.32413,0.00317
3638.26396,0.00340
3636.20379,0.00356
3634.14361,0.00367
3632.08344,0.00324
3630.02327,0.00180
3627.96310,0.00242
3625.90293,0.00481
3623.84275,0.00542
3621.78258,0.00422
3619.72241,0.00302
3617.66224,0.00374
3615.60207,0.00480
3613.54189,0.00482
3611.48172,0.00465
3609.42155,0.00429
3607.36138,0.00433
3605.30120,0.00491
3603.24103,0.00501
3601.18086,0.00492
3599.12069,0.00535
3597.06052,0.00568
3595.00034,0.00578
3592.94017,0.00625
3590.88000,0.00632
3588.81983,0.00538
3586.75966,0.00537
3584.69948,0.00668
3582.63931,0.00728
3580.57914,0.00719
3578.51897,0.00736
3576.45879,0.00788
3574.39862,0.00851
3572.33845,0.00899
3570.27828,0.00874
3568.21811,0.00792
3566.15793,0.00825
3564.09776,0.00954
3562.03759,0.00994
3559.97742,0.00974
3557.91725,0.00993
3555.85707,0.01025
3553.79690,0.01022
3551.73673,0.01041
3549.67656,0.01088
3547.61639,0.01106
3545.55621,0.01155
3543.49604,0.01247
3541.43587,0.01298
3539.37570,0.01303
3537.31552,0.01307
3535.25535,0.01352
3533.19518,0.01419
3531.13501,0.01454
3529.07484,0.01459
3527.01466,0.01476
3524.95449,0.01509
3522.89432,0.01555
3520.83415,0.01609
3518.77398,0.01636
3516.71380,0.01670
3514.65363,0.01725
3512.59346,0.01761
3510.53329,0.01779
3508.47312,0.01823
3506.41294,0.01861
3504.35277,0.01854
3502.29260,0.01877
3500.23243,0.01929
3498.17225,0.01952
3496.11208,0.01963
3494.05191,0.01993
3491.99174,0.02024
3489.93157,0.02047
3487.87139,0.02082
3485.81122,0.02126
3483.75105,0.02131
3481.69088,0.02129
3479.63071,0.02187
3477.57053,0.02250
3475.51036,0.02293
3473.45019,0.02344
3471.39002,0.02391
3469.32984,0.02428
3467.26967,0.02465
3465.20950,0.02495
3463.14933,0.02513
3461.08916,0.02533
3459.02898,0.02547
3456.96881,0.02565
3454.90864,0.02608
3452.84847,0.02652
3450.78830,0.02680
3448.72812,0.02678
3446.66795,0.02691
3444.60778,0.02748
3442.54761,0.02773
3440.48744,0.02776
3438.42726,0.02797
3436.36709,0.02853
3434.30692,0.02922
3432.24675,0.02969
3430.18657,0.02991
3428.12640,0.03013
3426.06623,0.03047
3424.00606,0.03066
3421.94589,0.03065
3419.88571,0.03095
3417.82554,0.03142
3415.76537,0.03150
3413.70520,0.03126
3411.64503,0.03109
3409.58485,0.03143
3407.52468,0.03210
3405.46451,0.03251
3403.40434,0.03283
3401.34416,0.03333
3399.28399,0.03353
3397.22382,0.03354
3395.16365,0.03379
3393.10348,0.03414
3391.04330,0.03442
3388.98313,0.03460
3386.92296,0.03464
3384.86279,0.03469
3382.80262,0.03486
3380.74244,0.03503
3378.68227,0.03514
3376.62210,0.03544
3374.56193,0.03592
3372.50176,0.03616
3370.44158,0.03615
3368.38141,0.03627
3366.32124,0.03650
3364.26107,0.03646
3362.20089,0.03634
3360.14072,0.03671
3358.08055,0.03712
3356.02038,0.03705
3353.96021,0.03696
3351.90003,0.03702
3349.83986,0.03702
3347.77969,0.03705
3345.71952,0.03730
3343.65935,0.03765
3341.59917,0.03791
3339.53900,0.03806
3337.47883,0.03812
3335.41866,0.03810
3333.35849,0.03804
3331.29831,0.03803
3329.23814,0.03806
3327.17797,0.03805
3325.11780,0.03806
3323.05762,0.03826
3320.99745,0.03843
3318.93728,0.03824
3316.87711,0.03789
3314.81694,0.03796
3312.75676,0.03844
3310.69659,0.03863
3308.63642,0.03840
3306.57625,0.03841
3304.51608,0.03859
3302.45590,0.03853
3300.39573,0.03848
3298.33556,0.03866
3296.27539,0.03872
3294.21521,0.03859
3292.15504,0.03868
3290.09487,0.03894
3288.03470,0.03887
3285.97453,0.03866
3283.91435,0.03874
3281.85418,0.03890
3279.79401,0.03901
3277.73384,0.03900
3275.67367,0.03874
3273.61349,0.03862
3271.55332,0.03890
3269.49315,0.03910
3267.43298,0.03884
3265.37281,0.03836
3263.31263,0.03813
3261.25246,0.03829
3259.19229,0.03844
3257.13212,0.03838
3255.07194,0.03833
3253.01177,0.03836
3250.95160,0.03834
3248.89143,0.03825
3246.83126,0.03811
3244.77108,0.03802
3242.71091,0.03790
3240.65074,0.03772
3238.59057,0.03760
3236.53040,0.03737
3234.47022,0.03723
3232.41005,0.03728
3230.34988,0.03720
3228.28971,0.03694
3226.22954,0.03674
3224.16936,0.03665
3222.10919,0.03653
3220.04902,0.03648
3217.98885,0.03663
3215.92867,0.03654
3213.86850,0.03621
3211.80833,0.03606
3209.74816,0.03605
3207.68799,0.03610
3205.62781,0.03597
3203.56764,0.03553
3201.50747,0.03516
3199.44730,0.03506
3197.38713,0.03505
3195.32695,0.03488
3193.26678,0.03462
3191.20661,0.03447
3189.14644,0.03434
3187.08626,0.03411
3185.02609,0.03386
3182.96592,0.03368
3180.90575,0.03352
3178.84558,0.03334
3176.78540,0.03338
3174.72523,0.03338
3172.66506,0.03300
3170.60489,0.03262
3168.54472,0.03234
3166.48454,0.03202
3164.42437,0.03190
3162.36420,0.03193
3160.30403,0.03178
3158.24386,0.03149
3156.18368,0.03122
3154.12351,0.03098
3152.06334,0.03067
3150.00317,0.03029
3147.94299,0.03004
3145.88282,0.02985
3143.82265,0.02952
3141.76248,0.02919
3139.70231,0.02919
3137.64213,0.02928
3135.58196,0.02899
3133.52179,0.02862
3131.46162,0.02865
3129.40145,0.02878
3127.34127,0.02872
3125.28110,0.02854
3123.22093,0.02830
3121.16076,0.02800
3119.10058,0.02756
3117.04041,0.02723
3114.98024,0.02721
3112.92007,0.02712
3110.85990,0.02679
3108.79972,0.02668
3106.73955,0.02671
3104.67938,0.02640
3102.61921,0.02577
3100.55904,0.02528
3098.49886,0.02510
3096.43869,0.02505
3094.37852,0.02497
3092.31835,0.02472
3090.25818,0.02450
3088.19800,0.02452
3086.13783,0.02449
3084.07766,0.02432
3082.01749,0.02416
3079.95731,0.02386
3077.89714,0.02342
3075.83697,0.02311
3073.77680,0.02302
3071.71663,0.02303
3069.65645,0.02295
3067.59628,0.02278
3065.53611,0.02268
3063.47594,0.02253
3061.41577,0.02216
3059.35559,0.02174
3057.29542,0.02159
3055.23525,0.02156
3053.17508,0.02137
3051.11491,0.02108
3049.05473,0.02090
3046.99456,0.02079
3044.93439,0.02069
3042.87422,0.02061
3040.81404,0.02042
3038.75387,0.02014
3036.69370,0.02010
3034.63353,0.02011
3032.57336,0.01982
3030.51318,0.01950
3028.45301,0.01927
3026.39284,0.01903
3024.33267,0.01892
3022.27250,0.01891
3020.21232,0.01896
3018.15215,0.01901
3016.09198,0.01891
3014.03181,0.01870
3011.97163,0.01844
3009.91146,0.01821
3007.85129,0.01820
3005.79112,0.01813
3003.73095,0.01773
3001.67077,0.01745
2999.61060,0.01754
2997.55043,0.01755
2995.49026,0.01740
2993.43009,0.01742
2991.36991,0.01749
2989.30974,0.01728
2987.24957,0.01703
2985.18940,0.01704
2983.12923,0.01723
2981.06905,0.01756
2979.00888,0.01786
2976.94871,0.01812
2974.88854,0.01856
2972.82836,0.01916
2970.76819,0.01983
2968.70802,0.02063
2966.64785,0.02151
2964.58768,0.02234
2962.52750,0.02325
2960.46733,0.02440
2958.40716,0.02574
2956.34699,0.02715
2954.28682,0.02845
2952.22664,0.02948
2950.16647,0.03044
2948.10630,0.03166
2946.04613,0.03318
2943.98596,0.03487
2941.92578,0.03673
2939.86561,0.03868
2937.80544,0.04056
2935.74527,0.04242
2933.68509,0.04436
2931.62492,0.04605
2929.56475,0.04732
2927.50458,0.04850
2925.44441,0.04961
2923.38423,0.05058
2921.32406,0.05133
2919.26389,0.05146
2917.20372,0.05083
2915.14355,0.04955
2913.08337,0.04772
2911.02320,0.04572
2908.96303,0.04401
2906.90286,0.04264
2904.84268,0.04137
2902.78251,0.04011
2900.72234,0.03891
2898.66217,0.03778
2896.60200,0.03672
2894.54182,0.03579
2892.48165,0.03493
2890.42148,0.03405
2888.36131,0.03321
2886.30114,0.03256
2884.24096,0.03205
2882.18079,0.03158
2880.12062,0.03130
2878.06045,0.03128
2876.00028,0.03130
2873.94010,0.03140
2871.87993,0.03169
2869.81976,0.03216
2867.75959,0.03272
2865.69941,0.03331
2863.63924,0.03420
2861.57907,0.03537
2859.51890,0.03654
2857.45873,0.03776
2855.39855,0.03908
2853.33838,0.04011
2851.27821,0.04043
2849.21804,0.03965
2847.15787,0.03777
2845.09769,0.03534
2843.03752,0.03291
2840.97735,0.03078
2838.91718,0.02914
2836.85700,0.02790
2834.79683,0.02680
2832.73666,0.02580
2830.67649,0.02492
2828.61632,0.02417
2826.55614,0.02359
2824.49597,0.02315
2822.43580,0.02266
2820.37563,0.02226
2818.31546,0.02211
2816.25528,0.02188
2814.19511,0.02143
2812.13494,0.02109
2810.07477,0.02089
2808.01460,0.02063
2805.95442,0.02036
2803.89425,0.02012
2801.83408,0.01984
2799.77391,0.01950
2797.71373,0.01908
2795.65356,0.01871
2793.59339,0.01861
2791.53322,0.01866
2789.47305,0.01858
2787.41287,0.01843
2785.35270,0.01833
2783.29253,0.01820
2781.23236,0.01806
2779.17219,0.01791
2777.11201,0.01768
2775.05184,0.01745
2772.99167,0.01739
2770.93150,0.01735
2768.87133,0.01725
2766.81115,0.01715
2764.75098,0.01701
2762.69081,0.01692
2760.63064,0.01691
2758.57046,0.01689
2756.51029,0.01676
2754.45012,0.01657
2752.38995,0.01643
2750.32978,0.01639
2748.26960,0.01646
2746.20943,0.01654
2744.14926,0.01646
2742.08909,0.01629
2740.02892,0.01615
2737.96874,0.01598
2735.90857,0.01591
2733.84840,0.01598
2731.78823,0.01605
2729.72805,0.01613
2727.66788,0.01610
2725.60771,0.01591
2723.54754,0.01594
2721.48737,0.01614
2719.42719,0.01618
2717.36702,0.01602
2715.30685,0.01582
2713.24668,0.01574
2711.18651,0.01578
2709.12633,0.01572
2707.06616,0.01563
2705.00599,0.01560
2702.94582,0.01557
2700.88565,0.01545
2698.82547,0.01519
2696.76530,0.01504
2694.70513,0.01515
2692.64496,0.01528
2690.58478,0.01529
2688.52461,0.01528
2686.46444,0.01532
2684.40427,0.01530
2682.34410,0.01513
2680.28392,0.01504
2678.22375,0.01511
2676.16358,0.01511
2674.10341,0.01502
2672.04324,0.01491
2669.98306,0.01473
2667.92289,0.01461
2665.86272,0.01465
2663.80255,0.01473
2661.74238,0.01478
2659.68220,0.01465
2657.62203,0.01439
2655.56186,0.01418
2653.50169,0.01400
2651.44151,0.01393
2649.38134,0.01405
2647.32117,0.01422
2645.26100,0.01421
2643.20083,0.01398
2641.14065,0.01381
2639.08048,0.01377
2637.02031,0.01356
2634.96014,0.01340
2632.89997,0.01346
2630.83979,0.01331
2628.77962,0.01296
2626.71945,0.01295
2624.65928,0.01319
2622.59910,0.01315
2620.53893,0.01288
2618.47876,0.01267
2616.41859,0.01261
2614.35842,0.01272
2612.29824,0.01284
2610.23807,0.01287
2608.17790,0.01272
2606.11773,0.01240
2604.05756,0.01223
2601.99738,0.01214
2599.93721,0.01201
2597.87704,0.01200
2595.81687,0.01201
2593.75670,0.01197
2591.69652,0.01186
2589.63635,0.01169
2587.57618,0.01171
2585.51601,0.01178
2583.45583,0.01164
2581.39566,0.01160
2579.33549,0.01175
2577.27532,0.01176
2575.21515,0.01166
2573.15497,0.01155
2571.09480,0.01130
2569.03463,0.01098
2566.97446,0.01083
2564.91429,0.01078
2562.85411,0.01072
2560.79394,0.01102
2558.73377,0.01127
2556.67360,0.01086
2554.61342,0.01037
2552.55325,0.01037
2550.49308,0.01073
2548.43291,0.01090
2546.37274,0.01066
2544.31256,0.01041
2542.25239,0.01032
2540.19222,0.01007
2538.13205,0.00971
2536.07188,0.00955
2534.01170,0.00955
2531.95153,0.00959
2529.89136,0.00965
2527.83119,0.00967
2525.77102,0.00978
2523.71084,0.01014
2521.65067,0.01040
2519.59050,0.01023
2517.53033,0.00984
2515.47015,0.00953
2513.40998,0.00945
2511.34981,0.00949
2509.28964,0.00959
2507.22947,0.00971
2505.16929,0.00960
2503.10912,0.00944
2501.04895,0.00944
2498.98878,0.00953
2496.92861,0.00961
2494.86843,0.00956
2492.80826,0.00940
2490.74809,0.00924
2488.68792,0.00901
2486.62775,0.00881
2484.56757,0.00866
2482.50740,0.00846
2480.44723,0.00837
2478.38706,0.00853
2476.32688,0.00866
2474.26671,0.00858
2472.20654,0.00859
2470.14637,0.00884
2468.08620,0.00903
2466.02602,0.00902
2463.96585,0.00902
2461.90568,0.00899
2459.84551,0.00891
2457.78534,0.00893
2455.72516,0.00897
2453.66499,0.00888
2451.60482,0.00881
2449.54465,0.00891
2447.48447,0.00900
2445.42430,0.00897
2443.36413,0.00871
2441.30396,0.00822
2439.24379,0.00805
2437.18361,0.00848
2435.12344,0.00878
2433.06327,0.00845
2431.00310,0.00798
2428.94293,0.00803
2426.88275,0.00843
2424.82258,0.00854
2422.76241,0.00823
2420.70224,0.00783
2418.64207,0.00768
2416.58189,0.00783
2414.52172,0.00795
2412.46155,0.00778
2410.40138,0.00752
2408.34120,0.00737
2406.28103,0.00733
2404.22086,0.00730
2402.16069,0.00726
2400.10052,0.00731
2398.04034,0.00750
2395.98017,0.00762
2393.92000,0.00761
2391.85983,0.00762
2389.79966,0.00767
2387.73948,0.00782
2385.67931,0.00807
2383.61914,0.00808
2381.55897,0.00771
2379.49880,0.00729
2377.43862,0.00712
2375.37845,0.00691
2373.31828,0.00690
2371.25811,0.00710
2369.19793,0.00673
2367.13776,0.00600
2365.07759,0.00492
2363.01742,0.00285
2360.95725,0.00324
2358.89707,0.00450
2356.83690,0.00452
2354.77673,0.00378
2352.71656,0.00449
2350.65639,0.00825
2348.59621,0.00970
2346.53604,0.00589
2344.47587,0.00553
2342.41570,0.00725
2340.35552,0.00779
2338.29535,0.00779
2336.23518,0.00742
2334.17501,0.00695
2332.11484,0.00640
2330.05466,0.00648
2327.99449,0.00690
2325.93432,0.00823
2323.87415,0.00936
2321.81398,0.01013
2319.75380,0.00974
2317.69363,0.00924
2315.63346,0.00844
2313.57329,0.00756
2311.51312,0.00696
2309.45294,0.00685
2307.39277,0.00716
2305.33260,0.00729
2303.27243,0.00709
2301.21225,0.00691
2299.15208,0.00703
2297.09191,0.00693
2295.03174,0.00672
2292.97157,0.00704
2290.91139,0.00755
2288.85122,0.00750
2286.79105,0.00707
2284.73088,0.00668
2282.67071,0.00620
2280.61053,0.00558
2278.55036,0.00525
2276.49019,0.00531
2274.43002,0.00552
2272.36984,0.00576
2270.30967,0.00589
2268.24950,0.00574
2266.18933,0.00549
2264.12916,0.00522
2262.06898,0.00471
2260.00881,0.00431
2257.94864,0.00455
2255.88847,0.00517
2253.82830,0.00572
2251.76812,0.00583
2249.70795,0.00572
2247.64778,0.00588
2245.58761,0.00600
2243.52744,0.00582
2241.46726,0.00533
2239.40709,0.00470
2237.34692,0.00457
2235.28675,0.00482
2233.22657,0.00482
2231.16640,0.00479
2229.10623,0.00497
2227.04606,0.00503
2224.98589,0.00498
2222.92571,0.00538
2220.86554,0.00624
2218.80537,0.00682
2216.74520,0.00656
2214.68503,0.00579
2212.62485,0.00564
2210.56468,0.00621
2208.50451,0.00616
2206.44434,0.00546
2204.38417,0.00529
2202.32399,0.00537
2200.26382,0.00496
2198.20365,0.00402
2196.14348,0.00292
2194.08330,0.00286
2192.02313,0.00394
2189.96296,0.00415
2187.90279,0.00317
2185.84262,0.00292
2183.78244,0.00341
2181.72227,0.00302
2179.66210,0.00247
2177.60193,0.00289
2175.54176,0.00336
2173.48158,0.00366
2171.42141,0.00412
2169.36124,0.00440
2167.30107,0.00410
2165.24089,0.00336
2163.18072,0.00297
2161.12055,0.00262
2159.06038,0.00150
2157.00021,0.00059
2154.94003,0.00084
2152.87986,0.00189
2150.81969,0.00286
2148.75952,0.00241
2146.69935,0.00104
2144.63917,0.00113
2142.57900,0.00208
2140.51883,0.00196
2138.45866,0.00165
2136.39849,0.00214
2134.33831,0.00276
2132.27814,0.00298
2130.21797,0.00314
2128.15780,0.00354
2126.09762,0.00398
2124.03745,0.00423
2121.97728,0.00418
2119.91711,0.00389
2117.85694,0.00395
2115.79676,0.00441
2113.73659,0.00463
2111.67642,0.00436
2109.61625,0.00386
2107.55608,0.00356
2105.49590,0.00358
2103.43573,0.00378
2101.37556,0.00406
2099.31539,0.00404
2097.25521,0.00378
2095.19504,0.00386
2093.13487,0.00416
2091.07470,0.00420
2089.01453,0.00410
2086.95435,0.00398
2084.89418,0.00392
2082.83401,0.00407
2080.77384,0.00406
2078.71367,0.00374
2076.65349,0.00375
2074.59332,0.00369
2072.53315,0.00290
2070.47298,0.00208
2068.41281,0.00179
2066.35263,0.00206
2064.29246,0.00313
2062.23229,0.00429
2060.17212,0.00477
2058.11194,0.00473
2056.05177,0.00421
2053.99160,0.00382
2051.93143,0.00424
2049.87126,0.00478
2047.81108,0.00453
2045.75091,0.00404
2043.69074,0.00407
2041.63057,0.00392
2039.57040,0.00332
2037.51022,0.00316
2035.45005,0.00359
2033.38988,0.00403
2031.32971,0.00354
2029.26954,0.00213
2027.20936,0.00171
2025.14919,0.00242
2023.08902,0.00262
2021.02885,0.00181
2018.96867,0.00055
2016.90850,0.00030
2014.84833,0.00076
2012.78816,0.00034
2010.72799,0.00000
2008.66781,0.00055
2006.60764,0.00123
2004.54747,0.00178
2002.48730,0.00216
2000.42713,0.00222
1998.36695,0.00232
1996.30678,0.00247
1994.24661,0.00173
1992.18644,0.00068
1990.12626,0.00135
1988.06609,0.00319
1986.00592,0.00426
1983.94575,0.00406
1981.88558,0.00355
1979.82540,0.00299
1977.76523,0.00183
1975.70506,0.00050
1973.64489,0.00042
1971.58472,0.00148
1969.52454,0.00190
1967.46437,0.00148
1965.40420,0.00147
1963.34403,0.00196
1961.28386,0.00286
1959.22368,0.00358
1957.16351,0.00286
1955.10334,0.00145
1953.04317,0.00099
1950.98299,0.00149
1948.92282,0.00188
1946.86265,0.00173
1944.80248,0.00132
1942.74231,0.00149
1940.68213,0.00265
1938.62196,0.00317
1936.56179,0.00282
1934.50162,0.00243
1932.44145,0.00180
1930.38127,0.00121
1928.32110,0.00129
1926.26093,0.00162
1924.20076,0.00131
1922.14059,0.00128
1920.08041,0.00162
1918.02024,0.00157
1915.96007,0.00210
1913.89990,0.00268
1911.83972,0.00256
1909.77955,0.00213
1907.71938,0.00216
1905.65921,0.00254
1903.59904,0.00251
1901.53886,0.00194
1899.47869,0.00142
1897.41852,0.00125
1895.35835,0.00135
1893.29818,0.00161
1891.23800,0.00136
1889.17783,0.00118
1887.11766,0.00163
1885.05749,0.00190
1882.99731,0.00204
1880.93714,0.00225
1878.87697,0.00230
1876.81680,0.00203
1874.75663,0.00165
1872.69645,0.00136
1870.63628,0.00069
1868.57611,0.00029
1866.51594,0.00125
1864.45577,0.00231
1862.39559,0.00251
1860.33542,0.00215
1858.27525,0.00165
1856.21508,0.00128
1854.15491,0.00112
1852.09473,0.00108
1850.03456,0.00109
1847.97439,0.00126
1845.91422,0.00105
1843.85404,0.00071
1841.79387,0.00136
1839.73370,0.00179
1837.67353,0.00150
1835.61336,0.00129
1833.55318,0.00124
1831.49301,0.00078
1829.43284,0.00074
1827.37267,0.00136
1825.31250,0.00136
1823.25232,0.00136
1821.19215,0.00111
1819.13198,0.00044
1817.07181,0.00035
1815.01163,0.00078
1812.95146,0.00073
1810.89129,0.00044
1808.83112,0.00077
1806.77095,0.00129
1804.71077,0.00147
1802.65060,0.00123
1800.59043,0.00105
1798.53026,0.00135
1796.47009,0.00157
1794.40991,0.00090
1792.34974,0.00000
1790.28957,0.00059
1788.22940,0.00134
1786.16923,0.00102
1784.10905,0.00062
1782.04888,0.00022
1779.98871,0.00000
1777.92854,0.00054
1775.86836,0.00079
1773.80819,0.00002
1771.74802,-0.00018
1769.68785,0.00067
1767.62768,0.00101
1765.56750,0.00123
1763.50733,0.00108
1761.44716,0.00151
1759.38699,0.00294
1757.32682,0.00408
1755.26664,0.00576
1753.20647,0.00707
1751.14630,0.00755
1749.08613,0.00900
1747.02596,0.01097
1744.96578,0.01210
1742.90561,0.01246
1740.84544,0.01270
1738.78527,0.01366
1736.72509,0.01387
1734.66492,0.01221
1732.60475,0.01242
1730.54458,0.01342
1728.48441,0.01340
1726.42423,0.01324
1724.36406,0.01326
1722.30389,0.01393
1720.24372,0.01373
1718.18355,0.01217
1716.12337,0.01234
1714.06320,0.01387
1712.00303,0.01460
1709.94286,0.01418
1707.88268,0.01313
1705.82251,0.01275
1703.76234,0.01382
1701.70217,0.01369
1699.64200,0.01333
1697.58182,0.01366
1695.52165,0.01347
1693.46148,0.01474
1691.40131,0.01554
1689.34114,0.01617
1687.28096,0.01698
1685.22079,0.01667
1683.16062,0.01883
1681.10045,0.02269
1679.04028,0.02439
1676.98010,0.02430
1674.91993,0.02477
1672.85976,0.02613
1670.79959,0.02553
1668.73941,0.02505
1666.67924,0.02596
1664.61907,0.02516
1662.55890,0.02342
1660.49873,0.02341
1658.43855,0.02411
1656.37838,0.02320
1654.31821,0.02007
1652.25804,0.02023
1650.19787,0.02305
1648.13769,0.02194
1646.07752,0.02068
1644.01735,0.02224
1641.95718,0.02341
1639.89701,0.02361
1637.83683,0.02278
1635.77666,0.02214
1633.71649,0.02439
1631.65632,0.02621
1629.59614,0.02598
1627.53597,0.02590
1625.47580,0.02605
1623.41563,0.02584
1621.35546,0.02679
1619.29528,0.02697
1617.23511,0.02588
1615.17494,0.02695
1613.11477,0.02878
1611.05460,0.02947
1608.99442,0.03026
1606.93425,0.03149
1604.87408,0.03206
1602.81391,0.03153
1600.75373,0.03050
1598.69356,0.02928
1596.63339,0.02776
1594.57322,0.02644
1592.51305,0.02573
1590.45287,0.02527
1588.39270,0.02464
1586.33253,0.02377
1584.27236,0.02287
1582.21219,0.02239
1580.15201,0.02214
1578.09184,0.02068
1576.03167,0.01934
1573.97150,0.02048
1571.91133,0.02035
1569.85115,0.01840
1567.79098,0.01798
1565.73081,0.01808
1563.67064,0.01814
1561.61046,0.01647
1559.55029,0.01228
1557.49012,0.01242
1555.42995,0.01400
1553.36978,0.01347
1551.30960,0.01228
1549.24943,0.01170
1547.18926,0.01178
1545.12909,0.01120
1543.06892,0.00972
1541.00874,0.00713
1538.94857,0.00687
1536.88840,0.00856
1534.82823,0.00747
1532.76805,0.00631
1530.70788,0.00712
1528.64771,0.00687
1526.58754,0.00624
1524.52737,0.00637
1522.46719,0.00623
1520.40702,0.00755
1518.34685,0.00932
1516.28668,0.01011
1514.22651,0.01119
1512.16633,0.01142
1510.10616,0.00968
1508.04599,0.00553
1505.98582,0.00360
1503.92565,0.00539
1501.86547,0.00567
1499.80530,0.00389
1497.74513,0.00217
1495.68496,0.00229
1493.62478,0.00301
1491.56461,0.00171
1489.50444,0.00000
1487.44427,0.00023
1485.38410,0.00105
1483.32392,0.00115
1481.26375,0.00124
1479.20358,0.00207
1477.14341,0.00273
1475.08324,0.00290
1473.02306,0.00363
1470.96289,0.00662
1468.90272,0.00955
1466.84255,0.01028
1464.78238,0.01107
1462.72220,0.01345
1460.66203,0.01442
1458.60186,0.01297
1456.54169,0.01330
1454.48151,0.01622
1452.42134,0.01755
1450.36117,0.01745
1448.30100,0.01757
1446.24083,0.01861
1444.18065,0.01980
1442.12048,0.02069
1440.06031,0.02125
1438.00014,0.02081
1435.93997,0.02121
1433.87979,0.02288
1431.81962,0.02301
1429.75945,0.02250
1427.69928,0.02282
1425.63910,0.02296
1423.57893,0.02311
1421.51876,0.02317
1419.45859,0.02236
1417.39842,0.02267
1415.33824,0.02341
1413.27807,0.02315
1411.21790,0.02262
1409.15773,0.02239
1407.09756,0.02174
1405.03738,0.02077
1402.97721,0.02042
1400.91704,0.01971
1398.85687,0.01863
1396.79670,0.01800
1394.73652,0.01757
1392.67635,0.01786
1390.61618,0.01795
1388.55601,0.01737
1386.49583,0.01761
1384.43566,0.01871
1382.37549,0.01942
1380.31532,0.01991
1378.25515,0.02043
1376.19497,0.02052
1374.13480,0.02052
1372.07463,0.02117
1370.01446,0.02151
1367.95429,0.02145
1365.89411,0.02124
1363.83394,0.02028
1361.77377,0.01953
1359.71360,0.01954
1357.65343,0.01932
1355.59325,0.01889
1353.53308,0.01879
1351.47291,0.01885
1349.41274,0.01878
1347.35256,0.01879
1345.29239,0.01895
1343.23222,0.01897
1341.17205,0.01844
1339.11188,0.01798
1337.05170,0.01829
1334.99153,0.01865
1332.93136,0.01869
1330.87119,0.01871
1328.81102,0.01888
1326.75084,0.01906
1324.69067,0.01908
1322.63050,0.01897
1320.57033,0.01882
1318.51015,0.01874
1316.44998,0.01860
1314.38981,0.01832
1312.32964,0.01819
1310.26947,0.01812
1308.20929,0.01766
1306.14912,0.01699
1304.08895,0.01640
1302.02878,0.01590
1299.96861,0.01542
1297.90843,0.01506
1295.84826,0.01501
1293.78809,0.01515
1291.72792,0.01527
1289.66775,0.01536
1287.60757,0.01553
1285.54740,0.01573
1283.48723,0.01581
1281.42706,0.01589
1279.36688,0.01605
1277.30671,0.01628
1275.24654,0.01652
1273.18637,0.01673
1271.12620,0.01703
1269.06602,0.01751
1267.00585,0.01803
1264.94568,0.01867
1262.88551,0.01935
1260.82534,0.01987
1258.76516,0.02040
1256.70499,0.02101
1254.64482,0.02148
1252.58465,0.02179
1250.52447,0.02217
1248.46430,0.02267
1246.40413,0.02303
1244.34396,0.02314
1242.28379,0.02310
1240.22361,0.02307
1238.16344,0.02300
1236.10327,0.02275
1234.04310,0.02239
1231.98293,0.02197
1229.92275,0.02129
1227.86258,0.02028
1225.80241,0.01927
1223.74224,0.01842
1221.68207,0.01759
1219.62189,0.01658
1217.56172,0.01537
1215.50155,0.01419
1213.44138,0.01320
1211.38120,0.01228
1209.32103,0.01120
1207.26086,0.00997
1205.20069,0.00874
1203.14052,0.00765
1201.08034,0.00658
1199.02017,0.00530
1196.96000,0.00389
1194.89983,0.00275
1192.83966,0.00193
1190.77948,0.00126
1188.71931,0.00071
1186.65914,0.00026
1184.59897,0.00000
1182.53880,0.00014
1180.47862,0.00066
1178.41845,0.00146
1176.35828,0.00260
1174.29811,0.00416
1172.23793,0.00608
1170.17776,0.00806
1168.11759,0.00965
1166.05742,0.01066
1163.99725,0.01126
1161.93707,0.01173
1159.87690,0.01219
1157.81673,0.01270
1155.75656,0.01326
1153.69639,0.01386
1151.63621,0.01458
1149.57604,0.01557
1147.51587,0.01673
1145.45570,0.01773
1143.39552,0.01852
1141.33535,0.01924
1139.27518,0.01972
1137.21501,0.01995
1135.15484,0.02035
1133.09466,0.02112
1131.03449,0.02206
1128.97432,0.02298
1126.91415,0.02384
1124.85398,0.02473
1122.79380,0.02582
1120.73363,0.02698
1118.67346,0.02815
1116.61329,0.02916
1114.55312,0.02989
1112.49294,0.03081
1110.43277,0.03201
1108.37260,0.03309
1106.31243,0.03404
1104.25225,0.03511
1102.19208,0.03627
1100.13191,0.03744
1098.07174,0.03898
1096.01157,0.04089
1093.95139,0.04267
1091.89122,0.04425
1089.83105,0.04581
1087.77088,0.04728
1085.71071,0.04868
1083.65053,0.05025
1081.59036,0.05211
1079.53019,0.05409
1077.47002,0.05602
1075.40985,0.05772
1073.34967,0.05927
1071.28950,0.06106
1069.22933,0.06288
1067.16916,0.06436
1065.10898,0.06551
1063.04881,0.06646
1060.98864,0.06748
1058.92847,0.06871
1056.86830,0.07022
1054.80812,0.07188
1052.74795,0.07336
1050.68778,0.07488
1048.62761,0.07685
1046.56744,0.07912
1044.50726,0.08125
1042.44709,0.08317
1040.38692,0.08499
1038.32675,0.08666
1036.26657,0.08802
1034.20640,0.08914
1032.14623,0.08995
1030.08606,0.09013
1028.02589,0.08969
1025.96571,0.08922
1023.90554,0.08895
1021.84537,0.08865
1019.78520,0.08827
1017.72503,0.08799
1015.66485,0.08778
1013.60468,0.08756
1011.54451,0.08740
1009.48434,0.08762
1007.42417,0.08808
1005.36399,0.08808
1003.30382,0.08751
1001.24365,0.08671
999.18348,0.08583
997.12330,0.08472
995.06313,0.08334
993.00296,0.08191
990.94279,0.08062
988.88262,0.07933
986.82244,0.07803
984.76227,0.07679
982.70210,0.07551
980.64193,0.07425
978.58176,0.07309
976.52158,0.07180
974.46141,0.07035
972.40124,0.06905
970.34107,0.06775
968.28089,0.06624
966.22072,0.06481
964.16055,0.06352
962.10038,0.06202
960.04021,0.06040
957.98003,0.05907
955.91986,0.05789
953.85969,0.05664
951.79952,0.05542
949.73935,0.05403
947.67917,0.05256
945.61900,0.05118
943.55883,0.04957
941.49866,0.04759
939.43849,0.04520
937.37831,0.04246
935.31814,0.03987
933.25797,0.03750
931.19780,0.03495
929.13762,0.03245
927.07745,0.03031
925.01728,0.02853
922.95711,0.02705
920.89694,0.02563
918.83676,0.02392
916.77659,0.02213
914.71642,0.02077
912.65625,0.01974
910.59608,0.01868
908.53590,0.01742
906.47573,0.01616
904.41556,0.01561
902.35539,0.01582
900.29522,0.01589
898.23504,0.01557
896.17487,0.01537
894.11470,0.01558
892.05453,0.01598
889.99435,0.01594
887.93418,0.01527
885.87401,0.01439
883.81384,0.01365
881.75367,0.01283
879.69349,0.01180
877.63332,0.01068
875.57315,0.00951
873.51298,0.00851
871.45281,0.00791
869.39263,0.00738
867.33246,0.00699
865.27229,0.00717
863.21212,0.00765
861.15194,0.00785
859.09177,0.00776
857.03160,0.00760
854.97143,0.00742
852.91126,0.00737
850.85108,0.00741
848.79091,0.00712
846.73074,0.00680
844.67057,0.00668
842.61040,0.00642
840.55022,0.00609
838.49005,0.00576
836.42988,0.00528
834.36971,0.00488
832.30954,0.00492
830.24936,0.00509
828.18919,0.00485
826.12902,0.00439
824.06885,0.00391
822.00867,0.00340
819.94850,0.00333
817.88833,0.00341
815.82816,0.00287
813.76799,0.00241
811.70781,0.00214
809.64764,0.00167
807.58747,0.00149
805.52730,0.00177
803.46713,0.00210
801.40695,0.00217
799.34678,0.00223
797.28661,0.00191
795.22644,0.00085
793.16627,0.00000
791.10609,-0.00007
789.04592,0.00019
786.98575,0.00049
784.92558,0.00082
782.86540,0.00097
780.80523,0.00126
778.74506,0.00185
776.68489,0.00210
774.62472,0.00170
772.56454,0.00110
770.50437,0.00066
768.44420,0.00029
766.38403,-0.00021
764.32386,-0.00059
762.26368,-0.00040
760.20351,-0.00002
758.14334,-0.00002
756.08317,-0.00042
754.02299,-0.00050
751.96282,0.00000
749.90265,-0.00004
747.84248,-0.00048
745.78231,-0.00065
743.72213,-0.00044
741.66196,-0.00032
739.60179,-0.00017
737.54162,-0.00022
735.48145,-0.00104
733.42127,-0.00200
731.36110,-0.00202
729.30093,-0.00068
727.24076,0.00081
725.18059,0.00105
723.12041,0.00092
721.06024,0.00063
719.00007,0.00117
716.93990,0.00160
714.87972,0.00157
712.81955,0.00177
710.75938,0.00207
708.69921,0.00195
706.63904,0.00180
704.57886,0.00238
702.51869,0.00345
700.45852,0.00407
698.39835,0.00382
696.33818,0.00324
694.27800,0.00304
692.21783,0.00328
690.15766,0.00368
688.09749,0.00395
686.03731,0.00359
683.97714,0.00211
681.91697,0.00028
679.85680,-0.00044
677.79663,0.00020
675.73645,0.00157
673.67628,0.00370
671.61611,0.00548
669.55594,0.00162
667.49577,-0.00147
665.43559,0.00380
663.37542,0.00265
661.31525,0.00102
659.25508,0.00114
657.19491,0.00167
655.13473,0.00210
653.07456,0.00252
651.01439,0.00234
648.95422,0.00103
646.89404,0.00000
644.83387,-0.00000
642.77370,0.00040
640.71353,0.00024
638.65336,-0.00034
636.59318,-0.00080
634.53301,-0.00046
632.47284,0.00163
630.41267,0.00490
628.35250,0.00628
626.29232,0.00393
624.23215,0.00116
622.17198,0.00077
620.11181,0.00258
618.05164,0.00502
615.99146,0.00575
613.93129,0.00359
611.87112,0.00089
609.81095,0.00007
607.75077,0.00022
605.69060,0.00083
603.63043,0.00219
601.57026,0.00215
599.51009,0.00000
