3996.73391,0.00024
3994.67373,0.00027
3992.61356,0.00035
3990.55339,0.00071
3988.49322,0.00110
3986.43305,0.00151
3984.37287,0.00171
3982.31270,0.00135
3980.25253,0.00065
3978.19236,0.00027
3976.13219,0.00029
3974.07201,0.00050
3972.01184,0.00068
3969.95167,0.00045
3967.89150,0.00000
3965.83133,0.00018
3963.77115,0.00102
3961.71098,0.00163
3959.65081,0.00173
3957.59064,0.00157
3955.53046,0.00100
3953.47029,0.00028
3951.41012,0.00000
3949.34995,0.00020
3947.28978,0.00040
3945.22960,0.00063
3943.16943,0.00116
3941.10926,0.00154
3939.04909,0.00169
3936.98892,0.00152
3934.92874,0.00138
3932.86857,0.00155
3930.80840,0.00129
3928.74823,0.00063
3926.68805,0.00064
3924.62788,0.00109
3922.56771,0.00104
3920.50754,0.00115
3918.44737,0.00159
3916.38719,0.00151
3914.32702,0.00102
3912.26685,0.00092
3910.20668,0.00076
3908.14651,0.00042
3906.08633,0.00054
3904.02616,0.00054
3901.96599,0.00029
3899.90582,0.00059
3897.84565,0.00037
3895.78547,0.00000
3893.72530,0.00084
3891.66513,0.00195
3889.60496,0.00185
3887.54478,0.00217
3885.48461,0.00250
3883.42444,0.00167
3881.36427,0.00177
3879.30410,0.00149
3877.24392,0.00068
3875.18375,0.00096
3873.12358,0.00114
3871.06341,0.00151
3869.00324,0.00099
3866.94306,-0.00009
3864.88289,0.00025
3862.82272,0.00038
3860.76255,-0.00001
3858.70237,0.00000
3856.64220,0.00138
3854.58203,0.00381
3852.52186,0.00347
3850.46169,0.00097
3848.40151,0.00011
3846.34134,0.00050
3844.28117,0.00074
3842.22100,0.00032
3840.16083,0.00044
3838.10065,0.00115
3836.04048,0.00096
3833.98031,0.00061
3831.92014,0.00095
3829.85997,0.00143
3827.79979,0.00200
3825.73962,0.00176
3823.67945,0.00163
3821.61928,0.00225
3819.55910,0.00132
3817.49893,0.00169
3815.43876,0.00273
3813.37859,0.00193
3811.31842,0.00142
3809.25824,0.00191
3807.19807,0.00199
3805.13790,0.00082
3803.07773,0.00142
3801.01756,0.00229
3798.95738,0.00143
3796.89721,0.00145
3794.83704,0.00125
3792.77687,0.00084
3790.71670,0.00096
3788.65652,0.00125
3786.59635,0.00178
3784.53618,0.00216
3782.47601,0.00235
3780.41583,0.00302
3778.35566,0.00299
3776.29549,0.00236
3774.23532,0.00223
3772.17515,0.00232
3770.11497,0.00190
3768.05480,0.00082
3765.99463,0.00045
3763.93446,0.00037
3761.87429,0.00117
3759.81411,0.00247
3757.75394,0.00190
3755.69377,0.00057
3753.63360,0.00103
3751.57342,0.00189
3749.51325,0.00051
3747.45308,0.00000
3745.39291,0.00257
3743.33274,0.00286
3741.27256,0.00080
3739.21239,0.00052
3737.15222,0.00183
3735.09205,0.00263
3733.03188,0.00196
3730.97170,0.00067
3728.91153,0.00015
3726.85136,0.00108
3724.79119,0.00187
3722.73102,0.00194
3720.67084,0.00168
3718.61067,0.00140
3716.55050,0.00092
3714.49033,0.00104
3712.43015,0.00215
3710.36998,0.00252
3708.30981,0.00174
3706.24964,0.00108
3704.18947,0.00133
3702.12929,0.00168
3700.06912,0.00102
3698.00895,0.00051
3695.94878,0.00037
3693.88861,0.00000
3691.82843,0.00044
3689.76826,0.00170
3687.70809,0.00194
3685.64792,0.00129
3683.58775,0.00107
3681.52757,0.00072
3679.46740,0.00022
3677.40723,0.00125
3675.34706,0.00264
3673.28688,0.00192
3671.22671,0.00301
3669.16654,0.00394
3667.10637,0.00261
3665.04620,0.00215
3662.98602,0.00237
3660.92585,0.00195
3658.86568,0.00164
3656.80551,0.00173
3654.74534,0.00057
3652.68516,0.00001
3650.62499,0.00153
3648.56482,0.00261
3646.50465,0.00216
3644.44447,0.00136
3642.38430,0.00128
3640.32413,0.00157
3638.26396,0.00191
3636.20379,0.00203
3634.14361,0.00180
3632.08344,0.00207
3630.02327,0.00434
3627.96310,0.00518
3625.90293,0.00323
3623.84275,0.00232
3621.78258,0.00322
3619.72241,0.00413
3617.66224,0.00360
3615.60207,0.00349
3613.54189,0.00450
3611.48172,0.00502
3609.42155,0.00545
3607.36138,0.00553
3605.30120,0.00481
3603.24103,0.00449
3601.18086,0.00474
3599.12069,0.00517
3597.06052,0.00595
3595.00034,0.00649
3592.94017,0.00622
3590.88000,0.00619
3588.81983,0.00696
3586.75966,0.00695
3584.69948,0.00649
3582.63931,0.00731
3580.57914,0.00837
3578.51897,0.00846
3576.45879,0.00804
3574.39862,0.00778
3572.33845,0.00773
3570.27828,0.00810
3568.21811,0.00892
3566.15793,0.00905
3564.09776,0.00856
3562.03759,0.00917
3559.97742,0.01062
3557.91725,0.01141
3555.85707,0.01123
3553.79690,0.01105
3551.73673,0.01129
3549.67656,0.01169
3547.61639,0.01241
3545.55621,0.01308
3543.49604,0.01337
3541.43587,0.01372
3539.37570,0.01427
3537.31552,0.01471
3535.25535,0.01501
3533.19518,0.01542
3531.13501,0.01593
3529.07484,0.01644
3527.01466,0.01706
3524.95449,0.01794
3522.89432,0.01873
3520.83415,0.01905
3518.77398,0.01913
3516.71380,0.01900
3514.65363,0.01896
3512.59346,0.01943
3510.53329,0.02012
3508.47312,0.02028
3506.41294,0.02026
3504.35277,0.02092
3502.29260,0.02150
3500.23243,0.02152
3498.17225,0.02174
3496.11208,0.02227
3494.05191,0.02285
3491.99174,0.02359
3489.93157,0.02439
3487.87139,0.02443
3485.81122,0.02379
3483.75105,0.02372
3481.69088,0.02393
3479.63071,0.02382
3477.57053,0.02438
3475.51036,0.02577
3473.45019,0.02707
3471.39002,0.02791
3469.32984,0.02849
3467.26967,0.02878
3465.20950,0.02846
3463.14933,0.02795
3461.08916,0.02774
3459.02898,0.02778
3456.96881,0.02803
3454.90864,0.02862
3452.84847,0.02965
3450.78830,0.03073
3448.72812,0.03141
3446.66795,0.03148
3444.60778,0.03125
3442.54761,0.03149
3440.48744,0.03218
3438.42726,0.03315
3436.36709,0.03388
3434.30692,0.03412
3432.24675,0.03426
3430.18657,0.03458
3428.12640,0.03486
3426.06623,0.03517
3424.00606,0.03570
3421.94589,0.03609
3419.88571,0.03619
3417.82554,0.03623
3415.76537,0.03632
3413.70520,0.03655
3411.64503,0.03708
3409.58485,0.03776
3407.52468,0.03799
3405.46451,0.03798
3403.40434,0.03822
3401.34416,0.03846
3399.28399,0.03847
3397.22382,0.03822
3395.16365,0.03803
3393.10348,0.03822
3391.04330,0.03860
3388.98313,0.03919
3386.92296,0.03981
3384.86279,0.04023
3382.80262,0.04048
3380.74244,0.04080
3378.68227,0.04106
3376.62210,0.04098
3374.56193,0.04085
3372.50176,0.04087
3370.44158,0.04099
3368.38141,0.04126
3366.32124,0.04165
3364.26107,0.04221
3362.20089,0.04294
3360.14072,0.04328
3358.08055,0.04306
3356.02038,0.04298
3353.96021,0.04327
3351.90003,0.04355
3349.83986,0.04335
3347.77969,0.04283
3345.71952,0.04267
3343.65935,0.04291
3341.59917,0.04306
3339.53900,0.04324
3337.47883,0.04379
3335.41866,0.04429
3333.35849,0.04438
3331.29831,0.04438
3329.23814,0.04448
3327.17797,0.04435
3325.11780,0.04431
3323.05762,0.04471
3320.99745,0.04500
3318.93728,0.04505
3316.87711,0.04523
3314.81694,0.04543
3312.75676,0.04548
3310.69659,0.04543
3308.63642,0.04537
3306.57625,0.04538
3304.51608,0.04535
3302.45590,0.04525
3300.39573,0.04529
3298.33556,0.04543
3296.27539,0.04552
3294.21521,0.04558
3292.15504,0.04554
3290.09487,0.04539
3288.03470,0.04541
3285.97453,0.04577
3283.91435,0.04613
3281.85418,0.04597
3279.79401,0.04551
3277.73384,0.04553
3275.67367,0.04591
3273.61349,0.04596
3271.55332,0.04572
3269.49315,0.04549
3267.43298,0.04522
3265.37281,0.04512
3263.31263,0.04515
3261.25246,0.04495
3259.19229,0.04472
3257.13212,0.04464
3255.07194,0.04468
3253.01177,0.04484
3250.95160,0.04470
3248.89143,0.04416
3246.83126,0.04396
3244.77108,0.04424
3242.71091,0.04429
3240.65074,0.04414
3238.59057,0.04417
3236.53040,0.04410
3234.47022,0.04384
3232.41005,0.04398
3230.34988,0.04434
3228.28971,0.04416
3226.22954,0.04358
3224.16936,0.04342
3222.10919,0.04346
3220.04902,0.04307
3217.98885,0.04266
3215.92867,0.04287
3213.86850,0.04323
3211.80833,0.04318
3209.74816,0.04277
3207.68799,0.04214
3205.62781,0.04170
3203.56764,0.04158
3201.50747,0.04161
3199.44730,0.04166
3197.38713,0.04163
3195.32695,0.04151
3193.26678,0.04127
3191.20661,0.04088
3189.14644,0.04061
3187.08626,0.04040
3185.02609,0.04004
3182.96592,0.03977
3180.90575,0.03974
3178.84558,0.03980
3176.78540,0.03967
3174.72523,0.03941
3172.66506,0.03906
3170.60489,0.03849
3168.54472,0.03798
3166.48454,0.03785
3164.42437,0.03799
3162.36420,0.03809
3160.30403,0.03791
3158.24386,0.03754
3156.18368,0.03712
3154.12351,0.03678
3152.06334,0.03656
3150.00317,0.03635
3147.94299,0.03616
3145.88282,0.03610
3143.82265,0.03619
3141.76248,0.03607
3139.70231,0.03561
3137.64213,0.03521
3135.58196,0.03501
3133.52179,0.03481
3131.46162,0.03441
3129.40145,0.03396
3127.34127,0.03364
3125.28110,0.03338
3123.22093,0.03318
3121.16076,0.03294
3119.10058,0.03255
3117.04041,0.03217
3114.98024,0.03226
3112.92007,0.03273
3110.85990,0.03279
3108.79972,0.03224
3106.73955,0.03176
3104.67938,0.03168
3102.61921,0.03177
3100.55904,0.03169
3098.49886,0.03121
3096.43869,0.03055
3094.37852,0.03016
3092.31835,0.02996
3090.25818,0.02947
3088.19800,0.02915
3086.13783,0.02946
3084.07766,0.02984
3082.01749,0.02985
3079.95731,0.02957
3077.89714,0.02913
3075.83697,0.02852
3073.77680,0.02803
3071.71663,0.02788
3069.65645,0.02784
3067.59628,0.02760
3065.53611,0.02731
3063.47594,0.02715
3061.41577,0.02688
3059.35559,0.02673
3057.29542,0.02694
3055.23525,0.02699
3053.17508,0.02681
3051.11491,0.02671
3049.05473,0.02645
3046.99456,0.02598
3044.93439,0.02577
3042.87422,0.02580
3040.81404,0.02561
3038.75387,0.02516
3036.69370,0.02473
3034.63353,0.02428
3032.57336,0.02370
3030.51318,0.02324
3028.45301,0.02322
3026.39284,0.02331
3024.33267,0.02311
3022.27250,0.02295
3020.21232,0.02306
3018.15215,0.02321
3016.09198,0.02312
3014.03181,0.02266
3011.97163,0.02216
3009.91146,0.02210
3007.85129,0.02241
3005.79112,0.02255
3003.73095,0.02221
3001.67077,0.02158
2999.61060,0.02105
2997.55043,0.02087
2995.49026,0.02103
2993.43009,0.02124
2991.36991,0.02138
2989.30974,0.02149
2987.24957,0.02132
2985.18940,0.02098
2983.12923,0.02088
2981.06905,0.02110
2979.00888,0.02150
2976.94871,0.02188
2974.88854,0.02232
2972.82836,0.02278
2970.76819,0.02320
2968.70802,0.02375
2966.64785,0.02450
2964.58768,0.02554
2962.52750,0.02683
2960.46733,0.02814
2958.40716,0.02960
2956.34699,0.03127
2954.28682,0.03270
2952.22664,0.03381
2950.16647,0.03504
2948.10630,0.03629
2946.04613,0.03770
2943.98596,0.03966
2941.92578,0.04178
2939.86561,0.04386
2937.80544,0.04613
2935.74527,0.04824
2933.68509,0.04996
2931.62492,0.05162
2929.56475,0.05329
2927.50458,0.05461
2925.44441,0.05545
2923.38423,0.05644
2921.32406,0.05766
2919.26389,0.05843
2917.20372,0.05828
2915.14355,0.05724
2913.08337,0.05550
2911.02320,0.05332
2908.96303,0.05132
2906.90286,0.04966
2904.84268,0.04794
2902.78251,0.04623
2900.72234,0.04507
2898.66217,0.04442
2896.60200,0.04352
2894.54182,0.04225
2892.48165,0.04118
2890.42148,0.04037
2888.36131,0.03956
2886.30114,0.03862
2884.24096,0.03762
2882.18079,0.03692
2880.12062,0.03651
2878.06045,0.03630
2876.00028,0.03629
2873.94010,0.03618
2871.87993,0.03621
2869.81976,0.03677
2867.75959,0.03757
2865.69941,0.03838
2863.63924,0.03930
2861.57907,0.04050
2859.51890,0.04192
2857.45873,0.04316
2855.39855,0.04437
2853.33838,0.04589
2851.27821,0.04717
2849.21804,0.04703
2847.15787,0.04520
2845.09769,0.04235
2843.03752,0.03937
2840.97735,0.03696
2838.91718,0.03510
2836.85700,0.03363
2834.79683,0.03266
2832.73666,0.03169
2830.67649,0.03049
2828.61632,0.02968
2826.55614,0.02923
2824.49597,0.02867
2822.43580,0.02804
2820.37563,0.02728
2818.31546,0.02642
2816.25528,0.02602
2814.19511,0.02596
2812.13494,0.02569
2810.07477,0.02540
2808.01460,0.02521
2805.95442,0.02495
2803.89425,0.02459
2801.83408,0.02420
2799.77391,0.02389
2797.71373,0.02381
2795.65356,0.02372
2793.59339,0.02350
2791.53322,0.02324
2789.47305,0.02304
2787.41287,0.02295
2785.35270,0.02274
2783.29253,0.02253
2781.23236,0.02245
2779.17219,0.02231
2777.11201,0.02220
2775.05184,0.02215
2772.99167,0.02189
2770.93150,0.02152
2768.87133,0.02148
2766.81115,0.02162
2764.75098,0.02153
2762.69081,0.02123
2760.63064,0.02099
2758.57046,0.02093
2756.51029,0.02107
2754.45012,0.02109
2752.38995,0.02093
2750.32978,0.02112
2748.26960,0.02137
2746.20943,0.02104
2744.14926,0.02054
2742.08909,0.02045
2740.02892,0.02057
2737.96874,0.02051
2735.90857,0.02031
2733.84840,0.02021
2731.78823,0.02026
2729.72805,0.02034
2727.66788,0.02036
2725.60771,0.02042
2723.54754,0.02033
2721.48737,0.01994
2719.42719,0.01970
2717.36702,0.01980
2715.30685,0.01987
2713.24668,0.01964
2711.18651,0.01929
2709.12633,0.01901
2707.06616,0.01910
2705.00599,0.01957
2702.94582,0.01979
2700.88565,0.01960
2698.82547,0.01950
2696.76530,0.01957
2694.70513,0.01952
2692.64496,0.01935
2690.58478,0.01918
2688.52461,0.01905
2686.46444,0.01894
2684.40427,0.01883
2682.34410,0.01880
2680.28392,0.01884
2678.22375,0.01887
2676.16358,0.01888
2674.10341,0.01885
2672.04324,0.01875
2669.98306,0.01865
2667.92289,0.01856
2665.86272,0.01866
2663.80255,0.01886
2661.74238,0.01873
2659.68220,0.01843
2657.62203,0.01834
2655.56186,0.01824
2653.50169,0.01810
2651.44151,0.01807
2649.38134,0.01796
2647.32117,0.01781
2645.26100,0.01765
2643.20083,0.01738
2641.14065,0.01720
2639.08048,0.01717
2637.02031,0.01707
2634.96014,0.01688
2632.89997,0.01675
2630.83979,0.01668
2628.77962,0.01660
2626.71945,0.01651
2624.65928,0.01664
2622.59910,0.01693
2620.53893,0.01708
2618.47876,0.01722
2616.41859,0.01725
2614.35842,0.01682
2612.29824,0.01626
2610.23807,0.01585
2608.17790,0.01572
2606.11773,0.01592
2604.05756,0.01615
2601.99738,0.01625
2599.93721,0.01619
2597.87704,0.01603
2595.81687,0.01598
2593.75670,0.01577
2591.69652,0.01527
2589.63635,0.01513
2587.57618,0.01554
2585.51601,0.01574
2583.45583,0.01534
2581.39566,0.01480
2579.33549,0.01491
2577.27532,0.01514
2575.21515,0.01448
2573.15497,0.01358
2571.09480,0.01339
2569.03463,0.01371
2566.97446,0.01380
2564.91429,0.01366
2562.85411,0.01376
2560.79394,0.01395
2558.73377,0.01385
2556.67360,0.01351
2554.61342,0.01330
2552.55325,0.01318
2550.49308,0.01303
2548.43291,0.01296
2546.37274,0.01282
2544.31256,0.01272
2542.25239,0.01293
2540.19222,0.01331
2538.13205,0.01352
2536.07188,0.01339
2534.01170,0.01329
2531.95153,0.01356
2529.89136,0.01382
2527.83119,0.01357
2525.77102,0.01319
2523.71084,0.01319
2521.65067,0.01338
2519.59050,0.01341
2517.53033,0.01330
2515.47015,0.01321
2513.40998,0.01329
2511.34981,0.01330
2509.28964,0.01300
2507.22947,0.01286
2505.16929,0.01313
2503.10912,0.01325
2501.04895,0.01286
2498.98878,0.01255
2496.92861,0.01244
2494.86843,0.01217
2492.80826,0.01206
2490.74809,0.01216
2488.68792,0.01230
2486.62775,0.01232
2484.56757,0.01196
2482.50740,0.01166
2480.44723,0.01186
2478.38706,0.01204
2476.32688,0.01192
2474.26671,0.01173
2472.20654,0.01175
2470.14637,0.01215
2468.08620,0.01247
2466.02602,0.01238
2463.96585,0.01208
2461.90568,0.01205
2459.84551,0.01233
2457.78534,0.01211
2455.72516,0.01132
2453.66499,0.01106
2451.60482,0.01148
2449.54465,0.01186
2447.48447,0.01214
2445.42430,0.01227
2443.36413,0.01188
2441.30396,0.01134
2439.24379,0.01111
2437.18361,0.01111
2435.12344,0.01148
2433.06327,0.01197
2431.00310,0.01204
2428.94293,0.01170
2426.88275,0.01150
2424.82258,0.01188
2422.76241,0.01204
2420.70224,0.01139
2418.64207,0.01090
2416.58189,0.01082
2414.52172,0.01049
2412.46155,0.01019
2410.40138,0.01025
2408.34120,0.01020
2406.28103,0.00990
2404.22086,0.00964
2402.16069,0.00985
2400.10052,0.01032
2398.04034,0.01053
2395.98017,0.01062
2393.92000,0.01057
2391.85983,0.01030
2389.79966,0.00998
2387.73948,0.00986
2385.67931,0.01004
2383.61914,0.01043
2381.55897,0.01075
2379.49880,0.01063
2377.43862,0.00983
2375.37845,0.00882
2373.31828,0.00796
2371.25811,0.00731
2369.19793,0.00836
2367.13776,0.01128
2365.07759,0.01189
2363.01742,0.00897
2360.95725,0.00766
2358.89707,0.00955
2356.83690,0.01083
2354.77673,0.01073
2352.71656,0.01143
2350.65639,0.01251
2348.59621,0.01234
2346.53604,0.01080
2344.47587,0.00899
2342.41570,0.00876
2340.35552,0.01023
2338.29535,0.01172
2336.23518,0.01232
2334.17501,0.01130
2332.11484,0.00882
2330.05466,0.00707
2327.99449,0.00720
2325.93432,0.00802
2323.87415,0.00914
2321.81398,0.01074
2319.75380,0.01178
2317.69363,0.01148
2315.63346,0.01069
2313.57329,0.01045
2311.51312,0.01054
2309.45294,0.01010
2307.39277,0.00922
2305.33260,0.00866
2303.27243,0.00857
2301.21225,0.00878
2299.15208,0.00924
2297.09191,0.00966
2295.03174,0.00967
2292.97157,0.00937
2290.91139,0.00925
2288.85122,0.00965
2286.79105,0.01019
2284.73088,0.01004
2282.67071,0.00909
2280.61053,0.00813
2278.55036,0.00769
2276.49019,0.00767
2274.43002,0.00790
2272.36984,0.00817
2270.30967,0.00834
2268.24950,0.00844
2266.18933,0.00854
2264.12916,0.00847
2262.06898,0.00801
2260.00881,0.00754
2257.94864,0.00733
2255.88847,0.00705
2253.82830,0.00647
2251.76812,0.00582
2249.70795,0.00545
2247.64778,0.00551
2245.58761,0.00624
2243.52744,0.00700
2241.46726,0.00689
2239.40709,0.00695
2237.34692,0.00736
2235.28675,0.00705
2233.22657,0.00669
2231.16640,0.00671
2229.10623,0.00665
2227.04606,0.00707
2224.98589,0.00783
2222.92571,0.00768
2220.86554,0.00732
2218.80537,0.00786
2216.74520,0.00816
2214.68503,0.00708
2212.62485,0.00580
2210.56468,0.00636
2208.50451,0.00751
2206.44434,0.00693
2204.38417,0.00604
2202.32399,0.00619
2200.26382,0.00622
2198.20365,0.00560
2196.14348,0.00530
2194.08330,0.00532
2192.02313,0.00446
2189.96296,0.00360
2187.90279,0.00464
2185.84262,0.00577
2183.78244,0.00561
2181.72227,0.00660
2179.66210,0.00797
2177.60193,0.00717
2175.54176,0.00596
2173.48158,0.00537
2171.42141,0.00482
2169.36124,0.00559
2167.30107,0.00657
2165.24089,0.00571
2163.18072,0.00457
2161.12055,0.00343
2159.06038,0.00121
2157.00021,0.00000
2154.94003,0.00116
2152.87986,0.00305
2150.81969,0.00442
2148.75952,0.00598
2146.69935,0.00660
2144.63917,0.00462
2142.57900,0.00262
2140.51883,0.00254
2138.45866,0.00321
2136.39849,0.00393
2134.33831,0.00475
2132.27814,0.00521
2130.21797,0.00458
2128.15780,0.00397
2126.09762,0.00450
2124.03745,0.00534
2121.97728,0.00608
2119.91711,0.00665
2117.85694,0.00726
2115.79676,0.00799
2113.73659,0.00784
2111.67642,0.00744
2109.61625,0.00784
2107.55608,0.00787
2105.49590,0.00703
2103.43573,0.00628
2101.37556,0.00567
2099.31539,0.00501
2097.25521,0.00485
2095.19504,0.00533
2093.13487,0.00571
2091.07470,0.00571
2089.01453,0.00576
2086.95435,0.00566
2084.89418,0.00582
2082.83401,0.00652
2080.77384,0.00661
2078.71367,0.00583
2076.65349,0.00489
2074.59332,0.00377
2072.53315,0.00275
2070.47298,0.00280
2068.41281,0.00390
2066.35263,0.00514
2064.29246,0.00610
2062.23229,0.00694
2060.17212,0.00729
2058.11194,0.00668
2056.05177,0.00586
2053.99160,0.00644
2051.93143,0.00798
2049.87126,0.00869
2047.81108,0.00874
2045.75091,0.00846
2043.69074,0.00799
2041.63057,0.00752
2039.57040,0.00625
2037.51022,0.00453
2035.45005,0.00386
2033.38988,0.00443
2031.32971,0.00494
2029.26954,0.00428
2027.20936,0.00320
2025.14919,0.00364
2023.08902,0.00494
2021.02885,0.00430
2018.96867,0.00220
2016.90850,0.00234
2014.84833,0.00406
2012.78816,0.00437
2010.72799,0.00422
2008.66781,0.00446
2006.60764,0.00398
2004.54747,0.00290
2002.48730,0.00251
2000.42713,0.00309
1998.36695,0.00386
1996.30678,0.00436
1994.24661,0.00460
1992.18644,0.00495
1990.12626,0.00518
1988.06609,0.00441
1986.00592,0.00341
1983.94575,0.00373
1981.88558,0.00413
1979.82540,0.00372
1977.76523,0.00410
1975.70506,0.00486
1973.64489,0.00406
1971.58472,0.00273
1969.52454,0.00218
1967.46437,0.00187
1965.40420,0.00133
1963.34403,0.00148
1961.28386,0.00270
1959.22368,0.00398
1957.16351,0.00458
1955.10334,0.00450
1953.04317,0.00443
1950.98299,0.00482
1948.92282,0.00475
1946.86265,0.00373
1944.80248,0.00321
1942.74231,0.00377
1940.68213,0.00330
1938.62196,0.00204
1936.56179,0.00163
1934.50162,0.00177
1932.44145,0.00184
1930.38127,0.00184
1928.32110,0.00182
1926.26093,0.00165
1924.20076,0.00131
1922.14059,0.00113
1920.08041,0.00182
1918.02024,0.00263
1915.96007,0.00256
1913.89990,0.00315
1911.83972,0.00425
1909.77955,0.00463
1907.71938,0.00380
1905.65921,0.00265
1903.59904,0.00243
1901.53886,0.00270
1899.47869,0.00268
1897.41852,0.00292
1895.35835,0.00348
1893.29818,0.00343
1891.23800,0.00324
1889.17783,0.00303
1887.11766,0.00260
1885.05749,0.00280
1882.99731,0.00347
1880.93714,0.00404
1878.87697,0.00406
1876.81680,0.00369
1874.75663,0.00347
1872.69645,0.00338
1870.63628,0.00333
1868.57611,0.00288
1866.51594,0.00180
1864.45577,0.00124
1862.39559,0.00149
1860.33542,0.00191
1858.27525,0.00227
1856.21508,0.00269
1854.15491,0.00305
1852.09473,0.00306
1850.03456,0.00274
1847.97439,0.00231
1845.91422,0.00257
1843.85404,0.00308
1841.79387,0.00258
1839.73370,0.00244
1837.67353,0.00298
1835.61336,0.00306
1833.55318,0.00245
1831.49301,0.00213
1829.43284,0.00181
1827.37267,0.00143
1825.31250,0.00180
1823.25232,0.00164
1821.19215,0.00148
1819.13198,0.00223
1817.07181,0.00278
1815.01163,0.00252
1812.95146,0.00230
1810.89129,0.00214
1808.83112,0.00148
1806.77095,0.00091
1804.71077,0.00099
1802.65060,0.00164
1800.59043,0.00209
1798.53026,0.00171
1796.47009,0.00118
1794.40991,0.00128
1792.34974,0.00149
1790.28957,0.00060
1788.22940,0.00000
1786.16923,0.00026
1784.10905,0.00028
1782.04888,0.00026
1779.98871,0.00038
1777.92854,0.00013
1775.86836,0.00027
1773.80819,0.00127
1771.74802,0.00182
1769.68785,0.00139
1767.62768,0.00112
1765.56750,0.00064
1763.50733,0.00107
1761.44716,0.00228
1759.38699,0.00327
1757.32682,0.00445
1755.26664,0.00485
1753.20647,0.00560
1751.14630,0.00750
1749.08613,0.00878
1747.02596,0.00944
1744.96578,0.01048
1742.90561,0.01181
1740.84544,0.01282
1738.78527,0.01268
1736.72509,0.01294
1734.66492,0.01504
1732.60475,0.01526
1730.54458,0.01438
1728.48441,0.01411
1726.42423,0.01407
1724.36406,0.01430
1722.30389,0.01401
1720.24372,0.01411
1718.18355,0.01529
1716.12337,0.01549
1714.06320,0.01490
1712.00303,0.01457
1709.94286,0.01463
1707.88268,0.01501
1705.82251,0.01498
1703.76234,0.01383
1701.70217,0.01389
1699.64200,0.01395
1697.58182,0.01340
1695.52165,0.01403
1693.46148,0.01370
1691.40131,0.01419
1689.34114,0.01532
1687.28096,0.01692
1685.22079,0.02099
1683.16062,0.02367
1681.10045,0.02348
1679.04028,0.02403
1676.98010,0.02591
1674.91993,0.02733
1672.85976,0.02741
1670.79959,0.02845
1668.73941,0.02852
1666.67924,0.02694
1664.61907,0.02695
1662.55890,0.02763
1660.49873,0.02660
1658.43855,0.02538
1656.37838,0.02610
1654.31821,0.02885
1652.25804,0.02794
1650.19787,0.02467
1648.13769,0.02574
1646.07752,0.02704
1644.01735,0.02576
1641.95718,0.02533
1639.89701,0.02620
1637.83683,0.02818
1635.77666,0.03010
1633.71649,0.02929
1631.65632,0.02866
1629.59614,0.02985
1627.53597,0.03081
1625.47580,0.03123
1623.41563,0.03177
1621.35546,0.03130
1619.29528,0.03180
1617.23511,0.03371
1615.17494,0.03389
1613.11477,0.03388
1611.05460,0.03540
1608.99442,0.03708
1606.93425,0.03813
1604.87408,0.03863
1602.81391,0.03841
1600.75373,0.03724
1598.69356,0.03557
1596.63339,0.03408
1594.57322,0.03284
1592.51305,0.03164
1590.45287,0.03060
1588.39270,0.02982
1586.33253,0.02919
1584.27236,0.02841
1582.21219,0.02714
1580.15201,0.02578
1578.09184,0.02568
1576.03167,0.02545
1573.97150,0.02314
1571.91133,0.02227
1569.85115,0.02268
1567.79098,0.02108
1565.73081,0.01917
1563.67064,0.01776
1561.61046,0.01817
1559.55029,0.02009
1557.49012,0.01733
1555.42995,0.01464
1553.36978,0.01451
1551.30960,0.01475
1549.24943,0.01417
1547.18926,0.01284
1545.12909,0.01222
1543.06892,0.01206
1541.00874,0.01225
1538.94857,0.01060
1536.88840,0.00820
1534.82823,0.00887
1532.76805,0.00937
1530.70788,0.00776
1528.64771,0.00710
1526.58754,0.00701
1524.52737,0.00692
1522.46719,0.00808
1520.40702,0.00867
1518.34685,0.00933
1516.28668,0.01106
1514.22651,0.01144
1512.16633,0.01073
1510.10616,0.01005
1508.04599,0.01028
1505.98582,0.00859
1503.92565,0.00530
1501.86547,0.00433
1499.80530,0.00485
1497.74513,0.00477
1495.68496,0.00305
1493.62478,0.00120
1491.56461,0.00154
1489.50444,0.00217
1487.44427,0.00132
1485.38410,0.00058
1483.32392,0.00084
1481.26375,0.00136
1479.20358,0.00134
1477.14341,0.00173
1475.08324,0.00345
1473.02306,0.00629
1470.96289,0.00769
1468.90272,0.00846
1466.84255,0.01105
1464.78238,0.01353
1462.72220,0.01362
1460.66203,0.01404
1458.60186,0.01675
1456.54169,0.01860
1454.48151,0.01779
1452.42134,0.01776
1450.36117,0.01904
1448.30100,0.02052
1446.24083,0.02132
1444.18065,0.02202
1442.12048,0.02292
1440.06031,0.02366
1438.00014,0.02497
1435.93997,0.02543
1433.87979,0.02463
1431.81962,0.02510
1429.75945,0.02586
1427.69928,0.02550
1425.63910,0.02527
1423.57893,0.02523
1421.51876,0.02549
1419.45859,0.02639
1417.39842,0.02585
1415.33824,0.02487
1413.27807,0.02479
1411.21790,0.02475
1409.15773,0.02421
1407.09756,0.02382
1405.03738,0.02342
1402.97721,0.02227
1400.91704,0.02138
1398.85687,0.02082
1396.79670,0.02008
1394.73652,0.01962
1392.67635,0.01886
1390.61618,0.01867
1388.55601,0.01947
1386.49583,0.01980
1384.43566,0.01980
1382.37549,0.02071
1380.31532,0.02190
1378.25515,0.02255
1376.19497,0.02307
1374.13480,0.02361
1372.07463,0.02356
1370.01446,0.02357
1367.95429,0.02361
1365.89411,0.02342
1363.83394,0.02344
1361.77377,0.02302
1359.71360,0.02222
1357.65343,0.02188
1355.59325,0.02183
1353.53308,0.02175
1351.47291,0.02166
1349.41274,0.02168
1347.35256,0.02173
1345.29239,0.02156
1343.23222,0.02120
1341.17205,0.02108
1339.11188,0.02096
1337.05170,0.02060
1334.99153,0.02062
1332.93136,0.02104
1330.87119,0.02151
1328.81102,0.02187
1326.75084,0.02211
1324.69067,0.02209
1322.63050,0.02190
1320.57033,0.02198
1318.51015,0.02229
1316.44998,0.02241
1314.38981,0.02232
1312.32964,0.02177
1310.26947,0.02081
1308.20929,0.02004
1306.14912,0.01960
1304.08895,0.01912
1302.02878,0.01842
1299.96861,0.01783
1297.90843,0.01763
1295.84826,0.01765
1293.78809,0.01761
1291.72792,0.01760
1289.66775,0.01782
1287.60757,0.01813
1285.54740,0.01811
1283.48723,0.01790
1281.42706,0.01790
1279.36688,0.01831
1277.30671,0.01883
1275.24654,0.01906
1273.18637,0.01910
1271.12620,0.01928
1269.06602,0.01973
1267.00585,0.02032
1264.94568,0.02092
1262.88551,0.02158
1260.82534,0.02239
1258.76516,0.02322
1256.70499,0.02401
1254.64482,0.02459
1252.58465,0.02485
1250.52447,0.02513
1248.46430,0.02560
1246.40413,0.02599
1244.34396,0.02621
1242.28379,0.02629
1240.22361,0.02635
1238.16344,0.02640
1236.10327,0.02609
1234.04310,0.02546
1231.98293,0.02500
1229.92275,0.02454
1227.86258,0.02368
1225.80241,0.02260
1223.74224,0.02147
1221.68207,0.02017
1219.62189,0.01882
1217.56172,0.01762
1215.50155,0.01654
1213.44138,0.01547
1211.38120,0.01440
1209.32103,0.01333
1207.26086,0.01222
1205.20069,0.01115
1203.14052,0.00993
1201.08034,0.00830
1199.02017,0.00637
1196.96000,0.00463
1194.89983,0.00345
1192.83966,0.00258
1190.77948,0.00169
1188.71931,0.00080
1186.65914,0.00020
1184.59897,0.00000
1182.53880,0.00005
1180.47862,0.00057
1178.41845,0.00147
1176.35828,0.00257
1174.29811,0.00404
1172.23793,0.00588
1170.17776,0.00779
1168.11759,0.00943
1166.05742,0.01060
1163.99725,0.01139
1161.93707,0.01204
1159.87690,0.01267
1157.81673,0.01333
1155.75656,0.01397
1153.69639,0.01471
1151.63621,0.01575
1149.57604,0.01676
1147.51587,0.01757
1145.45570,0.01853
1143.39552,0.01944
1141.33535,0.01994
1139.27518,0.02049
1137.21501,0.02143
1135.15484,0.02241
1133.09466,0.02319
1131.03449,0.02383
1128.97432,0.02464
1126.91415,0.02582
1124.85398,0.02722
1122.79380,0.02860
1120.73363,0.02989
1118.67346,0.03134
1116.61329,0.03297
1114.55312,0.03426
1112.49294,0.03521
1110.43277,0.03630
1108.37260,0.03757
1106.31243,0.03898
1104.25225,0.04029
1102.19208,0.04122
1100.13191,0.04241
1098.07174,0.04445
1096.01157,0.04688
1093.95139,0.04904
1091.89122,0.05073
1089.83105,0.05220
1087.77088,0.05374
1085.71071,0.05535
1083.65053,0.05692
1081.59036,0.05863
1079.53019,0.06089
1077.47002,0.06355
1075.40985,0.06611
1073.34967,0.06837
1071.28950,0.07047
1069.22933,0.07246
1067.16916,0.07413
1065.10898,0.07533
1063.04881,0.07636
1060.98864,0.07771
1058.92847,0.07931
1056.86830,0.08088
1054.80812,0.08269
1052.74795,0.08509
1050.68778,0.08754
1048.62761,0.08949
1046.56744,0.09157
1044.50726,0.09407
1042.44709,0.09650
1040.38692,0.09860
1038.32675,0.10012
1036.26657,0.10116
1034.20640,0.10206
1032.14623,0.10286
1030.08606,0.10335
1028.02589,0.10328
1025.96571,0.10283
1023.90554,0.10247
1021.84537,0.10192
1019.78520,0.10097
1017.72503,0.10011
1015.66485,0.09965
1013.60468,0.09946
1011.54451,0.09960
1009.48434,0.10007
1007.42417,0.10036
1005.36399,0.10031
1003.30382,0.09974
1001.24365,0.09839
999.18348,0.09677
997.12330,0.09526
995.06313,0.09370
993.00296,0.09190
990.94279,0.09005
988.88262,0.08850
986.82244,0.08689
984.76227,0.08512
982.70210,0.08369
980.64193,0.08241
978.58176,0.08085
976.52158,0.07929
974.46141,0.07772
972.40124,0.07589
970.34107,0.07403
968.28089,0.07249
966.22072,0.07132
964.16055,0.07004
962.10038,0.06813
960.04021,0.06587
957.98003,0.06381
955.91986,0.06217
953.85969,0.06085
951.79952,0.05947
949.73935,0.05784
947.67917,0.05630
945.61900,0.05489
943.55883,0.05326
941.49866,0.05110
939.43849,0.04813
937.37831,0.04480
935.31814,0.04180
933.25797,0.03906
931.19780,0.03622
929.13762,0.03343
927.07745,0.03125
925.01728,0.02961
922.95711,0.02798
920.89694,0.02640
918.83676,0.02498
916.77659,0.02338
914.71642,0.02141
912.65625,0.01960
910.59608,0.01833
908.53590,0.01737
906.47573,0.01670
904.41556,0.01626
902.35539,0.01589
900.29522,0.01577
898.23504,0.01596
896.17487,0.01591
894.11470,0.01554
892.05453,0.01565
889.99435,0.01601
887.93418,0.01561
885.87401,0.01430
883.81384,0.01267
881.75367,0.01163
879.69349,0.01112
877.63332,0.01037
875.57315,0.00953
873.51298,0.00896
871.45281,0.00839
869.39263,0.00788
867.33246,0.00753
865.27229,0.00709
863.21212,0.00701
861.15194,0.00761
859.09177,0.00776
857.03160,0.00720
854.97143,0.00707
852.91126,0.00718
850.85108,0.00707
848.79091,0.00688
846.73074,0.00620
844.67057,0.00554
842.61040,0.00597
840.55022,0.00695
838.49005,0.00751
836.42988,0.00754
834.36971,0.00723
832.30954,0.00676
830.24936,0.00613
828.18919,0.00493
826.12902,0.00355
824.06885,0.00312
822.00867,0.00313
819.94850,0.00256
817.88833,0.00223
815.82816,0.00214
813.76799,0.00155
811.70781,0.00111
809.64764,0.00110
807.58747,0.00129
805.52730,0.00181
803.46713,0.00225
801.40695,0.00226
799.34678,0.00194
797.28661,0.00117
795.22644,0.00028
793.16627,0.00000
791.10609,0.00013
789.04592,0.00006
786.98575,0.00007
784.92558,0.00090
782.86540,0.00232
780.80523,0.00365
778.74506,0.00436
776.68489,0.00391
774.62472,0.00276
772.56454,0.00238
770.50437,0.00262
768.44420,0.00223
766.38403,0.00157
764.32386,0.00143
762.26368,0.00152
760.20351,0.00095
758.14334,-0.00015
756.08317,-0.00084
754.02299,-0.00020
751.96282,0.00163
749.90265,0.00259
747.84248,0.00151
745.78231,0.00000
743.72213,-0.00001
741.66196,0.00036
739.60179,-0.00088
737.54162,-0.00151
735.48145,-0.00072
733.42127,-0.00061
731.36110,-0.00087
729.30093,-0.00021
727.24076,0.00073
725.18059,0.00116
723.12041,0.00117
721.06024,0.00173
719.00007,0.00302
716.93990,0.00351
714.87972,0.00281
712.81955,0.00216
710.75938,0.00200
708.69921,0.00225
706.63904,0.00375
704.57886,0.00617
702.51869,0.00781
700.45852,0.00795
698.39835,0.00660
696.33818,0.00458
694.27800,0.00374
692.21783,0.00464
690.15766,0.00600
688.09749,0.00628
686.03731,0.00503
683.97714,0.00370
681.91697,0.00345
679.85680,0.00356
677.79663,0.00285
675.73645,0.00180
673.67628,0.00156
671.61611,0.00119
669.55594,0.00017
667.49577,0.00024
665.43559,0.00167
663.37542,0.00341
661.31525,0.00458
659.25508,0.00474
657.19491,0.00407
655.13473,0.00375
653.07456,0.00444
651.01439,0.00477
648.95422,0.00417
646.89404,0.00345
644.83387,0.00216
642.77370,0.00000
640.71353,-0.00059
638.65336,0.00213
636.59318,0.00609
634.53301,0.00862
632.47284,0.00780
630.41267,0.00521
628.35250,0.00425
626.29232,0.00397
624.23215,0.00183
622.17198,0.00210
620.11181,0.00538
618.05164,0.00606
615.99146,0.00251
613.93129,0.00084
611.87112,0.00273
609.81095,0.00276
607.75077,0.00114
605.69060,0.00355
603.63043,0.00553
601.57026,0.00165
599.51009,0.00000
