3996.73391,-0.00090
3994.67373,-0.00071
3992.61356,-0.00055
3990.55339,-0.00042
3988.49322,-0.00034
3986.43305,-0.00030
3984.37287,-0.00023
3982.31270,-0.00007
3980.25253,0.00009
3978.19236,0.00017
3976.13219,0.00015
3974.07201,0.00007
3972.01184,0.00001
3969.95167,0.00007
3967.89150,0.00019
3965.83133,0.00022
3963.77115,0.00012
3961.71098,0.00000
3959.65081,0.00000
3957.59064,0.00009
3955.53046,0.00018
3953.47029,0.00025
3951.41012,0.00037
3949.34995,0.00059
3947.28978,0.00083
3945.22960,0.00102
3943.16943,0.00110
3941.10926,0.00107
3939.04909,0.00094
3936.98892,0.00079
3934.92874,0.00074
3932.86857,0.00079
3930.80840,0.00086
3928.74823,0.00078
3926.68805,0.00052
3924.62788,0.00017
3922.56771,-0.00004
3920.50754,0.00000
3918.44737,0.00022
3916.38719,0.00061
3914.32702,0.00102
3912.26685,0.00130
3910.20668,0.00138
3908.14651,0.00126
3906.08633,0.00093
3904.02616,0.00049
3901.96599,0.00018
3899.90582,0.00016
3897.84565,0.00037
3895.78547,0.00062
3893.72530,0.00077
3891.66513,0.00080
3889.60496,0.00080
3887.54478,0.00078
3885.48461,0.00080
3883.42444,0.00091
3881.36427,0.00110
3879.30410,0.00120
3877.24392,0.00107
3875.18375,0.00069
3873.12358,0.00026
3871.06341,0.00000
3869.00324,0.00008
3866.94306,0.00042
3864.88289,0.00085
3862.82272,0.00115
3860.76255,0.00124
3858.70237,0.00110
3856.64220,0.00082
3854.58203,0.00061
3852.52186,0.00064
3850.46169,0.00079
3848.40151,0.00091
3846.34134,0.00099
3844.28117,0.00105
3842.22100,0.00112
3840.16083,0.00127
3838.10065,0.00150
3836.04048,0.00168
3833.98031,0.00168
3831.92014,0.00149
3829.85997,0.00126
3827.79979,0.00118
3825.73962,0.00129
3823.67945,0.00145
3821.61928,0.00154
3819.55910,0.00154
3817.49893,0.00146
3815.43876,0.00132
3813.37859,0.00122
3811.31842,0.00119
3809.25824,0.00119
3807.19807,0.00112
3805.13790,0.00098
3803.07773,0.00087
3801.01756,0.00093
3798.95738,0.00112
3796.89721,0.00138
3794.83704,0.00164
3792.77687,0.00186
3790.71670,0.00203
3788.65652,0.00219
3786.59635,0.00229
3784.53618,0.00216
3782.47601,0.00175
3780.41583,0.00125
3778.35566,0.00089
3776.29549,0.00075
3774.23532,0.00077
3772.17515,0.00095
3770.11497,0.00118
3768.05480,0.00134
3765.99463,0.00134
3763.93446,0.00121
3761.87429,0.00107
3759.81411,0.00101
3757.75394,0.00098
3755.69377,0.00087
3753.63360,0.00066
3751.57342,0.00050
3749.51325,0.00050
3747.45308,0.00061
3745.39291,0.00066
3743.33274,0.00048
3741.27256,0.00016
3739.21239,0.00000
3737.15222,0.00024
3735.09205,0.00085
3733.03188,0.00164
3730.97170,0.00235
3728.91153,0.00280
3726.85136,0.00289
3724.79119,0.00261
3722.73102,0.00215
3720.67084,0.00170
3718.61067,0.00132
3716.55050,0.00100
3714.49033,0.00086
3712.43015,0.00108
3710.36998,0.00163
3708.30981,0.00217
3706.24964,0.00238
3704.18947,0.00222
3702.12929,0.00186
3700.06912,0.00152
3698.00895,0.00136
3695.94878,0.00141
3693.88861,0.00157
3691.82843,0.00176
3689.76826,0.00195
3687.70809,0.00212
3685.64792,0.00224
3683.58775,0.00224
3681.52757,0.00208
3679.46740,0.00172
3677.40723,0.00129
3675.34706,0.00107
3673.28688,0.00121
3671.22671,0.00162
3669.16654,0.00209
3667.10637,0.00240
3665.04620,0.00251
3662.98602,0.00253
3660.92585,0.00250
3658.86568,0.00238
3656.80551,0.00219
3654.74534,0.00206
3652.68516,0.00213
3650.62499,0.00250
3648.56482,0.00305
3646.50465,0.00357
3644.44447,0.00398
3642.38430,0.00436
3640.32413,0.00476
3638.26396,0.00503
3636.20379,0.00511
3634.14361,0.00512
3632.08344,0.00519
3630.02327,0.00528
3627.96310,0.00534
3625.90293,0.00535
3623.84275,0.00534
3621.78258,0.00544
3619.72241,0.00577
3617.66224,0.00641
3615.60207,0.00718
3613.54189,0.00786
3611.48172,0.00839
3609.42155,0.00884
3607.36138,0.00918
3605.30120,0.00936
3603.24103,0.00940
3601.18086,0.00942
3599.12069,0.00953
3597.06052,0.00979
3595.00034,0.01026
3592.94017,0.01083
3590.88000,0.01135
3588.81983,0.01178
3586.75966,0.01215
3584.69948,0.01240
3582.63931,0.01253
3580.57914,0.01264
3578.51897,0.01284
3576.45879,0.01316
3574.39862,0.01358
3572.33845,0.01411
3570.27828,0.01473
3568.21811,0.01533
3566.15793,0.01581
3564.09776,0.01611
3562.03759,0.01620
3559.97742,0.01622
3557.91725,0.01634
3555.85707,0.01662
3553.79690,0.01695
3551.73673,0.01726
3549.67656,0.01756
3547.61639,0.01788
3545.55621,0.01826
3543.49604,0.01864
3541.43587,0.01890
3539.37570,0.01903
3537.31552,0.01920
3535.25535,0.01957
3533.19518,0.02006
3531.13501,0.02053
3529.07484,0.02097
3527.01466,0.02138
3524.95449,0.02173
3522.89432,0.02205
3520.83415,0.02245
3518.77398,0.02303
3516.71380,0.02367
3514.65363,0.02425
3512.59346,0.02471
3510.53329,0.02503
3508.47312,0.02521
3506.41294,0.02540
3504.35277,0.02576
3502.29260,0.02628
3500.23243,0.02681
3498.17225,0.02721
3496.11208,0.02750
3494.05191,0.02770
3491.99174,0.02788
3489.93157,0.02808
3487.87139,0.02837
3485.81122,0.02876
3483.75105,0.02916
3481.69088,0.02944
3479.63071,0.02959
3477.57053,0.02971
3475.51036,0.02990
3473.45019,0.03014
3471.39002,0.03040
3469.32984,0.03068
3467.26967,0.03098
3465.20950,0.03128
3463.14933,0.03154
3461.08916,0.03181
3459.02898,0.03218
3456.96881,0.03262
3454.90864,0.03298
3452.84847,0.03320
3450.78830,0.03337
3448.72812,0.03361
3446.66795,0.03394
3444.60778,0.03431
3442.54761,0.03462
3440.48744,0.03482
3438.42726,0.03495
3436.36709,0.03515
3434.30692,0.03547
3432.24675,0.03590
3430.18657,0.03637
3428.12640,0.03677
3426.06623,0.03704
3424.00606,0.03722
3421.94589,0.03746
3419.88571,0.03776
3417.82554,0.03798
3415.76537,0.03801
3413.70520,0.03787
3411.64503,0.03771
3409.58485,0.03771
3407.52468,0.03797
3405.46451,0.03843
3403.40434,0.03888
3401.34416,0.03917
3399.28399,0.03936
3397.22382,0.03954
3395.16365,0.03977
3393.10348,0.03998
3391.04330,0.04006
3388.98313,0.04003
3386.92296,0.04001
3384.86279,0.04012
3382.80262,0.04032
3380.74244,0.04049
3378.68227,0.04057
3376.62210,0.04067
3374.56193,0.04093
3372.50176,0.04133
3370.44158,0.04173
3368.38141,0.04197
3366.32124,0.04203
3364.26107,0.04200
3362.20089,0.04199
3360.14072,0.04201
3358.08055,0.04208
3356.02038,0.04220
3353.96021,0.04235
3351.90003,0.04245
3349.83986,0.04248
3347.77969,0.04246
3345.71952,0.04245
3343.65935,0.04247
3341.59917,0.04247
3339.53900,0.04246
3337.47883,0.04249
3335.41866,0.04258
3333.35849,0.04264
3331.29831,0.04260
3329.23814,0.04255
3327.17797,0.04262
3325.11780,0.04285
3323.05762,0.04309
3320.99745,0.04321
3318.93728,0.04323
3316.87711,0.04328
3314.81694,0.04338
3312.75676,0.04348
3310.69659,0.04350
3308.63642,0.04349
3306.57625,0.04351
3304.51608,0.04358
3302.45590,0.04364
3300.39573,0.04367
3298.33556,0.04365
3296.27539,0.04355
3294.21521,0.04337
3292.15504,0.04320
3290.09487,0.04314
3288.03470,0.04313
3285.97453,0.04308
3283.91435,0.04299
3281.85418,0.04292
3279.79401,0.04289
3277.73384,0.04289
3275.67367,0.04291
3273.61349,0.04294
3271.55332,0.04297
3269.49315,0.04304
3267.43298,0.04320
3265.37281,0.04340
3263.31263,0.04349
3261.25246,0.04339
3259.19229,0.04312
3257.13212,0.04288
3255.07194,0.04276
3253.01177,0.04267
3250.95160,0.04251
3248.89143,0.04227
3246.83126,0.04205
3244.77108,0.04193
3242.71091,0.04194
3240.65074,0.04200
3238.59057,0.04203
3236.53040,0.04194
3234.47022,0.04168
3232.41005,0.04129
3230.34988,0.04089
3228.28971,0.04058
3226.22954,0.04042
3224.16936,0.04042
3222.10919,0.04049
3220.04902,0.04054
3217.98885,0.04051
3215.92867,0.04044
3213.86850,0.04039
3211.80833,0.04035
3209.74816,0.04021
3207.68799,0.03991
3205.62781,0.03951
3203.56764,0.03912
3201.50747,0.03889
3199.44730,0.03884
3197.38713,0.03883
3195.32695,0.03870
3193.26678,0.03837
3191.20661,0.03791
3189.14644,0.03741
3187.08626,0.03690
3185.02609,0.03645
3182.96592,0.03614
3180.90575,0.03602
3178.84558,0.03603
3176.78540,0.03611
3174.72523,0.03613
3172.66506,0.03600
3170.60489,0.03572
3168.54472,0.03536
3166.48454,0.03498
3164.42437,0.03467
3162.36420,0.03447
3160.30403,0.03438
3158.24386,0.03430
3156.18368,0.03421
3154.12351,0.03405
3152.06334,0.03378
3150.00317,0.03345
3147.94299,0.03308
3145.88282,0.03266
3143.82265,0.03220
3141.76248,0.03180
3139.70231,0.03156
3137.64213,0.03149
3135.58196,0.03153
3133.52179,0.03155
3131.46162,0.03146
3129.40145,0.03123
3127.34127,0.03093
3125.28110,0.03062
3123.22093,0.03036
3121.16076,0.03018
3119.10058,0.03001
3117.04041,0.02975
3114.98024,0.02942
3112.92007,0.02907
3110.85990,0.02875
3108.79972,0.02850
3106.73955,0.02835
3104.67938,0.02825
3102.61921,0.02808
3100.55904,0.02779
3098.49886,0.02744
3096.43869,0.02716
3094.37852,0.02701
3092.31835,0.02697
3090.25818,0.02697
3088.19800,0.02695
3086.13783,0.02681
3084.07766,0.02650
3082.01749,0.02604
3079.95731,0.02554
3077.89714,0.02515
3075.83697,0.02496
3073.77680,0.02496
3071.71663,0.02499
3069.65645,0.02490
3067.59628,0.02465
3065.53611,0.02429
3063.47594,0.02395
3061.41577,0.02374
3059.35559,0.02364
3057.29542,0.02356
3055.23525,0.02339
3053.17508,0.02314
3051.11491,0.02287
3049.05473,0.02266
3046.99456,0.02251
3044.93439,0.02236
3042.87422,0.02218
3040.81404,0.02200
3038.75387,0.02184
3036.69370,0.02167
3034.63353,0.02143
3032.57336,0.02109
3030.51318,0.02072
3028.45301,0.02041
3026.39284,0.02020
3024.33267,0.02009
3022.27250,0.02000
3020.21232,0.01990
3018.15215,0.01981
3016.09198,0.01983
3014.03181,0.01996
3011.97163,0.02012
3009.91146,0.02019
3007.85129,0.02006
3005.79112,0.01977
3003.73095,0.01949
3001.67077,0.01934
2999.61060,0.01934
2997.55043,0.01937
2995.49026,0.01929
2993.43009,0.01914
2991.36991,0.01898
2989.30974,0.01889
2987.24957,0.01896
2985.18940,0.01919
2983.12923,0.01952
2981.06905,0.01982
2979.00888,0.01995
2976.94871,0.02002
2974.88854,0.02017
2972.82836,0.02034
2970.76819,0.02038
2968.70802,0.02037
2966.64785,0.02050
2964.58768,0.02075
2962.52750,0.02102
2960.46733,0.02134
2958.40716,0.02162
2956.34699,0.02177
2954.28682,0.02189
2952.22664,0.02216
2950.16647,0.02256
2948.10630,0.02296
2946.04613,0.02336
2943.98596,0.02371
2941.92578,0.02395
2939.86561,0.02425
2937.80544,0.02460
2935.74527,0.02486
2933.68509,0.02500
2931.62492,0.02506
2929.56475,0.02499
2927.50458,0.02481
2925.44441,0.02458
2923.38423,0.02441
2921.32406,0.02431
2919.26389,0.02422
2917.20372,0.02408
2915.14355,0.02392
2913.08337,0.02367
2911.02320,0.02338
2908.96303,0.02316
2906.90286,0.02305
2904.84268,0.02305
2902.78251,0.02313
2900.72234,0.02325
2898.66217,0.02340
2896.60200,0.02361
2894.54182,0.02365
2892.48165,0.02334
2890.42148,0.02286
2888.36131,0.02251
2886.30114,0.02233
2884.24096,0.02218
2882.18079,0.02213
2880.12062,0.02222
2878.06045,0.02227
2876.00028,0.02214
2873.94010,0.02186
2871.87993,0.02151
2869.81976,0.02120
2867.75959,0.02108
2865.69941,0.02106
2863.63924,0.02086
2861.57907,0.02048
2859.51890,0.02020
2857.45873,0.02011
2855.39855,0.01999
2853.33838,0.01979
2851.27821,0.01960
2849.21804,0.01942
2847.15787,0.01916
2845.09769,0.01879
2843.03752,0.01842
2840.97735,0.01814
2838.91718,0.01787
2836.85700,0.01766
2834.79683,0.01767
2832.73666,0.01782
2830.67649,0.01783
2828.61632,0.01763
2826.55614,0.01743
2824.49597,0.01732
2822.43580,0.01718
2820.37563,0.01706
2818.31546,0.01704
2816.25528,0.01696
2814.19511,0.01673
2812.13494,0.01646
2810.07477,0.01634
2808.01460,0.01628
2805.95442,0.01609
2803.89425,0.01594
2801.83408,0.01598
2799.77391,0.01601
2797.71373,0.01592
2795.65356,0.01576
2793.59339,0.01565
2791.53322,0.01569
2789.47305,0.01578
2787.41287,0.01570
2785.35270,0.01553
2783.29253,0.01549
2781.23236,0.01554
2779.17219,0.01545
2777.11201,0.01522
2775.05184,0.01497
2772.99167,0.01483
2770.93150,0.01482
2768.87133,0.01481
2766.81115,0.01466
2764.75098,0.01450
2762.69081,0.01450
2760.63064,0.01457
2758.57046,0.01455
2756.51029,0.01447
2754.45012,0.01439
2752.38995,0.01434
2750.32978,0.01430
2748.26960,0.01421
2746.20943,0.01412
2744.14926,0.01405
2742.08909,0.01403
2740.02892,0.01404
2737.96874,0.01403
2735.90857,0.01397
2733.84840,0.01395
2731.78823,0.01403
2729.72805,0.01410
2727.66788,0.01404
2725.60771,0.01391
2723.54754,0.01385
2721.48737,0.01389
2719.42719,0.01386
2717.36702,0.01375
2715.30685,0.01363
2713.24668,0.01345
2711.18651,0.01323
2709.12633,0.01308
2707.06616,0.01301
2705.00599,0.01295
2702.94582,0.01289
2700.88565,0.01283
2698.82547,0.01279
2696.76530,0.01280
2694.70513,0.01275
2692.64496,0.01266
2690.58478,0.01265
2688.52461,0.01271
2686.46444,0.01276
2684.40427,0.01274
2682.34410,0.01260
2680.28392,0.01233
2678.22375,0.01211
2676.16358,0.01209
2674.10341,0.01214
2672.04324,0.01210
2669.98306,0.01202
2667.92289,0.01194
2665.86272,0.01186
2663.80255,0.01182
2661.74238,0.01187
2659.68220,0.01188
2657.62203,0.01172
2655.56186,0.01145
2653.50169,0.01121
2651.44151,0.01110
2649.38134,0.01113
2647.32117,0.01109
2645.26100,0.01094
2643.20083,0.01084
2641.14065,0.01080
2639.08048,0.01066
2637.02031,0.01043
2634.96014,0.01032
2632.89997,0.01044
2630.83979,0.01056
2628.77962,0.01041
2626.71945,0.01000
2624.65928,0.00967
2622.59910,0.00955
2620.53893,0.00952
2618.47876,0.00941
2616.41859,0.00937
2614.35842,0.00949
2612.29824,0.00956
2610.23807,0.00942
2608.17790,0.00922
2606.11773,0.00907
2604.05756,0.00906
2601.99738,0.00911
2599.93721,0.00894
2597.87704,0.00858
2595.81687,0.00840
2593.75670,0.00841
2591.69652,0.00847
2589.63635,0.00863
2587.57618,0.00881
2585.51601,0.00876
2583.45583,0.00857
2581.39566,0.00852
2579.33549,0.00859
2577.27532,0.00865
2575.21515,0.00861
2573.15497,0.00858
2571.09480,0.00850
2569.03463,0.00819
2566.97446,0.00797
2564.91429,0.00816
2562.85411,0.00844
2560.79394,0.00834
2558.73377,0.00790
2556.67360,0.00752
2554.61342,0.00747
2552.55325,0.00766
2550.49308,0.00785
2548.43291,0.00793
2546.37274,0.00797
2544.31256,0.00803
2542.25239,0.00819
2540.19222,0.00835
2538.13205,0.00829
2536.07188,0.00806
2534.01170,0.00792
2531.95153,0.00784
2529.89136,0.00757
2527.83119,0.00725
2525.77102,0.00721
2523.71084,0.00734
2521.65067,0.00743
2519.59050,0.00757
2517.53033,0.00782
2515.47015,0.00803
2513.40998,0.00799
2511.34981,0.00772
2509.28964,0.00749
2507.22947,0.00751
2505.16929,0.00759
2503.10912,0.00752
2501.04895,0.00762
2498.98878,0.00803
2496.92861,0.00834
2494.86843,0.00827
2492.80826,0.00811
2490.74809,0.00811
2488.68792,0.00817
2486.62775,0.00806
2484.56757,0.00781
2482.50740,0.00771
2480.44723,0.00788
2478.38706,0.00804
2476.32688,0.00796
2474.26671,0.00783
2472.20654,0.00781
2470.14637,0.00777
2468.08620,0.00765
2466.02602,0.00762
2463.96585,0.00777
2461.90568,0.00796
2459.84551,0.00805
2457.78534,0.00793
2455.72516,0.00768
2453.66499,0.00746
2451.60482,0.00740
2449.54465,0.00759
2447.48447,0.00790
2445.42430,0.00807
2443.36413,0.00787
2441.30396,0.00739
2439.24379,0.00709
2437.18361,0.00716
2435.12344,0.00711
2433.06327,0.00670
2431.00310,0.00637
2428.94293,0.00646
2426.88275,0.00667
2424.82258,0.00663
2422.76241,0.00645
2420.70224,0.00646
2418.64207,0.00672
2416.58189,0.00689
2414.52172,0.00687
2412.46155,0.00690
2410.40138,0.00702
2408.34120,0.00709
2406.28103,0.00718
2404.22086,0.00737
2402.16069,0.00760
2400.10052,0.00771
2398.04034,0.00767
2395.98017,0.00754
2393.92000,0.00739
2391.85983,0.00725
2389.79966,0.00713
2387.73948,0.00699
2385.67931,0.00680
2383.61914,0.00652
2381.55897,0.00628
2379.49880,0.00623
2377.43862,0.00640
2375.37845,0.00663
2373.31828,0.00692
2371.25811,0.00745
2369.19793,0.00829
2367.13776,0.00912
2365.07759,0.00939
2363.01742,0.00868
2360.95725,0.00717
2358.89707,0.00564
2356.83690,0.00507
2354.77673,0.00571
2352.71656,0.00676
2350.65639,0.00743
2348.59621,0.00750
2346.53604,0.00730
2344.47587,0.00730
2342.41570,0.00743
2340.35552,0.00732
2338.29535,0.00678
2336.23518,0.00601
2334.17501,0.00563
2332.11484,0.00612
2330.05466,0.00735
2327.99449,0.00873
2325.93432,0.00955
2323.87415,0.00934
2321.81398,0.00821
2319.75380,0.00675
2317.69363,0.00560
2315.63346,0.00501
2313.57329,0.00491
2311.51312,0.00514
2309.45294,0.00557
2307.39277,0.00603
2305.33260,0.00629
2303.27243,0.00630
2301.21225,0.00618
2299.15208,0.00609
2297.09191,0.00611
2295.03174,0.00626
2292.97157,0.00643
2290.91139,0.00645
2288.85122,0.00626
2286.79105,0.00604
2284.73088,0.00601
2282.67071,0.00617
2280.61053,0.00633
2278.55036,0.00634
2276.49019,0.00633
2274.43002,0.00640
2272.36984,0.00646
2270.30967,0.00635
2268.24950,0.00611
2266.18933,0.00593
2264.12916,0.00591
2262.06898,0.00602
2260.00881,0.00609
2257.94864,0.00593
2255.88847,0.00553
2253.82830,0.00508
2251.76812,0.00485
2249.70795,0.00487
2247.64778,0.00495
2245.58761,0.00475
2243.52744,0.00437
2241.46726,0.00420
2239.40709,0.00438
2237.34692,0.00485
2235.28675,0.00526
2233.22657,0.00513
2231.16640,0.00461
2229.10623,0.00438
2227.04606,0.00458
2224.98589,0.00476
2222.92571,0.00476
2220.86554,0.00475
2218.80537,0.00512
2216.74520,0.00593
2214.68503,0.00622
2212.62485,0.00540
2210.56468,0.00428
2208.50451,0.00414
2206.44434,0.00500
2204.38417,0.00550
2202.32399,0.00504
2200.26382,0.00454
2198.20365,0.00441
2196.14348,0.00410
2194.08330,0.00384
2192.02313,0.00450
2189.96296,0.00545
2187.90279,0.00527
2185.84262,0.00418
2183.78244,0.00348
2181.72227,0.00388
2179.66210,0.00479
2177.60193,0.00449
2175.54176,0.00267
2173.48158,0.00130
2171.42141,0.00175
2169.36124,0.00338
2167.30107,0.00495
2165.24089,0.00585
2163.18072,0.00575
2161.12055,0.00439
2159.06038,0.00263
2157.00021,0.00204
2154.94003,0.00247
2152.87986,0.00256
2150.81969,0.00191
2148.75952,0.00141
2146.69935,0.00213
2144.63917,0.00362
2142.57900,0.00410
2140.51883,0.00316
2138.45866,0.00208
2136.39849,0.00180
2134.33831,0.00227
2132.27814,0.00299
2130.21797,0.00332
2128.15780,0.00311
2126.09762,0.00273
2124.03745,0.00245
2121.97728,0.00229
2119.91711,0.00233
2117.85694,0.00252
2115.79676,0.00257
2113.73659,0.00266
2111.67642,0.00326
2109.61625,0.00410
2107.55608,0.00461
2105.49590,0.00498
2103.43573,0.00540
2101.37556,0.00559
2099.31539,0.00534
2097.25521,0.00476
2095.19504,0.00408
2093.13487,0.00355
2091.07470,0.00339
2089.01453,0.00362
2086.95435,0.00407
2084.89418,0.00447
2082.83401,0.00466
2080.77384,0.00461
2078.71367,0.00441
2076.65349,0.00410
2074.59332,0.00371
2072.53315,0.00338
2070.47298,0.00320
2068.41281,0.00308
2066.35263,0.00291
2064.29246,0.00275
2062.23229,0.00288
2060.17212,0.00348
2058.11194,0.00434
2056.05177,0.00503
2053.99160,0.00526
2051.93143,0.00504
2049.87126,0.00449
2047.81108,0.00379
2045.75091,0.00318
2043.69074,0.00287
2041.63057,0.00297
2039.57040,0.00354
2037.51022,0.00445
2035.45005,0.00517
2033.38988,0.00508
2031.32971,0.00414
2029.26954,0.00305
2027.20936,0.00230
2025.14919,0.00166
2023.08902,0.00090
2021.02885,0.00023
2018.96867,0.00000
2016.90850,0.00012
2014.84833,0.00033
2012.78816,0.00049
2010.72799,0.00060
2008.66781,0.00072
2006.60764,0.00096
2004.54747,0.00144
2002.48730,0.00218
2000.42713,0.00300
1998.36695,0.00362
1996.30678,0.00393
1994.24661,0.00399
1992.18644,0.00396
1990.12626,0.00393
1988.06609,0.00390
1986.00592,0.00381
1983.94575,0.00349
1981.88558,0.00271
1979.82540,0.00152
1977.76523,0.00042
1975.70506,0.00000
1973.64489,0.00027
1971.58472,0.00085
1969.52454,0.00148
1967.46437,0.00203
1965.40420,0.00238
1963.34403,0.00240
1961.28386,0.00209
1959.22368,0.00162
1957.16351,0.00132
1955.10334,0.00139
1953.04317,0.00178
1950.98299,0.00224
1948.92282,0.00255
1946.86265,0.00263
1944.80248,0.00244
1942.74231,0.00206
1940.68213,0.00183
1938.62196,0.00198
1936.56179,0.00237
1934.50162,0.00267
1932.44145,0.00262
1930.38127,0.00225
1928.32110,0.00183
1926.26093,0.00168
1924.20076,0.00184
1922.14059,0.00211
1920.08041,0.00227
1918.02024,0.00230
1915.96007,0.00227
1913.89990,0.00221
1911.83972,0.00204
1909.77955,0.00180
1907.71938,0.00162
1905.65921,0.00162
1903.59904,0.00183
1901.53886,0.00217
1899.47869,0.00242
1897.41852,0.00242
1895.35835,0.00221
1893.29818,0.00194
1891.23800,0.00175
1889.17783,0.00173
1887.11766,0.00185
1885.05749,0.00198
1882.99731,0.00203
1880.93714,0.00196
1878.87697,0.00180
1876.81680,0.00159
1874.75663,0.00143
1872.69645,0.00137
1870.63628,0.00137
1868.57611,0.00140
1866.51594,0.00153
1864.45577,0.00177
1862.39559,0.00203
1860.33542,0.00219
1858.27525,0.00218
1856.21508,0.00207
1854.15491,0.00194
1852.09473,0.00185
1850.03456,0.00184
1847.97439,0.00193
1845.91422,0.00207
1843.85404,0.00207
1841.79387,0.00186
1839.73370,0.00145
1837.67353,0.00097
1835.61336,0.00065
1833.55318,0.00063
1831.49301,0.00089
1829.43284,0.00127
1827.37267,0.00161
1825.31250,0.00184
1823.25232,0.00187
1821.19215,0.00168
1819.13198,0.00140
1817.07181,0.00120
1815.01163,0.00113
1812.95146,0.00112
1810.89129,0.00108
1808.83112,0.00103
1806.77095,0.00100
1804.71077,0.00098
1802.65060,0.00095
1800.59043,0.00095
1798.53026,0.00100
1796.47009,0.00109
1794.40991,0.00120
1792.34974,0.00130
1790.28957,0.00140
1788.22940,0.00148
1786.16923,0.00154
1784.10905,0.00160
1782.04888,0.00166
1779.98871,0.00171
1777.92854,0.00172
1775.86836,0.00167
1773.80819,0.00160
1771.74802,0.00160
1769.68785,0.00173
1767.62768,0.00195
1765.56750,0.00216
1763.50733,0.00240
1761.44716,0.00271
1759.38699,0.00314
1757.32682,0.00365
1755.26664,0.00416
1753.20647,0.00459
1751.14630,0.00497
1749.08613,0.00539
1747.02596,0.00585
1744.96578,0.00632
1742.90561,0.00678
1740.84544,0.00721
1738.78527,0.00749
1736.72509,0.00753
1734.66492,0.00740
1732.60475,0.00729
1730.54458,0.00730
1728.48441,0.00737
1726.42423,0.00742
1724.36406,0.00745
1722.30389,0.00746
1720.24372,0.00741
1718.18355,0.00725
1716.12337,0.00700
1714.06320,0.00670
1712.00303,0.00632
1709.94286,0.00587
1707.88268,0.00538
1705.82251,0.00493
1703.76234,0.00454
1701.70217,0.00430
1699.64200,0.00427
1697.58182,0.00443
1695.52165,0.00464
1693.46148,0.00475
1691.40131,0.00475
1689.34114,0.00469
1687.28096,0.00470
1685.22079,0.00498
1683.16062,0.00561
1681.10045,0.00645
1679.04028,0.00731
1676.98010,0.00802
1674.91993,0.00853
1672.85976,0.00882
1670.79959,0.00901
1668.73941,0.00931
1666.67924,0.00982
1664.61907,0.01049
1662.55890,0.01116
1660.49873,0.01174
1658.43855,0.01221
1656.37838,0.01259
1654.31821,0.01284
1652.25804,0.01297
1650.19787,0.01308
1648.13769,0.01327
1646.07752,0.01358
1644.01735,0.01393
1641.95718,0.01421
1639.89701,0.01435
1637.83683,0.01436
1635.77666,0.01435
1633.71649,0.01446
1631.65632,0.01472
1629.59614,0.01499
1627.53597,0.01515
1625.47580,0.01521
1623.41563,0.01530
1621.35546,0.01545
1619.29528,0.01558
1617.23511,0.01566
1615.17494,0.01576
1613.11477,0.01588
1611.05460,0.01591
1608.99442,0.01574
1606.93425,0.01534
1604.87408,0.01475
1602.81391,0.01403
1600.75373,0.01322
1598.69356,0.01238
1596.63339,0.01156
1594.57322,0.01075
1592.51305,0.00996
1590.45287,0.00917
1588.39270,0.00840
1586.33253,0.00768
1584.27236,0.00700
1582.21219,0.00634
1580.15201,0.00568
1578.09184,0.00506
1576.03167,0.00458
1573.97150,0.00426
1571.91133,0.00403
1569.85115,0.00378
1567.79098,0.00348
1565.73081,0.00321
1563.67064,0.00297
1561.61046,0.00269
1559.55029,0.00239
1557.49012,0.00220
1555.42995,0.00220
1553.36978,0.00226
1551.30960,0.00224
1549.24943,0.00201
1547.18926,0.00157
1545.12909,0.00103
1543.06892,0.00062
1541.00874,0.00048
1538.94857,0.00060
1536.88840,0.00081
1534.82823,0.00096
1532.76805,0.00098
1530.70788,0.00086
1528.64771,0.00059
1526.58754,0.00026
1524.52737,0.00004
1522.46719,0.00000
1520.40702,0.00004
1518.34685,0.00015
1516.28668,0.00034
1514.22651,0.00052
1512.16633,0.00055
1510.10616,0.00041
1508.04599,0.00026
1505.98582,0.00030
1503.92565,0.00049
1501.86547,0.00068
1499.80530,0.00079
1497.74513,0.00086
1495.68496,0.00094
1493.62478,0.00110
1491.56461,0.00132
1489.50444,0.00161
1487.44427,0.00197
1485.38410,0.00235
1483.32392,0.00270
1481.26375,0.00302
1479.20358,0.00331
1477.14341,0.00359
1475.08324,0.00389
1473.02306,0.00426
1470.96289,0.00475
1468.90272,0.00532
1466.84255,0.00591
1464.78238,0.00646
1462.72220,0.00691
1460.66203,0.00723
1458.60186,0.00749
1456.54169,0.00782
1454.48151,0.00820
1452.42134,0.00855
1450.36117,0.00882
1448.30100,0.00904
1446.24083,0.00927
1444.18065,0.00952
1442.12048,0.00975
1440.06031,0.00997
1438.00014,0.01022
1435.93997,0.01052
1433.87979,0.01084
1431.81962,0.01112
1429.75945,0.01137
1427.69928,0.01167
1425.63910,0.01206
1423.57893,0.01247
1421.51876,0.01279
1419.45859,0.01296
1417.39842,0.01309
1415.33824,0.01323
1413.27807,0.01331
1411.21790,0.01327
1409.15773,0.01313
1407.09756,0.01292
1405.03738,0.01269
1402.97721,0.01241
1400.91704,0.01205
1398.85687,0.01165
1396.79670,0.01131
1394.73652,0.01110
1392.67635,0.01102
1390.61618,0.01105
1388.55601,0.01114
1386.49583,0.01132
1384.43566,0.01161
1382.37549,0.01195
1380.31532,0.01227
1378.25515,0.01251
1376.19497,0.01267
1374.13480,0.01278
1372.07463,0.01287
1370.01446,0.01291
1367.95429,0.01284
1365.89411,0.01261
1363.83394,0.01228
1361.77377,0.01197
1359.71360,0.01172
1357.65343,0.01150
1355.59325,0.01127
1353.53308,0.01104
1351.47291,0.01084
1349.41274,0.01066
1347.35256,0.01052
1345.29239,0.01039
1343.23222,0.01025
1341.17205,0.01008
1339.11188,0.00994
1337.05170,0.00987
1334.99153,0.00983
1332.93136,0.00981
1330.87119,0.00984
1328.81102,0.00993
1326.75084,0.01005
1324.69067,0.01015
1322.63050,0.01016
1320.57033,0.01011
1318.51015,0.01011
1316.44998,0.01019
1314.38981,0.01032
1312.32964,0.01041
1310.26947,0.01036
1308.20929,0.01016
1306.14912,0.00990
1304.08895,0.00963
1302.02878,0.00937
1299.96861,0.00912
1297.90843,0.00889
1295.84826,0.00873
1293.78809,0.00858
1291.72792,0.00842
1289.66775,0.00827
1287.60757,0.00819
1285.54740,0.00817
1283.48723,0.00820
1281.42706,0.00827
1279.36688,0.00837
1277.30671,0.00849
1275.24654,0.00863
1273.18637,0.00885
1271.12620,0.00919
1269.06602,0.00969
1267.00585,0.01028
1264.94568,0.01083
1262.88551,0.01123
1260.82534,0.01150
1258.76516,0.01173
1256.70499,0.01197
1254.64482,0.01219
1252.58465,0.01235
1250.52447,0.01239
1248.46430,0.01233
1246.40413,0.01221
1244.34396,0.01207
1242.28379,0.01191
1240.22361,0.01173
1238.16344,0.01154
1236.10327,0.01131
1234.04310,0.01096
1231.98293,0.01048
1229.92275,0.00994
1227.86258,0.00940
1225.80241,0.00887
1223.74224,0.00834
1221.68207,0.00781
1219.62189,0.00727
1217.56172,0.00667
1215.50155,0.00599
1213.44138,0.00525
1211.38120,0.00453
1209.32103,0.00393
1207.26086,0.00345
1205.20069,0.00300
1203.14052,0.00253
1201.08034,0.00199
1199.02017,0.00140
1196.96000,0.00081
1194.89983,0.00036
1192.83966,0.00011
1190.77948,0.00000
1188.71931,-0.00003
1186.65914,0.00015
1184.59897,0.00058
1182.53880,0.00120
1180.47862,0.00200
1178.41845,0.00299
1176.35828,0.00408
1174.29811,0.00529
1172.23793,0.00658
1170.17776,0.00785
1168.11759,0.00914
1166.05742,0.01057
1163.99725,0.01213
1161.93707,0.01358
1159.87690,0.01477
1157.81673,0.01581
1155.75656,0.01683
1153.69639,0.01778
1151.63621,0.01863
1149.57604,0.01954
1147.51587,0.02047
1145.45570,0.02119
1143.39552,0.02173
1141.33535,0.02227
1139.27518,0.02284
1137.21501,0.02354
1135.15484,0.02454
1133.09466,0.02569
1131.03449,0.02674
1128.97432,0.02778
1126.91415,0.02894
1124.85398,0.03021
1122.79380,0.03160
1120.73363,0.03301
1118.67346,0.03427
1116.61329,0.03539
1114.55312,0.03652
1112.49294,0.03776
1110.43277,0.03903
1108.37260,0.04027
1106.31243,0.04156
1104.25225,0.04300
1102.19208,0.04454
1100.13191,0.04619
1098.07174,0.04802
1096.01157,0.04991
1093.95139,0.05166
1091.89122,0.05323
1089.83105,0.05475
1087.77088,0.05624
1085.71071,0.05766
1083.65053,0.05900
1081.59036,0.06037
1079.53019,0.06181
1077.47002,0.06327
1075.40985,0.06462
1073.34967,0.06578
1071.28950,0.06668
1069.22933,0.06742
1067.16916,0.06819
1065.10898,0.06905
1063.04881,0.06985
1060.98864,0.07045
1058.92847,0.07099
1056.86830,0.07162
1054.80812,0.07233
1052.74795,0.07309
1050.68778,0.07400
1048.62761,0.07503
1046.56744,0.07601
1044.50726,0.07677
1042.44709,0.07720
1040.38692,0.07739
1038.32675,0.07758
1036.26657,0.07781
1034.20640,0.07785
1032.14623,0.07750
1030.08606,0.07674
1028.02589,0.07572
1025.96571,0.07476
1023.90554,0.07396
1021.84537,0.07314
1019.78520,0.07215
1017.72503,0.07114
1015.66485,0.07038
1013.60468,0.06979
1011.54451,0.06913
1009.48434,0.06831
1007.42417,0.06726
1005.36399,0.06596
1003.30382,0.06454
1001.24365,0.06318
999.18348,0.06207
997.12330,0.06117
995.06313,0.06020
993.00296,0.05917
990.94279,0.05836
988.88262,0.05766
986.82244,0.05680
984.76227,0.05587
982.70210,0.05514
980.64193,0.05462
978.58176,0.05400
976.52158,0.05296
974.46141,0.05156
972.40124,0.05010
970.34107,0.04876
968.28089,0.04746
966.22072,0.04612
964.16055,0.04484
962.10038,0.04358
960.04021,0.04221
957.98003,0.04076
955.91986,0.03937
953.85969,0.03814
951.79952,0.03695
949.73935,0.03570
947.67917,0.03439
945.61900,0.03302
943.55883,0.03146
941.49866,0.02960
939.43849,0.02749
937.37831,0.02526
935.31814,0.02294
933.25797,0.02066
931.19780,0.01871
929.13762,0.01722
927.07745,0.01598
925.01728,0.01477
922.95711,0.01366
920.89694,0.01280
918.83676,0.01212
916.77659,0.01154
914.71642,0.01107
912.65625,0.01066
910.59608,0.01011
908.53590,0.00930
906.47573,0.00836
904.41556,0.00768
902.35539,0.00758
900.29522,0.00796
898.23504,0.00850
896.17487,0.00884
894.11470,0.00898
892.05453,0.00916
889.99435,0.00934
887.93418,0.00934
885.87401,0.00923
883.81384,0.00912
881.75367,0.00888
879.69349,0.00850
877.63332,0.00820
875.57315,0.00803
873.51298,0.00789
871.45281,0.00774
869.39263,0.00759
867.33246,0.00756
865.27229,0.00763
863.21212,0.00764
861.15194,0.00755
859.09177,0.00741
857.03160,0.00714
854.97143,0.00666
852.91126,0.00600
850.85108,0.00543
848.79091,0.00500
846.73074,0.00458
844.67057,0.00432
842.61040,0.00416
840.55022,0.00377
838.49005,0.00304
836.42988,0.00222
834.36971,0.00146
832.30954,0.00097
830.24936,0.00099
828.18919,0.00140
826.12902,0.00168
824.06885,0.00164
822.00867,0.00158
819.94850,0.00170
817.88833,0.00190
815.82816,0.00208
813.76799,0.00222
811.70781,0.00233
809.64764,0.00232
807.58747,0.00218
805.52730,0.00197
803.46713,0.00177
801.40695,0.00180
799.34678,0.00205
797.28661,0.00200
795.22644,0.00147
793.16627,0.00085
791.10609,0.00035
789.04592,0.00005
786.98575,0.00010
784.92558,0.00046
782.86540,0.00087
780.80523,0.00093
778.74506,0.00035
776.68489,-0.00033
774.62472,-0.00023
772.56454,0.00049
770.50437,0.00115
768.44420,0.00160
766.38403,0.00203
764.32386,0.00246
762.26368,0.00278
760.20351,0.00270
758.14334,0.00220
756.08317,0.00170
754.02299,0.00145
751.96282,0.00126
749.90265,0.00110
747.84248,0.00098
745.78231,0.00079
743.72213,0.00065
741.66196,0.00065
739.60179,0.00047
737.54162,0.00000
735.48145,-0.00024
733.42127,0.00020
731.36110,0.00040
729.30093,-0.00010
727.24076,-0.00047
725.18059,-0.00020
723.12041,0.00021
721.06024,0.00054
719.00007,0.00087
716.93990,0.00117
714.87972,0.00130
712.81955,0.00137
710.75938,0.00161
708.69921,0.00207
706.63904,0.00256
704.57886,0.00291
702.51869,0.00309
700.45852,0.00313
698.39835,0.00309
696.33818,0.00300
694.27800,0.00284
692.21783,0.00265
690.15766,0.00251
688.09749,0.00237
686.03731,0.00212
683.97714,0.00182
681.91697,0.00148
679.85680,0.00099
677.79663,0.00044
675.73645,0.00032
673.67628,0.00090
671.61611,0.00180
669.55594,0.00236
667.49577,0.00247
665.43559,0.00235
663.37542,0.00212
661.31525,0.00191
659.25508,0.00195
657.19491,0.00244
655.13473,0.00317
653.07456,0.00360
651.01439,0.00340
648.95422,0.00291
646.89404,0.00261
644.83387,0.00240
642.77370,0.00187
640.71353,0.00099
638.65336,0.00032
636.59318,0.00034
634.53301,0.00092
632.47284,0.00171
630.41267,0.00233
628.35250,0.00216
626.29232,0.00083
624.23215,-0.00041
622.17198,-0.00002
620.11181,0.00159
618.05164,0.00304
615.99146,0.00379
613.93129,0.00407
611.87112,0.00415
609.81095,0.00382
607.75077,0.00316
605.69060,0.00259
603.63043,0.00193
601.57026,0.00096
599.51009,0.00000
