3996.73391,0.00035
3994.67373,0.00017
3992.61356,0.00004
3990.55339,0.00000
3988.49322,0.00008
3986.43305,0.00025
3984.37287,0.00046
3982.31270,0.00066
3980.25253,0.00082
3978.19236,0.00089
3976.13219,0.00082
3974.07201,0.00069
3972.01184,0.00060
3969.95167,0.00060
3967.89150,0.00063
3965.83133,0.00061
3963.77115,0.00054
3961.71098,0.00043
3959.65081,0.00034
3957.59064,0.00028
3955.53046,0.00021
3953.47029,0.00017
3951.41012,0.00025
3949.34995,0.00044
3947.28978,0.00069
3945.22960,0.00090
3943.16943,0.00104
3941.10926,0.00108
3939.04909,0.00104
3936.98892,0.00092
3934.92874,0.00082
3932.86857,0.00077
3930.80840,0.00073
3928.74823,0.00060
3926.68805,0.00048
3924.62788,0.00049
3922.56771,0.00062
3920.50754,0.00072
3918.44737,0.00070
3916.38719,0.00058
3914.32702,0.00039
3912.26685,0.00021
3910.20668,0.00010
3908.14651,0.00012
3906.08633,0.00028
3904.02616,0.00054
3901.96599,0.00077
3899.90582,0.00080
3897.84565,0.00063
3895.78547,0.00041
3893.72530,0.00028
3891.66513,0.00033
3889.60496,0.00052
3887.54478,0.00073
3885.48461,0.00084
3883.42444,0.00082
3881.36427,0.00070
3879.30410,0.00060
3877.24392,0.00056
3875.18375,0.00064
3873.12358,0.00083
3871.06341,0.00106
3869.00324,0.00121
3866.94306,0.00117
3864.88289,0.00100
3862.82272,0.00078
3860.76255,0.00053
3858.70237,0.00027
3856.64220,0.00011
3854.58203,0.00017
3852.52186,0.00042
3850.46169,0.00059
3848.40151,0.00055
3846.34134,0.00039
3844.28117,0.00020
3842.22100,0.00004
3840.16083,0.00000
3838.10065,0.00016
3836.04048,0.00047
3833.98031,0.00079
3831.92014,0.00098
3829.85997,0.00099
3827.79979,0.00090
3825.73962,0.00081
3823.67945,0.00073
3821.61928,0.00069
3819.55910,0.00067
3817.49893,0.00062
3815.43876,0.00053
3813.37859,0.00046
3811.31842,0.00048
3809.25824,0.00057
3807.19807,0.00063
3805.13790,0.00056
3803.07773,0.00038
3801.01756,0.00027
3798.95738,0.00041
3796.89721,0.00072
3794.83704,0.00092
3792.77687,0.00084
3790.71670,0.00055
3788.65652,0.00033
3786.59635,0.00037
3784.53618,0.00058
3782.47601,0.00074
3780.41583,0.00074
3778.35566,0.00067
3776.29549,0.00062
3774.23532,0.00062
3772.17515,0.00071
3770.11497,0.00088
3768.05480,0.00104
3765.99463,0.00118
3763.93446,0.00139
3761.87429,0.00165
3759.81411,0.00170
3757.75394,0.00142
3755.69377,0.00095
3753.63360,0.00065
3751.57342,0.00069
3749.51325,0.00090
3747.45308,0.00101
3745.39291,0.00091
3743.33274,0.00073
3741.27256,0.00065
3739.21239,0.00069
3737.15222,0.00076
3735.09205,0.00078
3733.03188,0.00077
3730.97170,0.00088
3728.91153,0.00110
3726.85136,0.00130
3724.79119,0.00133
3722.73102,0.00124
3720.67084,0.00117
3718.61067,0.00121
3716.55050,0.00128
3714.49033,0.00142
3712.43015,0.00166
3710.36998,0.00190
3708.30981,0.00199
3706.24964,0.00191
3704.18947,0.00176
3702.12929,0.00165
3700.06912,0.00160
3698.00895,0.00161
3695.94878,0.00173
3693.88861,0.00202
3691.82843,0.00243
3689.76826,0.00274
3687.70809,0.00272
3685.64792,0.00238
3683.58775,0.00192
3681.52757,0.00154
3679.46740,0.00130
3677.40723,0.00118
3675.34706,0.00115
3673.28688,0.00117
3671.22671,0.00124
3669.16654,0.00137
3667.10637,0.00156
3665.04620,0.00183
3662.98602,0.00212
3660.92585,0.00230
3658.86568,0.00244
3656.80551,0.00267
3654.74534,0.00298
3652.68516,0.00323
3650.62499,0.00333
3648.56482,0.00330
3646.50465,0.00326
3644.44447,0.00327
3642.38430,0.00332
3640.32413,0.00342
3638.26396,0.00360
3636.20379,0.00390
3634.14361,0.00419
3632.08344,0.00440
3630.02327,0.00461
3627.96310,0.00477
3625.90293,0.00471
3623.84275,0.00445
3621.78258,0.00426
3619.72241,0.00434
3617.66224,0.00459
3615.60207,0.00477
3613.54189,0.00485
3611.48172,0.00493
3609.42155,0.00521
3607.36138,0.00573
3605.30120,0.00633
3603.24103,0.00680
3601.18086,0.00707
3599.12069,0.00719
3597.06052,0.00721
3595.00034,0.00724
3592.94017,0.00729
3590.88000,0.00733
3588.81983,0.00742
3586.75966,0.00766
3584.69948,0.00803
3582.63931,0.00841
3580.57914,0.00870
3578.51897,0.00891
3576.45879,0.00912
3574.39862,0.00936
3572.33845,0.00957
3570.27828,0.00970
3568.21811,0.00982
3566.15793,0.01001
3564.09776,0.01026
3562.03759,0.01053
3559.97742,0.01082
3557.91725,0.01109
3555.85707,0.01130
3553.79690,0.01149
3551.73673,0.01173
3549.67656,0.01201
3547.61639,0.01232
3545.55621,0.01257
3543.49604,0.01271
3541.43587,0.01277
3539.37570,0.01284
3537.31552,0.01299
3535.25535,0.01321
3533.19518,0.01343
3531.13501,0.01364
3529.07484,0.01388
3527.01466,0.01413
3524.95449,0.01438
3522.89432,0.01457
3520.83415,0.01466
3518.77398,0.01469
3516.71380,0.01480
3514.65363,0.01511
3512.59346,0.01559
3510.53329,0.01610
3508.47312,0.01649
3506.41294,0.01672
3504.35277,0.01689
3502.29260,0.01710
3500.23243,0.01735
3498.17225,0.01763
3496.11208,0.01795
3494.05191,0.01828
3491.99174,0.01853
3489.93157,0.01865
3487.87139,0.01869
3485.81122,0.01875
3483.75105,0.01887
3481.69088,0.01901
3479.63071,0.01912
3477.57053,0.01920
3475.51036,0.01926
3473.45019,0.01937
3471.39002,0.01953
3469.32984,0.01975
3467.26967,0.02001
3465.20950,0.02035
3463.14933,0.02078
3461.08916,0.02120
3459.02898,0.02148
3456.96881,0.02164
3454.90864,0.02184
3452.84847,0.02214
3450.78830,0.02247
3448.72812,0.02267
3446.66795,0.02265
3444.60778,0.02250
3442.54761,0.02235
3440.48744,0.02226
3438.42726,0.02225
3436.36709,0.02237
3434.30692,0.02264
3432.24675,0.02302
3430.18657,0.02338
3428.12640,0.02365
3426.06623,0.02386
3424.00606,0.02407
3421.94589,0.02429
3419.88571,0.02451
3417.82554,0.02472
3415.76537,0.02494
3413.70520,0.02522
3411.64503,0.02550
3409.58485,0.02566
3407.52468,0.02566
3405.46451,0.02556
3403.40434,0.02550
3401.34416,0.02556
3399.28399,0.02576
3397.22382,0.02601
3395.16365,0.02625
3393.10348,0.02643
3391.04330,0.02659
3388.98313,0.02675
3386.92296,0.02692
3384.86279,0.02713
3382.80262,0.02735
3380.74244,0.02749
3378.68227,0.02753
3376.62210,0.02754
3374.56193,0.02761
3372.50176,0.02776
3370.44158,0.02794
3368.38141,0.02813
3366.32124,0.02834
3364.26107,0.02852
3362.20089,0.02860
3360.14072,0.02858
3358.08055,0.02856
3356.02038,0.02860
3353.96021,0.02865
3351.90003,0.02871
3349.83986,0.02885
3347.77969,0.02903
3345.71952,0.02916
3343.65935,0.02915
3341.59917,0.02904
3339.53900,0.02894
3337.47883,0.02892
3335.41866,0.02901
3333.35849,0.02916
3331.29831,0.02931
3329.23814,0.02942
3327.17797,0.02944
3325.11780,0.02934
3323.05762,0.02919
3320.99745,0.02907
3318.93728,0.02901
3316.87711,0.02901
3314.81694,0.02906
3312.75676,0.02919
3310.69659,0.02943
3308.63642,0.02974
3306.57625,0.03001
3304.51608,0.03010
3302.45590,0.03001
3300.39573,0.02985
3298.33556,0.02974
3296.27539,0.02977
3294.21521,0.02989
3292.15504,0.03002
3290.09487,0.03006
3288.03470,0.02995
3285.97453,0.02973
3283.91435,0.02949
3281.85418,0.02932
3279.79401,0.02930
3277.73384,0.02945
3275.67367,0.02969
3273.61349,0.02989
3271.55332,0.03000
3269.49315,0.03004
3267.43298,0.03005
3265.37281,0.03001
3263.31263,0.02989
3261.25246,0.02971
3259.19229,0.02947
3257.13212,0.02921
3255.07194,0.02898
3253.01177,0.02884
3250.95160,0.02880
3248.89143,0.02885
3246.83126,0.02894
3244.77108,0.02904
3242.71091,0.02914
3240.65074,0.02924
3238.59057,0.02935
3236.53040,0.02944
3234.47022,0.02944
3232.41005,0.02934
3230.34988,0.02918
3228.28971,0.02902
3226.22954,0.02887
3224.16936,0.02870
3222.10919,0.02844
3220.04902,0.02813
3217.98885,0.02779
3215.92867,0.02751
3213.86850,0.02729
3211.80833,0.02712
3209.74816,0.02696
3207.68799,0.02682
3205.62781,0.02673
3203.56764,0.02673
3201.50747,0.02681
3199.44730,0.02684
3197.38713,0.02670
3195.32695,0.02637
3193.26678,0.02596
3191.20661,0.02565
3189.14644,0.02548
3187.08626,0.02543
3185.02609,0.02544
3182.96592,0.02542
3180.90575,0.02530
3178.84558,0.02504
3176.78540,0.02473
3174.72523,0.02441
3172.66506,0.02416
3170.60489,0.02397
3168.54472,0.02378
3166.48454,0.02353
3164.42437,0.02326
3162.36420,0.02307
3160.30403,0.02300
3158.24386,0.02296
3156.18368,0.02284
3154.12351,0.02262
3152.06334,0.02234
3150.00317,0.02206
3147.94299,0.02184
3145.88282,0.02168
3143.82265,0.02158
3141.76248,0.02151
3139.70231,0.02141
3137.64213,0.02121
3135.58196,0.02083
3133.52179,0.02039
3131.46162,0.02001
3129.40145,0.01972
3127.34127,0.01951
3125.28110,0.01938
3123.22093,0.01928
3121.16076,0.01909
3119.10058,0.01883
3117.04041,0.01858
3114.98024,0.01843
3112.92007,0.01829
3110.85990,0.01806
3108.79972,0.01776
3106.73955,0.01752
3104.67938,0.01744
3102.61921,0.01742
3100.55904,0.01733
3098.49886,0.01711
3096.43869,0.01684
3094.37852,0.01656
3092.31835,0.01633
3090.25818,0.01618
3088.19800,0.01607
3086.13783,0.01591
3084.07766,0.01568
3082.01749,0.01540
3079.95731,0.01512
3077.89714,0.01486
3075.83697,0.01464
3073.77680,0.01449
3071.71663,0.01441
3069.65645,0.01438
3067.59628,0.01436
3065.53611,0.01430
3063.47594,0.01416
3061.41577,0.01397
3059.35559,0.01375
3057.29542,0.01350
3055.23525,0.01326
3053.17508,0.01302
3051.11491,0.01282
3049.05473,0.01262
3046.99456,0.01240
3044.93439,0.01218
3042.87422,0.01197
3040.81404,0.01180
3038.75387,0.01165
3036.69370,0.01149
3034.63353,0.01134
3032.57336,0.01126
3030.51318,0.01125
3028.45301,0.01127
3026.39284,0.01122
3024.33267,0.01106
3022.27250,0.01088
3020.21232,0.01077
3018.15215,0.01075
3016.09198,0.01075
3014.03181,0.01071
3011.97163,0.01060
3009.91146,0.01042
3007.85129,0.01021
3005.79112,0.01004
3003.73095,0.00993
3001.67077,0.00986
2999.61060,0.00979
2997.55043,0.00975
2995.49026,0.00989
2993.43009,0.01009
2991.36991,0.01013
2989.30974,0.01007
2987.24957,0.01011
2985.18940,0.01028
2983.12923,0.01044
2981.06905,0.01049
2979.00888,0.01054
2976.94871,0.01073
2974.88854,0.01092
2972.82836,0.01093
2970.76819,0.01076
2968.70802,0.01065
2966.64785,0.01089
2964.58768,0.01140
2962.52750,0.01187
2960.46733,0.01216
2958.40716,0.01235
2956.34699,0.01263
2954.28682,0.01296
2952.22664,0.01316
2950.16647,0.01320
2948.10630,0.01326
2946.04613,0.01351
2943.98596,0.01388
2941.92578,0.01420
2939.86561,0.01431
2937.80544,0.01423
2935.74527,0.01410
2933.68509,0.01407
2931.62492,0.01417
2929.56475,0.01434
2927.50458,0.01441
2925.44441,0.01429
2923.38423,0.01411
2921.32406,0.01407
2919.26389,0.01418
2917.20372,0.01426
2915.14355,0.01418
2913.08337,0.01391
2911.02320,0.01356
2908.96303,0.01335
2906.90286,0.01335
2904.84268,0.01339
2902.78251,0.01332
2900.72234,0.01314
2898.66217,0.01296
2896.60200,0.01288
2894.54182,0.01295
2892.48165,0.01319
2890.42148,0.01339
2888.36131,0.01340
2886.30114,0.01322
2884.24096,0.01302
2882.18079,0.01284
2880.12062,0.01261
2878.06045,0.01234
2876.00028,0.01211
2873.94010,0.01196
2871.87993,0.01182
2869.81976,0.01166
2867.75959,0.01155
2865.69941,0.01152
2863.63924,0.01157
2861.57907,0.01151
2859.51890,0.01120
2857.45873,0.01084
2855.39855,0.01058
2853.33838,0.01037
2851.27821,0.01023
2849.21804,0.01017
2847.15787,0.01009
2845.09769,0.00997
2843.03752,0.00989
2840.97735,0.00980
2838.91718,0.00966
2836.85700,0.00958
2834.79683,0.00955
2832.73666,0.00945
2830.67649,0.00926
2828.61632,0.00910
2826.55614,0.00898
2824.49597,0.00889
2822.43580,0.00886
2820.37563,0.00881
2818.31546,0.00868
2816.25528,0.00861
2814.19511,0.00870
2812.13494,0.00880
2810.07477,0.00878
2808.01460,0.00866
2805.95442,0.00855
2803.89425,0.00851
2801.83408,0.00855
2799.77391,0.00860
2797.71373,0.00857
2795.65356,0.00849
2793.59339,0.00844
2791.53322,0.00847
2789.47305,0.00844
2787.41287,0.00823
2785.35270,0.00800
2783.29253,0.00799
2781.23236,0.00812
2779.17219,0.00812
2777.11201,0.00794
2775.05184,0.00780
2772.99167,0.00780
2770.93150,0.00776
2768.87133,0.00765
2766.81115,0.00758
2764.75098,0.00750
2762.69081,0.00745
2760.63064,0.00755
2758.57046,0.00774
2756.51029,0.00775
2754.45012,0.00749
2752.38995,0.00721
2750.32978,0.00712
2748.26960,0.00721
2746.20943,0.00737
2744.14926,0.00753
2742.08909,0.00759
2740.02892,0.00750
2737.96874,0.00739
2735.90857,0.00735
2733.84840,0.00732
2731.78823,0.00730
2729.72805,0.00739
2727.66788,0.00758
2725.60771,0.00767
2723.54754,0.00751
2721.48737,0.00731
2719.42719,0.00724
2717.36702,0.00720
2715.30685,0.00704
2713.24668,0.00680
2711.18651,0.00665
2709.12633,0.00670
2707.06616,0.00679
2705.00599,0.00680
2702.94582,0.00678
2700.88565,0.00679
2698.82547,0.00686
2696.76530,0.00696
2694.70513,0.00696
2692.64496,0.00681
2690.58478,0.00664
2688.52461,0.00663
2686.46444,0.00676
2684.40427,0.00682
2682.34410,0.00663
2680.28392,0.00632
2678.22375,0.00615
2676.16358,0.00616
2674.10341,0.00633
2672.04324,0.00658
2669.98306,0.00668
2667.92289,0.00657
2665.86272,0.00644
2663.80255,0.00639
2661.74238,0.00635
2659.68220,0.00634
2657.62203,0.00633
2655.56186,0.00634
2653.50169,0.00646
2651.44151,0.00664
2649.38134,0.00673
2647.32117,0.00668
2645.26100,0.00650
2643.20083,0.00632
2641.14065,0.00619
2639.08048,0.00604
2637.02031,0.00589
2634.96014,0.00584
2632.89997,0.00588
2630.83979,0.00587
2628.77962,0.00578
2626.71945,0.00567
2624.65928,0.00558
2622.59910,0.00546
2620.53893,0.00536
2618.47876,0.00537
2616.41859,0.00551
2614.35842,0.00564
2612.29824,0.00563
2610.23807,0.00552
2608.17790,0.00551
2606.11773,0.00553
2604.05756,0.00529
2601.99738,0.00499
2599.93721,0.00499
2597.87704,0.00517
2595.81687,0.00523
2593.75670,0.00504
2591.69652,0.00479
2589.63635,0.00482
2587.57618,0.00518
2585.51601,0.00557
2583.45583,0.00572
2581.39566,0.00556
2579.33549,0.00526
2577.27532,0.00504
2575.21515,0.00499
2573.15497,0.00502
2571.09480,0.00495
2569.03463,0.00477
2566.97446,0.00462
2564.91429,0.00462
2562.85411,0.00466
2560.79394,0.00450
2558.73377,0.00422
2556.67360,0.00427
2554.61342,0.00469
2552.55325,0.00502
2550.49308,0.00504
2548.43291,0.00480
2546.37274,0.00454
2544.31256,0.00453
2542.25239,0.00460
2540.19222,0.00447
2538.13205,0.00424
2536.07188,0.00409
2534.01170,0.00404
2531.95153,0.00406
2529.89136,0.00411
2527.83119,0.00436
2525.77102,0.00471
2523.71084,0.00479
2521.65067,0.00458
2519.59050,0.00438
2517.53033,0.00429
2515.47015,0.00414
2513.40998,0.00389
2511.34981,0.00375
2509.28964,0.00388
2507.22947,0.00422
2505.16929,0.00456
2503.10912,0.00478
2501.04895,0.00480
2498.98878,0.00465
2496.92861,0.00446
2494.86843,0.00427
2492.80826,0.00406
2490.74809,0.00391
2488.68792,0.00396
2486.62775,0.00420
2484.56757,0.00438
2482.50740,0.00437
2480.44723,0.00437
2478.38706,0.00453
2476.32688,0.00465
2474.26671,0.00448
2472.20654,0.00403
2470.14637,0.00359
2468.08620,0.00343
2466.02602,0.00360
2463.96585,0.00389
2461.90568,0.00410
2459.84551,0.00416
2457.78534,0.00415
2455.72516,0.00413
2453.66499,0.00404
2451.60482,0.00385
2449.54465,0.00378
2447.48447,0.00391
2445.42430,0.00408
2443.36413,0.00413
2441.30396,0.00411
2439.24379,0.00414
2437.18361,0.00418
2435.12344,0.00413
2433.06327,0.00398
2431.00310,0.00386
2428.94293,0.00384
2426.88275,0.00386
2424.82258,0.00384
2422.76241,0.00375
2420.70224,0.00364
2418.64207,0.00353
2416.58189,0.00344
2414.52172,0.00354
2412.46155,0.00393
2410.40138,0.00431
2408.34120,0.00425
2406.28103,0.00385
2404.22086,0.00351
2402.16069,0.00351
2400.10052,0.00371
2398.04034,0.00387
2395.98017,0.00394
2393.92000,0.00393
2391.85983,0.00384
2389.79966,0.00367
2387.73948,0.00348
2385.67931,0.00339
2383.61914,0.00344
2381.55897,0.00350
2379.49880,0.00350
2377.43862,0.00345
2375.37845,0.00338
2373.31828,0.00324
2371.25811,0.00308
2369.19793,0.00309
2367.13776,0.00349
2365.07759,0.00430
2363.01742,0.00528
2360.95725,0.00601
2358.89707,0.00606
2356.83690,0.00548
2354.77673,0.00470
2352.71656,0.00404
2350.65639,0.00347
2348.59621,0.00288
2346.53604,0.00235
2344.47587,0.00204
2342.41570,0.00199
2340.35552,0.00217
2338.29535,0.00249
2336.23518,0.00282
2334.17501,0.00317
2332.11484,0.00361
2330.05466,0.00409
2327.99449,0.00450
2325.93432,0.00477
2323.87415,0.00490
2321.81398,0.00501
2319.75380,0.00511
2317.69363,0.00509
2315.63346,0.00488
2313.57329,0.00467
2311.51312,0.00467
2309.45294,0.00479
2307.39277,0.00486
2305.33260,0.00484
2303.27243,0.00486
2301.21225,0.00494
2299.15208,0.00497
2297.09191,0.00488
2295.03174,0.00466
2292.97157,0.00435
2290.91139,0.00402
2288.85122,0.00372
2286.79105,0.00349
2284.73088,0.00338
2282.67071,0.00352
2280.61053,0.00387
2278.55036,0.00422
2276.49019,0.00440
2274.43002,0.00440
2272.36984,0.00431
2270.30967,0.00420
2268.24950,0.00409
2266.18933,0.00402
2264.12916,0.00398
2262.06898,0.00388
2260.00881,0.00369
2257.94864,0.00359
2255.88847,0.00370
2253.82830,0.00399
2251.76812,0.00429
2249.70795,0.00437
2247.64778,0.00400
2245.58761,0.00332
2243.52744,0.00300
2241.46726,0.00333
2239.40709,0.00390
2237.34692,0.00427
2235.28675,0.00410
2233.22657,0.00325
2231.16640,0.00248
2229.10623,0.00256
2227.04606,0.00303
2224.98589,0.00309
2222.92571,0.00314
2220.86554,0.00371
2218.80537,0.00412
2216.74520,0.00390
2214.68503,0.00367
2212.62485,0.00396
2210.56468,0.00448
2208.50451,0.00450
2206.44434,0.00399
2204.38417,0.00356
2202.32399,0.00331
2200.26382,0.00290
2198.20365,0.00248
2196.14348,0.00260
2194.08330,0.00339
2192.02313,0.00424
2189.96296,0.00448
2187.90279,0.00421
2185.84262,0.00402
2183.78244,0.00375
2181.72227,0.00330
2179.66210,0.00347
2177.60193,0.00448
2175.54176,0.00552
2173.48158,0.00584
2171.42141,0.00525
2169.36124,0.00389
2167.30107,0.00235
2165.24089,0.00154
2163.18072,0.00132
2161.12055,0.00060
2159.06038,0.00000
2157.00021,0.00093
2154.94003,0.00247
2152.87986,0.00293
2150.81969,0.00247
2148.75952,0.00215
2146.69935,0.00254
2144.63917,0.00327
2142.57900,0.00358
2140.51883,0.00328
2138.45866,0.00285
2136.39849,0.00247
2134.33831,0.00219
2132.27814,0.00235
2130.21797,0.00294
2128.15780,0.00340
2126.09762,0.00345
2124.03745,0.00342
2121.97728,0.00376
2119.91711,0.00416
2117.85694,0.00407
2115.79676,0.00373
2113.73659,0.00348
2111.67642,0.00304
2109.61625,0.00263
2107.55608,0.00291
2105.49590,0.00360
2103.43573,0.00396
2101.37556,0.00397
2099.31539,0.00390
2097.25521,0.00388
2095.19504,0.00394
2093.13487,0.00401
2091.07470,0.00409
2089.01453,0.00415
2086.95435,0.00419
2084.89418,0.00420
2082.83401,0.00419
2080.77384,0.00423
2078.71367,0.00441
2076.65349,0.00462
2074.59332,0.00463
2072.53315,0.00431
2070.47298,0.00372
2068.41281,0.00306
2066.35263,0.00262
2064.29246,0.00254
2062.23229,0.00265
2060.17212,0.00272
2058.11194,0.00271
2056.05177,0.00269
2053.99160,0.00268
2051.93143,0.00258
2049.87126,0.00231
2047.81108,0.00203
2045.75091,0.00201
2043.69074,0.00229
2041.63057,0.00258
2039.57040,0.00250
2037.51022,0.00197
2035.45005,0.00120
2033.38988,0.00051
2031.32971,0.00014
2029.26954,0.00014
2027.20936,0.00029
2025.14919,0.00046
2023.08902,0.00073
2021.02885,0.00117
2018.96867,0.00165
2016.90850,0.00196
2014.84833,0.00218
2012.78816,0.00245
2010.72799,0.00259
2008.66781,0.00234
2006.60764,0.00194
2004.54747,0.00188
2002.48730,0.00235
2000.42713,0.00305
1998.36695,0.00351
1996.30678,0.00341
1994.24661,0.00284
1992.18644,0.00221
1990.12626,0.00197
1988.06609,0.00222
1986.00592,0.00263
1983.94575,0.00277
1981.88558,0.00236
1979.82540,0.00152
1977.76523,0.00064
1975.70506,0.00009
1973.64489,0.00000
1971.58472,0.00020
1969.52454,0.00042
1967.46437,0.00058
1965.40420,0.00094
1963.34403,0.00156
1961.28386,0.00198
1959.22368,0.00198
1957.16351,0.00199
1955.10334,0.00237
1953.04317,0.00288
1950.98299,0.00300
1948.92282,0.00262
1946.86265,0.00198
1944.80248,0.00146
1942.74231,0.00130
1940.68213,0.00147
1938.62196,0.00170
1936.56179,0.00183
1934.50162,0.00195
1932.44145,0.00205
1930.38127,0.00201
1928.32110,0.00178
1926.26093,0.00150
1924.20076,0.00134
1922.14059,0.00135
1920.08041,0.00149
1918.02024,0.00171
1915.96007,0.00197
1913.89990,0.00222
1911.83972,0.00238
1909.77955,0.00239
1907.71938,0.00225
1905.65921,0.00205
1903.59904,0.00184
1901.53886,0.00160
1899.47869,0.00135
1897.41852,0.00115
1895.35835,0.00108
1893.29818,0.00111
1891.23800,0.00114
1889.17783,0.00111
1887.11766,0.00104
1885.05749,0.00102
1882.99731,0.00110
1880.93714,0.00129
1878.87697,0.00154
1876.81680,0.00176
1874.75663,0.00183
1872.69645,0.00171
1870.63628,0.00158
1868.57611,0.00156
1866.51594,0.00165
1864.45577,0.00171
1862.39559,0.00173
1860.33542,0.00170
1858.27525,0.00168
1856.21508,0.00170
1854.15491,0.00172
1852.09473,0.00171
1850.03456,0.00169
1847.97439,0.00168
1845.91422,0.00161
1843.85404,0.00148
1841.79387,0.00134
1839.73370,0.00126
1837.67353,0.00126
1835.61336,0.00129
1833.55318,0.00129
1831.49301,0.00125
1829.43284,0.00125
1827.37267,0.00128
1825.31250,0.00127
1823.25232,0.00117
1821.19215,0.00098
1819.13198,0.00082
1817.07181,0.00079
1815.01163,0.00086
1812.95146,0.00092
1810.89129,0.00089
1808.83112,0.00085
1806.77095,0.00092
1804.71077,0.00109
1802.65060,0.00128
1800.59043,0.00138
1798.53026,0.00137
1796.47009,0.00135
1794.40991,0.00144
1792.34974,0.00165
1790.28957,0.00180
1788.22940,0.00178
1786.16923,0.00165
1784.10905,0.00156
1782.04888,0.00156
1779.98871,0.00164
1777.92854,0.00173
1775.86836,0.00179
1773.80819,0.00183
1771.74802,0.00184
1769.68785,0.00177
1767.62768,0.00172
1765.56750,0.00180
1763.50733,0.00208
1761.44716,0.00247
1759.38699,0.00284
1757.32682,0.00313
1755.26664,0.00337
1753.20647,0.00365
1751.14630,0.00403
1749.08613,0.00449
1747.02596,0.00493
1744.96578,0.00529
1742.90561,0.00555
1740.84544,0.00568
1738.78527,0.00571
1736.72509,0.00579
1734.66492,0.00601
1732.60475,0.00632
1730.54458,0.00655
1728.48441,0.00660
1726.42423,0.00650
1724.36406,0.00632
1722.30389,0.00613
1720.24372,0.00595
1718.18355,0.00575
1716.12337,0.00547
1714.06320,0.00512
1712.00303,0.00473
1709.94286,0.00435
1707.88268,0.00396
1705.82251,0.00362
1703.76234,0.00338
1701.70217,0.00332
1699.64200,0.00341
1697.58182,0.00354
1695.52165,0.00364
1693.46148,0.00375
1691.40131,0.00391
1689.34114,0.00412
1687.28096,0.00438
1685.22079,0.00465
1683.16062,0.00489
1681.10045,0.00509
1679.04028,0.00533
1676.98010,0.00563
1674.91993,0.00594
1672.85976,0.00621
1670.79959,0.00656
1668.73941,0.00704
1666.67924,0.00757
1664.61907,0.00805
1662.55890,0.00849
1660.49873,0.00894
1658.43855,0.00940
1656.37838,0.00991
1654.31821,0.01048
1652.25804,0.01106
1650.19787,0.01152
1648.13769,0.01181
1646.07752,0.01194
1644.01735,0.01197
1641.95718,0.01197
1639.89701,0.01200
1637.83683,0.01213
1635.77666,0.01233
1633.71649,0.01253
1631.65632,0.01268
1629.59614,0.01284
1627.53597,0.01305
1625.47580,0.01325
1623.41563,0.01337
1621.35546,0.01337
1619.29528,0.01329
1617.23511,0.01319
1615.17494,0.01308
1613.11477,0.01289
1611.05460,0.01259
1608.99442,0.01224
1606.93425,0.01187
1604.87408,0.01145
1602.81391,0.01096
1600.75373,0.01039
1598.69356,0.00975
1596.63339,0.00910
1594.57322,0.00843
1592.51305,0.00772
1590.45287,0.00700
1588.39270,0.00630
1586.33253,0.00571
1584.27236,0.00522
1582.21219,0.00483
1580.15201,0.00447
1578.09184,0.00410
1576.03167,0.00372
1573.97150,0.00336
1571.91133,0.00301
1569.85115,0.00267
1567.79098,0.00234
1565.73081,0.00207
1563.67064,0.00190
1561.61046,0.00184
1559.55029,0.00186
1557.49012,0.00191
1555.42995,0.00193
1553.36978,0.00185
1551.30960,0.00168
1549.24943,0.00146
1547.18926,0.00122
1545.12909,0.00102
1543.06892,0.00090
1541.00874,0.00086
1538.94857,0.00083
1536.88840,0.00076
1534.82823,0.00068
1532.76805,0.00065
1530.70788,0.00063
1528.64771,0.00056
1526.58754,0.00046
1524.52737,0.00035
1522.46719,0.00028
1520.40702,0.00031
1518.34685,0.00044
1516.28668,0.00060
1514.22651,0.00070
1512.16633,0.00071
1510.10616,0.00069
1508.04599,0.00070
1505.98582,0.00078
1503.92565,0.00087
1501.86547,0.00091
1499.80530,0.00089
1497.74513,0.00084
1495.68496,0.00082
1493.62478,0.00093
1491.56461,0.00116
1489.50444,0.00144
1487.44427,0.00164
1485.38410,0.00172
1483.32392,0.00175
1481.26375,0.00185
1479.20358,0.00207
1477.14341,0.00242
1475.08324,0.00290
1473.02306,0.00345
1470.96289,0.00395
1468.90272,0.00437
1466.84255,0.00475
1464.78238,0.00511
1462.72220,0.00540
1460.66203,0.00560
1458.60186,0.00576
1456.54169,0.00594
1454.48151,0.00615
1452.42134,0.00638
1450.36117,0.00660
1448.30100,0.00680
1446.24083,0.00695
1444.18065,0.00713
1442.12048,0.00741
1440.06031,0.00780
1438.00014,0.00827
1435.93997,0.00875
1433.87979,0.00915
1431.81962,0.00947
1429.75945,0.00977
1427.69928,0.01005
1425.63910,0.01030
1423.57893,0.01054
1421.51876,0.01078
1419.45859,0.01100
1417.39842,0.01113
1415.33824,0.01112
1413.27807,0.01101
1411.21790,0.01086
1409.15773,0.01070
1407.09756,0.01052
1405.03738,0.01032
1402.97721,0.01011
1400.91704,0.00993
1398.85687,0.00980
1396.79670,0.00968
1394.73652,0.00953
1392.67635,0.00936
1390.61618,0.00925
1388.55601,0.00925
1386.49583,0.00937
1384.43566,0.00956
1382.37549,0.00980
1380.31532,0.01006
1378.25515,0.01030
1376.19497,0.01052
1374.13480,0.01068
1372.07463,0.01075
1370.01446,0.01071
1367.95429,0.01059
1365.89411,0.01044
1363.83394,0.01027
1361.77377,0.01006
1359.71360,0.00981
1357.65343,0.00958
1355.59325,0.00943
1353.53308,0.00936
1351.47291,0.00932
1349.41274,0.00921
1347.35256,0.00903
1345.29239,0.00884
1343.23222,0.00873
1341.17205,0.00870
1339.11188,0.00873
1337.05170,0.00875
1334.99153,0.00870
1332.93136,0.00861
1330.87119,0.00857
1328.81102,0.00861
1326.75084,0.00872
1324.69067,0.00881
1322.63050,0.00886
1320.57033,0.00887
1318.51015,0.00889
1316.44998,0.00892
1314.38981,0.00894
1312.32964,0.00893
1310.26947,0.00886
1308.20929,0.00875
1306.14912,0.00861
1304.08895,0.00846
1302.02878,0.00828
1299.96861,0.00807
1297.90843,0.00782
1295.84826,0.00761
1293.78809,0.00750
1291.72792,0.00747
1289.66775,0.00746
1287.60757,0.00740
1285.54740,0.00731
1283.48723,0.00721
1281.42706,0.00717
1279.36688,0.00726
1277.30671,0.00744
1275.24654,0.00764
1273.18637,0.00781
1271.12620,0.00799
1269.06602,0.00823
1267.00585,0.00855
1264.94568,0.00894
1262.88551,0.00938
1260.82534,0.00986
1258.76516,0.01028
1256.70499,0.01057
1254.64482,0.01073
1252.58465,0.01081
1250.52447,0.01085
1248.46430,0.01086
1246.40413,0.01083
1244.34396,0.01076
1242.28379,0.01064
1240.22361,0.01043
1238.16344,0.01018
1236.10327,0.00992
1234.04310,0.00966
1231.98293,0.00937
1229.92275,0.00905
1227.86258,0.00870
1225.80241,0.00834
1223.74224,0.00797
1221.68207,0.00758
1219.62189,0.00720
1217.56172,0.00682
1215.50155,0.00644
1213.44138,0.00603
1211.38120,0.00557
1209.32103,0.00505
1207.26086,0.00447
1205.20069,0.00387
1203.14052,0.00326
1201.08034,0.00264
1199.02017,0.00203
1196.96000,0.00148
1194.89983,0.00100
1192.83966,0.00054
1190.77948,0.00014
1188.71931,0.00000
1186.65914,0.00009
1184.59897,0.00035
1182.53880,0.00071
1180.47862,0.00113
1178.41845,0.00165
1176.35828,0.00228
1174.29811,0.00298
1172.23793,0.00366
1170.17776,0.00431
1168.11759,0.00497
1166.05742,0.00575
1163.99725,0.00662
1161.93707,0.00740
1159.87690,0.00798
1157.81673,0.00842
1155.75656,0.00887
1153.69639,0.00947
1151.63621,0.01013
1149.57604,0.01059
1147.51587,0.01075
1145.45570,0.01087
1143.39552,0.01112
1141.33535,0.01147
1139.27518,0.01180
1137.21501,0.01207
1135.15484,0.01234
1133.09466,0.01270
1131.03449,0.01318
1128.97432,0.01370
1126.91415,0.01414
1124.85398,0.01457
1122.79380,0.01514
1120.73363,0.01581
1118.67346,0.01643
1116.61329,0.01704
1114.55312,0.01766
1112.49294,0.01816
1110.43277,0.01853
1108.37260,0.01887
1106.31243,0.01935
1104.25225,0.02006
1102.19208,0.02088
1100.13191,0.02172
1098.07174,0.02258
1096.01157,0.02347
1093.95139,0.02432
1091.89122,0.02509
1089.83105,0.02588
1087.77088,0.02673
1085.71071,0.02754
1083.65053,0.02821
1081.59036,0.02887
1079.53019,0.02960
1077.47002,0.03042
1075.40985,0.03128
1073.34967,0.03205
1071.28950,0.03259
1069.22933,0.03295
1067.16916,0.03328
1065.10898,0.03367
1063.04881,0.03410
1060.98864,0.03444
1058.92847,0.03472
1056.86830,0.03506
1054.80812,0.03544
1052.74795,0.03589
1050.68778,0.03644
1048.62761,0.03696
1046.56744,0.03732
1044.50726,0.03765
1042.44709,0.03812
1040.38692,0.03871
1038.32675,0.03928
1036.26657,0.03976
1034.20640,0.04009
1032.14623,0.04024
1030.08606,0.04019
1028.02589,0.04008
1025.96571,0.04015
1023.90554,0.04050
1021.84537,0.04092
1019.78520,0.04121
1017.72503,0.04131
1015.66485,0.04116
1013.60468,0.04086
1011.54451,0.04065
1009.48434,0.04056
1007.42417,0.04037
1005.36399,0.04004
1003.30382,0.03975
1001.24365,0.03954
999.18348,0.03916
997.12330,0.03858
995.06313,0.03798
993.00296,0.03748
990.94279,0.03702
988.88262,0.03652
986.82244,0.03597
984.76227,0.03545
982.70210,0.03509
980.64193,0.03495
978.58176,0.03481
976.52158,0.03448
974.46141,0.03403
972.40124,0.03355
970.34107,0.03308
968.28089,0.03268
966.22072,0.03232
964.16055,0.03189
962.10038,0.03132
960.04021,0.03069
957.98003,0.03009
955.91986,0.02957
953.85969,0.02917
951.79952,0.02888
949.73935,0.02862
947.67917,0.02816
945.61900,0.02734
943.55883,0.02618
941.49866,0.02483
939.43849,0.02344
937.37831,0.02194
935.31814,0.02019
933.25797,0.01842
931.19780,0.01702
929.13762,0.01589
927.07745,0.01469
925.01728,0.01352
922.95711,0.01262
920.89694,0.01201
918.83676,0.01146
916.77659,0.01070
914.71642,0.00969
912.65625,0.00868
910.59608,0.00802
908.53590,0.00769
906.47573,0.00745
904.41556,0.00726
902.35539,0.00723
900.29522,0.00728
898.23504,0.00736
896.17487,0.00750
894.11470,0.00763
892.05453,0.00756
889.99435,0.00718
887.93418,0.00664
885.87401,0.00603
883.81384,0.00531
881.75367,0.00465
879.69349,0.00428
877.63332,0.00421
875.57315,0.00426
873.51298,0.00416
871.45281,0.00382
869.39263,0.00343
867.33246,0.00310
865.27229,0.00281
863.21212,0.00265
861.15194,0.00274
859.09177,0.00296
857.03160,0.00304
854.97143,0.00286
852.91126,0.00246
850.85108,0.00202
848.79091,0.00173
846.73074,0.00171
844.67057,0.00182
842.61040,0.00171
840.55022,0.00133
838.49005,0.00094
836.42988,0.00065
834.36971,0.00043
832.30954,0.00022
830.24936,0.00000
828.18919,-0.00001
826.12902,0.00037
824.06885,0.00090
822.00867,0.00115
819.94850,0.00104
817.88833,0.00091
815.82816,0.00111
813.76799,0.00155
811.70781,0.00183
809.64764,0.00173
807.58747,0.00145
805.52730,0.00146
803.46713,0.00183
801.40695,0.00209
799.34678,0.00196
797.28661,0.00153
795.22644,0.00103
793.16627,0.00067
791.10609,0.00069
789.04592,0.00099
786.98575,0.00115
784.92558,0.00094
782.86540,0.00047
780.80523,0.00012
778.74506,0.00020
776.68489,0.00033
774.62472,0.00012
772.56454,-0.00011
770.50437,0.00012
768.44420,0.00064
766.38403,0.00092
764.32386,0.00095
762.26368,0.00109
760.20351,0.00122
758.14334,0.00111
756.08317,0.00088
754.02299,0.00071
751.96282,0.00049
749.90265,0.00018
747.84248,0.00000
745.78231,0.00009
743.72213,0.00056
741.66196,0.00100
739.60179,0.00103
737.54162,0.00058
735.48145,-0.00010
733.42127,-0.00050
731.36110,-0.00033
729.30093,0.00016
727.24076,0.00054
725.18059,0.00053
723.12041,0.00021
721.06024,-0.00004
719.00007,0.00006
716.93990,0.00046
714.87972,0.00091
712.81955,0.00117
710.75938,0.00126
708.69921,0.00133
706.63904,0.00151
704.57886,0.00174
702.51869,0.00186
700.45852,0.00188
698.39835,0.00195
696.33818,0.00215
694.27800,0.00241
692.21783,0.00258
690.15766,0.00250
688.09749,0.00212
686.03731,0.00158
683.97714,0.00111
681.91697,0.00080
679.85680,0.00069
677.79663,0.00072
675.73645,0.00061
673.67628,0.00019
671.61611,-0.00024
669.55594,-0.00022
667.49577,0.00030
665.43559,0.00084
663.37542,0.00115
661.31525,0.00131
659.25508,0.00141
657.19491,0.00146
655.13473,0.00163
653.07456,0.00194
651.01439,0.00223
648.95422,0.00239
646.89404,0.00232
644.83387,0.00193
642.77370,0.00122
640.71353,0.00046
638.65336,0.00000
636.59318,-0.00017
634.53301,-0.00019
632.47284,-0.00030
630.41267,-0.00039
628.35250,-0.00003
626.29232,0.00117
624.23215,0.00244
622.17198,0.00241
620.11181,0.00153
618.05164,0.00098
615.99146,0.00135
613.93129,0.00273
611.87112,0.00379
609.81095,0.00311
607.75077,0.00073
605.69060,-0.00233
603.63043,-0.00413
601.57026,-0.00313
599.51009,0.00000
