3996.73391,0.00000
3994.67373,0.00057
3992.61356,0.00101
3990.55339,0.00116
3988.49322,0.00109
3986.43305,0.00097
3984.37287,0.00086
3982.31270,0.00074
3980.25253,0.00071
3978.19236,0.00090
3976.13219,0.00127
3974.07201,0.00153
3972.01184,0.00140
3969.95167,0.00093
3967.89150,0.00052
3965.83133,0.00046
3963.77115,0.00069
3961.71098,0.00094
3959.65081,0.00106
3957.59064,0.00105
3955.53046,0.00098
3953.47029,0.00089
3951.41012,0.00081
3949.34995,0.00079
3947.28978,0.00089
3945.22960,0.00110
3943.16943,0.00139
3941.10926,0.00166
3939.04909,0.00177
3936.98892,0.00160
3934.92874,0.00122
3932.86857,0.00085
3930.80840,0.00070
3928.74823,0.00083
3926.68805,0.00105
3924.62788,0.00114
3922.56771,0.00104
3920.50754,0.00087
3918.44737,0.00073
3916.38719,0.00066
3914.32702,0.00075
3912.26685,0.00103
3910.20668,0.00139
3908.14651,0.00164
3906.08633,0.00160
3904.02616,0.00131
3901.96599,0.00101
3899.90582,0.00090
3897.84565,0.00101
3895.78547,0.00125
3893.72530,0.00156
3891.66513,0.00186
3889.60496,0.00196
3887.54478,0.00180
3885.48461,0.00148
3883.42444,0.00115
3881.36427,0.00099
3879.30410,0.00108
3877.24392,0.00127
3875.18375,0.00136
3873.12358,0.00128
3871.06341,0.00117
3869.00324,0.00124
3866.94306,0.00157
3864.88289,0.00198
3862.82272,0.00224
3860.76255,0.00218
3858.70237,0.00189
3856.64220,0.00153
3854.58203,0.00126
3852.52186,0.00118
3850.46169,0.00129
3848.40151,0.00153
3846.34134,0.00177
3844.28117,0.00185
3842.22100,0.00170
3840.16083,0.00145
3838.10065,0.00128
3836.04048,0.00122
3833.98031,0.00119
3831.92014,0.00123
3829.85997,0.00147
3827.79979,0.00187
3825.73962,0.00218
3823.67945,0.00211
3821.61928,0.00168
3819.55910,0.00119
3817.49893,0.00096
3815.43876,0.00104
3813.37859,0.00126
3811.31842,0.00144
3809.25824,0.00152
3807.19807,0.00151
3805.13790,0.00148
3803.07773,0.00149
3801.01756,0.00156
3798.95738,0.00168
3796.89721,0.00188
3794.83704,0.00217
3792.77687,0.00244
3790.71670,0.00262
3788.65652,0.00265
3786.59635,0.00259
3784.53618,0.00248
3782.47601,0.00238
3780.41583,0.00228
3778.35566,0.00221
3776.29549,0.00220
3774.23532,0.00223
3772.17515,0.00224
3770.11497,0.00216
3768.05480,0.00195
3765.99463,0.00172
3763.93446,0.00157
3761.87429,0.00150
3759.81411,0.00144
3757.75394,0.00136
3755.69377,0.00127
3753.63360,0.00117
3751.57342,0.00119
3749.51325,0.00145
3747.45308,0.00169
3745.39291,0.00160
3743.33274,0.00123
3741.27256,0.00078
3739.21239,0.00032
3737.15222,0.00000
3735.09205,0.00007
3733.03188,0.00069
3730.97170,0.00152
3728.91153,0.00209
3726.85136,0.00224
3724.79119,0.00207
3722.73102,0.00164
3720.67084,0.00098
3718.61067,0.00033
3716.55050,0.00000
3714.49033,0.00005
3712.43015,0.00031
3710.36998,0.00066
3708.30981,0.00106
3706.24964,0.00148
3704.18947,0.00186
3702.12929,0.00224
3700.06912,0.00268
3698.00895,0.00310
3695.94878,0.00324
3693.88861,0.00301
3691.82843,0.00254
3689.76826,0.00207
3687.70809,0.00180
3685.64792,0.00182
3683.58775,0.00211
3681.52757,0.00256
3679.46740,0.00292
3677.40723,0.00297
3675.34706,0.00263
3673.28688,0.00213
3671.22671,0.00182
3669.16654,0.00186
3667.10637,0.00215
3665.04620,0.00251
3662.98602,0.00284
3660.92585,0.00315
3658.86568,0.00346
3656.80551,0.00368
3654.74534,0.00365
3652.68516,0.00330
3650.62499,0.00284
3648.56482,0.00264
3646.50465,0.00294
3644.44447,0.00354
3642.38430,0.00408
3640.32413,0.00438
3638.26396,0.00448
3636.20379,0.00451
3634.14361,0.00449
3632.08344,0.00443
3630.02327,0.00439
3627.96310,0.00448
3625.90293,0.00467
3623.84275,0.00478
3621.78258,0.00470
3619.72241,0.00449
3617.66224,0.00433
3615.60207,0.00434
3613.54189,0.00455
3611.48172,0.00489
3609.42155,0.00529
3607.36138,0.00571
3605.30120,0.00622
3603.24103,0.00685
3601.18086,0.00747
3599.12069,0.00794
3597.06052,0.00823
3595.00034,0.00838
3592.94017,0.00843
3590.88000,0.00844
3588.81983,0.00844
3586.75966,0.00848
3584.69948,0.00862
3582.63931,0.00879
3580.57914,0.00887
3578.51897,0.00894
3576.45879,0.00911
3574.39862,0.00938
3572.33845,0.00958
3570.27828,0.00958
3568.21811,0.00953
3566.15793,0.00969
3564.09776,0.01016
3562.03759,0.01075
3559.97742,0.01121
3557.91725,0.01140
3555.85707,0.01146
3553.79690,0.01159
3551.73673,0.01178
3549.67656,0.01190
3547.61639,0.01192
3545.55621,0.01195
3543.49604,0.01211
3541.43587,0.01244
3539.37570,0.01294
3537.31552,0.01354
3535.25535,0.01412
3533.19518,0.01448
3531.13501,0.01449
3529.07484,0.01417
3527.01466,0.01381
3524.95449,0.01374
3522.89432,0.01404
3520.83415,0.01461
3518.77398,0.01525
3516.71380,0.01582
3514.65363,0.01624
3512.59346,0.01649
3510.53329,0.01668
3508.47312,0.01685
3506.41294,0.01693
3504.35277,0.01685
3502.29260,0.01677
3500.23243,0.01684
3498.17225,0.01705
3496.11208,0.01728
3494.05191,0.01745
3491.99174,0.01762
3489.93157,0.01783
3487.87139,0.01796
3485.81122,0.01793
3483.75105,0.01785
3481.69088,0.01792
3479.63071,0.01823
3477.57053,0.01875
3475.51036,0.01932
3473.45019,0.01979
3471.39002,0.02007
3469.32984,0.02024
3467.26967,0.02037
3465.20950,0.02047
3463.14933,0.02053
3461.08916,0.02058
3459.02898,0.02067
3456.96881,0.02084
3454.90864,0.02107
3452.84847,0.02133
3450.78830,0.02158
3448.72812,0.02175
3446.66795,0.02183
3444.60778,0.02190
3442.54761,0.02200
3440.48744,0.02208
3438.42726,0.02211
3436.36709,0.02211
3434.30692,0.02216
3432.24675,0.02235
3430.18657,0.02265
3428.12640,0.02291
3426.06623,0.02302
3424.00606,0.02306
3421.94589,0.02320
3419.88571,0.02349
3417.82554,0.02385
3415.76537,0.02422
3413.70520,0.02461
3411.64503,0.02502
3409.58485,0.02530
3407.52468,0.02533
3405.46451,0.02513
3403.40434,0.02487
3401.34416,0.02477
3399.28399,0.02488
3397.22382,0.02516
3395.16365,0.02555
3393.10348,0.02598
3391.04330,0.02638
3388.98313,0.02665
3386.92296,0.02672
3384.86279,0.02665
3382.80262,0.02659
3380.74244,0.02665
3378.68227,0.02680
3376.62210,0.02695
3374.56193,0.02701
3372.50176,0.02702
3370.44158,0.02701
3368.38141,0.02694
3366.32124,0.02682
3364.26107,0.02672
3362.20089,0.02670
3360.14072,0.02675
3358.08055,0.02678
3356.02038,0.02678
3353.96021,0.02688
3351.90003,0.02716
3349.83986,0.02746
3347.77969,0.02760
3345.71952,0.02756
3343.65935,0.02752
3341.59917,0.02764
3339.53900,0.02792
3337.47883,0.02826
3335.41866,0.02856
3333.35849,0.02875
3331.29831,0.02879
3329.23814,0.02870
3327.17797,0.02858
3325.11780,0.02853
3323.05762,0.02862
3320.99745,0.02879
3318.93728,0.02891
3316.87711,0.02888
3314.81694,0.02883
3312.75676,0.02886
3310.69659,0.02896
3308.63642,0.02896
3306.57625,0.02875
3304.51608,0.02839
3302.45590,0.02815
3300.39573,0.02817
3298.33556,0.02838
3296.27539,0.02861
3294.21521,0.02872
3292.15504,0.02867
3290.09487,0.02856
3288.03470,0.02849
3285.97453,0.02853
3283.91435,0.02861
3281.85418,0.02858
3279.79401,0.02839
3277.73384,0.02811
3275.67367,0.02795
3273.61349,0.02803
3271.55332,0.02827
3269.49315,0.02850
3267.43298,0.02862
3265.37281,0.02859
3263.31263,0.02847
3261.25246,0.02838
3259.19229,0.02834
3257.13212,0.02828
3255.07194,0.02818
3253.01177,0.02811
3250.95160,0.02807
3248.89143,0.02801
3246.83126,0.02793
3244.77108,0.02796
3242.71091,0.02817
3240.65074,0.02843
3238.59057,0.02850
3236.53040,0.02830
3234.47022,0.02792
3232.41005,0.02755
3230.34988,0.02726
3228.28971,0.02710
3226.22954,0.02706
3224.16936,0.02710
3222.10919,0.02713
3220.04902,0.02710
3217.98885,0.02704
3215.92867,0.02703
3213.86850,0.02709
3211.80833,0.02722
3209.74816,0.02731
3207.68799,0.02725
3205.62781,0.02698
3203.56764,0.02660
3201.50747,0.02621
3199.44730,0.02587
3197.38713,0.02561
3195.32695,0.02546
3193.26678,0.02542
3191.20661,0.02542
3189.14644,0.02538
3187.08626,0.02529
3185.02609,0.02525
3182.96592,0.02529
3180.90575,0.02537
3178.84558,0.02536
3176.78540,0.02514
3174.72523,0.02473
3172.66506,0.02424
3170.60489,0.02381
3168.54472,0.02348
3166.48454,0.02327
3164.42437,0.02319
3162.36420,0.02316
3160.30403,0.02307
3158.24386,0.02286
3156.18368,0.02247
3154.12351,0.02198
3152.06334,0.02155
3150.00317,0.02132
3147.94299,0.02129
3145.88282,0.02135
3143.82265,0.02138
3141.76248,0.02135
3139.70231,0.02127
3137.64213,0.02110
3135.58196,0.02076
3133.52179,0.02025
3131.46162,0.01969
3129.40145,0.01926
3127.34127,0.01901
3125.28110,0.01888
3123.22093,0.01883
3121.16076,0.01883
3119.10058,0.01884
3117.04041,0.01878
3114.98024,0.01861
3112.92007,0.01835
3110.85990,0.01801
3108.79972,0.01762
3106.73955,0.01723
3104.67938,0.01694
3102.61921,0.01674
3100.55904,0.01659
3098.49886,0.01644
3096.43869,0.01631
3094.37852,0.01618
3092.31835,0.01600
3090.25818,0.01577
3088.19800,0.01555
3086.13783,0.01537
3084.07766,0.01517
3082.01749,0.01496
3079.95731,0.01479
3077.89714,0.01471
3075.83697,0.01465
3073.77680,0.01459
3071.71663,0.01448
3069.65645,0.01430
3067.59628,0.01408
3065.53611,0.01388
3063.47594,0.01377
3061.41577,0.01376
3059.35559,0.01379
3057.29542,0.01379
3055.23525,0.01370
3053.17508,0.01356
3051.11491,0.01335
3049.05473,0.01309
3046.99456,0.01286
3044.93439,0.01272
3042.87422,0.01258
3040.81404,0.01237
3038.75387,0.01214
3036.69370,0.01204
3034.63353,0.01211
3032.57336,0.01226
3030.51318,0.01235
3028.45301,0.01234
3026.39284,0.01230
3024.33267,0.01224
3022.27250,0.01211
3020.21232,0.01183
3018.15215,0.01145
3016.09198,0.01112
3014.03181,0.01101
3011.97163,0.01110
3009.91146,0.01121
3007.85129,0.01113
3005.79112,0.01081
3003.73095,0.01040
3001.67077,0.01015
2999.61060,0.01020
2997.55043,0.01053
2995.49026,0.01091
2993.43009,0.01117
2991.36991,0.01119
2989.30974,0.01107
2987.24957,0.01106
2985.18940,0.01119
2983.12923,0.01132
2981.06905,0.01133
2979.00888,0.01141
2976.94871,0.01172
2974.88854,0.01205
2972.82836,0.01212
2970.76819,0.01200
2968.70802,0.01189
2966.64785,0.01193
2964.58768,0.01214
2962.52750,0.01238
2960.46733,0.01259
2958.40716,0.01288
2956.34699,0.01324
2954.28682,0.01351
2952.22664,0.01362
2950.16647,0.01371
2948.10630,0.01406
2946.04613,0.01448
2943.98596,0.01462
2941.92578,0.01452
2939.86561,0.01451
2937.80544,0.01475
2935.74527,0.01503
2933.68509,0.01509
2931.62492,0.01499
2929.56475,0.01497
2927.50458,0.01509
2925.44441,0.01514
2923.38423,0.01496
2921.32406,0.01471
2919.26389,0.01471
2917.20372,0.01496
2915.14355,0.01517
2913.08337,0.01510
2911.02320,0.01477
2908.96303,0.01444
2906.90286,0.01421
2904.84268,0.01396
2902.78251,0.01368
2900.72234,0.01348
2898.66217,0.01342
2896.60200,0.01350
2894.54182,0.01372
2892.48165,0.01387
2890.42148,0.01378
2888.36131,0.01354
2886.30114,0.01330
2884.24096,0.01319
2882.18079,0.01334
2880.12062,0.01346
2878.06045,0.01316
2876.00028,0.01272
2873.94010,0.01250
2871.87993,0.01245
2869.81976,0.01246
2867.75959,0.01247
2865.69941,0.01231
2863.63924,0.01199
2861.57907,0.01172
2859.51890,0.01158
2857.45873,0.01153
2855.39855,0.01154
2853.33838,0.01155
2851.27821,0.01139
2849.21804,0.01101
2847.15787,0.01060
2845.09769,0.01041
2843.03752,0.01042
2840.97735,0.01048
2838.91718,0.01053
2836.85700,0.01048
2834.79683,0.01018
2832.73666,0.00985
2830.67649,0.00981
2828.61632,0.00987
2826.55614,0.00969
2824.49597,0.00940
2822.43580,0.00928
2820.37563,0.00928
2818.31546,0.00931
2816.25528,0.00944
2814.19511,0.00951
2812.13494,0.00934
2810.07477,0.00896
2808.01460,0.00868
2805.95442,0.00872
2803.89425,0.00894
2801.83408,0.00904
2799.77391,0.00882
2797.71373,0.00837
2795.65356,0.00806
2793.59339,0.00819
2791.53322,0.00853
2789.47305,0.00871
2787.41287,0.00877
2785.35270,0.00890
2783.29253,0.00898
2781.23236,0.00880
2779.17219,0.00837
2777.11201,0.00808
2775.05184,0.00821
2772.99167,0.00853
2770.93150,0.00864
2768.87133,0.00846
2766.81115,0.00814
2764.75098,0.00787
2762.69081,0.00776
2760.63064,0.00780
2758.57046,0.00790
2756.51029,0.00809
2754.45012,0.00829
2752.38995,0.00828
2750.32978,0.00809
2748.26960,0.00802
2746.20943,0.00807
2744.14926,0.00803
2742.08909,0.00787
2740.02892,0.00773
2737.96874,0.00774
2735.90857,0.00785
2733.84840,0.00790
2731.78823,0.00782
2729.72805,0.00777
2727.66788,0.00788
2725.60771,0.00814
2723.54754,0.00831
2721.48737,0.00817
2719.42719,0.00779
2717.36702,0.00748
2715.30685,0.00745
2713.24668,0.00754
2711.18651,0.00751
2709.12633,0.00734
2707.06616,0.00721
2705.00599,0.00727
2702.94582,0.00749
2700.88565,0.00760
2698.82547,0.00745
2696.76530,0.00724
2694.70513,0.00723
2692.64496,0.00733
2690.58478,0.00734
2688.52461,0.00720
2686.46444,0.00709
2684.40427,0.00719
2682.34410,0.00743
2680.28392,0.00751
2678.22375,0.00736
2676.16358,0.00721
2674.10341,0.00720
2672.04324,0.00732
2669.98306,0.00747
2667.92289,0.00755
2665.86272,0.00752
2663.80255,0.00738
2661.74238,0.00728
2659.68220,0.00731
2657.62203,0.00741
2655.56186,0.00735
2653.50169,0.00716
2651.44151,0.00714
2649.38134,0.00724
2647.32117,0.00722
2645.26100,0.00709
2643.20083,0.00704
2641.14065,0.00710
2639.08048,0.00710
2637.02031,0.00701
2634.96014,0.00684
2632.89997,0.00636
2630.83979,0.00579
2628.77962,0.00568
2626.71945,0.00596
2624.65928,0.00626
2622.59910,0.00654
2620.53893,0.00677
2618.47876,0.00679
2616.41859,0.00663
2614.35842,0.00649
2612.29824,0.00636
2610.23807,0.00617
2608.17790,0.00600
2606.11773,0.00587
2604.05756,0.00581
2601.99738,0.00597
2599.93721,0.00633
2597.87704,0.00661
2595.81687,0.00661
2593.75670,0.00630
2591.69652,0.00590
2589.63635,0.00562
2587.57618,0.00539
2585.51601,0.00525
2583.45583,0.00532
2581.39566,0.00542
2579.33549,0.00538
2577.27532,0.00540
2575.21515,0.00559
2573.15497,0.00578
2571.09480,0.00578
2569.03463,0.00549
2566.97446,0.00509
2564.91429,0.00484
2562.85411,0.00480
2560.79394,0.00512
2558.73377,0.00572
2556.67360,0.00608
2554.61342,0.00607
2552.55325,0.00607
2550.49308,0.00621
2548.43291,0.00615
2546.37274,0.00568
2544.31256,0.00512
2542.25239,0.00482
2540.19222,0.00486
2538.13205,0.00507
2536.07188,0.00505
2534.01170,0.00466
2531.95153,0.00435
2529.89136,0.00445
2527.83119,0.00478
2525.77102,0.00512
2523.71084,0.00553
2521.65067,0.00587
2519.59050,0.00587
2517.53033,0.00567
2515.47015,0.00548
2513.40998,0.00542
2511.34981,0.00557
2509.28964,0.00576
2507.22947,0.00557
2505.16929,0.00502
2503.10912,0.00463
2501.04895,0.00474
2498.98878,0.00508
2496.92861,0.00527
2494.86843,0.00515
2492.80826,0.00495
2490.74809,0.00503
2488.68792,0.00541
2486.62775,0.00561
2484.56757,0.00532
2482.50740,0.00496
2480.44723,0.00501
2478.38706,0.00523
2476.32688,0.00515
2474.26671,0.00484
2472.20654,0.00458
2470.14637,0.00467
2468.08620,0.00515
2466.02602,0.00560
2463.96585,0.00568
2461.90568,0.00556
2459.84551,0.00552
2457.78534,0.00544
2455.72516,0.00530
2453.66499,0.00536
2451.60482,0.00557
2449.54465,0.00557
2447.48447,0.00523
2445.42430,0.00483
2443.36413,0.00448
2441.30396,0.00429
2439.24379,0.00437
2437.18361,0.00456
2435.12344,0.00473
2433.06327,0.00505
2431.00310,0.00538
2428.94293,0.00524
2426.88275,0.00465
2424.82258,0.00426
2422.76241,0.00436
2420.70224,0.00452
2418.64207,0.00451
2416.58189,0.00460
2414.52172,0.00492
2412.46155,0.00515
2410.40138,0.00501
2408.34120,0.00456
2406.28103,0.00415
2404.22086,0.00398
2402.16069,0.00397
2400.10052,0.00409
2398.04034,0.00426
2395.98017,0.00439
2393.92000,0.00448
2391.85983,0.00461
2389.79966,0.00481
2387.73948,0.00494
2385.67931,0.00491
2383.61914,0.00473
2381.55897,0.00460
2379.49880,0.00464
2377.43862,0.00480
2375.37845,0.00486
2373.31828,0.00464
2371.25811,0.00413
2369.19793,0.00359
2367.13776,0.00330
2365.07759,0.00337
2363.01742,0.00356
2360.95725,0.00333
2358.89707,0.00250
2356.83690,0.00184
2354.77673,0.00204
2352.71656,0.00280
2350.65639,0.00365
2348.59621,0.00458
2346.53604,0.00577
2344.47587,0.00716
2342.41570,0.00842
2340.35552,0.00915
2338.29535,0.00905
2336.23518,0.00814
2334.17501,0.00694
2332.11484,0.00609
2330.05466,0.00586
2327.99449,0.00609
2325.93432,0.00636
2323.87415,0.00635
2321.81398,0.00608
2319.75380,0.00575
2317.69363,0.00547
2315.63346,0.00527
2313.57329,0.00514
2311.51312,0.00510
2309.45294,0.00523
2307.39277,0.00550
2305.33260,0.00573
2303.27243,0.00578
2301.21225,0.00558
2299.15208,0.00504
2297.09191,0.00435
2295.03174,0.00391
2292.97157,0.00401
2290.91139,0.00461
2288.85122,0.00542
2286.79105,0.00616
2284.73088,0.00664
2282.67071,0.00678
2280.61053,0.00657
2278.55036,0.00606
2276.49019,0.00542
2274.43002,0.00488
2272.36984,0.00454
2270.30967,0.00442
2268.24950,0.00443
2266.18933,0.00451
2264.12916,0.00469
2262.06898,0.00496
2260.00881,0.00503
2257.94864,0.00467
2255.88847,0.00406
2253.82830,0.00362
2251.76812,0.00363
2249.70795,0.00410
2247.64778,0.00469
2245.58761,0.00466
2243.52744,0.00418
2241.46726,0.00374
2239.40709,0.00338
2237.34692,0.00311
2235.28675,0.00315
2233.22657,0.00377
2231.16640,0.00478
2229.10623,0.00539
2227.04606,0.00498
2224.98589,0.00420
2222.92571,0.00417
2220.86554,0.00477
2218.80537,0.00479
2216.74520,0.00347
2214.68503,0.00210
2212.62485,0.00232
2210.56468,0.00374
2208.50451,0.00487
2206.44434,0.00512
2204.38417,0.00492
2202.32399,0.00439
2200.26382,0.00344
2198.20365,0.00294
2196.14348,0.00375
2194.08330,0.00514
2192.02313,0.00580
2189.96296,0.00559
2187.90279,0.00534
2185.84262,0.00512
2183.78244,0.00399
2181.72227,0.00239
2179.66210,0.00187
2177.60193,0.00238
2175.54176,0.00224
2173.48158,0.00108
2171.42141,0.00095
2169.36124,0.00283
2167.30107,0.00488
2165.24089,0.00558
2163.18072,0.00486
2161.12055,0.00256
2159.06038,0.00010
2157.00021,0.00000
2154.94003,0.00197
2152.87986,0.00398
2150.81969,0.00496
2148.75952,0.00485
2146.69935,0.00426
2144.63917,0.00380
2142.57900,0.00343
2140.51883,0.00288
2138.45866,0.00232
2136.39849,0.00209
2134.33831,0.00237
2132.27814,0.00312
2130.21797,0.00418
2128.15780,0.00514
2126.09762,0.00561
2124.03745,0.00556
2121.97728,0.00526
2119.91711,0.00515
2117.85694,0.00552
2115.79676,0.00605
2113.73659,0.00622
2111.67642,0.00599
2109.61625,0.00569
2107.55608,0.00528
2105.49590,0.00477
2103.43573,0.00472
2101.37556,0.00528
2099.31539,0.00576
2097.25521,0.00604
2095.19504,0.00624
2093.13487,0.00636
2091.07470,0.00633
2089.01453,0.00606
2086.95435,0.00547
2084.89418,0.00471
2082.83401,0.00411
2080.77384,0.00395
2078.71367,0.00418
2076.65349,0.00449
2074.59332,0.00460
2072.53315,0.00438
2070.47298,0.00394
2068.41281,0.00354
2066.35263,0.00338
2064.29246,0.00333
2062.23229,0.00325
2060.17212,0.00326
2058.11194,0.00360
2056.05177,0.00428
2053.99160,0.00519
2051.93143,0.00604
2049.87126,0.00641
2047.81108,0.00613
2045.75091,0.00532
2043.69074,0.00409
2041.63057,0.00263
2039.57040,0.00130
2037.51022,0.00052
2035.45005,0.00047
2033.38988,0.00113
2031.32971,0.00228
2029.26954,0.00346
2027.20936,0.00436
2025.14919,0.00512
2023.08902,0.00589
2021.02885,0.00627
2018.96867,0.00566
2016.90850,0.00399
2014.84833,0.00195
2012.78816,0.00043
2010.72799,0.00000
2008.66781,0.00055
2006.60764,0.00145
2004.54747,0.00222
2002.48730,0.00282
2000.42713,0.00336
1998.36695,0.00392
1996.30678,0.00448
1994.24661,0.00480
1992.18644,0.00476
1990.12626,0.00444
1988.06609,0.00404
1986.00592,0.00377
1983.94575,0.00370
1981.88558,0.00375
1979.82540,0.00374
1977.76523,0.00352
1975.70506,0.00301
1973.64489,0.00238
1971.58472,0.00193
1969.52454,0.00187
1967.46437,0.00221
1965.40420,0.00271
1963.34403,0.00295
1961.28386,0.00279
1959.22368,0.00253
1957.16351,0.00249
1955.10334,0.00261
1953.04317,0.00250
1950.98299,0.00208
1948.92282,0.00163
1946.86265,0.00144
1944.80248,0.00152
1942.74231,0.00166
1940.68213,0.00168
1938.62196,0.00160
1936.56179,0.00160
1934.50162,0.00179
1932.44145,0.00207
1930.38127,0.00231
1928.32110,0.00239
1926.26093,0.00219
1924.20076,0.00168
1922.14059,0.00095
1920.08041,0.00032
1918.02024,0.00015
1915.96007,0.00049
1913.89990,0.00101
1911.83972,0.00152
1909.77955,0.00201
1907.71938,0.00246
1905.65921,0.00270
1903.59904,0.00263
1901.53886,0.00233
1899.47869,0.00201
1897.41852,0.00184
1895.35835,0.00186
1893.29818,0.00192
1891.23800,0.00175
1889.17783,0.00128
1887.11766,0.00081
1885.05749,0.00071
1882.99731,0.00098
1880.93714,0.00137
1878.87697,0.00162
1876.81680,0.00164
1874.75663,0.00155
1872.69645,0.00151
1870.63628,0.00156
1868.57611,0.00167
1866.51594,0.00181
1864.45577,0.00189
1862.39559,0.00181
1860.33542,0.00165
1858.27525,0.00149
1856.21508,0.00138
1854.15491,0.00135
1852.09473,0.00144
1850.03456,0.00160
1847.97439,0.00177
1845.91422,0.00189
1843.85404,0.00190
1841.79387,0.00180
1839.73370,0.00165
1837.67353,0.00154
1835.61336,0.00154
1833.55318,0.00159
1831.49301,0.00161
1829.43284,0.00159
1827.37267,0.00164
1825.31250,0.00175
1823.25232,0.00184
1821.19215,0.00189
1819.13198,0.00192
1817.07181,0.00196
1815.01163,0.00196
1812.95146,0.00187
1810.89129,0.00174
1808.83112,0.00164
1806.77095,0.00164
1804.71077,0.00169
1802.65060,0.00172
1800.59043,0.00168
1798.53026,0.00162
1796.47009,0.00156
1794.40991,0.00139
1792.34974,0.00108
1790.28957,0.00081
1788.22940,0.00077
1786.16923,0.00095
1784.10905,0.00115
1782.04888,0.00126
1779.98871,0.00130
1777.92854,0.00129
1775.86836,0.00123
1773.80819,0.00115
1771.74802,0.00116
1769.68785,0.00132
1767.62768,0.00154
1765.56750,0.00170
1763.50733,0.00184
1761.44716,0.00207
1759.38699,0.00242
1757.32682,0.00286
1755.26664,0.00328
1753.20647,0.00361
1751.14630,0.00392
1749.08613,0.00427
1747.02596,0.00458
1744.96578,0.00476
1742.90561,0.00481
1740.84544,0.00481
1738.78527,0.00483
1736.72509,0.00490
1734.66492,0.00513
1732.60475,0.00554
1730.54458,0.00598
1728.48441,0.00631
1726.42423,0.00646
1724.36406,0.00640
1722.30389,0.00607
1720.24372,0.00549
1718.18355,0.00480
1716.12337,0.00426
1714.06320,0.00398
1712.00303,0.00379
1709.94286,0.00353
1707.88268,0.00322
1705.82251,0.00303
1703.76234,0.00301
1701.70217,0.00305
1699.64200,0.00303
1697.58182,0.00300
1695.52165,0.00306
1693.46148,0.00318
1691.40131,0.00329
1689.34114,0.00336
1687.28096,0.00340
1685.22079,0.00345
1683.16062,0.00358
1681.10045,0.00383
1679.04028,0.00413
1676.98010,0.00443
1674.91993,0.00470
1672.85976,0.00498
1670.79959,0.00542
1668.73941,0.00608
1666.67924,0.00684
1664.61907,0.00745
1662.55890,0.00784
1660.49873,0.00803
1658.43855,0.00810
1656.37838,0.00813
1654.31821,0.00824
1652.25804,0.00856
1650.19787,0.00904
1648.13769,0.00958
1646.07752,0.01009
1644.01735,0.01045
1641.95718,0.01061
1639.89701,0.01063
1637.83683,0.01067
1635.77666,0.01084
1633.71649,0.01114
1631.65632,0.01147
1629.59614,0.01173
1627.53597,0.01187
1625.47580,0.01189
1623.41563,0.01185
1621.35546,0.01181
1619.29528,0.01185
1617.23511,0.01194
1615.17494,0.01198
1613.11477,0.01186
1611.05460,0.01161
1608.99442,0.01126
1606.93425,0.01088
1604.87408,0.01046
1602.81391,0.00997
1600.75373,0.00939
1598.69356,0.00871
1596.63339,0.00795
1594.57322,0.00721
1592.51305,0.00654
1590.45287,0.00595
1588.39270,0.00538
1586.33253,0.00481
1584.27236,0.00426
1582.21219,0.00378
1580.15201,0.00339
1578.09184,0.00306
1576.03167,0.00277
1573.97150,0.00250
1571.91133,0.00219
1569.85115,0.00187
1567.79098,0.00160
1565.73081,0.00139
1563.67064,0.00119
1561.61046,0.00096
1559.55029,0.00075
1557.49012,0.00068
1555.42995,0.00074
1553.36978,0.00083
1551.30960,0.00089
1549.24943,0.00093
1547.18926,0.00094
1545.12909,0.00084
1543.06892,0.00056
1541.00874,0.00020
1538.94857,0.00000
1536.88840,0.00006
1534.82823,0.00021
1532.76805,0.00027
1530.70788,0.00023
1528.64771,0.00014
1526.58754,0.00005
1524.52737,0.00006
1522.46719,0.00022
1520.40702,0.00047
1518.34685,0.00060
1516.28668,0.00055
1514.22651,0.00042
1512.16633,0.00027
1510.10616,0.00014
1508.04599,0.00012
1505.98582,0.00032
1503.92565,0.00063
1501.86547,0.00084
1499.80530,0.00086
1497.74513,0.00080
1495.68496,0.00075
1493.62478,0.00069
1491.56461,0.00059
1489.50444,0.00060
1487.44427,0.00086
1485.38410,0.00128
1483.32392,0.00172
1481.26375,0.00211
1479.20358,0.00243
1477.14341,0.00266
1475.08324,0.00282
1473.02306,0.00304
1470.96289,0.00338
1468.90272,0.00379
1466.84255,0.00416
1464.78238,0.00447
1462.72220,0.00471
1460.66203,0.00486
1458.60186,0.00502
1456.54169,0.00531
1454.48151,0.00568
1452.42134,0.00596
1450.36117,0.00609
1448.30100,0.00617
1446.24083,0.00630
1444.18065,0.00648
1442.12048,0.00674
1440.06031,0.00708
1438.00014,0.00748
1435.93997,0.00792
1433.87979,0.00833
1431.81962,0.00863
1429.75945,0.00880
1427.69928,0.00888
1425.63910,0.00892
1423.57893,0.00900
1421.51876,0.00914
1419.45859,0.00933
1417.39842,0.00958
1415.33824,0.00983
1413.27807,0.01001
1411.21790,0.01003
1409.15773,0.00987
1407.09756,0.00962
1405.03738,0.00934
1402.97721,0.00907
1400.91704,0.00883
1398.85687,0.00861
1396.79670,0.00844
1394.73652,0.00832
1392.67635,0.00826
1390.61618,0.00827
1388.55601,0.00832
1386.49583,0.00841
1384.43566,0.00858
1382.37549,0.00880
1380.31532,0.00906
1378.25515,0.00930
1376.19497,0.00948
1374.13480,0.00957
1372.07463,0.00957
1370.01446,0.00944
1367.95429,0.00921
1365.89411,0.00894
1363.83394,0.00866
1361.77377,0.00847
1359.71360,0.00843
1357.65343,0.00849
1355.59325,0.00857
1353.53308,0.00859
1351.47291,0.00853
1349.41274,0.00839
1347.35256,0.00821
1345.29239,0.00800
1343.23222,0.00777
1341.17205,0.00753
1339.11188,0.00738
1337.05170,0.00739
1334.99153,0.00754
1332.93136,0.00772
1330.87119,0.00781
1328.81102,0.00778
1326.75084,0.00771
1324.69067,0.00768
1322.63050,0.00771
1320.57033,0.00779
1318.51015,0.00788
1316.44998,0.00792
1314.38981,0.00792
1312.32964,0.00789
1310.26947,0.00784
1308.20929,0.00775
1306.14912,0.00764
1304.08895,0.00752
1302.02878,0.00738
1299.96861,0.00725
1297.90843,0.00714
1295.84826,0.00701
1293.78809,0.00681
1291.72792,0.00656
1289.66775,0.00638
1287.60757,0.00631
1285.54740,0.00629
1283.48723,0.00625
1281.42706,0.00618
1279.36688,0.00613
1277.30671,0.00616
1275.24654,0.00634
1273.18637,0.00666
1271.12620,0.00706
1269.06602,0.00743
1267.00585,0.00773
1264.94568,0.00800
1262.88551,0.00830
1260.82534,0.00861
1258.76516,0.00888
1256.70499,0.00903
1254.64482,0.00908
1252.58465,0.00913
1250.52447,0.00926
1248.46430,0.00944
1246.40413,0.00960
1244.34396,0.00963
1242.28379,0.00952
1240.22361,0.00927
1238.16344,0.00895
1236.10327,0.00864
1234.04310,0.00842
1231.98293,0.00828
1229.92275,0.00816
1227.86258,0.00797
1225.80241,0.00770
1223.74224,0.00733
1221.68207,0.00690
1219.62189,0.00643
1217.56172,0.00596
1215.50155,0.00553
1213.44138,0.00515
1211.38120,0.00480
1209.32103,0.00441
1207.26086,0.00394
1205.20069,0.00338
1203.14052,0.00279
1201.08034,0.00221
1199.02017,0.00160
1196.96000,0.00090
1194.89983,0.00028
1192.83966,0.00000
1190.77948,-0.00001
1188.71931,-0.00003
1186.65914,-0.00015
1184.59897,-0.00016
1182.53880,0.00011
1180.47862,0.00051
1178.41845,0.00094
1176.35828,0.00156
1174.29811,0.00230
1172.23793,0.00291
1170.17776,0.00341
1168.11759,0.00399
1166.05742,0.00471
1163.99725,0.00543
1161.93707,0.00606
1159.87690,0.00673
1157.81673,0.00740
1155.75656,0.00795
1153.69639,0.00848
1151.63621,0.00906
1149.57604,0.00956
1147.51587,0.00990
1145.45570,0.01012
1143.39552,0.01016
1141.33535,0.01008
1139.27518,0.01011
1137.21501,0.01038
1135.15484,0.01070
1133.09466,0.01086
1131.03449,0.01106
1128.97432,0.01160
1126.91415,0.01241
1124.85398,0.01318
1122.79380,0.01377
1120.73363,0.01426
1118.67346,0.01478
1116.61329,0.01521
1114.55312,0.01553
1112.49294,0.01589
1110.43277,0.01639
1108.37260,0.01694
1106.31243,0.01737
1104.25225,0.01772
1102.19208,0.01820
1100.13191,0.01888
1098.07174,0.01977
1096.01157,0.02084
1093.95139,0.02195
1091.89122,0.02285
1089.83105,0.02345
1087.77088,0.02399
1085.71071,0.02464
1083.65053,0.02529
1081.59036,0.02593
1079.53019,0.02678
1077.47002,0.02781
1075.40985,0.02873
1073.34967,0.02938
1071.28950,0.02985
1069.22933,0.03032
1067.16916,0.03081
1065.10898,0.03125
1063.04881,0.03160
1060.98864,0.03184
1058.92847,0.03195
1056.86830,0.03203
1054.80812,0.03226
1052.74795,0.03267
1050.68778,0.03319
1048.62761,0.03373
1046.56744,0.03417
1044.50726,0.03448
1042.44709,0.03480
1040.38692,0.03527
1038.32675,0.03583
1036.26657,0.03625
1034.20640,0.03643
1032.14623,0.03647
1030.08606,0.03659
1028.02589,0.03683
1025.96571,0.03700
1023.90554,0.03700
1021.84537,0.03700
1019.78520,0.03708
1017.72503,0.03717
1015.66485,0.03727
1013.60468,0.03741
1011.54451,0.03740
1009.48434,0.03718
1007.42417,0.03695
1005.36399,0.03675
1003.30382,0.03631
1001.24365,0.03565
999.18348,0.03517
997.12330,0.03499
995.06313,0.03485
993.00296,0.03454
990.94279,0.03419
988.88262,0.03384
986.82244,0.03339
984.76227,0.03285
982.70210,0.03233
980.64193,0.03178
978.58176,0.03132
976.52158,0.03113
974.46141,0.03117
972.40124,0.03116
970.34107,0.03084
968.28089,0.03026
966.22072,0.02970
964.16055,0.02928
962.10038,0.02890
960.04021,0.02858
957.98003,0.02841
955.91986,0.02815
953.85969,0.02753
951.79952,0.02670
949.73935,0.02591
947.67917,0.02515
945.61900,0.02439
943.55883,0.02353
941.49866,0.02239
939.43849,0.02111
937.37831,0.01997
935.31814,0.01895
933.25797,0.01772
931.19780,0.01622
929.13762,0.01484
927.07745,0.01363
925.01728,0.01237
922.95711,0.01117
920.89694,0.01027
918.83676,0.00970
916.77659,0.00933
914.71642,0.00884
912.65625,0.00819
910.59608,0.00770
908.53590,0.00749
906.47573,0.00747
904.41556,0.00758
902.35539,0.00780
900.29522,0.00792
898.23504,0.00771
896.17487,0.00729
894.11470,0.00704
892.05453,0.00714
889.99435,0.00735
887.93418,0.00722
885.87401,0.00670
883.81384,0.00608
881.75367,0.00555
879.69349,0.00505
877.63332,0.00457
875.57315,0.00416
873.51298,0.00393
871.45281,0.00383
869.39263,0.00374
867.33246,0.00372
865.27229,0.00365
863.21212,0.00324
861.15194,0.00274
859.09177,0.00247
857.03160,0.00244
854.97143,0.00251
852.91126,0.00270
850.85108,0.00292
848.79091,0.00292
846.73074,0.00275
844.67057,0.00264
842.61040,0.00256
840.55022,0.00235
838.49005,0.00191
836.42988,0.00146
834.36971,0.00130
832.30954,0.00124
830.24936,0.00096
828.18919,0.00057
826.12902,0.00024
824.06885,0.00008
822.00867,0.00028
819.94850,0.00091
817.88833,0.00172
815.82816,0.00247
813.76799,0.00317
811.70781,0.00358
809.64764,0.00320
807.58747,0.00235
805.52730,0.00192
803.46713,0.00200
801.40695,0.00188
799.34678,0.00143
797.28661,0.00129
795.22644,0.00157
793.16627,0.00168
791.10609,0.00146
789.04592,0.00122
786.98575,0.00106
784.92558,0.00100
782.86540,0.00107
780.80523,0.00134
778.74506,0.00165
776.68489,0.00184
774.62472,0.00197
772.56454,0.00182
770.50437,0.00128
768.44420,0.00091
766.38403,0.00135
764.32386,0.00241
762.26368,0.00313
760.20351,0.00273
758.14334,0.00158
756.08317,0.00075
754.02299,0.00071
751.96282,0.00112
749.90265,0.00151
747.84248,0.00164
745.78231,0.00150
743.72213,0.00114
741.66196,0.00056
739.60179,0.00000
737.54162,-0.00014
735.48145,0.00054
733.42127,0.00194
731.36110,0.00335
729.30093,0.00401
727.24076,0.00382
725.18059,0.00295
723.12041,0.00199
721.06024,0.00151
719.00007,0.00167
716.93990,0.00226
714.87972,0.00298
712.81955,0.00364
710.75938,0.00409
708.69921,0.00421
706.63904,0.00400
704.57886,0.00361
702.51869,0.00338
700.45852,0.00361
698.39835,0.00429
696.33818,0.00506
694.27800,0.00566
692.21783,0.00596
690.15766,0.00585
688.09749,0.00525
686.03731,0.00444
683.97714,0.00388
681.91697,0.00376
679.85680,0.00384
677.79663,0.00379
675.73645,0.00350
673.67628,0.00290
671.61611,0.00216
669.55594,0.00184
667.49577,0.00234
665.43559,0.00310
663.37542,0.00333
661.31525,0.00313
659.25508,0.00340
657.19491,0.00473
655.13473,0.00665
653.07456,0.00823
651.01439,0.00909
648.95422,0.00938
646.89404,0.00937
644.83387,0.00926
642.77370,0.00906
640.71353,0.00854
638.65336,0.00780
636.59318,0.00751
634.53301,0.00798
632.47284,0.00852
630.41267,0.00836
628.35250,0.00761
626.29232,0.00730
624.23215,0.00838
622.17198,0.00923
620.11181,0.00813
618.05164,0.00669
615.99146,0.00659
613.93129,0.00640
611.87112,0.00461
609.81095,0.00226
607.75077,0.00072
605.69060,0.00000
603.63043,-0.00083
601.57026,-0.00051
599.51009,0.00000
