3996.73391,0.00056
3994.67373,0.00050
3992.61356,0.00035
3990.55339,0.00010
3988.49322,-0.00010
3986.43305,-0.00014
3984.37287,-0.00010
3982.31270,0.00004
3980.25253,0.00025
3978.19236,0.00044
3976.13219,0.00057
3974.07201,0.00057
3972.01184,0.00035
3969.95167,0.00018
3967.89150,0.00022
3965.83133,0.00025
3963.77115,0.00017
3961.71098,0.00018
3959.65081,0.00032
3957.59064,0.00033
3955.53046,0.00014
3953.47029,0.00000
3951.41012,0.00010
3949.34995,0.00036
3947.28978,0.00059
3945.22960,0.00062
3943.16943,0.00057
3941.10926,0.00069
3939.04909,0.00083
3936.98892,0.00075
3934.92874,0.00064
3932.86857,0.00052
3930.80840,0.00027
3928.74823,0.00008
3926.68805,-0.00001
3924.62788,0.00000
3922.56771,0.00024
3920.50754,0.00065
3918.44737,0.00095
3916.38719,0.00106
3914.32702,0.00109
3912.26685,0.00102
3910.20668,0.00085
3908.14651,0.00067
3906.08633,0.00048
3904.02616,0.00028
3901.96599,0.00019
3899.90582,0.00036
3897.84565,0.00064
3895.78547,0.00083
3893.72530,0.00092
3891.66513,0.00095
3889.60496,0.00103
3887.54478,0.00116
3885.48461,0.00111
3883.42444,0.00092
3881.36427,0.00086
3879.30410,0.00091
3877.24392,0.00096
3875.18375,0.00094
3873.12358,0.00097
3871.06341,0.00106
3869.00324,0.00111
3866.94306,0.00121
3864.88289,0.00127
3862.82272,0.00122
3860.76255,0.00110
3858.70237,0.00099
3856.64220,0.00096
3854.58203,0.00107
3852.52186,0.00130
3850.46169,0.00145
3848.40151,0.00134
3846.34134,0.00105
3844.28117,0.00075
3842.22100,0.00043
3840.16083,0.00009
3838.10065,0.00000
3836.04048,0.00040
3833.98031,0.00109
3831.92014,0.00161
3829.85997,0.00175
3827.79979,0.00164
3825.73962,0.00148
3823.67945,0.00142
3821.61928,0.00140
3819.55910,0.00130
3817.49893,0.00114
3815.43876,0.00113
3813.37859,0.00121
3811.31842,0.00110
3809.25824,0.00081
3807.19807,0.00071
3805.13790,0.00095
3803.07773,0.00123
3801.01756,0.00136
3798.95738,0.00137
3796.89721,0.00134
3794.83704,0.00117
3792.77687,0.00082
3790.71670,0.00055
3788.65652,0.00062
3786.59635,0.00093
3784.53618,0.00107
3782.47601,0.00086
3780.41583,0.00061
3778.35566,0.00062
3776.29549,0.00077
3774.23532,0.00090
3772.17515,0.00106
3770.11497,0.00106
3768.05480,0.00077
3765.99463,0.00049
3763.93446,0.00046
3761.87429,0.00060
3759.81411,0.00073
3757.75394,0.00083
3755.69377,0.00087
3753.63360,0.00065
3751.57342,0.00023
3749.51325,0.00007
3747.45308,0.00027
3745.39291,0.00066
3743.33274,0.00107
3741.27256,0.00134
3739.21239,0.00161
3737.15222,0.00175
3735.09205,0.00137
3733.03188,0.00083
3730.97170,0.00070
3728.91153,0.00072
3726.85136,0.00050
3724.79119,0.00022
3722.73102,0.00049
3720.67084,0.00129
3718.61067,0.00177
3716.55050,0.00159
3714.49033,0.00102
3712.43015,0.00041
3710.36998,0.00032
3708.30981,0.00072
3706.24964,0.00092
3704.18947,0.00079
3702.12929,0.00070
3700.06912,0.00076
3698.00895,0.00075
3695.94878,0.00074
3693.88861,0.00091
3691.82843,0.00102
3689.76826,0.00080
3687.70809,0.00066
3685.64792,0.00083
3683.58775,0.00101
3681.52757,0.00100
3679.46740,0.00086
3677.40723,0.00078
3675.34706,0.00095
3673.28688,0.00125
3671.22671,0.00132
3669.16654,0.00105
3667.10637,0.00085
3665.04620,0.00085
3662.98602,0.00092
3660.92585,0.00101
3658.86568,0.00103
3656.80551,0.00093
3654.74534,0.00092
3652.68516,0.00103
3650.62499,0.00092
3648.56482,0.00053
3646.50465,0.00056
3644.44447,0.00093
3642.38430,0.00108
3640.32413,0.00113
3638.26396,0.00141
3636.20379,0.00175
3634.14361,0.00193
3632.08344,0.00202
3630.02327,0.00217
3627.96310,0.00234
3625.90293,0.00246
3623.84275,0.00237
3621.78258,0.00205
3619.72241,0.00160
3617.66224,0.00125
3615.60207,0.00132
3613.54189,0.00175
3611.48172,0.00217
3609.42155,0.00233
3607.36138,0.00240
3605.30120,0.00259
3603.24103,0.00292
3601.18086,0.00334
3599.12069,0.00368
3597.06052,0.00373
3595.00034,0.00353
3592.94017,0.00335
3590.88000,0.00340
3588.81983,0.00362
3586.75966,0.00392
3584.69948,0.00414
3582.63931,0.00422
3580.57914,0.00441
3578.51897,0.00481
3576.45879,0.00502
3574.39862,0.00489
3572.33845,0.00480
3570.27828,0.00499
3568.21811,0.00538
3566.15793,0.00558
3564.09776,0.00542
3562.03759,0.00536
3559.97742,0.00566
3557.91725,0.00600
3555.85707,0.00615
3553.79690,0.00620
3551.73673,0.00628
3549.67656,0.00635
3547.61639,0.00640
3545.55621,0.00663
3543.49604,0.00706
3541.43587,0.00741
3539.37570,0.00758
3537.31552,0.00765
3535.25535,0.00770
3533.19518,0.00770
3531.13501,0.00756
3529.07484,0.00743
3527.01466,0.00762
3524.95449,0.00805
3522.89432,0.00834
3520.83415,0.00852
3518.77398,0.00872
3516.71380,0.00891
3514.65363,0.00902
3512.59346,0.00904
3510.53329,0.00908
3508.47312,0.00924
3506.41294,0.00953
3504.35277,0.00987
3502.29260,0.01018
3500.23243,0.01035
3498.17225,0.01031
3496.11208,0.01021
3494.05191,0.01030
3491.99174,0.01068
3489.93157,0.01111
3487.87139,0.01133
3485.81122,0.01126
3483.75105,0.01108
3481.69088,0.01096
3479.63071,0.01100
3477.57053,0.01122
3475.51036,0.01156
3473.45019,0.01193
3471.39002,0.01235
3469.32984,0.01266
3467.26967,0.01262
3465.20950,0.01238
3463.14933,0.01244
3461.08916,0.01278
3459.02898,0.01287
3456.96881,0.01268
3454.90864,0.01257
3452.84847,0.01260
3450.78830,0.01268
3448.72812,0.01294
3446.66795,0.01348
3444.60778,0.01383
3442.54761,0.01369
3440.48744,0.01360
3438.42726,0.01386
3436.36709,0.01419
3434.30692,0.01437
3432.24675,0.01439
3430.18657,0.01435
3428.12640,0.01439
3426.06623,0.01451
3424.00606,0.01452
3421.94589,0.01446
3419.88571,0.01463
3417.82554,0.01493
3415.76537,0.01508
3413.70520,0.01506
3411.64503,0.01501
3409.58485,0.01502
3407.52468,0.01504
3405.46451,0.01514
3403.40434,0.01539
3401.34416,0.01549
3399.28399,0.01543
3397.22382,0.01553
3395.16365,0.01577
3393.10348,0.01598
3391.04330,0.01625
3388.98313,0.01649
3386.92296,0.01661
3384.86279,0.01651
3382.80262,0.01634
3380.74244,0.01648
3378.68227,0.01660
3376.62210,0.01647
3374.56193,0.01658
3372.50176,0.01700
3370.44158,0.01725
3368.38141,0.01711
3366.32124,0.01683
3364.26107,0.01687
3362.20089,0.01708
3360.14072,0.01716
3358.08055,0.01733
3356.02038,0.01757
3353.96021,0.01764
3351.90003,0.01776
3349.83986,0.01798
3347.77969,0.01785
3345.71952,0.01728
3343.65935,0.01674
3341.59917,0.01658
3339.53900,0.01681
3337.47883,0.01721
3335.41866,0.01751
3333.35849,0.01755
3331.29831,0.01753
3329.23814,0.01766
3327.17797,0.01781
3325.11780,0.01769
3323.05762,0.01747
3320.99745,0.01755
3318.93728,0.01776
3316.87711,0.01777
3314.81694,0.01773
3312.75676,0.01770
3310.69659,0.01758
3308.63642,0.01744
3306.57625,0.01741
3304.51608,0.01761
3302.45590,0.01777
3300.39573,0.01768
3298.33556,0.01746
3296.27539,0.01740
3294.21521,0.01745
3292.15504,0.01740
3290.09487,0.01730
3288.03470,0.01730
3285.97453,0.01746
3283.91435,0.01757
3281.85418,0.01754
3279.79401,0.01760
3277.73384,0.01761
3275.67367,0.01739
3273.61349,0.01721
3271.55332,0.01731
3269.49315,0.01750
3267.43298,0.01754
3265.37281,0.01744
3263.31263,0.01733
3261.25246,0.01729
3259.19229,0.01725
3257.13212,0.01720
3255.07194,0.01726
3253.01177,0.01738
3250.95160,0.01740
3248.89143,0.01738
3246.83126,0.01730
3244.77108,0.01713
3242.71091,0.01701
3240.65074,0.01696
3238.59057,0.01687
3236.53040,0.01684
3234.47022,0.01692
3232.41005,0.01684
3230.34988,0.01651
3228.28971,0.01627
3226.22954,0.01625
3224.16936,0.01624
3222.10919,0.01631
3220.04902,0.01645
3217.98885,0.01646
3215.92867,0.01636
3213.86850,0.01633
3211.80833,0.01621
3209.74816,0.01595
3207.68799,0.01576
3205.62781,0.01567
3203.56764,0.01562
3201.50747,0.01562
3199.44730,0.01550
3197.38713,0.01514
3195.32695,0.01484
3193.26678,0.01483
3191.20661,0.01506
3189.14644,0.01527
3187.08626,0.01517
3185.02609,0.01500
3182.96592,0.01495
3180.90575,0.01492
3178.84558,0.01480
3176.78540,0.01456
3174.72523,0.01440
3172.66506,0.01443
3170.60489,0.01438
3168.54472,0.01430
3166.48454,0.01429
3164.42437,0.01415
3162.36420,0.01392
3160.30403,0.01378
3158.24386,0.01363
3156.18368,0.01344
3154.12351,0.01338
3152.06334,0.01340
3150.00317,0.01336
3147.94299,0.01340
3145.88282,0.01346
3143.82265,0.01330
3141.76248,0.01298
3139.70231,0.01276
3137.64213,0.01271
3135.58196,0.01268
3133.52179,0.01255
3131.46162,0.01236
3129.40145,0.01207
3127.34127,0.01183
3125.28110,0.01191
3123.22093,0.01218
3121.16076,0.01224
3119.10058,0.01200
3117.04041,0.01160
3114.98024,0.01123
3112.92007,0.01111
3110.85990,0.01120
3108.79972,0.01124
3106.73955,0.01111
3104.67938,0.01099
3102.61921,0.01103
3100.55904,0.01115
3098.49886,0.01106
3096.43869,0.01078
3094.37852,0.01062
3092.31835,0.01066
3090.25818,0.01074
3088.19800,0.01083
3086.13783,0.01080
3084.07766,0.01059
3082.01749,0.01042
3079.95731,0.01047
3077.89714,0.01058
3075.83697,0.01052
3073.77680,0.01025
3071.71663,0.01004
3069.65645,0.01000
3067.59628,0.00989
3065.53611,0.00968
3063.47594,0.00949
3061.41577,0.00940
3059.35559,0.00935
3057.29542,0.00930
3055.23525,0.00928
3053.17508,0.00927
3051.11491,0.00914
3049.05473,0.00897
3046.99456,0.00890
3044.93439,0.00891
3042.87422,0.00890
3040.81404,0.00882
3038.75387,0.00869
3036.69370,0.00858
3034.63353,0.00847
3032.57336,0.00842
3030.51318,0.00842
3028.45301,0.00837
3026.39284,0.00827
3024.33267,0.00820
3022.27250,0.00825
3020.21232,0.00833
3018.15215,0.00831
3016.09198,0.00822
3014.03181,0.00813
3011.97163,0.00801
3009.91146,0.00789
3007.85129,0.00784
3005.79112,0.00783
3003.73095,0.00781
3001.67077,0.00785
2999.61060,0.00798
2997.55043,0.00809
2995.49026,0.00803
2993.43009,0.00788
2991.36991,0.00782
2989.30974,0.00785
2987.24957,0.00784
2985.18940,0.00774
2983.12923,0.00772
2981.06905,0.00791
2979.00888,0.00807
2976.94871,0.00801
2974.88854,0.00791
2972.82836,0.00802
2970.76819,0.00819
2968.70802,0.00820
2966.64785,0.00825
2964.58768,0.00848
2962.52750,0.00862
2960.46733,0.00858
2958.40716,0.00862
2956.34699,0.00882
2954.28682,0.00899
2952.22664,0.00910
2950.16647,0.00928
2948.10630,0.00951
2946.04613,0.00974
2943.98596,0.00993
2941.92578,0.00999
2939.86561,0.00991
2937.80544,0.00985
2935.74527,0.00996
2933.68509,0.01011
2931.62492,0.01011
2929.56475,0.01013
2927.50458,0.01023
2925.44441,0.01023
2923.38423,0.01013
2921.32406,0.01007
2919.26389,0.01003
2917.20372,0.00998
2915.14355,0.01001
2913.08337,0.01017
2911.02320,0.01026
2908.96303,0.01018
2906.90286,0.01002
2904.84268,0.00989
2902.78251,0.00968
2900.72234,0.00941
2898.66217,0.00938
2896.60200,0.00960
2894.54182,0.00969
2892.48165,0.00953
2890.42148,0.00932
2888.36131,0.00914
2886.30114,0.00898
2884.24096,0.00897
2882.18079,0.00911
2880.12062,0.00929
2878.06045,0.00937
2876.00028,0.00932
2873.94010,0.00929
2871.87993,0.00928
2869.81976,0.00916
2867.75959,0.00896
2865.69941,0.00891
2863.63924,0.00895
2861.57907,0.00889
2859.51890,0.00866
2857.45873,0.00849
2855.39855,0.00852
2853.33838,0.00858
2851.27821,0.00851
2849.21804,0.00829
2847.15787,0.00804
2845.09769,0.00792
2843.03752,0.00800
2840.97735,0.00814
2838.91718,0.00817
2836.85700,0.00817
2834.79683,0.00814
2832.73666,0.00796
2830.67649,0.00773
2828.61632,0.00753
2826.55614,0.00744
2824.49597,0.00747
2822.43580,0.00752
2820.37563,0.00750
2818.31546,0.00747
2816.25528,0.00737
2814.19511,0.00718
2812.13494,0.00715
2810.07477,0.00731
2808.01460,0.00730
2805.95442,0.00711
2803.89425,0.00703
2801.83408,0.00712
2799.77391,0.00714
2797.71373,0.00705
2795.65356,0.00708
2793.59339,0.00713
2791.53322,0.00711
2789.47305,0.00710
2787.41287,0.00712
2785.35270,0.00713
2783.29253,0.00705
2781.23236,0.00687
2779.17219,0.00689
2777.11201,0.00714
2775.05184,0.00718
2772.99167,0.00690
2770.93150,0.00666
2768.87133,0.00665
2766.81115,0.00671
2764.75098,0.00662
2762.69081,0.00652
2760.63064,0.00660
2758.57046,0.00672
2756.51029,0.00666
2754.45012,0.00650
2752.38995,0.00648
2750.32978,0.00655
2748.26960,0.00664
2746.20943,0.00676
2744.14926,0.00684
2742.08909,0.00677
2740.02892,0.00659
2737.96874,0.00663
2735.90857,0.00680
2733.84840,0.00677
2731.78823,0.00670
2729.72805,0.00671
2727.66788,0.00673
2725.60771,0.00667
2723.54754,0.00659
2721.48737,0.00659
2719.42719,0.00655
2717.36702,0.00640
2715.30685,0.00630
2713.24668,0.00630
2711.18651,0.00629
2709.12633,0.00622
2707.06616,0.00616
2705.00599,0.00613
2702.94582,0.00618
2700.88565,0.00627
2698.82547,0.00621
2696.76530,0.00608
2694.70513,0.00606
2692.64496,0.00609
2690.58478,0.00610
2688.52461,0.00600
2686.46444,0.00586
2684.40427,0.00589
2682.34410,0.00602
2680.28392,0.00605
2678.22375,0.00599
2676.16358,0.00599
2674.10341,0.00601
2672.04324,0.00595
2669.98306,0.00595
2667.92289,0.00609
2665.86272,0.00631
2663.80255,0.00642
2661.74238,0.00631
2659.68220,0.00605
2657.62203,0.00585
2655.56186,0.00584
2653.50169,0.00591
2651.44151,0.00596
2649.38134,0.00598
2647.32117,0.00599
2645.26100,0.00587
2643.20083,0.00571
2641.14065,0.00576
2639.08048,0.00596
2637.02031,0.00607
2634.96014,0.00601
2632.89997,0.00597
2630.83979,0.00595
2628.77962,0.00582
2626.71945,0.00564
2624.65928,0.00561
2622.59910,0.00570
2620.53893,0.00577
2618.47876,0.00585
2616.41859,0.00590
2614.35842,0.00560
2612.29824,0.00512
2610.23807,0.00488
2608.17790,0.00483
2606.11773,0.00485
2604.05756,0.00491
2601.99738,0.00494
2599.93721,0.00503
2597.87704,0.00512
2595.81687,0.00504
2593.75670,0.00497
2591.69652,0.00505
2589.63635,0.00511
2587.57618,0.00499
2585.51601,0.00482
2583.45583,0.00474
2581.39566,0.00469
2579.33549,0.00482
2577.27532,0.00509
2575.21515,0.00500
2573.15497,0.00467
2571.09480,0.00460
2569.03463,0.00477
2566.97446,0.00498
2564.91429,0.00495
2562.85411,0.00475
2560.79394,0.00465
2558.73377,0.00462
2556.67360,0.00456
2554.61342,0.00462
2552.55325,0.00488
2550.49308,0.00506
2548.43291,0.00500
2546.37274,0.00493
2544.31256,0.00488
2542.25239,0.00465
2540.19222,0.00432
2538.13205,0.00422
2536.07188,0.00437
2534.01170,0.00460
2531.95153,0.00491
2529.89136,0.00521
2527.83119,0.00517
2525.77102,0.00470
2523.71084,0.00418
2521.65067,0.00405
2519.59050,0.00429
2517.53033,0.00453
2515.47015,0.00448
2513.40998,0.00424
2511.34981,0.00401
2509.28964,0.00405
2507.22947,0.00433
2505.16929,0.00453
2503.10912,0.00453
2501.04895,0.00447
2498.98878,0.00443
2496.92861,0.00412
2494.86843,0.00364
2492.80826,0.00369
2490.74809,0.00423
2488.68792,0.00465
2486.62775,0.00464
2484.56757,0.00432
2482.50740,0.00401
2480.44723,0.00404
2478.38706,0.00437
2476.32688,0.00443
2474.26671,0.00411
2472.20654,0.00409
2470.14637,0.00421
2468.08620,0.00387
2466.02602,0.00353
2463.96585,0.00378
2461.90568,0.00408
2459.84551,0.00402
2457.78534,0.00403
2455.72516,0.00415
2453.66499,0.00432
2451.60482,0.00447
2449.54465,0.00433
2447.48447,0.00409
2445.42430,0.00389
2443.36413,0.00361
2441.30396,0.00347
2439.24379,0.00350
2437.18361,0.00358
2435.12344,0.00372
2433.06327,0.00368
2431.00310,0.00349
2428.94293,0.00358
2426.88275,0.00373
2424.82258,0.00359
2422.76241,0.00338
2420.70224,0.00335
2418.64207,0.00361
2416.58189,0.00381
2414.52172,0.00366
2412.46155,0.00375
2410.40138,0.00407
2408.34120,0.00400
2406.28103,0.00364
2404.22086,0.00339
2402.16069,0.00339
2400.10052,0.00343
2398.04034,0.00338
2395.98017,0.00363
2393.92000,0.00400
2391.85983,0.00414
2389.79966,0.00408
2387.73948,0.00407
2385.67931,0.00415
2383.61914,0.00420
2381.55897,0.00405
2379.49880,0.00378
2377.43862,0.00343
2375.37845,0.00307
2373.31828,0.00313
2371.25811,0.00382
2369.19793,0.00477
2367.13776,0.00548
2365.07759,0.00572
2363.01742,0.00604
2360.95725,0.00657
2358.89707,0.00644
2356.83690,0.00559
2354.77673,0.00463
2352.71656,0.00415
2350.65639,0.00431
2348.59621,0.00452
2346.53604,0.00445
2344.47587,0.00444
2342.41570,0.00483
2340.35552,0.00516
2338.29535,0.00494
2336.23518,0.00455
2334.17501,0.00456
2332.11484,0.00486
2330.05466,0.00486
2327.99449,0.00469
2325.93432,0.00514
2323.87415,0.00583
2321.81398,0.00560
2319.75380,0.00465
2317.69363,0.00393
2315.63346,0.00367
2313.57329,0.00371
2311.51312,0.00379
2309.45294,0.00390
2307.39277,0.00433
2305.33260,0.00484
2303.27243,0.00487
2301.21225,0.00452
2299.15208,0.00426
2297.09191,0.00410
2295.03174,0.00398
2292.97157,0.00412
2290.91139,0.00450
2288.85122,0.00472
2286.79105,0.00464
2284.73088,0.00443
2282.67071,0.00419
2280.61053,0.00406
2278.55036,0.00431
2276.49019,0.00487
2274.43002,0.00509
2272.36984,0.00454
2270.30967,0.00370
2268.24950,0.00341
2266.18933,0.00364
2264.12916,0.00368
2262.06898,0.00353
2260.00881,0.00380
2257.94864,0.00437
2255.88847,0.00453
2253.82830,0.00408
2251.76812,0.00360
2249.70795,0.00363
2247.64778,0.00391
2245.58761,0.00396
2243.52744,0.00380
2241.46726,0.00351
2239.40709,0.00313
2237.34692,0.00262
2235.28675,0.00254
2233.22657,0.00300
2231.16640,0.00339
2229.10623,0.00347
2227.04606,0.00341
2224.98589,0.00307
2222.92571,0.00244
2220.86554,0.00230
2218.80537,0.00290
2216.74520,0.00360
2214.68503,0.00365
2212.62485,0.00306
2210.56468,0.00256
2208.50451,0.00264
2206.44434,0.00286
2204.38417,0.00299
2202.32399,0.00306
2200.26382,0.00311
2198.20365,0.00312
2196.14348,0.00263
2194.08330,0.00204
2192.02313,0.00251
2189.96296,0.00383
2187.90279,0.00438
2185.84262,0.00341
2183.78244,0.00239
2181.72227,0.00187
2179.66210,0.00104
2177.60193,0.00087
2175.54176,0.00130
2173.48158,0.00121
2171.42141,0.00099
2169.36124,0.00128
2167.30107,0.00242
2165.24089,0.00353
2163.18072,0.00328
2161.12055,0.00183
2159.06038,0.00040
2157.00021,0.00014
2154.94003,0.00093
2152.87986,0.00170
2150.81969,0.00160
2148.75952,0.00134
2146.69935,0.00145
2144.63917,0.00125
2142.57900,0.00086
2140.51883,0.00090
2138.45866,0.00123
2136.39849,0.00147
2134.33831,0.00197
2132.27814,0.00259
2130.21797,0.00270
2128.15780,0.00272
2126.09762,0.00279
2124.03745,0.00241
2121.97728,0.00195
2119.91711,0.00179
2117.85694,0.00196
2115.79676,0.00253
2113.73659,0.00315
2111.67642,0.00353
2109.61625,0.00339
2107.55608,0.00304
2105.49590,0.00292
2103.43573,0.00288
2101.37556,0.00296
2099.31539,0.00290
2097.25521,0.00259
2095.19504,0.00256
2093.13487,0.00276
2091.07470,0.00263
2089.01453,0.00236
2086.95435,0.00245
2084.89418,0.00241
2082.83401,0.00195
2080.77384,0.00199
2078.71367,0.00262
2076.65349,0.00322
2074.59332,0.00365
2072.53315,0.00359
2070.47298,0.00324
2068.41281,0.00315
2066.35263,0.00295
2064.29246,0.00248
2062.23229,0.00220
2060.17212,0.00227
2058.11194,0.00256
2056.05177,0.00288
2053.99160,0.00329
2051.93143,0.00376
2049.87126,0.00359
2047.81108,0.00296
2045.75091,0.00272
2043.69074,0.00277
2041.63057,0.00262
2039.57040,0.00206
2037.51022,0.00149
2035.45005,0.00153
2033.38988,0.00222
2031.32971,0.00267
2029.26954,0.00236
2027.20936,0.00192
2025.14919,0.00176
2023.08902,0.00168
2021.02885,0.00175
2018.96867,0.00199
2016.90850,0.00208
2014.84833,0.00211
2012.78816,0.00270
2010.72799,0.00315
2008.66781,0.00237
2006.60764,0.00131
2004.54747,0.00132
2002.48730,0.00239
2000.42713,0.00359
1998.36695,0.00402
1996.30678,0.00329
1994.24661,0.00209
1992.18644,0.00195
1990.12626,0.00252
1988.06609,0.00234
1986.00592,0.00217
1983.94575,0.00298
1981.88558,0.00408
1979.82540,0.00405
1977.76523,0.00267
1975.70506,0.00161
1973.64489,0.00161
1971.58472,0.00172
1969.52454,0.00118
1967.46437,0.00034
1965.40420,0.00000
1963.34403,0.00006
1961.28386,0.00028
1959.22368,0.00076
1957.16351,0.00139
1955.10334,0.00188
1953.04317,0.00194
1950.98299,0.00148
1948.92282,0.00122
1946.86265,0.00164
1944.80248,0.00220
1942.74231,0.00253
1940.68213,0.00223
1938.62196,0.00145
1936.56179,0.00120
1934.50162,0.00171
1932.44145,0.00233
1930.38127,0.00255
1928.32110,0.00223
1926.26093,0.00187
1924.20076,0.00204
1922.14059,0.00234
1920.08041,0.00217
1918.02024,0.00169
1915.96007,0.00129
1913.89990,0.00121
1911.83972,0.00151
1909.77955,0.00184
1907.71938,0.00192
1905.65921,0.00198
1903.59904,0.00220
1901.53886,0.00235
1899.47869,0.00234
1897.41852,0.00234
1895.35835,0.00229
1893.29818,0.00222
1891.23800,0.00229
1889.17783,0.00243
1887.11766,0.00246
1885.05749,0.00231
1882.99731,0.00214
1880.93714,0.00211
1878.87697,0.00212
1876.81680,0.00199
1874.75663,0.00186
1872.69645,0.00187
1870.63628,0.00186
1868.57611,0.00180
1866.51594,0.00177
1864.45577,0.00175
1862.39559,0.00188
1860.33542,0.00216
1858.27525,0.00227
1856.21508,0.00206
1854.15491,0.00176
1852.09473,0.00160
1850.03456,0.00151
1847.97439,0.00144
1845.91422,0.00160
1843.85404,0.00186
1841.79387,0.00184
1839.73370,0.00171
1837.67353,0.00169
1835.61336,0.00171
1833.55318,0.00169
1831.49301,0.00163
1829.43284,0.00147
1827.37267,0.00130
1825.31250,0.00128
1823.25232,0.00143
1821.19215,0.00155
1819.13198,0.00154
1817.07181,0.00154
1815.01163,0.00156
1812.95146,0.00145
1810.89129,0.00136
1808.83112,0.00159
1806.77095,0.00203
1804.71077,0.00220
1802.65060,0.00188
1800.59043,0.00148
1798.53026,0.00134
1796.47009,0.00123
1794.40991,0.00091
1792.34974,0.00067
1790.28957,0.00098
1788.22940,0.00148
1786.16923,0.00165
1784.10905,0.00151
1782.04888,0.00133
1779.98871,0.00120
1777.92854,0.00113
1775.86836,0.00114
1773.80819,0.00110
1771.74802,0.00100
1769.68785,0.00112
1767.62768,0.00148
1765.56750,0.00178
1763.50733,0.00188
1761.44716,0.00188
1759.38699,0.00203
1757.32682,0.00241
1755.26664,0.00277
1753.20647,0.00294
1751.14630,0.00304
1749.08613,0.00320
1747.02596,0.00342
1744.96578,0.00369
1742.90561,0.00393
1740.84544,0.00404
1738.78527,0.00409
1736.72509,0.00417
1734.66492,0.00429
1732.60475,0.00456
1730.54458,0.00495
1728.48441,0.00520
1726.42423,0.00523
1724.36406,0.00522
1722.30389,0.00524
1720.24372,0.00521
1718.18355,0.00505
1716.12337,0.00477
1714.06320,0.00440
1712.00303,0.00404
1709.94286,0.00381
1707.88268,0.00366
1705.82251,0.00342
1703.76234,0.00319
1701.70217,0.00297
1699.64200,0.00257
1697.58182,0.00220
1695.52165,0.00219
1693.46148,0.00244
1691.40131,0.00278
1689.34114,0.00304
1687.28096,0.00307
1685.22079,0.00300
1683.16062,0.00309
1681.10045,0.00328
1679.04028,0.00342
1676.98010,0.00355
1674.91993,0.00364
1672.85976,0.00376
1670.79959,0.00405
1668.73941,0.00447
1666.67924,0.00479
1664.61907,0.00501
1662.55890,0.00525
1660.49873,0.00553
1658.43855,0.00587
1656.37838,0.00619
1654.31821,0.00639
1652.25804,0.00640
1650.19787,0.00630
1648.13769,0.00627
1646.07752,0.00643
1644.01735,0.00675
1641.95718,0.00706
1639.89701,0.00723
1637.83683,0.00730
1635.77666,0.00748
1633.71649,0.00780
1631.65632,0.00798
1629.59614,0.00797
1627.53597,0.00790
1625.47580,0.00782
1623.41563,0.00788
1621.35546,0.00823
1619.29528,0.00865
1617.23511,0.00897
1615.17494,0.00919
1613.11477,0.00932
1611.05460,0.00937
1608.99442,0.00936
1606.93425,0.00936
1604.87408,0.00928
1602.81391,0.00903
1600.75373,0.00870
1598.69356,0.00839
1596.63339,0.00807
1594.57322,0.00767
1592.51305,0.00718
1590.45287,0.00672
1588.39270,0.00645
1586.33253,0.00627
1584.27236,0.00595
1582.21219,0.00551
1580.15201,0.00506
1578.09184,0.00458
1576.03167,0.00417
1573.97150,0.00401
1571.91133,0.00397
1569.85115,0.00384
1567.79098,0.00364
1565.73081,0.00353
1563.67064,0.00348
1561.61046,0.00332
1559.55029,0.00285
1557.49012,0.00231
1555.42995,0.00212
1553.36978,0.00216
1551.30960,0.00227
1549.24943,0.00238
1547.18926,0.00232
1545.12909,0.00201
1543.06892,0.00167
1541.00874,0.00158
1538.94857,0.00167
1536.88840,0.00166
1534.82823,0.00145
1532.76805,0.00123
1530.70788,0.00125
1528.64771,0.00130
1526.58754,0.00116
1524.52737,0.00095
1522.46719,0.00091
1520.40702,0.00106
1518.34685,0.00124
1516.28668,0.00131
1514.22651,0.00125
1512.16633,0.00103
1510.10616,0.00073
1508.04599,0.00052
1505.98582,0.00064
1503.92565,0.00087
1501.86547,0.00091
1499.80530,0.00083
1497.74513,0.00079
1495.68496,0.00092
1493.62478,0.00112
1491.56461,0.00123
1489.50444,0.00125
1487.44427,0.00133
1485.38410,0.00149
1483.32392,0.00166
1481.26375,0.00180
1479.20358,0.00192
1477.14341,0.00197
1475.08324,0.00198
1473.02306,0.00214
1470.96289,0.00249
1468.90272,0.00279
1466.84255,0.00300
1464.78238,0.00319
1462.72220,0.00328
1460.66203,0.00327
1458.60186,0.00336
1456.54169,0.00372
1454.48151,0.00410
1452.42134,0.00430
1450.36117,0.00442
1448.30100,0.00458
1446.24083,0.00481
1444.18065,0.00499
1442.12048,0.00509
1440.06031,0.00512
1438.00014,0.00504
1435.93997,0.00498
1433.87979,0.00516
1431.81962,0.00558
1429.75945,0.00609
1427.69928,0.00642
1425.63910,0.00654
1423.57893,0.00664
1421.51876,0.00682
1419.45859,0.00710
1417.39842,0.00741
1415.33824,0.00764
1413.27807,0.00785
1411.21790,0.00804
1409.15773,0.00812
1407.09756,0.00801
1405.03738,0.00778
1402.97721,0.00755
1400.91704,0.00736
1398.85687,0.00714
1396.79670,0.00689
1394.73652,0.00669
1392.67635,0.00666
1390.61618,0.00678
1388.55601,0.00687
1386.49583,0.00691
1384.43566,0.00699
1382.37549,0.00710
1380.31532,0.00719
1378.25515,0.00730
1376.19497,0.00748
1374.13480,0.00771
1372.07463,0.00792
1370.01446,0.00805
1367.95429,0.00806
1365.89411,0.00788
1363.83394,0.00760
1361.77377,0.00737
1359.71360,0.00724
1357.65343,0.00714
1355.59325,0.00708
1353.53308,0.00711
1351.47291,0.00717
1349.41274,0.00715
1347.35256,0.00702
1345.29239,0.00685
1343.23222,0.00668
1341.17205,0.00651
1339.11188,0.00635
1337.05170,0.00622
1334.99153,0.00614
1332.93136,0.00617
1330.87119,0.00624
1328.81102,0.00630
1326.75084,0.00635
1324.69067,0.00639
1322.63050,0.00640
1320.57033,0.00637
1318.51015,0.00634
1316.44998,0.00636
1314.38981,0.00637
1312.32964,0.00638
1310.26947,0.00642
1308.20929,0.00643
1306.14912,0.00632
1304.08895,0.00605
1302.02878,0.00573
1299.96861,0.00547
1297.90843,0.00537
1295.84826,0.00541
1293.78809,0.00539
1291.72792,0.00524
1289.66775,0.00510
1287.60757,0.00511
1285.54740,0.00517
1283.48723,0.00515
1281.42706,0.00509
1279.36688,0.00513
1277.30671,0.00523
1275.24654,0.00535
1273.18637,0.00557
1271.12620,0.00574
1269.06602,0.00581
1267.00585,0.00598
1264.94568,0.00637
1262.88551,0.00686
1260.82534,0.00736
1258.76516,0.00782
1256.70499,0.00817
1254.64482,0.00841
1252.58465,0.00857
1250.52447,0.00873
1248.46430,0.00888
1246.40413,0.00891
1244.34396,0.00890
1242.28379,0.00895
1240.22361,0.00889
1238.16344,0.00869
1236.10327,0.00853
1234.04310,0.00839
1231.98293,0.00814
1229.92275,0.00780
1227.86258,0.00741
1225.80241,0.00698
1223.74224,0.00653
1221.68207,0.00618
1219.62189,0.00590
1217.56172,0.00547
1215.50155,0.00498
1213.44138,0.00464
1211.38120,0.00438
1209.32103,0.00397
1207.26086,0.00340
1205.20069,0.00280
1203.14052,0.00224
1201.08034,0.00176
1199.02017,0.00139
1196.96000,0.00107
1194.89983,0.00077
1192.83966,0.00050
1190.77948,0.00025
1188.71931,0.00014
1186.65914,0.00014
1184.59897,0.00007
1182.53880,0.00000
1180.47862,0.00014
1178.41845,0.00054
1176.35828,0.00100
1174.29811,0.00141
1172.23793,0.00184
1170.17776,0.00244
1168.11759,0.00315
1166.05742,0.00383
1163.99725,0.00435
1161.93707,0.00486
1159.87690,0.00550
1157.81673,0.00615
1155.75656,0.00661
1153.69639,0.00707
1151.63621,0.00768
1149.57604,0.00823
1147.51587,0.00863
1145.45570,0.00896
1143.39552,0.00930
1141.33535,0.00961
1139.27518,0.00977
1137.21501,0.00986
1135.15484,0.00999
1133.09466,0.01022
1131.03449,0.01059
1128.97432,0.01107
1126.91415,0.01155
1124.85398,0.01212
1122.79380,0.01283
1120.73363,0.01349
1118.67346,0.01388
1116.61329,0.01410
1114.55312,0.01439
1112.49294,0.01497
1110.43277,0.01573
1108.37260,0.01645
1106.31243,0.01718
1104.25225,0.01807
1102.19208,0.01906
1100.13191,0.02010
1098.07174,0.02119
1096.01157,0.02224
1093.95139,0.02326
1091.89122,0.02434
1089.83105,0.02532
1087.77088,0.02607
1085.71071,0.02675
1083.65053,0.02755
1081.59036,0.02842
1079.53019,0.02937
1077.47002,0.03046
1075.40985,0.03167
1073.34967,0.03270
1071.28950,0.03352
1069.22933,0.03417
1067.16916,0.03454
1065.10898,0.03473
1063.04881,0.03507
1060.98864,0.03564
1058.92847,0.03622
1056.86830,0.03677
1054.80812,0.03732
1052.74795,0.03797
1050.68778,0.03888
1048.62761,0.03975
1046.56744,0.04026
1044.50726,0.04084
1042.44709,0.04185
1040.38692,0.04274
1038.32675,0.04308
1036.26657,0.04311
1034.20640,0.04291
1032.14623,0.04245
1030.08606,0.04202
1028.02589,0.04177
1025.96571,0.04145
1023.90554,0.04097
1021.84537,0.04043
1019.78520,0.04003
1017.72503,0.03985
1015.66485,0.03971
1013.60468,0.03952
1011.54451,0.03925
1009.48434,0.03884
1007.42417,0.03828
1005.36399,0.03753
1003.30382,0.03651
1001.24365,0.03534
999.18348,0.03418
997.12330,0.03308
995.06313,0.03220
993.00296,0.03162
990.94279,0.03094
988.88262,0.03001
986.82244,0.02929
984.76227,0.02897
982.70210,0.02867
980.64193,0.02824
978.58176,0.02789
976.52158,0.02766
974.46141,0.02722
972.40124,0.02637
970.34107,0.02551
968.28089,0.02479
966.22072,0.02406
964.16055,0.02349
962.10038,0.02295
960.04021,0.02209
957.98003,0.02111
955.91986,0.02036
953.85969,0.01981
951.79952,0.01925
949.73935,0.01865
947.67917,0.01806
945.61900,0.01743
943.55883,0.01666
941.49866,0.01557
939.43849,0.01417
937.37831,0.01290
935.31814,0.01195
933.25797,0.01107
931.19780,0.01025
929.13762,0.00948
927.07745,0.00871
925.01728,0.00819
922.95711,0.00790
920.89694,0.00749
918.83676,0.00703
916.77659,0.00675
914.71642,0.00646
912.65625,0.00606
910.59608,0.00577
908.53590,0.00548
906.47573,0.00510
904.41556,0.00488
902.35539,0.00490
900.29522,0.00506
898.23504,0.00533
896.17487,0.00555
894.11470,0.00564
892.05453,0.00565
889.99435,0.00559
887.93418,0.00542
885.87401,0.00518
883.81384,0.00501
881.75367,0.00477
879.69349,0.00435
877.63332,0.00388
875.57315,0.00354
873.51298,0.00345
871.45281,0.00337
869.39263,0.00323
867.33246,0.00316
865.27229,0.00303
863.21212,0.00282
861.15194,0.00271
859.09177,0.00263
857.03160,0.00256
854.97143,0.00249
852.91126,0.00238
850.85108,0.00231
848.79091,0.00210
846.73074,0.00170
844.67057,0.00145
842.61040,0.00144
840.55022,0.00138
838.49005,0.00103
836.42988,0.00064
834.36971,0.00059
832.30954,0.00041
830.24936,0.00000
828.18919,-0.00008
826.12902,0.00015
824.06885,0.00036
822.00867,0.00040
819.94850,0.00048
817.88833,0.00080
815.82816,0.00119
813.76799,0.00128
811.70781,0.00105
809.64764,0.00111
807.58747,0.00151
805.52730,0.00175
803.46713,0.00181
801.40695,0.00174
799.34678,0.00149
797.28661,0.00106
795.22644,0.00050
793.16627,0.00020
791.10609,0.00026
789.04592,0.00025
786.98575,0.00014
784.92558,0.00019
782.86540,0.00037
780.80523,0.00063
778.74506,0.00097
776.68489,0.00104
774.62472,0.00075
772.56454,0.00032
770.50437,-0.00003
768.44420,0.00000
766.38403,0.00041
764.32386,0.00077
762.26368,0.00091
760.20351,0.00099
758.14334,0.00082
756.08317,0.00039
754.02299,0.00053
751.96282,0.00131
749.90265,0.00156
747.84248,0.00110
745.78231,0.00052
743.72213,0.00000
741.66196,-0.00003
739.60179,0.00063
737.54162,0.00113
735.48145,0.00094
733.42127,0.00043
731.36110,0.00037
729.30093,0.00073
727.24076,0.00080
725.18059,0.00051
723.12041,0.00028
721.06024,0.00001
719.00007,-0.00008
716.93990,0.00021
714.87972,0.00064
712.81955,0.00104
710.75938,0.00134
708.69921,0.00138
706.63904,0.00127
704.57886,0.00139
702.51869,0.00170
700.45852,0.00176
698.39835,0.00147
696.33818,0.00115
694.27800,0.00108
692.21783,0.00102
690.15766,0.00093
688.09749,0.00123
686.03731,0.00157
683.97714,0.00120
681.91697,0.00050
679.85680,0.00012
677.79663,0.00007
675.73645,0.00039
673.67628,0.00074
671.61611,0.00041
669.55594,-0.00003
667.49577,0.00055
665.43559,0.00136
663.37542,0.00176
661.31525,0.00194
659.25508,0.00185
657.19491,0.00108
655.13473,-0.00012
653.07456,-0.00052
651.01439,0.00051
648.95422,0.00161
646.89404,0.00125
644.83387,0.00045
642.77370,0.00084
640.71353,0.00194
638.65336,0.00231
636.59318,0.00172
634.53301,0.00107
632.47284,0.00069
630.41267,0.00028
628.35250,0.00001
626.29232,0.00041
624.23215,0.00095
622.17198,0.00050
620.11181,-0.00022
618.05164,-0.00022
615.99146,0.00000
613.93129,0.00015
611.87112,0.00092
609.81095,0.00134
607.75077,0.00080
605.69060,0.00038
603.63043,-0.00019
601.57026,-0.00049
599.51009,0.00000
