3996.73391,0.00015
3994.67373,0.00010
3992.61356,0.00000
3990.55339,0.00010
3988.49322,0.00022
3986.43305,0.00019
3984.37287,0.00023
3982.31270,0.00038
3980.25253,0.00047
3978.19236,0.00044
3976.13219,0.00055
3974.07201,0.00090
3972.01184,0.00109
3969.95167,0.00087
3967.89150,0.00062
3965.83133,0.00064
3963.77115,0.00072
3961.71098,0.00069
3959.65081,0.00059
3957.59064,0.00052
3955.53046,0.00053
3953.47029,0.00054
3951.41012,0.00056
3949.34995,0.00062
3947.28978,0.00061
3945.22960,0.00054
3943.16943,0.00051
3941.10926,0.00058
3939.04909,0.00072
3936.98892,0.00089
3934.92874,0.00094
3932.86857,0.00087
3930.80840,0.00088
3928.74823,0.00100
3926.68805,0.00094
3924.62788,0.00063
3922.56771,0.00033
3920.50754,0.00015
3918.44737,0.00004
3916.38719,0.00012
3914.32702,0.00054
3912.26685,0.00106
3910.20668,0.00122
3908.14651,0.00101
3906.08633,0.00078
3904.02616,0.00063
3901.96599,0.00038
3899.90582,0.00017
3897.84565,0.00029
3895.78547,0.00069
3893.72530,0.00091
3891.66513,0.00073
3889.60496,0.00039
3887.54478,0.00015
3885.48461,0.00003
3883.42444,0.00006
3881.36427,0.00025
3879.30410,0.00045
3877.24392,0.00048
3875.18375,0.00037
3873.12358,0.00039
3871.06341,0.00074
3869.00324,0.00117
3866.94306,0.00135
3864.88289,0.00124
3862.82272,0.00100
3860.76255,0.00085
3858.70237,0.00086
3856.64220,0.00086
3854.58203,0.00060
3852.52186,0.00017
3850.46169,0.00000
3848.40151,0.00010
3846.34134,0.00030
3844.28117,0.00057
3842.22100,0.00076
3840.16083,0.00069
3838.10065,0.00053
3836.04048,0.00044
3833.98031,0.00047
3831.92014,0.00069
3829.85997,0.00090
3827.79979,0.00085
3825.73962,0.00067
3823.67945,0.00046
3821.61928,0.00012
3819.55910,0.00001
3817.49893,0.00035
3815.43876,0.00064
3813.37859,0.00067
3811.31842,0.00064
3809.25824,0.00063
3807.19807,0.00066
3805.13790,0.00066
3803.07773,0.00039
3801.01756,0.00003
3798.95738,0.00010
3796.89721,0.00049
3794.83704,0.00082
3792.77687,0.00098
3790.71670,0.00106
3788.65652,0.00112
3786.59635,0.00122
3784.53618,0.00129
3782.47601,0.00116
3780.41583,0.00091
3778.35566,0.00079
3776.29549,0.00080
3774.23532,0.00073
3772.17515,0.00058
3770.11497,0.00063
3768.05480,0.00099
3765.99463,0.00138
3763.93446,0.00160
3761.87429,0.00160
3759.81411,0.00141
3757.75394,0.00109
3755.69377,0.00085
3753.63360,0.00073
3751.57342,0.00053
3749.51325,0.00036
3747.45308,0.00042
3745.39291,0.00040
3743.33274,0.00023
3741.27256,0.00027
3739.21239,0.00042
3737.15222,0.00042
3735.09205,0.00030
3733.03188,0.00025
3730.97170,0.00044
3728.91153,0.00072
3726.85136,0.00080
3724.79119,0.00076
3722.73102,0.00092
3720.67084,0.00119
3718.61067,0.00136
3716.55050,0.00163
3714.49033,0.00196
3712.43015,0.00193
3710.36998,0.00146
3708.30981,0.00102
3706.24964,0.00093
3704.18947,0.00087
3702.12929,0.00076
3700.06912,0.00100
3698.00895,0.00149
3695.94878,0.00173
3693.88861,0.00157
3691.82843,0.00123
3689.76826,0.00085
3687.70809,0.00075
3685.64792,0.00100
3683.58775,0.00134
3681.52757,0.00169
3679.46740,0.00212
3677.40723,0.00263
3675.34706,0.00281
3673.28688,0.00242
3671.22671,0.00200
3669.16654,0.00194
3667.10637,0.00216
3665.04620,0.00237
3662.98602,0.00251
3660.92585,0.00268
3658.86568,0.00296
3656.80551,0.00342
3654.74534,0.00388
3652.68516,0.00413
3650.62499,0.00440
3648.56482,0.00480
3646.50465,0.00507
3644.44447,0.00525
3642.38430,0.00545
3640.32413,0.00567
3638.26396,0.00592
3636.20379,0.00620
3634.14361,0.00645
3632.08344,0.00657
3630.02327,0.00654
3627.96310,0.00667
3625.90293,0.00721
3623.84275,0.00812
3621.78258,0.00902
3619.72241,0.00942
3617.66224,0.00926
3615.60207,0.00924
3613.54189,0.00971
3611.48172,0.01016
3609.42155,0.01028
3607.36138,0.01055
3605.30120,0.01123
3603.24103,0.01185
3601.18086,0.01213
3599.12069,0.01248
3597.06052,0.01313
3595.00034,0.01374
3592.94017,0.01410
3590.88000,0.01444
3588.81983,0.01486
3586.75966,0.01513
3584.69948,0.01516
3582.63931,0.01534
3580.57914,0.01584
3578.51897,0.01640
3576.45879,0.01676
3574.39862,0.01700
3572.33845,0.01725
3570.27828,0.01744
3568.21811,0.01771
3566.15793,0.01827
3564.09776,0.01896
3562.03759,0.01948
3559.97742,0.01990
3557.91725,0.02023
3555.85707,0.02050
3553.79690,0.02090
3551.73673,0.02160
3549.67656,0.02240
3547.61639,0.02290
3545.55621,0.02298
3543.49604,0.02295
3541.43587,0.02313
3539.37570,0.02360
3537.31552,0.02416
3535.25535,0.02454
3533.19518,0.02466
3531.13501,0.02473
3529.07484,0.02492
3527.01466,0.02535
3524.95449,0.02596
3522.89432,0.02653
3520.83415,0.02693
3518.77398,0.02733
3516.71380,0.02779
3514.65363,0.02804
3512.59346,0.02812
3510.53329,0.02843
3508.47312,0.02899
3506.41294,0.02947
3504.35277,0.02988
3502.29260,0.03043
3500.23243,0.03085
3498.17225,0.03100
3496.11208,0.03124
3494.05191,0.03162
3491.99174,0.03190
3489.93157,0.03209
3487.87139,0.03227
3485.81122,0.03243
3483.75105,0.03267
3481.69088,0.03308
3479.63071,0.03358
3477.57053,0.03399
3475.51036,0.03429
3473.45019,0.03450
3471.39002,0.03468
3469.32984,0.03494
3467.26967,0.03527
3465.20950,0.03554
3463.14933,0.03583
3461.08916,0.03632
3459.02898,0.03675
3456.96881,0.03698
3454.90864,0.03726
3452.84847,0.03761
3450.78830,0.03788
3448.72812,0.03810
3446.66795,0.03844
3444.60778,0.03877
3442.54761,0.03901
3440.48744,0.03923
3438.42726,0.03943
3436.36709,0.03968
3434.30692,0.04011
3432.24675,0.04063
3430.18657,0.04100
3428.12640,0.04106
3426.06623,0.04103
3424.00606,0.04114
3421.94589,0.04139
3419.88571,0.04178
3417.82554,0.04218
3415.76537,0.04239
3413.70520,0.04252
3411.64503,0.04290
3409.58485,0.04341
3407.52468,0.04355
3405.46451,0.04317
3403.40434,0.04291
3401.34416,0.04320
3399.28399,0.04359
3397.22382,0.04390
3395.16365,0.04417
3393.10348,0.04432
3391.04330,0.04454
3388.98313,0.04480
3386.92296,0.04494
3384.86279,0.04510
3382.80262,0.04530
3380.74244,0.04537
3378.68227,0.04534
3376.62210,0.04543
3374.56193,0.04563
3372.50176,0.04578
3370.44158,0.04607
3368.38141,0.04645
3366.32124,0.04651
3364.26107,0.04644
3362.20089,0.04650
3360.14072,0.04665
3358.08055,0.04675
3356.02038,0.04678
3353.96021,0.04675
3351.90003,0.04669
3349.83986,0.04668
3347.77969,0.04667
3345.71952,0.04670
3343.65935,0.04696
3341.59917,0.04725
3339.53900,0.04729
3337.47883,0.04722
3335.41866,0.04718
3333.35849,0.04717
3331.29831,0.04725
3329.23814,0.04737
3327.17797,0.04743
3325.11780,0.04751
3323.05762,0.04772
3320.99745,0.04784
3318.93728,0.04777
3316.87711,0.04760
3314.81694,0.04742
3312.75676,0.04740
3310.69659,0.04746
3308.63642,0.04745
3306.57625,0.04736
3304.51608,0.04729
3302.45590,0.04725
3300.39573,0.04721
3298.33556,0.04729
3296.27539,0.04743
3294.21521,0.04760
3292.15504,0.04774
3290.09487,0.04766
3288.03470,0.04750
3285.97453,0.04751
3283.91435,0.04755
3281.85418,0.04736
3279.79401,0.04687
3277.73384,0.04658
3275.67367,0.04682
3273.61349,0.04711
3271.55332,0.04707
3269.49315,0.04687
3267.43298,0.04675
3265.37281,0.04676
3263.31263,0.04675
3261.25246,0.04666
3259.19229,0.04656
3257.13212,0.04644
3255.07194,0.04622
3253.01177,0.04608
3250.95160,0.04615
3248.89143,0.04629
3246.83126,0.04634
3244.77108,0.04616
3242.71091,0.04584
3240.65074,0.04557
3238.59057,0.04551
3236.53040,0.04548
3234.47022,0.04530
3232.41005,0.04507
3230.34988,0.04495
3228.28971,0.04493
3226.22954,0.04488
3224.16936,0.04466
3222.10919,0.04445
3220.04902,0.04433
3217.98885,0.04405
3215.92867,0.04369
3213.86850,0.04340
3211.80833,0.04310
3209.74816,0.04291
3207.68799,0.04279
3205.62781,0.04259
3203.56764,0.04245
3201.50747,0.04236
3199.44730,0.04219
3197.38713,0.04195
3195.32695,0.04163
3193.26678,0.04120
3191.20661,0.04078
3189.14644,0.04036
3187.08626,0.04002
3185.02609,0.03986
3182.96592,0.03964
3180.90575,0.03919
3178.84558,0.03873
3176.78540,0.03844
3174.72523,0.03822
3172.66506,0.03794
3170.60489,0.03774
3168.54472,0.03759
3166.48454,0.03734
3164.42437,0.03708
3162.36420,0.03680
3160.30403,0.03631
3158.24386,0.03566
3156.18368,0.03507
3154.12351,0.03469
3152.06334,0.03451
3150.00317,0.03439
3147.94299,0.03413
3145.88282,0.03362
3143.82265,0.03304
3141.76248,0.03262
3139.70231,0.03238
3137.64213,0.03231
3135.58196,0.03229
3133.52179,0.03201
3131.46162,0.03146
3129.40145,0.03092
3127.34127,0.03056
3125.28110,0.03034
3123.22093,0.03008
3121.16076,0.02981
3119.10058,0.02942
3117.04041,0.02891
3114.98024,0.02852
3112.92007,0.02828
3110.85990,0.02807
3108.79972,0.02776
3106.73955,0.02737
3104.67938,0.02704
3102.61921,0.02686
3100.55904,0.02668
3098.49886,0.02629
3096.43869,0.02572
3094.37852,0.02527
3092.31835,0.02491
3090.25818,0.02452
3088.19800,0.02428
3086.13783,0.02408
3084.07766,0.02380
3082.01749,0.02362
3079.95731,0.02352
3077.89714,0.02332
3075.83697,0.02302
3073.77680,0.02271
3071.71663,0.02239
3069.65645,0.02202
3067.59628,0.02165
3065.53611,0.02140
3063.47594,0.02124
3061.41577,0.02104
3059.35559,0.02073
3057.29542,0.02035
3055.23525,0.01993
3053.17508,0.01952
3051.11491,0.01916
3049.05473,0.01892
3046.99456,0.01877
3044.93439,0.01864
3042.87422,0.01850
3040.81404,0.01829
3038.75387,0.01804
3036.69370,0.01780
3034.63353,0.01758
3032.57336,0.01743
3030.51318,0.01737
3028.45301,0.01734
3026.39284,0.01725
3024.33267,0.01700
3022.27250,0.01668
3020.21232,0.01635
3018.15215,0.01606
3016.09198,0.01593
3014.03181,0.01588
3011.97163,0.01567
3009.91146,0.01535
3007.85129,0.01515
3005.79112,0.01513
3003.73095,0.01510
3001.67077,0.01502
2999.61060,0.01494
2997.55043,0.01493
2995.49026,0.01497
2993.43009,0.01483
2991.36991,0.01468
2989.30974,0.01478
2987.24957,0.01491
2985.18940,0.01506
2983.12923,0.01532
2981.06905,0.01536
2979.00888,0.01512
2976.94871,0.01493
2974.88854,0.01507
2972.82836,0.01543
2970.76819,0.01567
2968.70802,0.01583
2966.64785,0.01615
2964.58768,0.01655
2962.52750,0.01676
2960.46733,0.01691
2958.40716,0.01716
2956.34699,0.01748
2954.28682,0.01789
2952.22664,0.01814
2950.16647,0.01828
2948.10630,0.01862
2946.04613,0.01907
2943.98596,0.01941
2941.92578,0.01964
2939.86561,0.01980
2937.80544,0.01987
2935.74527,0.01994
2933.68509,0.02003
2931.62492,0.02011
2929.56475,0.02018
2927.50458,0.02012
2925.44441,0.01982
2923.38423,0.01954
2921.32406,0.01951
2919.26389,0.01944
2917.20372,0.01919
2915.14355,0.01894
2913.08337,0.01870
2911.02320,0.01841
2908.96303,0.01805
2906.90286,0.01775
2904.84268,0.01764
2902.78251,0.01763
2900.72234,0.01758
2898.66217,0.01755
2896.60200,0.01763
2894.54182,0.01758
2892.48165,0.01736
2890.42148,0.01724
2888.36131,0.01714
2886.30114,0.01698
2884.24096,0.01687
2882.18079,0.01682
2880.12062,0.01664
2878.06045,0.01626
2876.00028,0.01593
2873.94010,0.01582
2871.87993,0.01565
2869.81976,0.01532
2867.75959,0.01502
2865.69941,0.01479
2863.63924,0.01456
2861.57907,0.01445
2859.51890,0.01447
2857.45873,0.01435
2855.39855,0.01397
2853.33838,0.01359
2851.27821,0.01345
2849.21804,0.01337
2847.15787,0.01315
2845.09769,0.01287
2843.03752,0.01255
2840.97735,0.01224
2838.91718,0.01203
2836.85700,0.01182
2834.79683,0.01159
2832.73666,0.01151
2830.67649,0.01150
2828.61632,0.01139
2826.55614,0.01128
2824.49597,0.01119
2822.43580,0.01097
2820.37563,0.01071
2818.31546,0.01060
2816.25528,0.01064
2814.19511,0.01065
2812.13494,0.01053
2810.07477,0.01036
2808.01460,0.01020
2805.95442,0.01014
2803.89425,0.01018
2801.83408,0.01018
2799.77391,0.01007
2797.71373,0.00992
2795.65356,0.00977
2793.59339,0.00969
2791.53322,0.00972
2789.47305,0.00977
2787.41287,0.00979
2785.35270,0.00973
2783.29253,0.00956
2781.23236,0.00935
2779.17219,0.00915
2777.11201,0.00901
2775.05184,0.00907
2772.99167,0.00919
2770.93150,0.00912
2768.87133,0.00890
2766.81115,0.00870
2764.75098,0.00866
2762.69081,0.00875
2760.63064,0.00880
2758.57046,0.00881
2756.51029,0.00882
2754.45012,0.00881
2752.38995,0.00870
2750.32978,0.00851
2748.26960,0.00837
2746.20943,0.00839
2744.14926,0.00843
2742.08909,0.00835
2740.02892,0.00827
2737.96874,0.00831
2735.90857,0.00838
2733.84840,0.00836
2731.78823,0.00821
2729.72805,0.00802
2727.66788,0.00795
2725.60771,0.00799
2723.54754,0.00805
2721.48737,0.00804
2719.42719,0.00798
2717.36702,0.00794
2715.30685,0.00786
2713.24668,0.00785
2711.18651,0.00792
2709.12633,0.00782
2707.06616,0.00761
2705.00599,0.00749
2702.94582,0.00749
2700.88565,0.00751
2698.82547,0.00752
2696.76530,0.00755
2694.70513,0.00758
2692.64496,0.00752
2690.58478,0.00743
2688.52461,0.00732
2686.46444,0.00726
2684.40427,0.00728
2682.34410,0.00720
2680.28392,0.00706
2678.22375,0.00700
2676.16358,0.00693
2674.10341,0.00682
2672.04324,0.00671
2669.98306,0.00666
2667.92289,0.00663
2665.86272,0.00660
2663.80255,0.00662
2661.74238,0.00678
2659.68220,0.00698
2657.62203,0.00700
2655.56186,0.00685
2653.50169,0.00669
2651.44151,0.00655
2649.38134,0.00639
2647.32117,0.00622
2645.26100,0.00607
2643.20083,0.00605
2641.14065,0.00602
2639.08048,0.00581
2637.02031,0.00571
2634.96014,0.00591
2632.89997,0.00618
2630.83979,0.00633
2628.77962,0.00624
2626.71945,0.00594
2624.65928,0.00576
2622.59910,0.00563
2620.53893,0.00539
2618.47876,0.00540
2616.41859,0.00564
2614.35842,0.00577
2612.29824,0.00576
2610.23807,0.00549
2608.17790,0.00511
2606.11773,0.00489
2604.05756,0.00490
2601.99738,0.00506
2599.93721,0.00518
2597.87704,0.00520
2595.81687,0.00530
2593.75670,0.00540
2591.69652,0.00529
2589.63635,0.00509
2587.57618,0.00499
2585.51601,0.00503
2583.45583,0.00522
2581.39566,0.00530
2579.33549,0.00517
2577.27532,0.00507
2575.21515,0.00495
2573.15497,0.00456
2571.09480,0.00427
2569.03463,0.00438
2566.97446,0.00451
2564.91429,0.00450
2562.85411,0.00454
2560.79394,0.00456
2558.73377,0.00443
2556.67360,0.00416
2554.61342,0.00395
2552.55325,0.00391
2550.49308,0.00398
2548.43291,0.00413
2546.37274,0.00432
2544.31256,0.00429
2542.25239,0.00417
2540.19222,0.00428
2538.13205,0.00433
2536.07188,0.00404
2534.01170,0.00380
2531.95153,0.00390
2529.89136,0.00403
2527.83119,0.00405
2525.77102,0.00405
2523.71084,0.00402
2521.65067,0.00392
2519.59050,0.00379
2517.53033,0.00365
2515.47015,0.00369
2513.40998,0.00386
2511.34981,0.00376
2509.28964,0.00345
2507.22947,0.00326
2505.16929,0.00334
2503.10912,0.00362
2501.04895,0.00383
2498.98878,0.00404
2496.92861,0.00434
2494.86843,0.00453
2492.80826,0.00458
2490.74809,0.00448
2488.68792,0.00416
2486.62775,0.00377
2484.56757,0.00349
2482.50740,0.00346
2480.44723,0.00376
2478.38706,0.00401
2476.32688,0.00401
2474.26671,0.00401
2472.20654,0.00394
2470.14637,0.00373
2468.08620,0.00352
2466.02602,0.00341
2463.96585,0.00354
2461.90568,0.00381
2459.84551,0.00395
2457.78534,0.00383
2455.72516,0.00376
2453.66499,0.00390
2451.60482,0.00398
2449.54465,0.00399
2447.48447,0.00408
2445.42430,0.00408
2443.36413,0.00392
2441.30396,0.00377
2439.24379,0.00378
2437.18361,0.00374
2435.12344,0.00364
2433.06327,0.00369
2431.00310,0.00384
2428.94293,0.00387
2426.88275,0.00373
2424.82258,0.00353
2422.76241,0.00344
2420.70224,0.00351
2418.64207,0.00362
2416.58189,0.00363
2414.52172,0.00354
2412.46155,0.00347
2410.40138,0.00362
2408.34120,0.00391
2406.28103,0.00396
2404.22086,0.00368
2402.16069,0.00338
2400.10052,0.00321
2398.04034,0.00330
2395.98017,0.00341
2393.92000,0.00331
2391.85983,0.00304
2389.79966,0.00298
2387.73948,0.00327
2385.67931,0.00371
2383.61914,0.00399
2381.55897,0.00379
2379.49880,0.00322
2377.43862,0.00283
2375.37845,0.00284
2373.31828,0.00339
2371.25811,0.00421
2369.19793,0.00502
2367.13776,0.00558
2365.07759,0.00452
2363.01742,0.00180
2360.95725,0.00078
2358.89707,0.00139
2356.83690,0.00266
2354.77673,0.00393
2352.71656,0.00459
2350.65639,0.00524
2348.59621,0.00539
2346.53604,0.00412
2344.47587,0.00403
2342.41570,0.00394
2340.35552,0.00341
2338.29535,0.00300
2336.23518,0.00278
2334.17501,0.00311
2332.11484,0.00365
2330.05466,0.00405
2327.99449,0.00433
2325.93432,0.00497
2323.87415,0.00501
2321.81398,0.00458
2319.75380,0.00415
2317.69363,0.00458
2315.63346,0.00509
2313.57329,0.00498
2311.51312,0.00443
2309.45294,0.00399
2307.39277,0.00394
2305.33260,0.00398
2303.27243,0.00390
2301.21225,0.00384
2299.15208,0.00405
2297.09191,0.00423
2295.03174,0.00423
2292.97157,0.00419
2290.91139,0.00414
2288.85122,0.00407
2286.79105,0.00392
2284.73088,0.00373
2282.67071,0.00366
2280.61053,0.00392
2278.55036,0.00447
2276.49019,0.00506
2274.43002,0.00523
2272.36984,0.00481
2270.30967,0.00417
2268.24950,0.00377
2266.18933,0.00348
2264.12916,0.00321
2262.06898,0.00323
2260.00881,0.00342
2257.94864,0.00362
2255.88847,0.00376
2253.82830,0.00380
2251.76812,0.00377
2249.70795,0.00371
2247.64778,0.00363
2245.58761,0.00367
2243.52744,0.00361
2241.46726,0.00316
2239.40709,0.00292
2237.34692,0.00357
2235.28675,0.00423
2233.22657,0.00412
2231.16640,0.00385
2229.10623,0.00361
2227.04606,0.00317
2224.98589,0.00286
2222.92571,0.00262
2220.86554,0.00252
2218.80537,0.00293
2216.74520,0.00320
2214.68503,0.00286
2212.62485,0.00291
2210.56468,0.00372
2208.50451,0.00431
2206.44434,0.00398
2204.38417,0.00322
2202.32399,0.00289
2200.26382,0.00290
2198.20365,0.00281
2196.14348,0.00307
2194.08330,0.00350
2192.02313,0.00347
2189.96296,0.00358
2187.90279,0.00399
2185.84262,0.00456
2183.78244,0.00491
2181.72227,0.00427
2179.66210,0.00306
2177.60193,0.00233
2175.54176,0.00272
2173.48158,0.00389
2171.42141,0.00484
2169.36124,0.00461
2167.30107,0.00363
2165.24089,0.00350
2163.18072,0.00442
2161.12055,0.00541
2159.06038,0.00473
2157.00021,0.00179
2154.94003,0.00000
2152.87986,0.00091
2150.81969,0.00220
2148.75952,0.00266
2146.69935,0.00269
2144.63917,0.00257
2142.57900,0.00245
2140.51883,0.00260
2138.45866,0.00295
2136.39849,0.00296
2134.33831,0.00281
2132.27814,0.00295
2130.21797,0.00316
2128.15780,0.00329
2126.09762,0.00363
2124.03745,0.00398
2121.97728,0.00379
2119.91711,0.00355
2117.85694,0.00404
2115.79676,0.00459
2113.73659,0.00444
2111.67642,0.00416
2109.61625,0.00429
2107.55608,0.00408
2105.49590,0.00334
2103.43573,0.00333
2101.37556,0.00393
2099.31539,0.00371
2097.25521,0.00312
2095.19504,0.00325
2093.13487,0.00378
2091.07470,0.00386
2089.01453,0.00368
2086.95435,0.00373
2084.89418,0.00371
2082.83401,0.00338
2080.77384,0.00317
2078.71367,0.00320
2076.65349,0.00340
2074.59332,0.00396
2072.53315,0.00455
2070.47298,0.00457
2068.41281,0.00416
2066.35263,0.00393
2064.29246,0.00398
2062.23229,0.00417
2060.17212,0.00427
2058.11194,0.00390
2056.05177,0.00339
2053.99160,0.00367
2051.93143,0.00430
2049.87126,0.00429
2047.81108,0.00421
2045.75091,0.00429
2043.69074,0.00392
2041.63057,0.00350
2039.57040,0.00398
2037.51022,0.00483
2035.45005,0.00417
2033.38988,0.00257
2031.32971,0.00211
2029.26954,0.00270
2027.20936,0.00325
2025.14919,0.00292
2023.08902,0.00201
2021.02885,0.00174
2018.96867,0.00171
2016.90850,0.00086
2014.84833,0.00000
2012.78816,0.00038
2010.72799,0.00124
2008.66781,0.00110
2006.60764,0.00038
2004.54747,-0.00002
2002.48730,0.00032
2000.42713,0.00158
1998.36695,0.00297
1996.30678,0.00346
1994.24661,0.00284
1992.18644,0.00191
1990.12626,0.00161
1988.06609,0.00203
1986.00592,0.00241
1983.94575,0.00229
1981.88558,0.00178
1979.82540,0.00087
1977.76523,0.00014
1975.70506,0.00029
1973.64489,0.00077
1971.58472,0.00117
1969.52454,0.00153
1967.46437,0.00171
1965.40420,0.00167
1963.34403,0.00170
1961.28386,0.00178
1959.22368,0.00142
1957.16351,0.00095
1955.10334,0.00111
1953.04317,0.00162
1950.98299,0.00181
1948.92282,0.00188
1946.86265,0.00207
1944.80248,0.00178
1942.74231,0.00097
1940.68213,0.00039
1938.62196,0.00030
1936.56179,0.00055
1934.50162,0.00086
1932.44145,0.00112
1930.38127,0.00141
1928.32110,0.00155
1926.26093,0.00147
1924.20076,0.00129
1922.14059,0.00087
1920.08041,0.00030
1918.02024,0.00022
1915.96007,0.00074
1913.89990,0.00118
1911.83972,0.00120
1909.77955,0.00102
1907.71938,0.00092
1905.65921,0.00098
1903.59904,0.00103
1901.53886,0.00087
1899.47869,0.00059
1897.41852,0.00043
1895.35835,0.00060
1893.29818,0.00099
1891.23800,0.00116
1889.17783,0.00107
1887.11766,0.00104
1885.05749,0.00126
1882.99731,0.00164
1880.93714,0.00183
1878.87697,0.00167
1876.81680,0.00129
1874.75663,0.00093
1872.69645,0.00068
1870.63628,0.00041
1868.57611,0.00013
1866.51594,0.00004
1864.45577,0.00011
1862.39559,0.00021
1860.33542,0.00029
1858.27525,0.00042
1856.21508,0.00054
1854.15491,0.00052
1852.09473,0.00037
1850.03456,0.00032
1847.97439,0.00045
1845.91422,0.00044
1843.85404,0.00016
1841.79387,-0.00005
1839.73370,0.00010
1837.67353,0.00054
1835.61336,0.00093
1833.55318,0.00103
1831.49301,0.00098
1829.43284,0.00083
1827.37267,0.00062
1825.31250,0.00059
1823.25232,0.00073
1821.19215,0.00074
1819.13198,0.00059
1817.07181,0.00041
1815.01163,0.00030
1812.95146,0.00025
1810.89129,0.00030
1808.83112,0.00040
1806.77095,0.00043
1804.71077,0.00036
1802.65060,0.00019
1800.59043,0.00000
1798.53026,0.00000
1796.47009,0.00019
1794.40991,0.00026
1792.34974,0.00012
1790.28957,0.00004
1788.22940,0.00017
1786.16923,0.00039
1784.10905,0.00059
1782.04888,0.00066
1779.98871,0.00057
1777.92854,0.00038
1775.86836,0.00027
1773.80819,0.00030
1771.74802,0.00049
1769.68785,0.00080
1767.62768,0.00108
1765.56750,0.00126
1763.50733,0.00150
1761.44716,0.00194
1759.38699,0.00243
1757.32682,0.00285
1755.26664,0.00325
1753.20647,0.00371
1751.14630,0.00432
1749.08613,0.00503
1747.02596,0.00563
1744.96578,0.00610
1742.90561,0.00651
1740.84544,0.00682
1738.78527,0.00697
1736.72509,0.00707
1734.66492,0.00726
1732.60475,0.00742
1730.54458,0.00746
1728.48441,0.00761
1726.42423,0.00770
1724.36406,0.00751
1722.30389,0.00713
1720.24372,0.00674
1718.18355,0.00642
1716.12337,0.00619
1714.06320,0.00598
1712.00303,0.00578
1709.94286,0.00558
1707.88268,0.00531
1705.82251,0.00503
1703.76234,0.00488
1701.70217,0.00487
1699.64200,0.00492
1697.58182,0.00516
1695.52165,0.00565
1693.46148,0.00609
1691.40131,0.00637
1689.34114,0.00664
1687.28096,0.00693
1685.22079,0.00747
1683.16062,0.00845
1681.10045,0.00942
1679.04028,0.01003
1676.98010,0.01048
1674.91993,0.01105
1672.85976,0.01171
1670.79959,0.01255
1668.73941,0.01382
1666.67924,0.01509
1664.61907,0.01616
1662.55890,0.01718
1660.49873,0.01797
1658.43855,0.01835
1656.37838,0.01851
1654.31821,0.01908
1652.25804,0.02039
1650.19787,0.02122
1648.13769,0.02153
1646.07752,0.02215
1644.01735,0.02277
1641.95718,0.02297
1639.89701,0.02293
1637.83683,0.02287
1635.77666,0.02305
1633.71649,0.02343
1631.65632,0.02351
1629.59614,0.02324
1627.53597,0.02288
1625.47580,0.02267
1623.41563,0.02267
1621.35546,0.02263
1619.29528,0.02230
1617.23511,0.02190
1615.17494,0.02164
1613.11477,0.02129
1611.05460,0.02082
1608.99442,0.02033
1606.93425,0.01978
1604.87408,0.01912
1602.81391,0.01834
1600.75373,0.01744
1598.69356,0.01642
1596.63339,0.01534
1594.57322,0.01428
1592.51305,0.01324
1590.45287,0.01223
1588.39270,0.01131
1586.33253,0.01049
1584.27236,0.00964
1582.21219,0.00874
1580.15201,0.00783
1578.09184,0.00696
1576.03167,0.00616
1573.97150,0.00554
1571.91133,0.00505
1569.85115,0.00460
1567.79098,0.00423
1565.73081,0.00389
1563.67064,0.00358
1561.61046,0.00342
1559.55029,0.00330
1557.49012,0.00299
1555.42995,0.00257
1553.36978,0.00224
1551.30960,0.00200
1549.24943,0.00174
1547.18926,0.00139
1545.12909,0.00114
1543.06892,0.00111
1541.00874,0.00109
1538.94857,0.00090
1536.88840,0.00068
1534.82823,0.00051
1532.76805,0.00044
1530.70788,0.00037
1528.64771,0.00023
1526.58754,0.00014
1524.52737,0.00013
1522.46719,0.00008
1520.40702,0.00001
1518.34685,-0.00005
1516.28668,0.00001
1514.22651,0.00014
1512.16633,0.00017
1510.10616,0.00008
1508.04599,0.00012
1505.98582,0.00038
1503.92565,0.00049
1501.86547,0.00040
1499.80530,0.00035
1497.74513,0.00044
1495.68496,0.00060
1493.62478,0.00075
1491.56461,0.00091
1489.50444,0.00118
1487.44427,0.00143
1485.38410,0.00156
1483.32392,0.00169
1481.26375,0.00199
1479.20358,0.00243
1477.14341,0.00286
1475.08324,0.00330
1473.02306,0.00406
1470.96289,0.00509
1468.90272,0.00585
1466.84255,0.00627
1464.78238,0.00662
1462.72220,0.00697
1460.66203,0.00721
1458.60186,0.00747
1456.54169,0.00804
1454.48151,0.00875
1452.42134,0.00922
1450.36117,0.00949
1448.30100,0.00974
1446.24083,0.01003
1444.18065,0.01031
1442.12048,0.01058
1440.06031,0.01083
1438.00014,0.01113
1435.93997,0.01160
1433.87979,0.01211
1431.81962,0.01254
1429.75945,0.01293
1427.69928,0.01333
1425.63910,0.01383
1423.57893,0.01444
1421.51876,0.01495
1419.45859,0.01533
1417.39842,0.01566
1415.33824,0.01583
1413.27807,0.01575
1411.21790,0.01549
1409.15773,0.01521
1407.09756,0.01498
1405.03738,0.01473
1402.97721,0.01431
1400.91704,0.01369
1398.85687,0.01305
1396.79670,0.01262
1394.73652,0.01250
1392.67635,0.01250
1390.61618,0.01245
1388.55601,0.01244
1386.49583,0.01268
1384.43566,0.01310
1382.37549,0.01352
1380.31532,0.01387
1378.25515,0.01415
1376.19497,0.01446
1374.13480,0.01483
1372.07463,0.01511
1370.01446,0.01516
1367.95429,0.01506
1365.89411,0.01482
1363.83394,0.01451
1361.77377,0.01426
1359.71360,0.01405
1357.65343,0.01379
1355.59325,0.01358
1353.53308,0.01348
1351.47291,0.01336
1349.41274,0.01315
1347.35256,0.01289
1345.29239,0.01264
1343.23222,0.01244
1341.17205,0.01233
1339.11188,0.01220
1337.05170,0.01202
1334.99153,0.01200
1332.93136,0.01215
1330.87119,0.01230
1328.81102,0.01243
1326.75084,0.01255
1324.69067,0.01260
1322.63050,0.01259
1320.57033,0.01259
1318.51015,0.01268
1316.44998,0.01284
1314.38981,0.01297
1312.32964,0.01296
1310.26947,0.01278
1308.20929,0.01245
1306.14912,0.01209
1304.08895,0.01178
1302.02878,0.01148
1299.96861,0.01116
1297.90843,0.01090
1295.84826,0.01073
1293.78809,0.01062
1291.72792,0.01057
1289.66775,0.01048
1287.60757,0.01032
1285.54740,0.01025
1283.48723,0.01026
1281.42706,0.01018
1279.36688,0.01004
1277.30671,0.01004
1275.24654,0.01025
1273.18637,0.01062
1271.12620,0.01114
1269.06602,0.01172
1267.00585,0.01231
1264.94568,0.01297
1262.88551,0.01364
1260.82534,0.01422
1258.76516,0.01477
1256.70499,0.01533
1254.64482,0.01587
1252.58465,0.01626
1250.52447,0.01642
1248.46430,0.01650
1246.40413,0.01651
1244.34396,0.01629
1242.28379,0.01595
1240.22361,0.01562
1238.16344,0.01525
1236.10327,0.01477
1234.04310,0.01420
1231.98293,0.01365
1229.92275,0.01317
1227.86258,0.01259
1225.80241,0.01194
1223.74224,0.01138
1221.68207,0.01086
1219.62189,0.01032
1217.56172,0.00976
1215.50155,0.00906
1213.44138,0.00823
1211.38120,0.00741
1209.32103,0.00662
1207.26086,0.00583
1205.20069,0.00494
1203.14052,0.00396
1201.08034,0.00302
1199.02017,0.00209
1196.96000,0.00125
1194.89983,0.00070
1192.83966,0.00030
1190.77948,0.00000
1188.71931,-0.00018
1186.65914,-0.00009
1184.59897,0.00016
1182.53880,0.00046
1180.47862,0.00090
1178.41845,0.00167
1176.35828,0.00269
1174.29811,0.00371
1172.23793,0.00478
1170.17776,0.00596
1168.11759,0.00720
1166.05742,0.00855
1163.99725,0.00997
1161.93707,0.01126
1159.87690,0.01238
1157.81673,0.01339
1155.75656,0.01428
1153.69639,0.01507
1151.63621,0.01592
1149.57604,0.01684
1147.51587,0.01768
1145.45570,0.01837
1143.39552,0.01885
1141.33535,0.01908
1139.27518,0.01922
1137.21501,0.01941
1135.15484,0.01974
1133.09466,0.02025
1131.03449,0.02099
1128.97432,0.02197
1126.91415,0.02308
1124.85398,0.02419
1122.79380,0.02527
1120.73363,0.02633
1118.67346,0.02734
1116.61329,0.02831
1114.55312,0.02928
1112.49294,0.03022
1110.43277,0.03115
1108.37260,0.03220
1106.31243,0.03326
1104.25225,0.03433
1102.19208,0.03558
1100.13191,0.03704
1098.07174,0.03867
1096.01157,0.04047
1093.95139,0.04234
1091.89122,0.04404
1089.83105,0.04547
1087.77088,0.04665
1085.71071,0.04773
1083.65053,0.04894
1081.59036,0.05030
1079.53019,0.05170
1077.47002,0.05319
1075.40985,0.05475
1073.34967,0.05615
1071.28950,0.05724
1069.22933,0.05808
1067.16916,0.05874
1065.10898,0.05935
1063.04881,0.05990
1060.98864,0.06043
1058.92847,0.06110
1056.86830,0.06183
1054.80812,0.06248
1052.74795,0.06304
1050.68778,0.06369
1048.62761,0.06478
1046.56744,0.06611
1044.50726,0.06731
1042.44709,0.06831
1040.38692,0.06917
1038.32675,0.06993
1036.26657,0.07041
1034.20640,0.07047
1032.14623,0.07046
1030.08606,0.07060
1028.02589,0.07065
1025.96571,0.07058
1023.90554,0.07050
1021.84537,0.07030
1019.78520,0.06995
1017.72503,0.06961
1015.66485,0.06939
1013.60468,0.06928
1011.54451,0.06920
1009.48434,0.06902
1007.42417,0.06836
1005.36399,0.06715
1003.30382,0.06591
1001.24365,0.06487
999.18348,0.06378
997.12330,0.06248
995.06313,0.06105
993.00296,0.05983
990.94279,0.05896
988.88262,0.05813
986.82244,0.05710
984.76227,0.05611
982.70210,0.05527
980.64193,0.05448
978.58176,0.05369
976.52158,0.05268
974.46141,0.05144
972.40124,0.05033
970.34107,0.04936
968.28089,0.04823
966.22072,0.04697
964.16055,0.04584
962.10038,0.04473
960.04021,0.04347
957.98003,0.04219
955.91986,0.04091
953.85969,0.03953
951.79952,0.03807
949.73935,0.03660
947.67917,0.03509
945.61900,0.03333
943.55883,0.03107
941.49866,0.02834
939.43849,0.02544
937.37831,0.02263
935.31814,0.01997
933.25797,0.01743
931.19780,0.01518
929.13762,0.01350
927.07745,0.01212
925.01728,0.01076
922.95711,0.00944
920.89694,0.00833
918.83676,0.00763
916.77659,0.00700
914.71642,0.00617
912.65625,0.00537
910.59608,0.00470
908.53590,0.00433
906.47573,0.00438
904.41556,0.00451
902.35539,0.00445
900.29522,0.00444
898.23504,0.00478
896.17487,0.00517
894.11470,0.00514
892.05453,0.00493
889.99435,0.00489
887.93418,0.00482
885.87401,0.00437
883.81384,0.00362
881.75367,0.00304
879.69349,0.00271
877.63332,0.00240
875.57315,0.00229
873.51298,0.00247
871.45281,0.00263
869.39263,0.00263
867.33246,0.00247
865.27229,0.00224
863.21212,0.00199
861.15194,0.00160
859.09177,0.00134
857.03160,0.00152
854.97143,0.00175
852.91126,0.00162
850.85108,0.00127
848.79091,0.00092
846.73074,0.00082
844.67057,0.00099
842.61040,0.00087
840.55022,0.00036
838.49005,0.00000
836.42988,-0.00023
834.36971,-0.00049
832.30954,-0.00070
830.24936,-0.00062
828.18919,-0.00051
826.12902,-0.00057
824.06885,-0.00051
822.00867,-0.00044
819.94850,-0.00050
817.88833,-0.00045
815.82816,-0.00007
813.76799,0.00052
811.70781,0.00090
809.64764,0.00099
807.58747,0.00107
805.52730,0.00120
803.46713,0.00145
801.40695,0.00168
799.34678,0.00157
797.28661,0.00116
795.22644,0.00057
793.16627,0.00000
791.10609,-0.00017
789.04592,0.00025
786.98575,0.00083
784.92558,0.00112
782.86540,0.00102
780.80523,0.00062
778.74506,0.00023
776.68489,-0.00011
774.62472,-0.00052
772.56454,-0.00071
770.50437,-0.00062
768.44420,-0.00062
766.38403,-0.00077
764.32386,-0.00086
762.26368,-0.00061
760.20351,0.00003
758.14334,0.00060
756.08317,0.00065
754.02299,0.00032
751.96282,0.00000
749.90265,0.00003
747.84248,0.00016
745.78231,-0.00011
743.72213,-0.00051
741.66196,-0.00085
739.60179,-0.00114
737.54162,-0.00097
735.48145,-0.00053
733.42127,-0.00040
731.36110,-0.00048
729.30093,-0.00049
727.24076,-0.00052
725.18059,-0.00065
723.12041,-0.00061
721.06024,-0.00030
719.00007,0.00054
716.93990,0.00104
714.87972,0.00108
712.81955,0.00123
710.75938,0.00172
708.69921,0.00236
706.63904,0.00271
704.57886,0.00274
702.51869,0.00280
700.45852,0.00289
698.39835,0.00283
696.33818,0.00245
694.27800,0.00179
692.21783,0.00135
690.15766,0.00150
688.09749,0.00172
686.03731,0.00135
683.97714,0.00057
681.91697,0.00040
679.85680,0.00101
677.79663,0.00145
675.73645,0.00138
673.67628,0.00160
671.61611,0.00232
669.55594,0.00105
667.49577,-0.00066
665.43559,0.00168
663.37542,0.00135
661.31525,0.00118
659.25508,0.00094
657.19491,0.00018
655.13473,0.00019
653.07456,0.00087
651.01439,0.00099
648.95422,0.00078
646.89404,0.00127
644.83387,0.00213
642.77370,0.00260
640.71353,0.00236
638.65336,0.00180
636.59318,0.00126
634.53301,0.00094
632.47284,0.00106
630.41267,0.00171
628.35250,0.00236
626.29232,0.00200
624.23215,0.00112
622.17198,0.00161
620.11181,0.00234
618.05164,0.00149
615.99146,0.00068
613.93129,0.00087
611.87112,-0.00004
609.81095,-0.00174
607.75077,-0.00198
605.69060,-0.00092
603.63043,0.00013
601.57026,0.00044
599.51009,0.00000
