3996.73391,0.00031
3994.67373,0.00013
3992.61356,0.00000
3990.55339,0.00004
3988.49322,0.00012
3986.43305,0.00027
3984.37287,0.00050
3982.31270,0.00063
3980.25253,0.00056
3978.19236,0.00047
3976.13219,0.00046
3974.07201,0.00037
3972.01184,0.00026
3969.95167,0.00027
3967.89150,0.00041
3965.83133,0.00065
3963.77115,0.00094
3961.71098,0.00095
3959.65081,0.00071
3957.59064,0.00065
3955.53046,0.00066
3953.47029,0.00066
3951.41012,0.00084
3949.34995,0.00099
3947.28978,0.00072
3945.22960,0.00063
3943.16943,0.00093
3941.10926,0.00068
3939.04909,0.00026
3936.98892,0.00026
3934.92874,0.00069
3932.86857,0.00124
3930.80840,0.00115
3928.74823,0.00063
3926.68805,0.00068
3924.62788,0.00098
3922.56771,0.00078
3920.50754,0.00086
3918.44737,0.00134
3916.38719,0.00132
3914.32702,0.00074
3912.26685,0.00051
3910.20668,0.00049
3908.14651,0.00047
3906.08633,0.00089
3904.02616,0.00114
3901.96599,0.00096
3899.90582,0.00121
3897.84565,0.00096
3895.78547,0.00048
3893.72530,0.00115
3891.66513,0.00185
3889.60496,0.00098
3887.54478,0.00061
3885.48461,0.00085
3883.42444,0.00048
3881.36427,0.00102
3879.30410,0.00099
3877.24392,0.00032
3875.18375,0.00069
3873.12358,0.00100
3871.06341,0.00143
3869.00324,0.00124
3866.94306,0.00084
3864.88289,0.00163
3862.82272,0.00155
3860.76255,0.00058
3858.70237,0.00000
3856.64220,0.00076
3854.58203,0.00278
3852.52186,0.00266
3850.46169,0.00069
3848.40151,0.00013
3846.34134,0.00072
3844.28117,0.00120
3842.22100,0.00093
3840.16083,0.00089
3838.10065,0.00119
3836.04048,0.00094
3833.98031,0.00082
3831.92014,0.00092
3829.85997,0.00078
3827.79979,0.00098
3825.73962,0.00082
3823.67945,0.00102
3821.61928,0.00202
3819.55910,0.00134
3817.49893,0.00149
3815.43876,0.00237
3813.37859,0.00162
3811.31842,0.00101
3809.25824,0.00161
3807.19807,0.00214
3805.13790,0.00121
3803.07773,0.00157
3801.01756,0.00232
3798.95738,0.00149
3796.89721,0.00143
3794.83704,0.00148
3792.77687,0.00157
3790.71670,0.00197
3788.65652,0.00209
3786.59635,0.00204
3784.53618,0.00158
3782.47601,0.00103
3780.41583,0.00146
3778.35566,0.00163
3776.29549,0.00111
3774.23532,0.00105
3772.17515,0.00171
3770.11497,0.00227
3768.05480,0.00187
3765.99463,0.00147
3763.93446,0.00100
3761.87429,0.00117
3759.81411,0.00198
3757.75394,0.00156
3755.69377,0.00053
3753.63360,0.00100
3751.57342,0.00217
3749.51325,0.00118
3747.45308,0.00001
3745.39291,0.00142
3743.33274,0.00169
3741.27256,0.00033
3739.21239,0.00033
3737.15222,0.00156
3735.09205,0.00228
3733.03188,0.00189
3730.97170,0.00112
3728.91153,0.00088
3726.85136,0.00140
3724.79119,0.00160
3722.73102,0.00165
3720.67084,0.00168
3718.61067,0.00133
3716.55050,0.00072
3714.49033,0.00092
3712.43015,0.00211
3710.36998,0.00251
3708.30981,0.00175
3706.24964,0.00114
3704.18947,0.00153
3702.12929,0.00212
3700.06912,0.00156
3698.00895,0.00085
3695.94878,0.00064
3693.88861,0.00071
3691.82843,0.00160
3689.76826,0.00238
3687.70809,0.00136
3685.64792,0.00023
3683.58775,0.00069
3681.52757,0.00151
3679.46740,0.00176
3677.40723,0.00234
3675.34706,0.00232
3673.28688,0.00065
3671.22671,0.00132
3669.16654,0.00228
3667.10637,0.00136
3665.04620,0.00111
3662.98602,0.00139
3660.92585,0.00119
3658.86568,0.00113
3656.80551,0.00134
3654.74534,0.00054
3652.68516,0.00066
3650.62499,0.00286
3648.56482,0.00388
3646.50465,0.00263
3644.44447,0.00142
3642.38430,0.00146
3640.32413,0.00176
3638.26396,0.00171
3636.20379,0.00145
3634.14361,0.00111
3632.08344,0.00119
3630.02327,0.00278
3627.96310,0.00315
3625.90293,0.00141
3623.84275,0.00068
3621.78258,0.00153
3619.72241,0.00238
3617.66224,0.00161
3615.60207,0.00100
3613.54189,0.00147
3611.48172,0.00159
3609.42155,0.00185
3607.36138,0.00226
3605.30120,0.00220
3603.24103,0.00237
3601.18086,0.00259
3599.12069,0.00227
3597.06052,0.00201
3595.00034,0.00199
3592.94017,0.00158
3590.88000,0.00149
3588.81983,0.00249
3586.75966,0.00293
3584.69948,0.00220
3582.63931,0.00193
3580.57914,0.00212
3578.51897,0.00219
3576.45879,0.00212
3574.39862,0.00187
3572.33845,0.00154
3570.27828,0.00176
3568.21811,0.00276
3566.15793,0.00318
3564.09776,0.00265
3562.03759,0.00253
3559.97742,0.00281
3557.91725,0.00277
3555.85707,0.00249
3553.79690,0.00240
3551.73673,0.00232
3549.67656,0.00234
3547.61639,0.00295
3545.55621,0.00336
3543.49604,0.00296
3541.43587,0.00258
3539.37570,0.00265
3537.31552,0.00284
3535.25535,0.00290
3533.19518,0.00298
3531.13501,0.00320
3529.07484,0.00331
3527.01466,0.00315
3524.95449,0.00310
3522.89432,0.00327
3520.83415,0.00333
3518.77398,0.00346
3516.71380,0.00358
3514.65363,0.00355
3512.59346,0.00344
3510.53329,0.00326
3508.47312,0.00293
3506.41294,0.00284
3504.35277,0.00329
3502.29260,0.00345
3500.23243,0.00327
3498.17225,0.00338
3496.11208,0.00352
3494.05191,0.00340
3491.99174,0.00331
3489.93157,0.00337
3487.87139,0.00343
3485.81122,0.00343
3483.75105,0.00361
3481.69088,0.00380
3479.63071,0.00369
3477.57053,0.00370
3475.51036,0.00385
3473.45019,0.00375
3471.39002,0.00356
3469.32984,0.00358
3467.26967,0.00369
3465.20950,0.00372
3463.14933,0.00383
3461.08916,0.00393
3459.02898,0.00395
3456.96881,0.00402
3454.90864,0.00404
3452.84847,0.00391
3450.78830,0.00381
3448.72812,0.00409
3446.66795,0.00423
3444.60778,0.00394
3442.54761,0.00387
3440.48744,0.00405
3438.42726,0.00428
3436.36709,0.00435
3434.30692,0.00423
3432.24675,0.00423
3430.18657,0.00443
3428.12640,0.00454
3426.06623,0.00448
3424.00606,0.00439
3421.94589,0.00431
3419.88571,0.00407
3417.82554,0.00390
3415.76537,0.00410
3413.70520,0.00430
3411.64503,0.00431
3409.58485,0.00428
3407.52468,0.00419
3405.46451,0.00419
3403.40434,0.00436
3401.34416,0.00448
3399.28399,0.00439
3397.22382,0.00432
3395.16365,0.00429
3393.10348,0.00441
3391.04330,0.00441
3388.98313,0.00428
3386.92296,0.00437
3384.86279,0.00465
3382.80262,0.00473
3380.74244,0.00461
3378.68227,0.00460
3376.62210,0.00472
3374.56193,0.00475
3372.50176,0.00456
3370.44158,0.00440
3368.38141,0.00459
3366.32124,0.00485
3364.26107,0.00484
3362.20089,0.00479
3360.14072,0.00479
3358.08055,0.00467
3356.02038,0.00449
3353.96021,0.00442
3351.90003,0.00455
3349.83986,0.00474
3347.77969,0.00488
3345.71952,0.00499
3343.65935,0.00494
3341.59917,0.00479
3339.53900,0.00480
3337.47883,0.00499
3335.41866,0.00514
3333.35849,0.00515
3331.29831,0.00515
3329.23814,0.00514
3327.17797,0.00511
3325.11780,0.00512
3323.05762,0.00509
3320.99745,0.00502
3318.93728,0.00495
3316.87711,0.00490
3314.81694,0.00492
3312.75676,0.00491
3310.69659,0.00489
3308.63642,0.00487
3306.57625,0.00485
3304.51608,0.00504
3302.45590,0.00527
3300.39573,0.00529
3298.33556,0.00519
3296.27539,0.00515
3294.21521,0.00516
3292.15504,0.00508
3290.09487,0.00485
3288.03470,0.00467
3285.97453,0.00472
3283.91435,0.00482
3281.85418,0.00489
3279.79401,0.00501
3277.73384,0.00504
3275.67367,0.00499
3273.61349,0.00507
3271.55332,0.00515
3269.49315,0.00515
3267.43298,0.00514
3265.37281,0.00507
3263.31263,0.00495
3261.25246,0.00486
3259.19229,0.00491
3257.13212,0.00504
3255.07194,0.00508
3253.01177,0.00499
3250.95160,0.00500
3248.89143,0.00518
3246.83126,0.00523
3244.77108,0.00503
3242.71091,0.00474
3240.65074,0.00455
3238.59057,0.00463
3236.53040,0.00493
3234.47022,0.00505
3232.41005,0.00497
3230.34988,0.00492
3228.28971,0.00492
3226.22954,0.00489
3224.16936,0.00482
3222.10919,0.00475
3220.04902,0.00471
3217.98885,0.00462
3215.92867,0.00444
3213.86850,0.00429
3211.80833,0.00437
3209.74816,0.00457
3207.68799,0.00457
3205.62781,0.00454
3203.56764,0.00471
3201.50747,0.00491
3199.44730,0.00485
3197.38713,0.00464
3195.32695,0.00455
3193.26678,0.00461
3191.20661,0.00469
3189.14644,0.00471
3187.08626,0.00466
3185.02609,0.00455
3182.96592,0.00440
3180.90575,0.00433
3178.84558,0.00437
3176.78540,0.00429
3174.72523,0.00415
3172.66506,0.00414
3170.60489,0.00421
3168.54472,0.00429
3166.48454,0.00435
3164.42437,0.00434
3162.36420,0.00431
3160.30403,0.00431
3158.24386,0.00441
3156.18368,0.00459
3154.12351,0.00459
3152.06334,0.00443
3150.00317,0.00437
3147.94299,0.00439
3145.88282,0.00435
3143.82265,0.00422
3141.76248,0.00410
3139.70231,0.00398
3137.64213,0.00392
3135.58196,0.00397
3133.52179,0.00403
3131.46162,0.00397
3129.40145,0.00398
3127.34127,0.00415
3125.28110,0.00424
3123.22093,0.00409
3121.16076,0.00379
3119.10058,0.00365
3117.04041,0.00377
3114.98024,0.00389
3112.92007,0.00391
3110.85990,0.00386
3108.79972,0.00372
3106.73955,0.00359
3104.67938,0.00363
3102.61921,0.00372
3100.55904,0.00361
3098.49886,0.00344
3096.43869,0.00344
3094.37852,0.00339
3092.31835,0.00334
3090.25818,0.00343
3088.19800,0.00360
3086.13783,0.00371
3084.07766,0.00365
3082.01749,0.00360
3079.95731,0.00368
3077.89714,0.00370
3075.83697,0.00351
3073.77680,0.00336
3071.71663,0.00341
3069.65645,0.00351
3067.59628,0.00361
3065.53611,0.00368
3063.47594,0.00357
3061.41577,0.00334
3059.35559,0.00321
3057.29542,0.00324
3055.23525,0.00332
3053.17508,0.00340
3051.11491,0.00352
3049.05473,0.00349
3046.99456,0.00333
3044.93439,0.00323
3042.87422,0.00321
3040.81404,0.00319
3038.75387,0.00320
3036.69370,0.00320
3034.63353,0.00322
3032.57336,0.00331
3030.51318,0.00340
3028.45301,0.00339
3026.39284,0.00332
3024.33267,0.00321
3022.27250,0.00313
3020.21232,0.00309
3018.15215,0.00301
3016.09198,0.00287
3014.03181,0.00275
3011.97163,0.00278
3009.91146,0.00288
3007.85129,0.00298
3005.79112,0.00311
3003.73095,0.00326
3001.67077,0.00338
2999.61060,0.00335
2997.55043,0.00317
2995.49026,0.00309
2993.43009,0.00313
2991.36991,0.00311
2989.30974,0.00296
2987.24957,0.00285
2985.18940,0.00298
2983.12923,0.00318
2981.06905,0.00320
2979.00888,0.00305
2976.94871,0.00298
2974.88854,0.00315
2972.82836,0.00341
2970.76819,0.00349
2968.70802,0.00339
2966.64785,0.00328
2964.58768,0.00323
2962.52750,0.00318
2960.46733,0.00315
2958.40716,0.00324
2956.34699,0.00337
2954.28682,0.00344
2952.22664,0.00345
2950.16647,0.00346
2948.10630,0.00353
2946.04613,0.00365
2943.98596,0.00376
2941.92578,0.00389
2939.86561,0.00401
2937.80544,0.00400
2935.74527,0.00384
2933.68509,0.00362
2931.62492,0.00347
2929.56475,0.00348
2927.50458,0.00361
2925.44441,0.00366
2923.38423,0.00353
2921.32406,0.00337
2919.26389,0.00325
2917.20372,0.00314
2915.14355,0.00310
2913.08337,0.00317
2911.02320,0.00331
2908.96303,0.00343
2906.90286,0.00347
2904.84268,0.00341
2902.78251,0.00331
2900.72234,0.00325
2898.66217,0.00329
2896.60200,0.00343
2894.54182,0.00358
2892.48165,0.00366
2890.42148,0.00371
2888.36131,0.00373
2886.30114,0.00363
2884.24096,0.00351
2882.18079,0.00351
2880.12062,0.00351
2878.06045,0.00342
2876.00028,0.00333
2873.94010,0.00330
2871.87993,0.00331
2869.81976,0.00337
2867.75959,0.00345
2865.69941,0.00352
2863.63924,0.00363
2861.57907,0.00366
2859.51890,0.00349
2857.45873,0.00331
2855.39855,0.00325
2853.33838,0.00316
2851.27821,0.00298
2849.21804,0.00288
2847.15787,0.00297
2845.09769,0.00311
2843.03752,0.00310
2840.97735,0.00311
2838.91718,0.00322
2836.85700,0.00326
2834.79683,0.00321
2832.73666,0.00309
2830.67649,0.00302
2828.61632,0.00308
2826.55614,0.00311
2824.49597,0.00310
2822.43580,0.00315
2820.37563,0.00317
2818.31546,0.00309
2816.25528,0.00298
2814.19511,0.00294
2812.13494,0.00297
2810.07477,0.00303
2808.01460,0.00310
2805.95442,0.00314
2803.89425,0.00302
2801.83408,0.00285
2799.77391,0.00281
2797.71373,0.00292
2795.65356,0.00323
2793.59339,0.00344
2791.53322,0.00336
2789.47305,0.00325
2787.41287,0.00316
2785.35270,0.00300
2783.29253,0.00295
2781.23236,0.00299
2779.17219,0.00298
2777.11201,0.00298
2775.05184,0.00310
2772.99167,0.00325
2770.93150,0.00329
2768.87133,0.00320
2766.81115,0.00302
2764.75098,0.00286
2762.69081,0.00288
2760.63064,0.00303
2758.57046,0.00311
2756.51029,0.00308
2754.45012,0.00303
2752.38995,0.00303
2750.32978,0.00309
2748.26960,0.00313
2746.20943,0.00300
2744.14926,0.00287
2742.08909,0.00285
2740.02892,0.00277
2737.96874,0.00278
2735.90857,0.00297
2733.84840,0.00307
2731.78823,0.00303
2729.72805,0.00295
2727.66788,0.00284
2725.60771,0.00277
2723.54754,0.00284
2721.48737,0.00293
2719.42719,0.00294
2717.36702,0.00287
2715.30685,0.00288
2713.24668,0.00297
2711.18651,0.00297
2709.12633,0.00294
2707.06616,0.00295
2705.00599,0.00297
2702.94582,0.00291
2700.88565,0.00277
2698.82547,0.00270
2696.76530,0.00275
2694.70513,0.00284
2692.64496,0.00286
2690.58478,0.00285
2688.52461,0.00288
2686.46444,0.00292
2684.40427,0.00289
2682.34410,0.00291
2680.28392,0.00305
2678.22375,0.00314
2676.16358,0.00311
2674.10341,0.00298
2672.04324,0.00291
2669.98306,0.00295
2667.92289,0.00307
2665.86272,0.00317
2663.80255,0.00316
2661.74238,0.00307
2659.68220,0.00300
2657.62203,0.00299
2655.56186,0.00303
2653.50169,0.00299
2651.44151,0.00286
2649.38134,0.00284
2647.32117,0.00297
2645.26100,0.00322
2643.20083,0.00337
2641.14065,0.00326
2639.08048,0.00306
2637.02031,0.00298
2634.96014,0.00300
2632.89997,0.00303
2630.83979,0.00299
2628.77962,0.00294
2626.71945,0.00296
2624.65928,0.00302
2622.59910,0.00307
2620.53893,0.00309
2618.47876,0.00298
2616.41859,0.00281
2614.35842,0.00274
2612.29824,0.00273
2610.23807,0.00276
2608.17790,0.00280
2606.11773,0.00286
2604.05756,0.00300
2601.99738,0.00311
2599.93721,0.00301
2597.87704,0.00282
2595.81687,0.00272
2593.75670,0.00265
2591.69652,0.00263
2589.63635,0.00266
2587.57618,0.00269
2585.51601,0.00279
2583.45583,0.00293
2581.39566,0.00297
2579.33549,0.00290
2577.27532,0.00268
2575.21515,0.00247
2573.15497,0.00255
2571.09480,0.00269
2569.03463,0.00261
2566.97446,0.00256
2564.91429,0.00267
2562.85411,0.00273
2560.79394,0.00263
2558.73377,0.00258
2556.67360,0.00270
2554.61342,0.00284
2552.55325,0.00277
2550.49308,0.00262
2548.43291,0.00274
2546.37274,0.00309
2544.31256,0.00331
2542.25239,0.00329
2540.19222,0.00304
2538.13205,0.00270
2536.07188,0.00252
2534.01170,0.00251
2531.95153,0.00237
2529.89136,0.00216
2527.83119,0.00232
2525.77102,0.00265
2523.71084,0.00260
2521.65067,0.00241
2519.59050,0.00259
2517.53033,0.00286
2515.47015,0.00282
2513.40998,0.00252
2511.34981,0.00222
2509.28964,0.00220
2507.22947,0.00246
2505.16929,0.00265
2503.10912,0.00263
2501.04895,0.00256
2498.98878,0.00251
2496.92861,0.00246
2494.86843,0.00239
2492.80826,0.00232
2490.74809,0.00238
2488.68792,0.00254
2486.62775,0.00254
2484.56757,0.00235
2482.50740,0.00231
2480.44723,0.00256
2478.38706,0.00285
2476.32688,0.00288
2474.26671,0.00272
2472.20654,0.00266
2470.14637,0.00278
2468.08620,0.00278
2466.02602,0.00274
2463.96585,0.00281
2461.90568,0.00287
2459.84551,0.00283
2457.78534,0.00280
2455.72516,0.00283
2453.66499,0.00283
2451.60482,0.00287
2449.54465,0.00306
2447.48447,0.00316
2445.42430,0.00296
2443.36413,0.00275
2441.30396,0.00268
2439.24379,0.00268
2437.18361,0.00271
2435.12344,0.00277
2433.06327,0.00276
2431.00310,0.00272
2428.94293,0.00282
2426.88275,0.00301
2424.82258,0.00309
2422.76241,0.00296
2420.70224,0.00272
2418.64207,0.00261
2416.58189,0.00264
2414.52172,0.00261
2412.46155,0.00255
2410.40138,0.00259
2408.34120,0.00270
2406.28103,0.00270
2404.22086,0.00264
2402.16069,0.00266
2400.10052,0.00268
2398.04034,0.00255
2395.98017,0.00248
2393.92000,0.00242
2391.85983,0.00240
2389.79966,0.00244
2387.73948,0.00241
2385.67931,0.00237
2383.61914,0.00248
2381.55897,0.00271
2379.49880,0.00278
2377.43862,0.00272
2375.37845,0.00290
2373.31828,0.00333
2371.25811,0.00366
2369.19793,0.00342
2367.13776,0.00238
2365.07759,0.00128
2363.01742,0.00099
2360.95725,0.00122
2358.89707,0.00161
2356.83690,0.00240
2354.77673,0.00340
2352.71656,0.00389
2350.65639,0.00378
2348.59621,0.00342
2346.53604,0.00301
2344.47587,0.00265
2342.41570,0.00250
2340.35552,0.00265
2338.29535,0.00284
2336.23518,0.00285
2334.17501,0.00296
2332.11484,0.00322
2330.05466,0.00346
2327.99449,0.00375
2325.93432,0.00397
2323.87415,0.00393
2321.81398,0.00388
2319.75380,0.00407
2317.69363,0.00413
2315.63346,0.00380
2313.57329,0.00338
2311.51312,0.00317
2309.45294,0.00313
2307.39277,0.00331
2305.33260,0.00367
2303.27243,0.00377
2301.21225,0.00353
2299.15208,0.00328
2297.09191,0.00316
2295.03174,0.00300
2292.97157,0.00282
2290.91139,0.00284
2288.85122,0.00306
2286.79105,0.00341
2284.73088,0.00375
2282.67071,0.00386
2280.61053,0.00356
2278.55036,0.00311
2276.49019,0.00293
2274.43002,0.00291
2272.36984,0.00276
2270.30967,0.00266
2268.24950,0.00283
2266.18933,0.00314
2264.12916,0.00320
2262.06898,0.00304
2260.00881,0.00306
2257.94864,0.00328
2255.88847,0.00344
2253.82830,0.00335
2251.76812,0.00306
2249.70795,0.00286
2247.64778,0.00298
2245.58761,0.00323
2243.52744,0.00322
2241.46726,0.00291
2239.40709,0.00269
2237.34692,0.00257
2235.28675,0.00247
2233.22657,0.00239
2231.16640,0.00225
2229.10623,0.00235
2227.04606,0.00269
2224.98589,0.00257
2222.92571,0.00211
2220.86554,0.00193
2218.80537,0.00181
2216.74520,0.00177
2214.68503,0.00207
2212.62485,0.00227
2210.56468,0.00256
2208.50451,0.00318
2206.44434,0.00344
2204.38417,0.00311
2202.32399,0.00252
2200.26382,0.00224
2198.20365,0.00262
2196.14348,0.00307
2194.08330,0.00310
2192.02313,0.00292
2189.96296,0.00251
2187.90279,0.00197
2185.84262,0.00190
2183.78244,0.00240
2181.72227,0.00269
2179.66210,0.00255
2177.60193,0.00260
2175.54176,0.00277
2173.48158,0.00222
2171.42141,0.00132
2169.36124,0.00133
2167.30107,0.00193
2165.24089,0.00227
2163.18072,0.00276
2161.12055,0.00289
2159.06038,0.00171
2157.00021,0.00036
2154.94003,0.00005
2152.87986,0.00059
2150.81969,0.00135
2148.75952,0.00169
2146.69935,0.00146
2144.63917,0.00146
2142.57900,0.00207
2140.51883,0.00238
2138.45866,0.00223
2136.39849,0.00247
2134.33831,0.00265
2132.27814,0.00193
2130.21797,0.00098
2128.15780,0.00082
2126.09762,0.00181
2124.03745,0.00308
2121.97728,0.00364
2119.91711,0.00350
2117.85694,0.00310
2115.79676,0.00257
2113.73659,0.00212
2111.67642,0.00207
2109.61625,0.00229
2107.55608,0.00270
2105.49590,0.00322
2103.43573,0.00323
2101.37556,0.00289
2099.31539,0.00275
2097.25521,0.00228
2095.19504,0.00169
2093.13487,0.00170
2091.07470,0.00201
2089.01453,0.00203
2086.95435,0.00204
2084.89418,0.00229
2082.83401,0.00244
2080.77384,0.00220
2078.71367,0.00188
2076.65349,0.00193
2074.59332,0.00234
2072.53315,0.00268
2070.47298,0.00264
2068.41281,0.00248
2066.35263,0.00277
2064.29246,0.00318
2062.23229,0.00314
2060.17212,0.00296
2058.11194,0.00275
2056.05177,0.00242
2053.99160,0.00222
2051.93143,0.00220
2049.87126,0.00231
2047.81108,0.00271
2045.75091,0.00287
2043.69074,0.00242
2041.63057,0.00147
2039.57040,0.00062
2037.51022,0.00090
2035.45005,0.00182
2033.38988,0.00196
2031.32971,0.00151
2029.26954,0.00121
2027.20936,0.00140
2025.14919,0.00197
2023.08902,0.00224
2021.02885,0.00205
2018.96867,0.00206
2016.90850,0.00244
2014.84833,0.00271
2012.78816,0.00270
2010.72799,0.00236
2008.66781,0.00176
2006.60764,0.00104
2004.54747,0.00076
2002.48730,0.00098
2000.42713,0.00136
1998.36695,0.00174
1996.30678,0.00144
1994.24661,0.00060
1992.18644,0.00027
1990.12626,0.00033
1988.06609,0.00067
1986.00592,0.00125
1983.94575,0.00168
1981.88558,0.00174
1979.82540,0.00198
1977.76523,0.00269
1975.70506,0.00300
1973.64489,0.00216
1971.58472,0.00121
1969.52454,0.00155
1967.46437,0.00222
1965.40420,0.00169
1963.34403,0.00095
1961.28386,0.00088
1959.22368,0.00122
1957.16351,0.00182
1955.10334,0.00210
1953.04317,0.00178
1950.98299,0.00151
1948.92282,0.00151
1946.86265,0.00154
1944.80248,0.00183
1942.74231,0.00220
1940.68213,0.00181
1938.62196,0.00155
1936.56179,0.00182
1934.50162,0.00209
1932.44145,0.00226
1930.38127,0.00226
1928.32110,0.00204
1926.26093,0.00185
1924.20076,0.00219
1922.14059,0.00240
1920.08041,0.00235
1918.02024,0.00247
1915.96007,0.00221
1913.89990,0.00235
1911.83972,0.00301
1909.77955,0.00333
1907.71938,0.00288
1905.65921,0.00227
1903.59904,0.00199
1901.53886,0.00190
1899.47869,0.00189
1897.41852,0.00205
1895.35835,0.00212
1893.29818,0.00191
1891.23800,0.00217
1889.17783,0.00238
1887.11766,0.00202
1885.05749,0.00204
1882.99731,0.00227
1880.93714,0.00232
1878.87697,0.00228
1876.81680,0.00202
1874.75663,0.00154
1872.69645,0.00111
1870.63628,0.00147
1868.57611,0.00214
1866.51594,0.00198
1864.45577,0.00175
1862.39559,0.00196
1860.33542,0.00215
1858.27525,0.00211
1856.21508,0.00198
1854.15491,0.00197
1852.09473,0.00206
1850.03456,0.00200
1847.97439,0.00176
1845.91422,0.00208
1843.85404,0.00259
1841.79387,0.00214
1839.73370,0.00194
1837.67353,0.00220
1835.61336,0.00200
1833.55318,0.00170
1831.49301,0.00217
1829.43284,0.00242
1827.37267,0.00195
1825.31250,0.00198
1823.25232,0.00183
1821.19215,0.00155
1819.13198,0.00163
1817.07181,0.00158
1815.01163,0.00135
1812.95146,0.00161
1810.89129,0.00208
1808.83112,0.00202
1806.77095,0.00178
1804.71077,0.00177
1802.65060,0.00208
1800.59043,0.00226
1798.53026,0.00186
1796.47009,0.00154
1794.40991,0.00200
1792.34974,0.00248
1790.28957,0.00164
1788.22940,0.00106
1786.16923,0.00168
1784.10905,0.00227
1782.04888,0.00247
1779.98871,0.00234
1777.92854,0.00171
1775.86836,0.00158
1773.80819,0.00244
1771.74802,0.00273
1769.68785,0.00189
1767.62768,0.00146
1765.56750,0.00132
1763.50733,0.00190
1761.44716,0.00238
1759.38699,0.00212
1757.32682,0.00213
1755.26664,0.00159
1753.20647,0.00145
1751.14630,0.00241
1749.08613,0.00271
1747.02596,0.00217
1744.96578,0.00190
1742.90561,0.00220
1740.84544,0.00261
1738.78527,0.00207
1736.72509,0.00199
1734.66492,0.00381
1732.60475,0.00382
1730.54458,0.00269
1728.48441,0.00236
1726.42423,0.00233
1724.36406,0.00231
1722.30389,0.00180
1720.24372,0.00214
1718.18355,0.00368
1716.12337,0.00363
1714.06320,0.00249
1712.00303,0.00189
1709.94286,0.00201
1707.88268,0.00254
1705.82251,0.00251
1703.76234,0.00146
1701.70217,0.00196
1699.64200,0.00261
1697.58182,0.00221
1695.52165,0.00230
1693.46148,0.00133
1691.40131,0.00109
1689.34114,0.00126
1687.28096,0.00145
1685.22079,0.00336
1683.16062,0.00365
1681.10045,0.00186
1679.04028,0.00124
1676.98010,0.00200
1674.91993,0.00243
1672.85976,0.00193
1670.79959,0.00283
1668.73941,0.00319
1666.67924,0.00198
1664.61907,0.00227
1662.55890,0.00327
1660.49873,0.00249
1658.43855,0.00138
1656.37838,0.00235
1654.31821,0.00555
1652.25804,0.00508
1650.19787,0.00197
1648.13769,0.00288
1646.07752,0.00412
1644.01735,0.00283
1641.95718,0.00205
1639.89701,0.00238
1637.83683,0.00397
1635.77666,0.00540
1633.71649,0.00376
1631.65632,0.00233
1629.59614,0.00295
1627.53597,0.00349
1625.47580,0.00372
1623.41563,0.00412
1621.35546,0.00325
1619.29528,0.00319
1617.23511,0.00469
1615.17494,0.00438
1613.11477,0.00338
1611.05460,0.00369
1608.99442,0.00419
1606.93425,0.00409
1604.87408,0.00391
1602.81391,0.00392
1600.75373,0.00377
1598.69356,0.00357
1596.63339,0.00358
1594.57322,0.00357
1592.51305,0.00336
1590.45287,0.00315
1588.39270,0.00296
1586.33253,0.00275
1584.27236,0.00255
1582.21219,0.00216
1580.15201,0.00185
1578.09184,0.00277
1576.03167,0.00339
1573.97150,0.00160
1571.91133,0.00121
1569.85115,0.00258
1567.79098,0.00225
1565.73081,0.00131
1563.67064,0.00053
1561.61046,0.00166
1559.55029,0.00490
1557.49012,0.00348
1555.42995,0.00108
1553.36978,0.00092
1551.30960,0.00136
1549.24943,0.00126
1547.18926,0.00077
1545.12909,0.00122
1543.06892,0.00232
1541.00874,0.00368
1538.94857,0.00249
1536.88840,0.00006
1534.82823,0.00087
1532.76805,0.00195
1530.70788,0.00099
1528.64771,0.00096
1526.58754,0.00152
1524.52737,0.00166
1522.46719,0.00243
1520.40702,0.00205
1518.34685,0.00126
1516.28668,0.00136
1514.22651,0.00077
1512.16633,0.00033
1510.10616,0.00124
1508.04599,0.00381
1505.98582,0.00387
1503.92565,0.00098
1501.86547,0.00012
1499.80530,0.00131
1497.74513,0.00236
1495.68496,0.00168
1493.62478,0.00059
1491.56461,0.00153
1489.50444,0.00279
1487.44427,0.00223
1485.38410,0.00136
1483.32392,0.00135
1481.26375,0.00154
1479.20358,0.00125
1477.14341,0.00136
1475.08324,0.00221
1473.02306,0.00305
1470.96289,0.00212
1468.90272,0.00105
1466.84255,0.00188
1464.78238,0.00258
1462.72220,0.00143
1460.66203,0.00130
1458.60186,0.00361
1456.54169,0.00454
1454.48151,0.00264
1452.42134,0.00175
1450.36117,0.00231
1448.30100,0.00304
1446.24083,0.00294
1444.18065,0.00253
1442.12048,0.00234
1440.06031,0.00246
1438.00014,0.00353
1435.93997,0.00380
1433.87979,0.00269
1431.81962,0.00281
1429.75945,0.00339
1427.69928,0.00305
1425.63910,0.00288
1423.57893,0.00275
1421.51876,0.00286
1419.45859,0.00383
1417.39842,0.00358
1415.33824,0.00278
1413.27807,0.00290
1411.21790,0.00324
1409.15773,0.00318
1407.09756,0.00330
1405.03738,0.00348
1402.97721,0.00299
1400.91704,0.00292
1398.85687,0.00327
1396.79670,0.00331
1394.73652,0.00324
1392.67635,0.00257
1390.61618,0.00233
1388.55601,0.00310
1386.49583,0.00333
1384.43566,0.00285
1382.37549,0.00278
1380.31532,0.00295
1378.25515,0.00301
1376.19497,0.00338
1374.13480,0.00373
1372.07463,0.00330
1370.01446,0.00302
1367.95429,0.00301
1365.89411,0.00299
1363.83394,0.00348
1361.77377,0.00361
1359.71360,0.00309
1357.65343,0.00286
1355.59325,0.00292
1353.53308,0.00284
1351.47291,0.00274
1349.41274,0.00277
1347.35256,0.00278
1345.29239,0.00267
1343.23222,0.00258
1341.17205,0.00285
1339.11188,0.00302
1337.05170,0.00263
1334.99153,0.00238
1332.93136,0.00248
1330.87119,0.00256
1328.81102,0.00254
1326.75084,0.00256
1324.69067,0.00260
1322.63050,0.00265
1320.57033,0.00281
1318.51015,0.00292
1316.44998,0.00287
1314.38981,0.00290
1312.32964,0.00288
1310.26947,0.00275
1308.20929,0.00271
1306.14912,0.00266
1304.08895,0.00260
1302.02878,0.00259
1299.96861,0.00254
1297.90843,0.00252
1295.84826,0.00250
1293.78809,0.00240
1291.72792,0.00231
1289.66775,0.00234
1287.60757,0.00234
1285.54740,0.00221
1283.48723,0.00211
1281.42706,0.00209
1279.36688,0.00209
1277.30671,0.00209
1275.24654,0.00210
1273.18637,0.00221
1271.12620,0.00235
1269.06602,0.00237
1267.00585,0.00242
1264.94568,0.00255
1262.88551,0.00267
1260.82534,0.00278
1258.76516,0.00287
1256.70499,0.00290
1254.64482,0.00292
1252.58465,0.00292
1250.52447,0.00293
1248.46430,0.00290
1246.40413,0.00283
1244.34396,0.00279
1242.28379,0.00275
1240.22361,0.00264
1238.16344,0.00258
1236.10327,0.00265
1234.04310,0.00263
1231.98293,0.00249
1229.92275,0.00242
1227.86258,0.00237
1225.80241,0.00229
1223.74224,0.00223
1221.68207,0.00215
1219.62189,0.00202
1217.56172,0.00182
1215.50155,0.00163
1213.44138,0.00151
1211.38120,0.00142
1209.32103,0.00131
1207.26086,0.00114
1205.20069,0.00092
1203.14052,0.00076
1201.08034,0.00068
1199.02017,0.00054
1196.96000,0.00036
1194.89983,0.00028
1192.83966,0.00027
1190.77948,0.00022
1188.71931,0.00012
1186.65914,0.00007
1184.59897,0.00012
1182.53880,0.00024
1180.47862,0.00025
1178.41845,0.00021
1176.35828,0.00032
1174.29811,0.00058
1172.23793,0.00080
1170.17776,0.00093
1168.11759,0.00110
1166.05742,0.00143
1163.99725,0.00177
1161.93707,0.00198
1159.87690,0.00212
1157.81673,0.00220
1155.75656,0.00234
1153.69639,0.00258
1151.63621,0.00283
1149.57604,0.00294
1147.51587,0.00300
1145.45570,0.00315
1143.39552,0.00330
1141.33535,0.00334
1139.27518,0.00331
1137.21501,0.00336
1135.15484,0.00357
1133.09466,0.00382
1131.03449,0.00393
1128.97432,0.00398
1126.91415,0.00419
1124.85398,0.00446
1122.79380,0.00469
1120.73363,0.00498
1118.67346,0.00530
1116.61329,0.00562
1114.55312,0.00592
1112.49294,0.00615
1110.43277,0.00632
1108.37260,0.00641
1106.31243,0.00660
1104.25225,0.00691
1102.19208,0.00728
1100.13191,0.00773
1098.07174,0.00815
1096.01157,0.00846
1093.95139,0.00875
1091.89122,0.00912
1089.83105,0.00960
1087.77088,0.01014
1085.71071,0.01053
1083.65053,0.01077
1081.59036,0.01100
1079.53019,0.01122
1077.47002,0.01144
1075.40985,0.01174
1073.34967,0.01211
1071.28950,0.01252
1069.22933,0.01277
1067.16916,0.01277
1065.10898,0.01279
1063.04881,0.01292
1060.98864,0.01309
1058.92847,0.01326
1056.86830,0.01334
1054.80812,0.01339
1052.74795,0.01357
1050.68778,0.01382
1048.62761,0.01398
1046.56744,0.01413
1044.50726,0.01446
1042.44709,0.01482
1040.38692,0.01501
1038.32675,0.01502
1036.26657,0.01498
1034.20640,0.01490
1032.14623,0.01477
1030.08606,0.01471
1028.02589,0.01471
1025.96571,0.01458
1023.90554,0.01426
1021.84537,0.01402
1019.78520,0.01387
1017.72503,0.01366
1015.66485,0.01361
1013.60468,0.01366
1011.54451,0.01353
1009.48434,0.01325
1007.42417,0.01299
1005.36399,0.01272
1003.30382,0.01236
1001.24365,0.01197
999.18348,0.01167
997.12330,0.01137
995.06313,0.01105
993.00296,0.01093
990.94279,0.01085
988.88262,0.01058
986.82244,0.01033
984.76227,0.01030
982.70210,0.01018
980.64193,0.00991
978.58176,0.00985
976.52158,0.00979
974.46141,0.00943
972.40124,0.00905
970.34107,0.00887
968.28089,0.00875
966.22072,0.00865
964.16055,0.00858
962.10038,0.00838
960.04021,0.00805
957.98003,0.00782
955.91986,0.00782
953.85969,0.00785
951.79952,0.00761
949.73935,0.00730
947.67917,0.00701
945.61900,0.00652
943.55883,0.00599
941.49866,0.00561
939.43849,0.00530
937.37831,0.00498
935.31814,0.00459
933.25797,0.00415
931.19780,0.00387
929.13762,0.00384
927.07745,0.00384
925.01728,0.00377
922.95711,0.00361
920.89694,0.00345
918.83676,0.00350
916.77659,0.00365
914.71642,0.00357
912.65625,0.00321
910.59608,0.00290
908.53590,0.00284
906.47573,0.00297
904.41556,0.00317
902.35539,0.00330
900.29522,0.00342
898.23504,0.00370
896.17487,0.00398
894.11470,0.00396
892.05453,0.00387
889.99435,0.00408
887.93418,0.00441
885.87401,0.00446
883.81384,0.00422
881.75367,0.00390
879.69349,0.00374
877.63332,0.00389
875.57315,0.00402
873.51298,0.00389
871.45281,0.00379
869.39263,0.00396
867.33246,0.00405
865.27229,0.00388
863.21212,0.00383
861.15194,0.00404
859.09177,0.00404
857.03160,0.00377
854.97143,0.00364
852.91126,0.00370
850.85108,0.00367
848.79091,0.00352
846.73074,0.00331
844.67057,0.00297
842.61040,0.00265
840.55022,0.00232
838.49005,0.00193
836.42988,0.00165
834.36971,0.00134
832.30954,0.00095
830.24936,0.00072
828.18919,0.00063
826.12902,0.00039
824.06885,0.00008
822.00867,0.00000
819.94850,0.00007
817.88833,0.00007
815.82816,0.00009
813.76799,0.00028
811.70781,0.00046
809.64764,0.00036
807.58747,0.00031
805.52730,0.00047
803.46713,0.00060
801.40695,0.00048
799.34678,0.00021
797.28661,0.00025
795.22644,0.00053
793.16627,0.00054
791.10609,0.00042
789.04592,0.00042
786.98575,0.00027
784.92558,0.00001
782.86540,0.00004
780.80523,0.00028
778.74506,0.00048
776.68489,0.00076
774.62472,0.00114
772.56454,0.00151
770.50437,0.00174
768.44420,0.00185
766.38403,0.00182
764.32386,0.00163
762.26368,0.00147
760.20351,0.00168
758.14334,0.00212
756.08317,0.00227
754.02299,0.00234
751.96282,0.00263
749.90265,0.00260
747.84248,0.00208
745.78231,0.00175
743.72213,0.00184
741.66196,0.00182
739.60179,0.00154
737.54162,0.00135
735.48145,0.00151
733.42127,0.00182
731.36110,0.00202
729.30093,0.00213
727.24076,0.00206
725.18059,0.00196
723.12041,0.00229
721.06024,0.00266
719.00007,0.00266
716.93990,0.00231
714.87972,0.00200
712.81955,0.00200
710.75938,0.00220
708.69921,0.00242
706.63904,0.00245
704.57886,0.00227
702.51869,0.00218
700.45852,0.00231
698.39835,0.00260
696.33818,0.00288
694.27800,0.00297
692.21783,0.00283
690.15766,0.00274
688.09749,0.00288
686.03731,0.00280
683.97714,0.00242
681.91697,0.00216
679.85680,0.00187
677.79663,0.00124
675.73645,0.00058
673.67628,0.00050
671.61611,0.00109
669.55594,0.00212
667.49577,0.00302
665.43559,0.00306
663.37542,0.00291
661.31525,0.00292
659.25508,0.00307
657.19491,0.00295
655.13473,0.00239
653.07456,0.00210
651.01439,0.00243
648.95422,0.00282
646.89404,0.00271
644.83387,0.00228
642.77370,0.00223
640.71353,0.00296
638.65336,0.00365
636.59318,0.00371
634.53301,0.00343
632.47284,0.00239
630.41267,0.00075
628.35250,0.00001
626.29232,0.00045
624.23215,0.00121
622.17198,0.00202
620.11181,0.00277
618.05164,0.00293
615.99146,0.00176
613.93129,0.00044
611.87112,0.00112
609.81095,0.00291
607.75077,0.00333
605.69060,0.00241
603.63043,0.00182
601.57026,0.00139
599.51009,0.00000
