3996.73391,0.00081
3994.67373,0.00091
3992.61356,0.00079
3990.55339,0.00071
3988.49322,0.00061
3986.43305,0.00024
3984.37287,0.00000
3982.31270,0.00025
3980.25253,0.00070
3978.19236,0.00096
3976.13219,0.00090
3974.07201,0.00067
3972.01184,0.00054
3969.95167,0.00058
3967.89150,0.00065
3965.83133,0.00066
3963.77115,0.00069
3961.71098,0.00083
3959.65081,0.00104
3957.59064,0.00119
3955.53046,0.00135
3953.47029,0.00162
3951.41012,0.00188
3949.34995,0.00171
3947.28978,0.00113
3945.22960,0.00078
3943.16943,0.00085
3941.10926,0.00097
3939.04909,0.00097
3936.98892,0.00098
3934.92874,0.00106
3932.86857,0.00119
3930.80840,0.00136
3928.74823,0.00146
3926.68805,0.00142
3924.62788,0.00113
3922.56771,0.00080
3920.50754,0.00093
3918.44737,0.00115
3916.38719,0.00073
3914.32702,0.00023
3912.26685,0.00045
3910.20668,0.00091
3908.14651,0.00103
3906.08633,0.00124
3904.02616,0.00184
3901.96599,0.00189
3899.90582,0.00105
3897.84565,0.00063
3895.78547,0.00119
3893.72530,0.00194
3891.66513,0.00195
3889.60496,0.00122
3887.54478,0.00079
3885.48461,0.00110
3883.42444,0.00158
3881.36427,0.00166
3879.30410,0.00136
3877.24392,0.00082
3875.18375,0.00035
3873.12358,0.00044
3871.06341,0.00098
3869.00324,0.00136
3866.94306,0.00136
3864.88289,0.00116
3862.82272,0.00110
3860.76255,0.00124
3858.70237,0.00154
3856.64220,0.00197
3854.58203,0.00250
3852.52186,0.00289
3850.46169,0.00258
3848.40151,0.00190
3846.34134,0.00138
3844.28117,0.00128
3842.22100,0.00172
3840.16083,0.00212
3838.10065,0.00194
3836.04048,0.00204
3833.98031,0.00261
3831.92014,0.00262
3829.85997,0.00206
3827.79979,0.00186
3825.73962,0.00219
3823.67945,0.00245
3821.61928,0.00257
3819.55910,0.00257
3817.49893,0.00198
3815.43876,0.00110
3813.37859,0.00076
3811.31842,0.00105
3809.25824,0.00153
3807.19807,0.00175
3805.13790,0.00145
3803.07773,0.00118
3801.01756,0.00153
3798.95738,0.00218
3796.89721,0.00252
3794.83704,0.00246
3792.77687,0.00220
3790.71670,0.00186
3788.65652,0.00149
3786.59635,0.00125
3784.53618,0.00114
3782.47601,0.00120
3780.41583,0.00161
3778.35566,0.00192
3776.29549,0.00186
3774.23532,0.00181
3772.17515,0.00180
3770.11497,0.00158
3768.05480,0.00132
3765.99463,0.00139
3763.93446,0.00157
3761.87429,0.00153
3759.81411,0.00141
3757.75394,0.00137
3755.69377,0.00147
3753.63360,0.00169
3751.57342,0.00194
3749.51325,0.00223
3747.45308,0.00216
3745.39291,0.00148
3743.33274,0.00113
3741.27256,0.00165
3739.21239,0.00221
3737.15222,0.00256
3735.09205,0.00294
3733.03188,0.00303
3730.97170,0.00286
3728.91153,0.00275
3726.85136,0.00237
3724.79119,0.00156
3722.73102,0.00096
3720.67084,0.00066
3718.61067,0.00038
3716.55050,0.00023
3714.49033,0.00047
3712.43015,0.00113
3710.36998,0.00150
3708.30981,0.00123
3706.24964,0.00112
3704.18947,0.00139
3702.12929,0.00147
3700.06912,0.00151
3698.00895,0.00186
3695.94878,0.00206
3693.88861,0.00232
3691.82843,0.00315
3689.76826,0.00357
3687.70809,0.00280
3685.64792,0.00201
3683.58775,0.00162
3681.52757,0.00132
3679.46740,0.00104
3677.40723,0.00079
3675.34706,0.00039
3673.28688,-0.00000
3671.22671,0.00000
3669.16654,0.00058
3667.10637,0.00135
3665.04620,0.00189
3662.98602,0.00232
3660.92585,0.00280
3658.86568,0.00315
3656.80551,0.00310
3654.74534,0.00260
3652.68516,0.00220
3650.62499,0.00257
3648.56482,0.00338
3646.50465,0.00327
3644.44447,0.00245
3642.38430,0.00191
3640.32413,0.00183
3638.26396,0.00192
3636.20379,0.00219
3634.14361,0.00279
3632.08344,0.00369
3630.02327,0.00480
3627.96310,0.00540
3625.90293,0.00488
3623.84275,0.00446
3621.78258,0.00490
3619.72241,0.00547
3617.66224,0.00547
3615.60207,0.00504
3613.54189,0.00434
3611.48172,0.00369
3609.42155,0.00366
3607.36138,0.00410
3605.30120,0.00440
3603.24103,0.00476
3601.18086,0.00549
3599.12069,0.00614
3597.06052,0.00644
3595.00034,0.00639
3592.94017,0.00608
3590.88000,0.00564
3588.81983,0.00538
3586.75966,0.00568
3584.69948,0.00629
3582.63931,0.00668
3580.57914,0.00692
3578.51897,0.00719
3576.45879,0.00769
3574.39862,0.00843
3572.33845,0.00912
3570.27828,0.00964
3568.21811,0.00972
3566.15793,0.00923
3564.09776,0.00916
3562.03759,0.00989
3559.97742,0.01048
3557.91725,0.01050
3555.85707,0.01052
3553.79690,0.01101
3551.73673,0.01171
3549.67656,0.01206
3547.61639,0.01209
3545.55621,0.01224
3543.49604,0.01232
3541.43587,0.01219
3539.37570,0.01238
3537.31552,0.01294
3535.25535,0.01332
3533.19518,0.01362
3531.13501,0.01424
3529.07484,0.01500
3527.01466,0.01566
3524.95449,0.01629
3522.89432,0.01677
3520.83415,0.01695
3518.77398,0.01696
3516.71380,0.01705
3514.65363,0.01730
3512.59346,0.01772
3510.53329,0.01827
3508.47312,0.01870
3506.41294,0.01899
3504.35277,0.01944
3502.29260,0.02006
3500.23243,0.02035
3498.17225,0.02024
3496.11208,0.02029
3494.05191,0.02067
3491.99174,0.02115
3489.93157,0.02143
3487.87139,0.02122
3485.81122,0.02077
3483.75105,0.02073
3481.69088,0.02129
3479.63071,0.02220
3477.57053,0.02313
3475.51036,0.02384
3473.45019,0.02433
3471.39002,0.02463
3469.32984,0.02484
3467.26967,0.02512
3465.20950,0.02552
3463.14933,0.02606
3461.08916,0.02674
3459.02898,0.02727
3456.96881,0.02733
3454.90864,0.02716
3452.84847,0.02728
3450.78830,0.02758
3448.72812,0.02785
3446.66795,0.02839
3444.60778,0.02897
3442.54761,0.02916
3440.48744,0.02943
3438.42726,0.02997
3436.36709,0.03045
3434.30692,0.03069
3432.24675,0.03074
3430.18657,0.03067
3428.12640,0.03054
3426.06623,0.03055
3424.00606,0.03083
3421.94589,0.03128
3419.88571,0.03184
3417.82554,0.03232
3415.76537,0.03263
3413.70520,0.03294
3411.64503,0.03337
3409.58485,0.03410
3407.52468,0.03481
3405.46451,0.03481
3403.40434,0.03470
3401.34416,0.03509
3399.28399,0.03537
3397.22382,0.03536
3395.16365,0.03556
3393.10348,0.03592
3391.04330,0.03611
3388.98313,0.03637
3386.92296,0.03678
3384.86279,0.03712
3382.80262,0.03734
3380.74244,0.03733
3378.68227,0.03716
3376.62210,0.03718
3374.56193,0.03753
3372.50176,0.03779
3370.44158,0.03785
3368.38141,0.03827
3366.32124,0.03881
3364.26107,0.03896
3362.20089,0.03907
3360.14072,0.03935
3358.08055,0.03961
3356.02038,0.03959
3353.96021,0.03938
3351.90003,0.03933
3349.83986,0.03950
3347.77969,0.03995
3345.71952,0.04062
3343.65935,0.04085
3341.59917,0.04059
3339.53900,0.04068
3337.47883,0.04088
3335.41866,0.04057
3333.35849,0.04018
3331.29831,0.04005
3329.23814,0.04006
3327.17797,0.04023
3325.11780,0.04032
3323.05762,0.04036
3320.99745,0.04091
3318.93728,0.04157
3316.87711,0.04157
3314.81694,0.04114
3312.75676,0.04100
3310.69659,0.04151
3308.63642,0.04210
3306.57625,0.04176
3304.51608,0.04085
3302.45590,0.04047
3300.39573,0.04070
3298.33556,0.04091
3296.27539,0.04110
3294.21521,0.04163
3292.15504,0.04203
3290.09487,0.04167
3288.03470,0.04110
3285.97453,0.04119
3283.91435,0.04176
3281.85418,0.04215
3279.79401,0.04214
3277.73384,0.04196
3275.67367,0.04192
3273.61349,0.04184
3271.55332,0.04151
3269.49315,0.04136
3267.43298,0.04162
3265.37281,0.04192
3263.31263,0.04173
3261.25246,0.04101
3259.19229,0.04072
3257.13212,0.04111
3255.07194,0.04135
3253.01177,0.04141
3250.95160,0.04153
3248.89143,0.04142
3246.83126,0.04119
3244.77108,0.04121
3242.71091,0.04124
3240.65074,0.04097
3238.59057,0.04081
3236.53040,0.04107
3234.47022,0.04141
3232.41005,0.04142
3230.34988,0.04100
3228.28971,0.04048
3226.22954,0.04013
3224.16936,0.04003
3222.10919,0.04023
3220.04902,0.04033
3217.98885,0.04001
3215.92867,0.03984
3213.86850,0.03976
3211.80833,0.03943
3209.74816,0.03942
3207.68799,0.03967
3205.62781,0.03948
3203.56764,0.03911
3201.50747,0.03900
3199.44730,0.03877
3197.38713,0.03834
3195.32695,0.03818
3193.26678,0.03808
3191.20661,0.03784
3189.14644,0.03789
3187.08626,0.03791
3185.02609,0.03743
3182.96592,0.03704
3180.90575,0.03722
3178.84558,0.03764
3176.78540,0.03791
3174.72523,0.03770
3172.66506,0.03709
3170.60489,0.03656
3168.54472,0.03628
3166.48454,0.03616
3164.42437,0.03601
3162.36420,0.03572
3160.30403,0.03538
3158.24386,0.03501
3156.18368,0.03449
3154.12351,0.03405
3152.06334,0.03393
3150.00317,0.03373
3147.94299,0.03369
3145.88282,0.03391
3143.82265,0.03394
3141.76248,0.03395
3139.70231,0.03388
3137.64213,0.03332
3135.58196,0.03262
3133.52179,0.03234
3131.46162,0.03239
3129.40145,0.03236
3127.34127,0.03217
3125.28110,0.03198
3123.22093,0.03191
3121.16076,0.03193
3119.10058,0.03203
3117.04041,0.03198
3114.98024,0.03152
3112.92007,0.03085
3110.85990,0.03045
3108.79972,0.03039
3106.73955,0.03035
3104.67938,0.03030
3102.61921,0.03027
3100.55904,0.03003
3098.49886,0.02965
3096.43869,0.02943
3094.37852,0.02923
3092.31835,0.02881
3090.25818,0.02838
3088.19800,0.02831
3086.13783,0.02869
3084.07766,0.02888
3082.01749,0.02846
3079.95731,0.02792
3077.89714,0.02750
3075.83697,0.02726
3073.77680,0.02717
3071.71663,0.02693
3069.65645,0.02675
3067.59628,0.02699
3065.53611,0.02713
3063.47594,0.02670
3061.41577,0.02614
3059.35559,0.02582
3057.29542,0.02562
3055.23525,0.02540
3053.17508,0.02516
3051.11491,0.02488
3049.05473,0.02458
3046.99456,0.02444
3044.93439,0.02457
3042.87422,0.02461
3040.81404,0.02428
3038.75387,0.02391
3036.69370,0.02369
3034.63353,0.02359
3032.57336,0.02323
3030.51318,0.02247
3028.45301,0.02204
3026.39284,0.02221
3024.33267,0.02257
3022.27250,0.02275
3020.21232,0.02260
3018.15215,0.02232
3016.09198,0.02221
3014.03181,0.02231
3011.97163,0.02252
3009.91146,0.02251
3007.85129,0.02221
3005.79112,0.02178
3003.73095,0.02124
3001.67077,0.02091
2999.61060,0.02098
2997.55043,0.02092
2995.49026,0.02065
2993.43009,0.02077
2991.36991,0.02081
2989.30974,0.02023
2987.24957,0.01979
2985.18940,0.01979
2983.12923,0.02002
2981.06905,0.02044
2979.00888,0.02077
2976.94871,0.02103
2974.88854,0.02141
2972.82836,0.02170
2970.76819,0.02209
2968.70802,0.02310
2966.64785,0.02446
2964.58768,0.02548
2962.52750,0.02632
2960.46733,0.02741
2958.40716,0.02852
2956.34699,0.02954
2954.28682,0.03078
2952.22664,0.03202
2950.16647,0.03321
2948.10630,0.03485
2946.04613,0.03706
2943.98596,0.03937
2941.92578,0.04132
2939.86561,0.04295
2937.80544,0.04450
2935.74527,0.04617
2933.68509,0.04807
2931.62492,0.05003
2929.56475,0.05168
2927.50458,0.05307
2925.44441,0.05448
2923.38423,0.05575
2921.32406,0.05647
2919.26389,0.05652
2917.20372,0.05601
2915.14355,0.05495
2913.08337,0.05333
2911.02320,0.05138
2908.96303,0.04960
2906.90286,0.04812
2904.84268,0.04669
2902.78251,0.04523
2900.72234,0.04388
2898.66217,0.04280
2896.60200,0.04175
2894.54182,0.04070
2892.48165,0.03987
2890.42148,0.03918
2888.36131,0.03851
2886.30114,0.03801
2884.24096,0.03766
2882.18079,0.03710
2880.12062,0.03637
2878.06045,0.03578
2876.00028,0.03549
2873.94010,0.03565
2871.87993,0.03627
2869.81976,0.03710
2867.75959,0.03763
2865.69941,0.03783
2863.63924,0.03843
2861.57907,0.03971
2859.51890,0.04127
2857.45873,0.04274
2855.39855,0.04406
2853.33838,0.04543
2851.27821,0.04642
2849.21804,0.04611
2847.15787,0.04423
2845.09769,0.04152
2843.03752,0.03891
2840.97735,0.03678
2838.91718,0.03506
2836.85700,0.03385
2834.79683,0.03294
2832.73666,0.03176
2830.67649,0.03056
2828.61632,0.02992
2826.55614,0.02953
2824.49597,0.02897
2822.43580,0.02845
2820.37563,0.02793
2818.31546,0.02751
2816.25528,0.02738
2814.19511,0.02726
2812.13494,0.02707
2810.07477,0.02671
2808.01460,0.02610
2805.95442,0.02567
2803.89425,0.02554
2801.83408,0.02538
2799.77391,0.02521
2797.71373,0.02506
2795.65356,0.02486
2793.59339,0.02464
2791.53322,0.02422
2789.47305,0.02379
2787.41287,0.02367
2785.35270,0.02352
2783.29253,0.02316
2781.23236,0.02311
2779.17219,0.02344
2777.11201,0.02357
2775.05184,0.02345
2772.99167,0.02321
2770.93150,0.02274
2768.87133,0.02240
2766.81115,0.02232
2764.75098,0.02206
2762.69081,0.02177
2760.63064,0.02176
2758.57046,0.02195
2756.51029,0.02204
2754.45012,0.02187
2752.38995,0.02185
2750.32978,0.02211
2748.26960,0.02222
2746.20943,0.02211
2744.14926,0.02194
2742.08909,0.02169
2740.02892,0.02136
2737.96874,0.02127
2735.90857,0.02159
2733.84840,0.02190
2731.78823,0.02190
2729.72805,0.02182
2727.66788,0.02179
2725.60771,0.02174
2723.54754,0.02164
2721.48737,0.02138
2719.42719,0.02102
2717.36702,0.02086
2715.30685,0.02077
2713.24668,0.02047
2711.18651,0.02030
2709.12633,0.02056
2707.06616,0.02089
2705.00599,0.02107
2702.94582,0.02107
2700.88565,0.02090
2698.82547,0.02085
2696.76530,0.02083
2694.70513,0.02052
2692.64496,0.02042
2690.58478,0.02071
2688.52461,0.02087
2686.46444,0.02100
2684.40427,0.02105
2682.34410,0.02083
2680.28392,0.02065
2678.22375,0.02079
2676.16358,0.02094
2674.10341,0.02066
2672.04324,0.02021
2669.98306,0.02011
2667.92289,0.02024
2665.86272,0.02040
2663.80255,0.02045
2661.74238,0.02032
2659.68220,0.02031
2657.62203,0.02054
2655.56186,0.02070
2653.50169,0.02044
2651.44151,0.01988
2649.38134,0.01933
2647.32117,0.01905
2645.26100,0.01917
2643.20083,0.01944
2641.14065,0.01959
2639.08048,0.01939
2637.02031,0.01890
2634.96014,0.01854
2632.89997,0.01849
2630.83979,0.01879
2628.77962,0.01923
2626.71945,0.01936
2624.65928,0.01913
2622.59910,0.01886
2620.53893,0.01868
2618.47876,0.01850
2616.41859,0.01829
2614.35842,0.01817
2612.29824,0.01806
2610.23807,0.01781
2608.17790,0.01783
2606.11773,0.01792
2604.05756,0.01763
2601.99738,0.01748
2599.93721,0.01730
2597.87704,0.01673
2595.81687,0.01645
2593.75670,0.01692
2591.69652,0.01770
2589.63635,0.01791
2587.57618,0.01718
2585.51601,0.01638
2583.45583,0.01630
2581.39566,0.01639
2579.33549,0.01639
2577.27532,0.01659
2575.21515,0.01672
2573.15497,0.01623
2571.09480,0.01564
2569.03463,0.01587
2566.97446,0.01648
2564.91429,0.01673
2562.85411,0.01688
2560.79394,0.01688
2558.73377,0.01621
2556.67360,0.01555
2554.61342,0.01559
2552.55325,0.01575
2550.49308,0.01562
2548.43291,0.01540
2546.37274,0.01514
2544.31256,0.01501
2542.25239,0.01531
2540.19222,0.01580
2538.13205,0.01628
2536.07188,0.01643
2534.01170,0.01609
2531.95153,0.01577
2529.89136,0.01555
2527.83119,0.01523
2525.77102,0.01488
2523.71084,0.01466
2521.65067,0.01496
2519.59050,0.01537
2517.53033,0.01543
2515.47015,0.01557
2513.40998,0.01572
2511.34981,0.01555
2509.28964,0.01504
2507.22947,0.01458
2505.16929,0.01459
2503.10912,0.01475
2501.04895,0.01475
2498.98878,0.01470
2496.92861,0.01474
2494.86843,0.01506
2492.80826,0.01535
2490.74809,0.01499
2488.68792,0.01424
2486.62775,0.01387
2484.56757,0.01373
2482.50740,0.01360
2480.44723,0.01387
2478.38706,0.01418
2476.32688,0.01424
2474.26671,0.01428
2472.20654,0.01391
2470.14637,0.01353
2468.08620,0.01386
2466.02602,0.01418
2463.96585,0.01404
2461.90568,0.01409
2459.84551,0.01453
2457.78534,0.01448
2455.72516,0.01367
2453.66499,0.01315
2451.60482,0.01307
2449.54465,0.01301
2447.48447,0.01303
2445.42430,0.01301
2443.36413,0.01312
2441.30396,0.01360
2439.24379,0.01391
2437.18361,0.01375
2435.12344,0.01374
2433.06327,0.01404
2431.00310,0.01420
2428.94293,0.01403
2426.88275,0.01358
2424.82258,0.01322
2422.76241,0.01303
2420.70224,0.01270
2418.64207,0.01263
2416.58189,0.01287
2414.52172,0.01298
2412.46155,0.01328
2410.40138,0.01401
2408.34120,0.01452
2406.28103,0.01411
2404.22086,0.01310
2402.16069,0.01255
2400.10052,0.01272
2398.04034,0.01301
2395.98017,0.01296
2393.92000,0.01274
2391.85983,0.01276
2389.79966,0.01289
2387.73948,0.01278
2385.67931,0.01244
2383.61914,0.01210
2381.55897,0.01202
2379.49880,0.01243
2377.43862,0.01338
2375.37845,0.01447
2373.31828,0.01470
2371.25811,0.01422
2369.19793,0.01408
2367.13776,0.01305
2365.07759,0.00910
2363.01742,0.00382
2360.95725,0.00018
2358.89707,0.00000
2356.83690,0.00231
2354.77673,0.00684
2352.71656,0.01111
2350.65639,0.01190
2348.59621,0.01178
2346.53604,0.01394
2344.47587,0.01532
2342.41570,0.01576
2340.35552,0.01579
2338.29535,0.01556
2336.23518,0.01489
2334.17501,0.01464
2332.11484,0.01521
2330.05466,0.01506
2327.99449,0.01487
2325.93432,0.01487
2323.87415,0.01493
2321.81398,0.01441
2319.75380,0.01330
2317.69363,0.01192
2315.63346,0.01134
2313.57329,0.01156
2311.51312,0.01227
2309.45294,0.01297
2307.39277,0.01303
2305.33260,0.01250
2303.27243,0.01187
2301.21225,0.01185
2299.15208,0.01260
2297.09191,0.01339
2295.03174,0.01346
2292.97157,0.01307
2290.91139,0.01273
2288.85122,0.01252
2286.79105,0.01208
2284.73088,0.01131
2282.67071,0.01069
2280.61053,0.01061
2278.55036,0.01096
2276.49019,0.01117
2274.43002,0.01080
2272.36984,0.01041
2270.30967,0.01064
2268.24950,0.01119
2266.18933,0.01147
2264.12916,0.01126
2262.06898,0.01098
2260.00881,0.01095
2257.94864,0.01073
2255.88847,0.01048
2253.82830,0.01079
2251.76812,0.01088
2249.70795,0.01027
2247.64778,0.00983
2245.58761,0.01013
2243.52744,0.01067
2241.46726,0.01061
2239.40709,0.01001
2237.34692,0.00989
2235.28675,0.01037
2233.22657,0.01081
2231.16640,0.01017
2229.10623,0.00778
2227.04606,0.00617
2224.98589,0.00736
2222.92571,0.00884
2220.86554,0.00901
2218.80537,0.00908
2216.74520,0.00985
2214.68503,0.01083
2212.62485,0.01062
2210.56468,0.00907
2208.50451,0.00818
2206.44434,0.00935
2204.38417,0.01112
2202.32399,0.01149
2200.26382,0.01054
2198.20365,0.00877
2196.14348,0.00757
2194.08330,0.00851
2192.02313,0.01045
2189.96296,0.01103
2187.90279,0.00970
2185.84262,0.00845
2183.78244,0.00846
2181.72227,0.00888
2179.66210,0.00954
2177.60193,0.01021
2175.54176,0.01020
2173.48158,0.00958
2171.42141,0.00815
2169.36124,0.00622
2167.30107,0.00578
2165.24089,0.00709
2163.18072,0.00783
2161.12055,0.00670
2159.06038,0.00494
2157.00021,0.00556
2154.94003,0.00837
2152.87986,0.01047
2150.81969,0.01049
2148.75952,0.00903
2146.69935,0.00757
2144.63917,0.00643
2142.57900,0.00615
2140.51883,0.00720
2138.45866,0.00821
2136.39849,0.00812
2134.33831,0.00718
2132.27814,0.00593
2130.21797,0.00541
2128.15780,0.00644
2126.09762,0.00830
2124.03745,0.00921
2121.97728,0.00802
2119.91711,0.00631
2117.85694,0.00613
2115.79676,0.00698
2113.73659,0.00770
2111.67642,0.00782
2109.61625,0.00770
2107.55608,0.00743
2105.49590,0.00687
2103.43573,0.00698
2101.37556,0.00830
2099.31539,0.00908
2097.25521,0.00812
2095.19504,0.00689
2093.13487,0.00670
2091.07470,0.00727
2089.01453,0.00821
2086.95435,0.00878
2084.89418,0.00841
2082.83401,0.00812
2080.77384,0.00865
2078.71367,0.00938
2076.65349,0.00935
2074.59332,0.00829
2072.53315,0.00735
2070.47298,0.00716
2068.41281,0.00741
2066.35263,0.00764
2064.29246,0.00719
2062.23229,0.00648
2060.17212,0.00630
2058.11194,0.00667
2056.05177,0.00766
2053.99160,0.00892
2051.93143,0.00879
2049.87126,0.00573
2047.81108,0.00216
2045.75091,0.00211
2043.69074,0.00376
2041.63057,0.00388
2039.57040,0.00399
2037.51022,0.00562
2035.45005,0.00690
2033.38988,0.00657
2031.32971,0.00513
2029.26954,0.00394
2027.20936,0.00374
2025.14919,0.00311
2023.08902,0.00212
2021.02885,0.00186
2018.96867,0.00256
2016.90850,0.00450
2014.84833,0.00586
2012.78816,0.00537
2010.72799,0.00478
2008.66781,0.00484
2006.60764,0.00533
2004.54747,0.00532
2002.48730,0.00329
2000.42713,0.00147
1998.36695,0.00290
1996.30678,0.00663
1994.24661,0.00965
1992.18644,0.00944
1990.12626,0.00717
1988.06609,0.00565
1986.00592,0.00475
1983.94575,0.00413
1981.88558,0.00442
1979.82540,0.00607
1977.76523,0.00821
1975.70506,0.00828
1973.64489,0.00558
1971.58472,0.00186
1969.52454,0.00000
1967.46437,0.00252
1965.40420,0.00686
1963.34403,0.00816
1961.28386,0.00682
1959.22368,0.00548
1957.16351,0.00510
1955.10334,0.00525
1953.04317,0.00513
1950.98299,0.00473
1948.92282,0.00372
1946.86265,0.00246
1944.80248,0.00265
1942.74231,0.00401
1940.68213,0.00496
1938.62196,0.00479
1936.56179,0.00371
1934.50162,0.00278
1932.44145,0.00264
1930.38127,0.00302
1928.32110,0.00316
1926.26093,0.00303
1924.20076,0.00368
1922.14059,0.00471
1920.08041,0.00503
1918.02024,0.00482
1915.96007,0.00427
1913.89990,0.00365
1911.83972,0.00348
1909.77955,0.00362
1907.71938,0.00368
1905.65921,0.00328
1903.59904,0.00252
1901.53886,0.00251
1899.47869,0.00346
1897.41852,0.00416
1895.35835,0.00399
1893.29818,0.00354
1891.23800,0.00352
1889.17783,0.00402
1887.11766,0.00432
1885.05749,0.00397
1882.99731,0.00340
1880.93714,0.00312
1878.87697,0.00315
1876.81680,0.00304
1874.75663,0.00250
1872.69645,0.00189
1870.63628,0.00173
1868.57611,0.00220
1866.51594,0.00286
1864.45577,0.00300
1862.39559,0.00255
1860.33542,0.00198
1858.27525,0.00160
1856.21508,0.00147
1854.15491,0.00166
1852.09473,0.00207
1850.03456,0.00223
1847.97439,0.00183
1845.91422,0.00140
1843.85404,0.00150
1841.79387,0.00194
1839.73370,0.00243
1837.67353,0.00275
1835.61336,0.00266
1833.55318,0.00227
1831.49301,0.00173
1829.43284,0.00124
1827.37267,0.00115
1825.31250,0.00119
1823.25232,0.00106
1821.19215,0.00073
1819.13198,0.00037
1817.07181,0.00017
1815.01163,0.00021
1812.95146,0.00050
1810.89129,0.00082
1808.83112,0.00099
1806.77095,0.00120
1804.71077,0.00148
1802.65060,0.00152
1800.59043,0.00114
1798.53026,0.00052
1796.47009,0.00015
1794.40991,0.00015
1792.34974,0.00024
1790.28957,0.00033
1788.22940,0.00041
1786.16923,0.00031
1784.10905,0.00017
1782.04888,0.00027
1779.98871,0.00038
1777.92854,0.00029
1775.86836,0.00018
1773.80819,0.00014
1771.74802,0.00008
1769.68785,0.00000
1767.62768,0.00001
1765.56750,0.00029
1763.50733,0.00091
1761.44716,0.00169
1759.38699,0.00230
1757.32682,0.00297
1755.26664,0.00405
1753.20647,0.00516
1751.14630,0.00617
1749.08613,0.00739
1747.02596,0.00866
1744.96578,0.00950
1742.90561,0.00996
1740.84544,0.01036
1738.78527,0.01091
1736.72509,0.01152
1734.66492,0.01213
1732.60475,0.01256
1730.54458,0.01259
1728.48441,0.01261
1726.42423,0.01289
1724.36406,0.01318
1722.30389,0.01328
1720.24372,0.01341
1718.18355,0.01372
1716.12337,0.01387
1714.06320,0.01371
1712.00303,0.01360
1709.94286,0.01364
1707.88268,0.01381
1705.82251,0.01403
1703.76234,0.01394
1701.70217,0.01354
1699.64200,0.01339
1697.58182,0.01365
1695.52165,0.01390
1693.46148,0.01404
1691.40131,0.01430
1689.34114,0.01503
1687.28096,0.01646
1685.22079,0.01866
1683.16062,0.02123
1681.10045,0.02326
1679.04028,0.02481
1676.98010,0.02609
1674.91993,0.02699
1672.85976,0.02746
1670.79959,0.02765
1668.73941,0.02737
1666.67924,0.02666
1664.61907,0.02596
1662.55890,0.02524
1660.49873,0.02443
1658.43855,0.02383
1656.37838,0.02342
1654.31821,0.02272
1652.25804,0.02204
1650.19787,0.02215
1648.13769,0.02249
1646.07752,0.02255
1644.01735,0.02249
1641.95718,0.02249
1639.89701,0.02253
1637.83683,0.02278
1635.77666,0.02349
1633.71649,0.02436
1631.65632,0.02501
1629.59614,0.02553
1627.53597,0.02610
1625.47580,0.02673
1623.41563,0.02719
1621.35546,0.02730
1619.29528,0.02730
1617.23511,0.02753
1615.17494,0.02798
1613.11477,0.02869
1611.05460,0.02993
1608.99442,0.03162
1606.93425,0.03298
1604.87408,0.03337
1602.81391,0.03292
1600.75373,0.03205
1598.69356,0.03098
1596.63339,0.02959
1594.57322,0.02806
1592.51305,0.02698
1590.45287,0.02649
1588.39270,0.02617
1586.33253,0.02571
1584.27236,0.02506
1582.21219,0.02434
1580.15201,0.02381
1578.09184,0.02352
1576.03167,0.02304
1573.97150,0.02223
1571.91133,0.02159
1569.85115,0.02104
1567.79098,0.02018
1565.73081,0.01913
1563.67064,0.01824
1561.61046,0.01728
1559.55029,0.01574
1557.49012,0.01433
1555.42995,0.01403
1553.36978,0.01372
1551.30960,0.01292
1549.24943,0.01211
1547.18926,0.01152
1545.12909,0.01075
1543.06892,0.00947
1541.00874,0.00823
1538.94857,0.00789
1536.88840,0.00809
1534.82823,0.00796
1532.76805,0.00745
1530.70788,0.00695
1528.64771,0.00680
1526.58754,0.00699
1524.52737,0.00721
1522.46719,0.00749
1520.40702,0.00850
1518.34685,0.01021
1516.28668,0.01167
1514.22651,0.01196
1512.16633,0.01125
1510.10616,0.01019
1508.04599,0.00881
1505.98582,0.00707
1503.92565,0.00586
1501.86547,0.00512
1499.80530,0.00429
1497.74513,0.00339
1495.68496,0.00270
1493.62478,0.00228
1491.56461,0.00203
1489.50444,0.00174
1487.44427,0.00122
1485.38410,0.00075
1483.32392,0.00060
1481.26375,0.00057
1479.20358,0.00063
1477.14341,0.00117
1475.08324,0.00245
1473.02306,0.00436
1470.96289,0.00636
1468.90272,0.00799
1466.84255,0.00947
1464.78238,0.01103
1462.72220,0.01235
1460.66203,0.01322
1458.60186,0.01416
1456.54169,0.01532
1454.48151,0.01606
1452.42134,0.01653
1450.36117,0.01733
1448.30100,0.01844
1446.24083,0.01940
1444.18065,0.02009
1442.12048,0.02068
1440.06031,0.02117
1438.00014,0.02161
1435.93997,0.02216
1433.87979,0.02272
1431.81962,0.02325
1429.75945,0.02371
1427.69928,0.02385
1425.63910,0.02368
1423.57893,0.02348
1421.51876,0.02342
1419.45859,0.02359
1417.39842,0.02398
1415.33824,0.02422
1413.27807,0.02410
1411.21790,0.02380
1409.15773,0.02345
1407.09756,0.02289
1405.03738,0.02207
1402.97721,0.02127
1400.91704,0.02067
1398.85687,0.02015
1396.79670,0.01966
1394.73652,0.01913
1392.67635,0.01847
1390.61618,0.01789
1388.55601,0.01778
1386.49583,0.01818
1384.43566,0.01874
1382.37549,0.01935
1380.31532,0.02014
1378.25515,0.02098
1376.19497,0.02151
1374.13480,0.02164
1372.07463,0.02170
1370.01446,0.02188
1367.95429,0.02195
1365.89411,0.02177
1363.83394,0.02140
1361.77377,0.02094
1359.71360,0.02054
1357.65343,0.02029
1355.59325,0.02018
1353.53308,0.02018
1351.47291,0.02015
1349.41274,0.02000
1347.35256,0.01990
1345.29239,0.01999
1343.23222,0.02009
1341.17205,0.02012
1339.11188,0.02011
1337.05170,0.01994
1334.99153,0.01964
1332.93136,0.01951
1330.87119,0.01955
1328.81102,0.01964
1326.75084,0.01975
1324.69067,0.01978
1322.63050,0.01979
1320.57033,0.01992
1318.51015,0.01993
1316.44998,0.01964
1314.38981,0.01930
1312.32964,0.01904
1310.26947,0.01873
1308.20929,0.01830
1306.14912,0.01784
1304.08895,0.01736
1302.02878,0.01672
1299.96861,0.01623
1297.90843,0.01613
1295.84826,0.01605
1293.78809,0.01585
1291.72792,0.01580
1289.66775,0.01592
1287.60757,0.01615
1285.54740,0.01650
1283.48723,0.01682
1281.42706,0.01697
1279.36688,0.01693
1277.30671,0.01682
1275.24654,0.01684
1273.18637,0.01701
1271.12620,0.01749
1269.06602,0.01829
1267.00585,0.01901
1264.94568,0.01972
1262.88551,0.02062
1260.82534,0.02140
1258.76516,0.02192
1256.70499,0.02226
1254.64482,0.02257
1252.58465,0.02297
1250.52447,0.02340
1248.46430,0.02379
1246.40413,0.02410
1244.34396,0.02437
1242.28379,0.02451
1240.22361,0.02461
1238.16344,0.02456
1236.10327,0.02414
1234.04310,0.02362
1231.98293,0.02313
1229.92275,0.02253
1227.86258,0.02184
1225.80241,0.02103
1223.74224,0.02008
1221.68207,0.01903
1219.62189,0.01778
1217.56172,0.01628
1215.50155,0.01494
1213.44138,0.01387
1211.38120,0.01272
1209.32103,0.01176
1207.26086,0.01123
1205.20069,0.01041
1203.14052,0.00899
1201.08034,0.00742
1199.02017,0.00582
1196.96000,0.00413
1194.89983,0.00275
1192.83966,0.00179
1190.77948,0.00100
1188.71931,0.00046
1186.65914,0.00029
1184.59897,0.00017
1182.53880,0.00000
1180.47862,0.00028
1178.41845,0.00120
1176.35828,0.00234
1174.29811,0.00375
1172.23793,0.00569
1170.17776,0.00790
1168.11759,0.00963
1166.05742,0.01047
1163.99725,0.01065
1161.93707,0.01068
1159.87690,0.01101
1157.81673,0.01157
1155.75656,0.01225
1153.69639,0.01317
1151.63621,0.01394
1149.57604,0.01452
1147.51587,0.01535
1145.45570,0.01629
1143.39552,0.01722
1141.33535,0.01832
1139.27518,0.01916
1137.21501,0.01961
1135.15484,0.02020
1133.09466,0.02105
1131.03449,0.02188
1128.97432,0.02262
1126.91415,0.02373
1124.85398,0.02525
1122.79380,0.02659
1120.73363,0.02770
1118.67346,0.02891
1116.61329,0.03018
1114.55312,0.03118
1112.49294,0.03189
1110.43277,0.03280
1108.37260,0.03398
1106.31243,0.03498
1104.25225,0.03595
1102.19208,0.03722
1100.13191,0.03867
1098.07174,0.04029
1096.01157,0.04240
1093.95139,0.04457
1091.89122,0.04614
1089.83105,0.04760
1087.77088,0.04962
1085.71071,0.05179
1083.65053,0.05364
1081.59036,0.05516
1079.53019,0.05643
1077.47002,0.05797
1075.40985,0.06036
1073.34967,0.06313
1071.28950,0.06539
1069.22933,0.06717
1067.16916,0.06899
1065.10898,0.07070
1063.04881,0.07190
1060.98864,0.07282
1058.92847,0.07382
1056.86830,0.07493
1054.80812,0.07638
1052.74795,0.07825
1050.68778,0.08050
1048.62761,0.08299
1046.56744,0.08536
1044.50726,0.08761
1042.44709,0.08991
1040.38692,0.09214
1038.32675,0.09408
1036.26657,0.09567
1034.20640,0.09704
1032.14623,0.09792
1030.08606,0.09798
1028.02589,0.09779
1025.96571,0.09781
1023.90554,0.09756
1021.84537,0.09681
1019.78520,0.09582
1017.72503,0.09522
1015.66485,0.09537
1013.60468,0.09580
1011.54451,0.09611
1009.48434,0.09638
1007.42417,0.09665
1005.36399,0.09674
1003.30382,0.09626
1001.24365,0.09532
999.18348,0.09438
997.12330,0.09333
995.06313,0.09205
993.00296,0.09075
990.94279,0.08938
988.88262,0.08765
986.82244,0.08583
984.76227,0.08459
982.70210,0.08377
980.64193,0.08260
978.58176,0.08075
976.52158,0.07885
974.46141,0.07760
972.40124,0.07680
970.34107,0.07555
968.28089,0.07362
966.22072,0.07183
964.16055,0.07023
962.10038,0.06849
960.04021,0.06715
957.98003,0.06605
955.91986,0.06468
953.85969,0.06316
951.79952,0.06172
949.73935,0.06040
947.67917,0.05888
945.61900,0.05706
943.55883,0.05512
941.49866,0.05302
939.43849,0.05105
937.37831,0.04909
935.31814,0.04617
933.25797,0.04239
931.19780,0.03929
929.13762,0.03720
927.07745,0.03497
925.01728,0.03261
922.95711,0.03072
920.89694,0.02915
918.83676,0.02775
916.77659,0.02637
914.71642,0.02475
912.65625,0.02314
910.59608,0.02170
908.53590,0.02042
906.47573,0.01943
904.41556,0.01857
902.35539,0.01793
900.29522,0.01762
898.23504,0.01756
896.17487,0.01777
894.11470,0.01810
892.05453,0.01849
889.99435,0.01892
887.93418,0.01877
885.87401,0.01747
883.81384,0.01568
881.75367,0.01413
879.69349,0.01305
877.63332,0.01224
875.57315,0.01137
873.51298,0.01068
871.45281,0.01051
869.39263,0.01073
867.33246,0.01085
865.27229,0.01062
863.21212,0.01020
861.15194,0.01013
859.09177,0.01044
857.03160,0.01048
854.97143,0.00986
852.91126,0.00896
850.85108,0.00862
848.79091,0.00933
846.73074,0.01010
844.67057,0.00984
842.61040,0.00923
840.55022,0.00870
838.49005,0.00802
836.42988,0.00744
834.36971,0.00683
832.30954,0.00645
830.24936,0.00660
828.18919,0.00627
826.12902,0.00528
824.06885,0.00455
822.00867,0.00417
819.94850,0.00397
817.88833,0.00481
815.82816,0.00585
813.76799,0.00518
811.70781,0.00378
809.64764,0.00305
807.58747,0.00281
805.52730,0.00282
803.46713,0.00289
801.40695,0.00266
799.34678,0.00224
797.28661,0.00216
795.22644,0.00241
793.16627,0.00205
791.10609,0.00079
789.04592,0.00000
786.98575,-0.00008
784.92558,0.00011
782.86540,0.00107
780.80523,0.00209
778.74506,0.00187
776.68489,0.00118
774.62472,0.00165
772.56454,0.00257
770.50437,0.00247
768.44420,0.00208
766.38403,0.00248
764.32386,0.00328
762.26368,0.00336
760.20351,0.00213
758.14334,0.00114
756.08317,0.00178
754.02299,0.00273
751.96282,0.00259
749.90265,0.00213
747.84248,0.00220
745.78231,0.00151
743.72213,0.00000
741.66196,-0.00000
739.60179,0.00140
737.54162,0.00193
735.48145,0.00188
733.42127,0.00219
731.36110,0.00290
729.30093,0.00343
727.24076,0.00343
725.18059,0.00297
723.12041,0.00265
721.06024,0.00364
719.00007,0.00495
716.93990,0.00560
714.87972,0.00546
712.81955,0.00458
710.75938,0.00367
708.69921,0.00367
706.63904,0.00433
704.57886,0.00486
702.51869,0.00499
700.45852,0.00494
698.39835,0.00548
696.33818,0.00689
694.27800,0.00845
692.21783,0.00893
690.15766,0.00838
688.09749,0.00856
686.03731,0.00932
683.97714,0.00856
681.91697,0.00640
679.85680,0.00463
677.79663,0.00352
675.73645,0.00281
673.67628,0.00286
671.61611,0.00477
669.55594,0.01084
667.49577,0.01528
665.43559,0.01233
663.37542,0.01199
661.31525,0.01196
659.25508,0.00955
657.19491,0.00630
655.13473,0.00582
653.07456,0.00751
651.01439,0.00794
648.95422,0.00780
646.89404,0.01016
644.83387,0.01468
642.77370,0.01784
640.71353,0.01798
638.65336,0.01665
636.59318,0.01457
634.53301,0.01076
632.47284,0.00774
630.41267,0.00893
628.35250,0.01239
626.29232,0.01403
624.23215,0.01241
622.17198,0.00705
620.11181,0.00123
618.05164,0.00000
615.99146,0.00242
613.93129,0.00434
611.87112,0.00187
609.81095,-0.00265
607.75077,-0.00176
605.69060,0.00402
603.63043,0.00637
601.57026,0.00389
599.51009,0.00000
