3996.73391,0.00073
3994.67373,0.00096
3992.61356,0.00074
3990.55339,0.00053
3988.49322,0.00050
3986.43305,0.00037
3984.37287,0.00013
3982.31270,-0.00000
3980.25253,0.00036
3978.19236,0.00110
3976.13219,0.00143
3974.07201,0.00106
3972.01184,0.00049
3969.95167,0.00010
3967.89150,0.00000
3965.83133,0.00011
3963.77115,0.00025
3961.71098,0.00030
3959.65081,0.00027
3957.59064,0.00023
3955.53046,0.00039
3953.47029,0.00090
3951.41012,0.00144
3949.34995,0.00146
3947.28978,0.00096
3945.22960,0.00050
3943.16943,0.00049
3941.10926,0.00076
3939.04909,0.00093
3936.98892,0.00090
3934.92874,0.00080
3932.86857,0.00076
3930.80840,0.00096
3928.74823,0.00127
3926.68805,0.00130
3924.62788,0.00096
3922.56771,0.00070
3920.50754,0.00094
3918.44737,0.00123
3916.38719,0.00082
3914.32702,0.00010
3912.26685,0.00000
3910.20668,0.00040
3908.14651,0.00071
3906.08633,0.00089
3904.02616,0.00122
3901.96599,0.00131
3899.90582,0.00076
3897.84565,0.00055
3895.78547,0.00112
3893.72530,0.00177
3891.66513,0.00180
3889.60496,0.00133
3887.54478,0.00101
3885.48461,0.00099
3883.42444,0.00119
3881.36427,0.00146
3879.30410,0.00150
3877.24392,0.00121
3875.18375,0.00086
3873.12358,0.00095
3871.06341,0.00126
3869.00324,0.00121
3866.94306,0.00088
3864.88289,0.00057
3862.82272,0.00066
3860.76255,0.00119
3858.70237,0.00174
3856.64220,0.00217
3854.58203,0.00274
3852.52186,0.00336
3850.46169,0.00327
3848.40151,0.00276
3846.34134,0.00225
3844.28117,0.00186
3842.22100,0.00198
3840.16083,0.00230
3838.10065,0.00206
3836.04048,0.00174
3833.98031,0.00185
3831.92014,0.00180
3829.85997,0.00136
3827.79979,0.00113
3825.73962,0.00141
3823.67945,0.00172
3821.61928,0.00181
3819.55910,0.00174
3817.49893,0.00124
3815.43876,0.00060
3813.37859,0.00059
3811.31842,0.00118
3809.25824,0.00171
3807.19807,0.00180
3805.13790,0.00149
3803.07773,0.00114
3801.01756,0.00134
3798.95738,0.00223
3796.89721,0.00305
3794.83704,0.00298
3792.77687,0.00212
3790.71670,0.00131
3788.65652,0.00108
3786.59635,0.00129
3784.53618,0.00147
3782.47601,0.00153
3780.41583,0.00178
3778.35566,0.00219
3776.29549,0.00253
3774.23532,0.00273
3772.17515,0.00251
3770.11497,0.00173
3768.05480,0.00107
3765.99463,0.00096
3763.93446,0.00112
3761.87429,0.00129
3759.81411,0.00142
3757.75394,0.00157
3755.69377,0.00185
3753.63360,0.00208
3751.57342,0.00215
3749.51325,0.00210
3747.45308,0.00157
3745.39291,0.00082
3743.33274,0.00082
3741.27256,0.00144
3739.21239,0.00201
3737.15222,0.00277
3735.09205,0.00371
3733.03188,0.00378
3730.97170,0.00297
3728.91153,0.00228
3726.85136,0.00200
3724.79119,0.00180
3722.73102,0.00144
3720.67084,0.00110
3718.61067,0.00089
3716.55050,0.00057
3714.49033,0.00008
3712.43015,0.00009
3710.36998,0.00089
3708.30981,0.00153
3706.24964,0.00177
3704.18947,0.00195
3702.12929,0.00212
3700.06912,0.00245
3698.00895,0.00261
3695.94878,0.00199
3693.88861,0.00129
3691.82843,0.00170
3689.76826,0.00275
3687.70809,0.00299
3685.64792,0.00229
3683.58775,0.00147
3681.52757,0.00114
3679.46740,0.00125
3677.40723,0.00113
3675.34706,0.00045
3673.28688,0.00000
3671.22671,0.00025
3669.16654,0.00107
3667.10637,0.00189
3665.04620,0.00229
3662.98602,0.00247
3660.92585,0.00271
3658.86568,0.00294
3656.80551,0.00297
3654.74534,0.00271
3652.68516,0.00251
3650.62499,0.00285
3648.56482,0.00341
3646.50465,0.00344
3644.44447,0.00315
3642.38430,0.00280
3640.32413,0.00253
3638.26396,0.00253
3636.20379,0.00254
3634.14361,0.00230
3632.08344,0.00225
3630.02327,0.00296
3627.96310,0.00398
3625.90293,0.00412
3623.84275,0.00371
3621.78258,0.00347
3619.72241,0.00360
3617.66224,0.00416
3615.60207,0.00462
3613.54189,0.00438
3611.48172,0.00372
3609.42155,0.00344
3607.36138,0.00375
3605.30120,0.00415
3603.24103,0.00456
3601.18086,0.00522
3599.12069,0.00589
3597.06052,0.00621
3595.00034,0.00603
3592.94017,0.00560
3590.88000,0.00541
3588.81983,0.00556
3586.75966,0.00582
3584.69948,0.00604
3582.63931,0.00622
3580.57914,0.00661
3578.51897,0.00724
3576.45879,0.00785
3574.39862,0.00840
3572.33845,0.00897
3570.27828,0.00945
3568.21811,0.00940
3566.15793,0.00886
3564.09776,0.00891
3562.03759,0.00971
3559.97742,0.01029
3557.91725,0.01030
3555.85707,0.01037
3553.79690,0.01093
3551.73673,0.01157
3549.67656,0.01161
3547.61639,0.01133
3545.55621,0.01143
3543.49604,0.01170
3541.43587,0.01180
3539.37570,0.01208
3537.31552,0.01278
3535.25535,0.01359
3533.19518,0.01419
3531.13501,0.01451
3529.07484,0.01463
3527.01466,0.01488
3524.95449,0.01550
3522.89432,0.01621
3520.83415,0.01665
3518.77398,0.01681
3516.71380,0.01693
3514.65363,0.01721
3512.59346,0.01760
3510.53329,0.01795
3508.47312,0.01823
3506.41294,0.01839
3504.35277,0.01864
3502.29260,0.01922
3500.23243,0.01989
3498.17225,0.02042
3496.11208,0.02087
3494.05191,0.02112
3491.99174,0.02124
3489.93157,0.02147
3487.87139,0.02166
3485.81122,0.02165
3483.75105,0.02167
3481.69088,0.02195
3479.63071,0.02263
3477.57053,0.02362
3475.51036,0.02451
3473.45019,0.02489
3471.39002,0.02469
3469.32984,0.02456
3467.26967,0.02503
3465.20950,0.02557
3463.14933,0.02575
3461.08916,0.02594
3459.02898,0.02646
3456.96881,0.02707
3454.90864,0.02742
3452.84847,0.02757
3450.78830,0.02786
3448.72812,0.02830
3446.66795,0.02873
3444.60778,0.02904
3442.54761,0.02925
3440.48744,0.02938
3438.42726,0.02939
3436.36709,0.02950
3434.30692,0.02990
3432.24675,0.03039
3430.18657,0.03059
3428.12640,0.03046
3426.06623,0.03051
3424.00606,0.03107
3421.94589,0.03174
3419.88571,0.03207
3417.82554,0.03212
3415.76537,0.03230
3413.70520,0.03269
3411.64503,0.03317
3409.58485,0.03370
3407.52468,0.03417
3405.46451,0.03431
3403.40434,0.03435
3401.34416,0.03466
3399.28399,0.03489
3397.22382,0.03481
3395.16365,0.03498
3393.10348,0.03549
3391.04330,0.03599
3388.98313,0.03639
3386.92296,0.03657
3384.86279,0.03654
3382.80262,0.03658
3380.74244,0.03678
3378.68227,0.03693
3376.62210,0.03695
3374.56193,0.03706
3372.50176,0.03723
3370.44158,0.03739
3368.38141,0.03787
3366.32124,0.03843
3364.26107,0.03863
3362.20089,0.03877
3360.14072,0.03892
3358.08055,0.03895
3356.02038,0.03890
3353.96021,0.03873
3351.90003,0.03877
3349.83986,0.03935
3347.77969,0.04016
3345.71952,0.04076
3343.65935,0.04085
3341.59917,0.04053
3339.53900,0.04033
3337.47883,0.04031
3335.41866,0.04019
3333.35849,0.03998
3331.29831,0.03981
3329.23814,0.03977
3327.17797,0.03977
3325.11780,0.03969
3323.05762,0.03991
3320.99745,0.04070
3318.93728,0.04130
3316.87711,0.04107
3314.81694,0.04061
3312.75676,0.04065
3310.69659,0.04111
3308.63642,0.04146
3306.57625,0.04124
3304.51608,0.04065
3302.45590,0.04043
3300.39573,0.04059
3298.33556,0.04061
3296.27539,0.04065
3294.21521,0.04123
3292.15504,0.04164
3290.09487,0.04108
3288.03470,0.04042
3285.97453,0.04049
3283.91435,0.04085
3281.85418,0.04120
3279.79401,0.04153
3277.73384,0.04150
3275.67367,0.04116
3273.61349,0.04099
3271.55332,0.04087
3269.49315,0.04068
3267.43298,0.04077
3265.37281,0.04119
3263.31263,0.04134
3261.25246,0.04097
3259.19229,0.04077
3257.13212,0.04089
3255.07194,0.04087
3253.01177,0.04092
3250.95160,0.04116
3248.89143,0.04118
3246.83126,0.04096
3244.77108,0.04074
3242.71091,0.04058
3240.65074,0.04040
3238.59057,0.04035
3236.53040,0.04070
3234.47022,0.04097
3232.41005,0.04057
3230.34988,0.03999
3228.28971,0.03990
3226.22954,0.03991
3224.16936,0.03985
3222.10919,0.03989
3220.04902,0.03979
3217.98885,0.03953
3215.92867,0.03938
3213.86850,0.03916
3211.80833,0.03878
3209.74816,0.03851
3207.68799,0.03829
3205.62781,0.03813
3203.56764,0.03819
3201.50747,0.03826
3199.44730,0.03803
3197.38713,0.03753
3195.32695,0.03725
3193.26678,0.03744
3191.20661,0.03749
3189.14644,0.03715
3187.08626,0.03671
3185.02609,0.03631
3182.96592,0.03616
3180.90575,0.03638
3178.84558,0.03681
3176.78540,0.03708
3174.72523,0.03695
3172.66506,0.03642
3170.60489,0.03574
3168.54472,0.03541
3166.48454,0.03548
3164.42437,0.03545
3162.36420,0.03510
3160.30403,0.03474
3158.24386,0.03460
3156.18368,0.03434
3154.12351,0.03389
3152.06334,0.03361
3150.00317,0.03338
3147.94299,0.03317
3145.88282,0.03288
3143.82265,0.03255
3141.76248,0.03258
3139.70231,0.03277
3137.64213,0.03264
3135.58196,0.03227
3133.52179,0.03209
3131.46162,0.03198
3129.40145,0.03163
3127.34127,0.03107
3125.28110,0.03074
3123.22093,0.03076
3121.16076,0.03095
3119.10058,0.03112
3117.04041,0.03104
3114.98024,0.03062
3112.92007,0.02999
3110.85990,0.02947
3108.79972,0.02937
3106.73955,0.02946
3104.67938,0.02937
3102.61921,0.02913
3100.55904,0.02881
3098.49886,0.02855
3096.43869,0.02841
3094.37852,0.02811
3092.31835,0.02766
3090.25818,0.02730
3088.19800,0.02713
3086.13783,0.02724
3084.07766,0.02712
3082.01749,0.02660
3079.95731,0.02632
3077.89714,0.02629
3075.83697,0.02605
3073.77680,0.02562
3071.71663,0.02538
3069.65645,0.02554
3067.59628,0.02587
3065.53611,0.02591
3063.47594,0.02548
3061.41577,0.02485
3059.35559,0.02425
3057.29542,0.02378
3055.23525,0.02368
3053.17508,0.02384
3051.11491,0.02380
3049.05473,0.02347
3046.99456,0.02327
3044.93439,0.02337
3042.87422,0.02333
3040.81404,0.02299
3038.75387,0.02264
3036.69370,0.02235
3034.63353,0.02222
3032.57336,0.02210
3030.51318,0.02165
3028.45301,0.02122
3026.39284,0.02117
3024.33267,0.02132
3022.27250,0.02145
3020.21232,0.02151
3018.15215,0.02148
3016.09198,0.02130
3014.03181,0.02115
3011.97163,0.02106
3009.91146,0.02079
3007.85129,0.02049
3005.79112,0.02023
3003.73095,0.01981
3001.67077,0.01945
2999.61060,0.01940
2997.55043,0.01933
2995.49026,0.01922
2993.43009,0.01946
2991.36991,0.01944
2989.30974,0.01883
2987.24957,0.01840
2985.18940,0.01858
2983.12923,0.01899
2981.06905,0.01928
2979.00888,0.01944
2976.94871,0.01986
2974.88854,0.02047
2972.82836,0.02083
2970.76819,0.02111
2968.70802,0.02178
2966.64785,0.02285
2964.58768,0.02395
2962.52750,0.02478
2960.46733,0.02561
2958.40716,0.02679
2956.34699,0.02817
2954.28682,0.02953
2952.22664,0.03067
2950.16647,0.03177
2948.10630,0.03348
2946.04613,0.03587
2943.98596,0.03829
2941.92578,0.04012
2939.86561,0.04163
2937.80544,0.04343
2935.74527,0.04533
2933.68509,0.04710
2931.62492,0.04899
2929.56475,0.05081
2927.50458,0.05226
2925.44441,0.05343
2923.38423,0.05445
2921.32406,0.05526
2919.26389,0.05559
2917.20372,0.05521
2915.14355,0.05409
2913.08337,0.05235
2911.02320,0.05030
2908.96303,0.04846
2906.90286,0.04689
2904.84268,0.04537
2902.78251,0.04386
2900.72234,0.04239
2898.66217,0.04119
2896.60200,0.04026
2894.54182,0.03948
2892.48165,0.03883
2890.42148,0.03817
2888.36131,0.03739
2886.30114,0.03669
2884.24096,0.03612
2882.18079,0.03557
2880.12062,0.03494
2878.06045,0.03432
2876.00028,0.03409
2873.94010,0.03446
2871.87993,0.03494
2869.81976,0.03532
2867.75959,0.03579
2865.69941,0.03639
2863.63924,0.03728
2861.57907,0.03851
2859.51890,0.03987
2857.45873,0.04128
2855.39855,0.04276
2853.33838,0.04413
2851.27821,0.04494
2849.21804,0.04463
2847.15787,0.04294
2845.09769,0.04046
2843.03752,0.03788
2840.97735,0.03556
2838.91718,0.03367
2836.85700,0.03226
2834.79683,0.03111
2832.73666,0.02990
2830.67649,0.02885
2828.61632,0.02831
2826.55614,0.02774
2824.49597,0.02704
2822.43580,0.02673
2820.37563,0.02650
2818.31546,0.02596
2816.25528,0.02546
2814.19511,0.02512
2812.13494,0.02498
2810.07477,0.02485
2808.01460,0.02443
2805.95442,0.02411
2803.89425,0.02399
2801.83408,0.02370
2799.77391,0.02342
2797.71373,0.02334
2795.65356,0.02330
2793.59339,0.02305
2791.53322,0.02253
2789.47305,0.02199
2787.41287,0.02170
2785.35270,0.02154
2783.29253,0.02127
2781.23236,0.02115
2779.17219,0.02135
2777.11201,0.02143
2775.05184,0.02129
2772.99167,0.02117
2770.93150,0.02098
2768.87133,0.02068
2766.81115,0.02041
2764.75098,0.02021
2762.69081,0.02011
2760.63064,0.02009
2758.57046,0.02006
2756.51029,0.01995
2754.45012,0.01986
2752.38995,0.01996
2750.32978,0.02013
2748.26960,0.02027
2746.20943,0.02037
2744.14926,0.02007
2742.08909,0.01954
2740.02892,0.01938
2737.96874,0.01956
2735.90857,0.01971
2733.84840,0.01970
2731.78823,0.01956
2729.72805,0.01940
2727.66788,0.01945
2725.60771,0.01963
2723.54754,0.01968
2721.48737,0.01944
2719.42719,0.01911
2717.36702,0.01906
2715.30685,0.01902
2713.24668,0.01865
2711.18651,0.01845
2709.12633,0.01870
2707.06616,0.01893
2705.00599,0.01904
2702.94582,0.01904
2700.88565,0.01886
2698.82547,0.01897
2696.76530,0.01922
2694.70513,0.01896
2692.64496,0.01872
2690.58478,0.01887
2688.52461,0.01885
2686.46444,0.01864
2684.40427,0.01859
2682.34410,0.01863
2680.28392,0.01852
2678.22375,0.01833
2676.16358,0.01829
2674.10341,0.01828
2672.04324,0.01813
2669.98306,0.01806
2667.92289,0.01825
2665.86272,0.01844
2663.80255,0.01839
2661.74238,0.01807
2659.68220,0.01783
2657.62203,0.01803
2655.56186,0.01836
2653.50169,0.01825
2651.44151,0.01779
2649.38134,0.01740
2647.32117,0.01722
2645.26100,0.01724
2643.20083,0.01739
2641.14065,0.01750
2639.08048,0.01729
2637.02031,0.01679
2634.96014,0.01633
2632.89997,0.01609
2630.83979,0.01624
2628.77962,0.01666
2626.71945,0.01680
2624.65928,0.01643
2622.59910,0.01587
2620.53893,0.01550
2618.47876,0.01558
2616.41859,0.01596
2614.35842,0.01613
2612.29824,0.01585
2610.23807,0.01538
2608.17790,0.01519
2606.11773,0.01517
2604.05756,0.01518
2601.99738,0.01540
2599.93721,0.01531
2597.87704,0.01475
2595.81687,0.01448
2593.75670,0.01478
2591.69652,0.01521
2589.63635,0.01516
2587.57618,0.01432
2585.51601,0.01347
2583.45583,0.01353
2581.39566,0.01399
2579.33549,0.01409
2577.27532,0.01388
2575.21515,0.01365
2573.15497,0.01339
2571.09480,0.01318
2569.03463,0.01359
2566.97446,0.01436
2564.91429,0.01467
2562.85411,0.01446
2560.79394,0.01401
2558.73377,0.01361
2556.67360,0.01348
2554.61342,0.01360
2552.55325,0.01375
2550.49308,0.01355
2548.43291,0.01316
2546.37274,0.01318
2544.31256,0.01337
2542.25239,0.01334
2540.19222,0.01326
2538.13205,0.01333
2536.07188,0.01335
2534.01170,0.01315
2531.95153,0.01292
2529.89136,0.01276
2527.83119,0.01283
2525.77102,0.01301
2523.71084,0.01292
2521.65067,0.01279
2519.59050,0.01270
2517.53033,0.01252
2515.47015,0.01251
2513.40998,0.01264
2511.34981,0.01262
2509.28964,0.01236
2507.22947,0.01228
2505.16929,0.01264
2503.10912,0.01286
2501.04895,0.01260
2498.98878,0.01218
2496.92861,0.01205
2494.86843,0.01219
2492.80826,0.01223
2490.74809,0.01215
2488.68792,0.01190
2486.62775,0.01158
2484.56757,0.01152
2482.50740,0.01148
2480.44723,0.01139
2478.38706,0.01145
2476.32688,0.01163
2474.26671,0.01185
2472.20654,0.01174
2470.14637,0.01139
2468.08620,0.01141
2466.02602,0.01148
2463.96585,0.01111
2461.90568,0.01093
2459.84551,0.01118
2457.78534,0.01114
2455.72516,0.01081
2453.66499,0.01058
2451.60482,0.01014
2449.54465,0.00993
2447.48447,0.01034
2445.42430,0.01045
2443.36413,0.01028
2441.30396,0.01055
2439.24379,0.01103
2437.18361,0.01130
2435.12344,0.01163
2433.06327,0.01196
2431.00310,0.01180
2428.94293,0.01113
2426.88275,0.01047
2424.82258,0.01047
2422.76241,0.01099
2420.70224,0.01115
2418.64207,0.01072
2416.58189,0.01018
2414.52172,0.00992
2412.46155,0.01035
2410.40138,0.01126
2408.34120,0.01158
2406.28103,0.01101
2404.22086,0.01044
2402.16069,0.01040
2400.10052,0.01056
2398.04034,0.01065
2395.98017,0.01057
2393.92000,0.01031
2391.85983,0.01005
2389.79966,0.00983
2387.73948,0.00958
2385.67931,0.00939
2383.61914,0.00935
2381.55897,0.00941
2379.49880,0.00955
2377.43862,0.00993
2375.37845,0.01061
2373.31828,0.01127
2371.25811,0.01180
2369.19793,0.01289
2367.13776,0.01415
2365.07759,0.01254
2363.01742,0.00690
2360.95725,0.00172
2358.89707,0.00016
2356.83690,0.00130
2354.77673,0.00465
2352.71656,0.00831
2350.65639,0.00987
2348.59621,0.00963
2346.53604,0.00884
2344.47587,0.00846
2342.41570,0.00905
2340.35552,0.01003
2338.29535,0.01064
2336.23518,0.01124
2334.17501,0.01216
2332.11484,0.01195
2330.05466,0.01056
2327.99449,0.01000
2325.93432,0.01038
2323.87415,0.01062
2321.81398,0.01071
2319.75380,0.01073
2317.69363,0.01042
2315.63346,0.00956
2313.57329,0.00881
2311.51312,0.00925
2309.45294,0.01045
2307.39277,0.01092
2305.33260,0.01037
2303.27243,0.00962
2301.21225,0.00944
2299.15208,0.01004
2297.09191,0.01074
2295.03174,0.01088
2292.97157,0.01073
2290.91139,0.01056
2288.85122,0.01018
2286.79105,0.00942
2284.73088,0.00853
2282.67071,0.00783
2280.61053,0.00771
2278.55036,0.00823
2276.49019,0.00870
2274.43002,0.00841
2272.36984,0.00768
2270.30967,0.00729
2268.24950,0.00751
2266.18933,0.00805
2264.12916,0.00844
2262.06898,0.00837
2260.00881,0.00791
2257.94864,0.00742
2255.88847,0.00747
2253.82830,0.00798
2251.76812,0.00794
2249.70795,0.00707
2247.64778,0.00649
2245.58761,0.00741
2243.52744,0.00875
2241.46726,0.00829
2239.40709,0.00682
2237.34692,0.00686
2235.28675,0.00812
2233.22657,0.00884
2231.16640,0.00886
2229.10623,0.00804
2227.04606,0.00666
2224.98589,0.00607
2222.92571,0.00607
2220.86554,0.00604
2218.80537,0.00639
2216.74520,0.00727
2214.68503,0.00780
2212.62485,0.00711
2210.56468,0.00547
2208.50451,0.00489
2206.44434,0.00692
2204.38417,0.00965
2202.32399,0.01009
2200.26382,0.00815
2198.20365,0.00602
2196.14348,0.00553
2194.08330,0.00641
2192.02313,0.00724
2189.96296,0.00731
2187.90279,0.00680
2185.84262,0.00645
2183.78244,0.00628
2181.72227,0.00605
2179.66210,0.00660
2177.60193,0.00792
2175.54176,0.00888
2173.48158,0.00897
2171.42141,0.00827
2169.36124,0.00704
2167.30107,0.00579
2165.24089,0.00492
2163.18072,0.00524
2161.12055,0.00582
2159.06038,0.00442
2157.00021,0.00371
2154.94003,0.00534
2152.87986,0.00665
2150.81969,0.00743
2148.75952,0.00805
2146.69935,0.00723
2144.63917,0.00544
2142.57900,0.00432
2140.51883,0.00419
2138.45866,0.00443
2136.39849,0.00452
2134.33831,0.00446
2132.27814,0.00410
2130.21797,0.00403
2128.15780,0.00525
2126.09762,0.00699
2124.03745,0.00768
2121.97728,0.00669
2119.91711,0.00514
2117.85694,0.00440
2115.79676,0.00469
2113.73659,0.00544
2111.67642,0.00593
2109.61625,0.00631
2107.55608,0.00640
2105.49590,0.00595
2103.43573,0.00604
2101.37556,0.00702
2099.31539,0.00727
2097.25521,0.00607
2095.19504,0.00488
2093.13487,0.00485
2091.07470,0.00527
2089.01453,0.00591
2086.95435,0.00675
2084.89418,0.00667
2082.83401,0.00597
2080.77384,0.00594
2078.71367,0.00649
2076.65349,0.00654
2074.59332,0.00574
2072.53315,0.00507
2070.47298,0.00478
2068.41281,0.00484
2066.35263,0.00541
2064.29246,0.00532
2062.23229,0.00456
2060.17212,0.00480
2058.11194,0.00575
2056.05177,0.00668
2053.99160,0.00792
2051.93143,0.00815
2049.87126,0.00584
2047.81108,0.00285
2045.75091,0.00267
2043.69074,0.00516
2041.63057,0.00691
2039.57040,0.00698
2037.51022,0.00723
2035.45005,0.00734
2033.38988,0.00576
2031.32971,0.00278
2029.26954,0.00076
2027.20936,0.00167
2025.14919,0.00343
2023.08902,0.00366
2021.02885,0.00270
2018.96867,0.00178
2016.90850,0.00229
2014.84833,0.00306
2012.78816,0.00210
2010.72799,0.00062
2008.66781,0.00016
2006.60764,0.00108
2004.54747,0.00267
2002.48730,0.00339
2000.42713,0.00400
1998.36695,0.00582
1996.30678,0.00785
1994.24661,0.00849
1992.18644,0.00715
1990.12626,0.00508
1988.06609,0.00270
1986.00592,0.00016
1983.94575,0.00000
1981.88558,0.00237
1979.82540,0.00496
1977.76523,0.00712
1975.70506,0.00785
1973.64489,0.00664
1971.58472,0.00478
1969.52454,0.00340
1967.46437,0.00345
1965.40420,0.00443
1963.34403,0.00476
1961.28386,0.00440
1959.22368,0.00391
1957.16351,0.00368
1955.10334,0.00368
1953.04317,0.00398
1950.98299,0.00477
1948.92282,0.00457
1946.86265,0.00302
1944.80248,0.00219
1942.74231,0.00286
1940.68213,0.00373
1938.62196,0.00372
1936.56179,0.00299
1934.50162,0.00212
1932.44145,0.00168
1930.38127,0.00198
1928.32110,0.00241
1926.26093,0.00286
1924.20076,0.00405
1922.14059,0.00513
1920.08041,0.00487
1918.02024,0.00389
1915.96007,0.00306
1913.89990,0.00263
1911.83972,0.00267
1909.77955,0.00287
1907.71938,0.00301
1905.65921,0.00290
1903.59904,0.00250
1901.53886,0.00249
1899.47869,0.00298
1897.41852,0.00326
1895.35835,0.00326
1893.29818,0.00315
1891.23800,0.00299
1889.17783,0.00328
1887.11766,0.00381
1885.05749,0.00378
1882.99731,0.00331
1880.93714,0.00308
1878.87697,0.00323
1876.81680,0.00323
1874.75663,0.00263
1872.69645,0.00176
1870.63628,0.00132
1868.57611,0.00174
1866.51594,0.00253
1864.45577,0.00272
1862.39559,0.00240
1860.33542,0.00235
1858.27525,0.00259
1856.21508,0.00256
1854.15491,0.00217
1852.09473,0.00174
1850.03456,0.00134
1847.97439,0.00101
1845.91422,0.00100
1843.85404,0.00152
1841.79387,0.00239
1839.73370,0.00298
1837.67353,0.00301
1835.61336,0.00268
1833.55318,0.00219
1831.49301,0.00173
1829.43284,0.00163
1827.37267,0.00189
1825.31250,0.00195
1823.25232,0.00154
1821.19215,0.00080
1819.13198,0.00014
1817.07181,0.00000
1815.01163,0.00031
1812.95146,0.00075
1810.89129,0.00096
1808.83112,0.00087
1806.77095,0.00084
1804.71077,0.00102
1802.65060,0.00116
1800.59043,0.00091
1798.53026,0.00031
1796.47009,-0.00022
1794.40991,-0.00047
1792.34974,-0.00051
1790.28957,-0.00035
1788.22940,-0.00012
1786.16923,-0.00005
1784.10905,-0.00009
1782.04888,0.00000
1779.98871,0.00017
1777.92854,0.00019
1775.86836,-0.00000
1773.80819,-0.00015
1771.74802,-0.00016
1769.68785,-0.00012
1767.62768,0.00005
1765.56750,0.00040
1763.50733,0.00090
1761.44716,0.00154
1759.38699,0.00217
1757.32682,0.00288
1755.26664,0.00378
1753.20647,0.00472
1751.14630,0.00574
1749.08613,0.00691
1747.02596,0.00801
1744.96578,0.00888
1742.90561,0.00947
1740.84544,0.01007
1738.78527,0.01088
1736.72509,0.01166
1734.66492,0.01226
1732.60475,0.01253
1730.54458,0.01245
1728.48441,0.01242
1726.42423,0.01256
1724.36406,0.01274
1722.30389,0.01289
1720.24372,0.01303
1718.18355,0.01326
1716.12337,0.01361
1714.06320,0.01380
1712.00303,0.01386
1709.94286,0.01389
1707.88268,0.01384
1705.82251,0.01374
1703.76234,0.01354
1701.70217,0.01326
1699.64200,0.01303
1697.58182,0.01311
1695.52165,0.01352
1693.46148,0.01389
1691.40131,0.01417
1689.34114,0.01478
1687.28096,0.01596
1685.22079,0.01783
1683.16062,0.02037
1681.10045,0.02263
1679.04028,0.02432
1676.98010,0.02567
1674.91993,0.02667
1672.85976,0.02720
1670.79959,0.02726
1668.73941,0.02691
1666.67924,0.02627
1664.61907,0.02547
1662.55890,0.02457
1660.49873,0.02386
1658.43855,0.02349
1656.37838,0.02317
1654.31821,0.02255
1652.25804,0.02184
1650.19787,0.02161
1648.13769,0.02176
1646.07752,0.02209
1644.01735,0.02224
1641.95718,0.02211
1639.89701,0.02196
1637.83683,0.02218
1635.77666,0.02310
1633.71649,0.02426
1631.65632,0.02502
1629.59614,0.02553
1627.53597,0.02602
1625.47580,0.02644
1623.41563,0.02665
1621.35546,0.02679
1619.29528,0.02708
1617.23511,0.02751
1615.17494,0.02796
1613.11477,0.02857
1611.05460,0.02969
1608.99442,0.03140
1606.93425,0.03298
1604.87408,0.03350
1602.81391,0.03288
1600.75373,0.03178
1598.69356,0.03065
1596.63339,0.02938
1594.57322,0.02798
1592.51305,0.02698
1590.45287,0.02651
1588.39270,0.02616
1586.33253,0.02571
1584.27236,0.02512
1582.21219,0.02437
1580.15201,0.02358
1578.09184,0.02277
1576.03167,0.02195
1573.97150,0.02139
1571.91133,0.02113
1569.85115,0.02083
1567.79098,0.02014
1565.73081,0.01922
1563.67064,0.01837
1561.61046,0.01750
1559.55029,0.01609
1557.49012,0.01461
1555.42995,0.01399
1553.36978,0.01367
1551.30960,0.01312
1549.24943,0.01246
1547.18926,0.01181
1545.12909,0.01076
1543.06892,0.00899
1541.00874,0.00730
1538.94857,0.00700
1536.88840,0.00745
1534.82823,0.00745
1532.76805,0.00699
1530.70788,0.00651
1528.64771,0.00616
1526.58754,0.00586
1524.52737,0.00556
1522.46719,0.00566
1520.40702,0.00705
1518.34685,0.00937
1516.28668,0.01116
1514.22651,0.01149
1512.16633,0.01058
1510.10616,0.00913
1508.04599,0.00755
1505.98582,0.00622
1503.92565,0.00538
1501.86547,0.00459
1499.80530,0.00358
1497.74513,0.00264
1495.68496,0.00211
1493.62478,0.00173
1491.56461,0.00127
1489.50444,0.00082
1487.44427,0.00045
1485.38410,0.00022
1483.32392,0.00014
1481.26375,0.00012
1479.20358,0.00017
1477.14341,0.00048
1475.08324,0.00147
1473.02306,0.00346
1470.96289,0.00588
1468.90272,0.00783
1466.84255,0.00953
1464.78238,0.01128
1462.72220,0.01255
1460.66203,0.01314
1458.60186,0.01378
1456.54169,0.01482
1454.48151,0.01565
1452.42134,0.01633
1450.36117,0.01724
1448.30100,0.01826
1446.24083,0.01927
1444.18065,0.02012
1442.12048,0.02059
1440.06031,0.02078
1438.00014,0.02113
1435.93997,0.02187
1433.87979,0.02264
1431.81962,0.02311
1429.75945,0.02337
1427.69928,0.02355
1425.63910,0.02368
1423.57893,0.02380
1421.51876,0.02395
1419.45859,0.02415
1417.39842,0.02437
1415.33824,0.02440
1413.27807,0.02415
1411.21790,0.02370
1409.15773,0.02320
1407.09756,0.02257
1405.03738,0.02176
1402.97721,0.02095
1400.91704,0.02022
1398.85687,0.01950
1396.79670,0.01890
1394.73652,0.01844
1392.67635,0.01808
1390.61618,0.01785
1388.55601,0.01778
1386.49583,0.01809
1384.43566,0.01879
1382.37549,0.01965
1380.31532,0.02050
1378.25515,0.02111
1376.19497,0.02140
1374.13480,0.02156
1372.07463,0.02178
1370.01446,0.02195
1367.95429,0.02191
1365.89411,0.02160
1363.83394,0.02110
1361.77377,0.02070
1359.71360,0.02053
1357.65343,0.02042
1355.59325,0.02035
1353.53308,0.02032
1351.47291,0.02028
1349.41274,0.02019
1347.35256,0.02008
1345.29239,0.01990
1343.23222,0.01965
1341.17205,0.01955
1339.11188,0.01966
1337.05170,0.01968
1334.99153,0.01958
1332.93136,0.01968
1330.87119,0.01992
1328.81102,0.02011
1326.75084,0.02027
1324.69067,0.02028
1322.63050,0.02017
1320.57033,0.02015
1318.51015,0.02005
1316.44998,0.01975
1314.38981,0.01949
1312.32964,0.01937
1310.26947,0.01913
1308.20929,0.01861
1306.14912,0.01801
1304.08895,0.01746
1302.02878,0.01691
1299.96861,0.01654
1297.90843,0.01640
1295.84826,0.01622
1293.78809,0.01592
1291.72792,0.01574
1289.66775,0.01577
1287.60757,0.01605
1285.54740,0.01663
1283.48723,0.01724
1281.42706,0.01752
1279.36688,0.01733
1277.30671,0.01696
1275.24654,0.01684
1273.18637,0.01706
1271.12620,0.01761
1269.06602,0.01839
1267.00585,0.01922
1264.94568,0.02015
1262.88551,0.02106
1260.82534,0.02169
1258.76516,0.02210
1256.70499,0.02243
1254.64482,0.02279
1252.58465,0.02310
1250.52447,0.02341
1248.46430,0.02403
1246.40413,0.02478
1244.34396,0.02513
1242.28379,0.02497
1240.22361,0.02468
1238.16344,0.02441
1236.10327,0.02402
1234.04310,0.02363
1231.98293,0.02314
1229.92275,0.02251
1227.86258,0.02200
1225.80241,0.02142
1223.74224,0.02050
1221.68207,0.01937
1219.62189,0.01816
1217.56172,0.01692
1215.50155,0.01562
1213.44138,0.01428
1211.38120,0.01295
1209.32103,0.01191
1207.26086,0.01116
1205.20069,0.01010
1203.14052,0.00862
1201.08034,0.00715
1199.02017,0.00578
1196.96000,0.00447
1194.89983,0.00321
1192.83966,0.00193
1190.77948,0.00085
1188.71931,0.00027
1186.65914,0.00011
1184.59897,0.00000
1182.53880,-0.00011
1180.47862,0.00035
1178.41845,0.00127
1176.35828,0.00217
1174.29811,0.00337
1172.23793,0.00535
1170.17776,0.00773
1168.11759,0.00964
1166.05742,0.01065
1163.99725,0.01096
1161.93707,0.01120
1159.87690,0.01161
1157.81673,0.01183
1155.75656,0.01222
1153.69639,0.01311
1151.63621,0.01380
1149.57604,0.01437
1147.51587,0.01540
1145.45570,0.01648
1143.39552,0.01743
1141.33535,0.01852
1139.27518,0.01940
1137.21501,0.01996
1135.15484,0.02055
1133.09466,0.02141
1131.03449,0.02250
1128.97432,0.02354
1126.91415,0.02446
1124.85398,0.02549
1122.79380,0.02672
1120.73363,0.02811
1118.67346,0.02951
1116.61329,0.03081
1114.55312,0.03194
1112.49294,0.03276
1110.43277,0.03355
1108.37260,0.03455
1106.31243,0.03548
1104.25225,0.03652
1102.19208,0.03785
1100.13191,0.03917
1098.07174,0.04068
1096.01157,0.04276
1093.95139,0.04493
1091.89122,0.04665
1089.83105,0.04820
1087.77088,0.05015
1085.71071,0.05234
1083.65053,0.05421
1081.59036,0.05571
1079.53019,0.05719
1077.47002,0.05897
1075.40985,0.06118
1073.34967,0.06351
1071.28950,0.06556
1069.22933,0.06746
1067.16916,0.06930
1065.10898,0.07089
1063.04881,0.07223
1060.98864,0.07356
1058.92847,0.07484
1056.86830,0.07616
1054.80812,0.07792
1052.74795,0.07993
1050.68778,0.08207
1048.62761,0.08441
1046.56744,0.08673
1044.50726,0.08902
1042.44709,0.09128
1040.38692,0.09327
1038.32675,0.09503
1036.26657,0.09670
1034.20640,0.09802
1032.14623,0.09869
1030.08606,0.09871
1028.02589,0.09847
1025.96571,0.09819
1023.90554,0.09764
1021.84537,0.09685
1019.78520,0.09619
1017.72503,0.09585
1015.66485,0.09586
1013.60468,0.09623
1011.54451,0.09685
1009.48434,0.09754
1007.42417,0.09803
1005.36399,0.09792
1003.30382,0.09710
1001.24365,0.09616
999.18348,0.09529
997.12330,0.09409
995.06313,0.09277
993.00296,0.09141
990.94279,0.08979
988.88262,0.08802
986.82244,0.08660
984.76227,0.08578
982.70210,0.08489
980.64193,0.08331
978.58176,0.08128
976.52158,0.07953
974.46141,0.07850
972.40124,0.07768
970.34107,0.07629
968.28089,0.07440
966.22072,0.07274
964.16055,0.07132
962.10038,0.06965
960.04021,0.06803
957.98003,0.06661
955.91986,0.06526
953.85969,0.06389
951.79952,0.06242
949.73935,0.06096
947.67917,0.05949
945.61900,0.05792
943.55883,0.05627
941.49866,0.05447
939.43849,0.05256
937.37831,0.05020
935.31814,0.04695
933.25797,0.04334
931.19780,0.04046
929.13762,0.03851
927.07745,0.03648
925.01728,0.03381
922.95711,0.03120
920.89694,0.02936
918.83676,0.02825
916.77659,0.02722
914.71642,0.02579
912.65625,0.02415
910.59608,0.02228
908.53590,0.02038
906.47573,0.01920
904.41556,0.01888
902.35539,0.01900
900.29522,0.01870
898.23504,0.01795
896.17487,0.01790
894.11470,0.01851
892.05453,0.01898
889.99435,0.01937
887.93418,0.01944
885.87401,0.01847
883.81384,0.01681
881.75367,0.01532
879.69349,0.01422
877.63332,0.01323
875.57315,0.01218
873.51298,0.01109
871.45281,0.01037
869.39263,0.01044
867.33246,0.01072
865.27229,0.01048
863.21212,0.01005
861.15194,0.00985
859.09177,0.00975
857.03160,0.00982
854.97143,0.00989
852.91126,0.00983
850.85108,0.01017
848.79091,0.01071
846.73074,0.01067
844.67057,0.00997
842.61040,0.00924
840.55022,0.00858
838.49005,0.00786
836.42988,0.00727
834.36971,0.00679
832.30954,0.00674
830.24936,0.00709
828.18919,0.00686
826.12902,0.00617
824.06885,0.00586
822.00867,0.00532
819.94850,0.00461
817.88833,0.00496
815.82816,0.00540
813.76799,0.00468
811.70781,0.00367
809.64764,0.00310
807.58747,0.00316
805.52730,0.00361
803.46713,0.00362
801.40695,0.00300
799.34678,0.00225
797.28661,0.00205
795.22644,0.00230
793.16627,0.00183
791.10609,0.00055
789.04592,0.00000
786.98575,0.00033
784.92558,0.00043
782.86540,0.00070
780.80523,0.00200
778.74506,0.00288
776.68489,0.00230
774.62472,0.00167
772.56454,0.00141
770.50437,0.00119
768.44420,0.00159
766.38403,0.00218
764.32386,0.00229
762.26368,0.00212
760.20351,0.00171
758.14334,0.00161
756.08317,0.00213
754.02299,0.00258
751.96282,0.00229
749.90265,0.00160
747.84248,0.00147
745.78231,0.00123
743.72213,0.00024
741.66196,0.00000
739.60179,0.00006
737.54162,-0.00039
735.48145,-0.00034
733.42127,0.00032
731.36110,0.00053
729.30093,0.00088
727.24076,0.00144
725.18059,0.00098
723.12041,0.00024
721.06024,0.00030
719.00007,0.00119
716.93990,0.00246
714.87972,0.00364
712.81955,0.00362
710.75938,0.00228
708.69921,0.00145
706.63904,0.00167
704.57886,0.00188
702.51869,0.00170
700.45852,0.00167
698.39835,0.00239
696.33818,0.00359
694.27800,0.00419
692.21783,0.00362
690.15766,0.00299
688.09749,0.00422
686.03731,0.00615
683.97714,0.00556
681.91697,0.00268
679.85680,0.00031
677.79663,-0.00017
675.73645,0.00055
673.67628,0.00162
671.61611,0.00342
669.55594,0.00596
667.49577,0.00763
665.43559,0.00710
663.37542,0.00511
661.31525,0.00276
659.25508,0.00125
657.19491,0.00107
655.13473,0.00157
653.07456,0.00146
651.01439,0.00062
648.95422,0.00081
646.89404,0.00357
644.83387,0.00760
642.77370,0.00933
640.71353,0.00769
638.65336,0.00564
636.59318,0.00503
634.53301,0.00468
632.47284,0.00446
630.41267,0.00478
628.35250,0.00467
626.29232,0.00333
624.23215,-0.00000
622.17198,-0.00403
620.11181,-0.00490
618.05164,-0.00179
615.99146,-0.00014
613.93129,-0.00354
611.87112,-0.00645
609.81095,-0.00481
607.75077,0.00138
605.69060,0.00720
603.63043,0.00762
601.57026,0.00474
599.51009,0.00000
