3996.73391,0.00033
3994.67373,0.00041
3992.61356,0.00057
3990.55339,0.00069
3988.49322,0.00064
3986.43305,0.00052
3984.37287,0.00038
3982.31270,0.00016
3980.25253,0.00000
3978.19236,0.00006
3976.13219,0.00020
3974.07201,0.00024
3972.01184,0.00031
3969.95167,0.00048
3967.89150,0.00054
3965.83133,0.00044
3963.77115,0.00040
3961.71098,0.00048
3959.65081,0.00056
3957.59064,0.00060
3955.53046,0.00054
3953.47029,0.00035
3951.41012,0.00016
3949.34995,0.00013
3947.28978,0.00025
3945.22960,0.00043
3943.16943,0.00052
3941.10926,0.00032
3939.04909,0.00004
3936.98892,0.00004
3934.92874,0.00025
3932.86857,0.00040
3930.80840,0.00048
3928.74823,0.00049
3926.68805,0.00036
3924.62788,0.00024
3922.56771,0.00031
3920.50754,0.00037
3918.44737,0.00028
3916.38719,0.00026
3914.32702,0.00047
3912.26685,0.00066
3910.20668,0.00057
3908.14651,0.00036
3906.08633,0.00041
3904.02616,0.00074
3901.96599,0.00095
3899.90582,0.00079
3897.84565,0.00052
3895.78547,0.00056
3893.72530,0.00076
3891.66513,0.00071
3889.60496,0.00043
3887.54478,0.00037
3885.48461,0.00062
3883.42444,0.00084
3881.36427,0.00088
3879.30410,0.00072
3877.24392,0.00057
3875.18375,0.00055
3873.12358,0.00051
3871.06341,0.00033
3869.00324,0.00018
3866.94306,0.00024
3864.88289,0.00034
3862.82272,0.00034
3860.76255,0.00035
3858.70237,0.00048
3856.64220,0.00071
3854.58203,0.00093
3852.52186,0.00086
3850.46169,0.00057
3848.40151,0.00049
3846.34134,0.00067
3844.28117,0.00084
3842.22100,0.00089
3840.16083,0.00087
3838.10065,0.00066
3836.04048,0.00031
3833.98031,0.00020
3831.92014,0.00046
3829.85997,0.00072
3827.79979,0.00079
3825.73962,0.00080
3823.67945,0.00099
3821.61928,0.00112
3819.55910,0.00083
3817.49893,0.00050
3815.43876,0.00049
3813.37859,0.00064
3811.31842,0.00082
3809.25824,0.00099
3807.19807,0.00095
3805.13790,0.00067
3803.07773,0.00054
3801.01756,0.00061
3798.95738,0.00061
3796.89721,0.00055
3794.83704,0.00057
3792.77687,0.00067
3790.71670,0.00068
3788.65652,0.00055
3786.59635,0.00044
3784.53618,0.00054
3782.47601,0.00080
3780.41583,0.00100
3778.35566,0.00096
3776.29549,0.00080
3774.23532,0.00075
3772.17515,0.00091
3770.11497,0.00100
3768.05480,0.00080
3765.99463,0.00052
3763.93446,0.00051
3761.87429,0.00078
3759.81411,0.00103
3757.75394,0.00099
3755.69377,0.00093
3753.63360,0.00135
3751.57342,0.00193
3749.51325,0.00178
3747.45308,0.00125
3745.39291,0.00113
3743.33274,0.00124
3741.27256,0.00127
3739.21239,0.00129
3737.15222,0.00134
3735.09205,0.00136
3733.03188,0.00113
3730.97170,0.00074
3728.91153,0.00074
3726.85136,0.00104
3724.79119,0.00109
3722.73102,0.00076
3720.67084,0.00029
3718.61067,0.00002
3716.55050,0.00000
3714.49033,0.00021
3712.43015,0.00058
3710.36998,0.00082
3708.30981,0.00087
3706.24964,0.00071
3704.18947,0.00052
3702.12929,0.00054
3700.06912,0.00069
3698.00895,0.00068
3695.94878,0.00058
3693.88861,0.00059
3691.82843,0.00053
3689.76826,0.00041
3687.70809,0.00052
3685.64792,0.00078
3683.58775,0.00088
3681.52757,0.00086
3679.46740,0.00093
3677.40723,0.00106
3675.34706,0.00102
3673.28688,0.00098
3671.22671,0.00109
3669.16654,0.00110
3667.10637,0.00095
3665.04620,0.00097
3662.98602,0.00107
3660.92585,0.00098
3658.86568,0.00079
3656.80551,0.00074
3654.74534,0.00080
3652.68516,0.00083
3650.62499,0.00102
3648.56482,0.00147
3646.50465,0.00164
3644.44447,0.00130
3642.38430,0.00088
3640.32413,0.00074
3638.26396,0.00087
3636.20379,0.00097
3634.14361,0.00089
3632.08344,0.00088
3630.02327,0.00118
3627.96310,0.00146
3625.90293,0.00146
3623.84275,0.00143
3621.78258,0.00154
3619.72241,0.00168
3617.66224,0.00180
3615.60207,0.00185
3613.54189,0.00168
3611.48172,0.00141
3609.42155,0.00133
3607.36138,0.00148
3605.30120,0.00160
3603.24103,0.00161
3601.18086,0.00166
3599.12069,0.00171
3597.06052,0.00180
3595.00034,0.00206
3592.94017,0.00231
3590.88000,0.00220
3588.81983,0.00183
3586.75966,0.00168
3584.69948,0.00192
3582.63931,0.00218
3580.57914,0.00224
3578.51897,0.00215
3576.45879,0.00212
3574.39862,0.00231
3572.33845,0.00249
3570.27828,0.00248
3568.21811,0.00239
3566.15793,0.00244
3564.09776,0.00267
3562.03759,0.00290
3559.97742,0.00305
3557.91725,0.00319
3555.85707,0.00322
3553.79690,0.00305
3551.73673,0.00285
3549.67656,0.00282
3547.61639,0.00300
3545.55621,0.00328
3543.49604,0.00353
3541.43587,0.00364
3539.37570,0.00358
3537.31552,0.00347
3535.25535,0.00348
3533.19518,0.00361
3531.13501,0.00372
3529.07484,0.00378
3527.01466,0.00397
3524.95449,0.00430
3522.89432,0.00444
3520.83415,0.00427
3518.77398,0.00415
3516.71380,0.00428
3514.65363,0.00441
3512.59346,0.00435
3510.53329,0.00422
3508.47312,0.00420
3506.41294,0.00424
3504.35277,0.00428
3502.29260,0.00422
3500.23243,0.00415
3498.17225,0.00429
3496.11208,0.00462
3494.05191,0.00486
3491.99174,0.00501
3489.93157,0.00515
3487.87139,0.00510
3485.81122,0.00485
3483.75105,0.00471
3481.69088,0.00481
3479.63071,0.00501
3477.57053,0.00511
3475.51036,0.00521
3473.45019,0.00539
3471.39002,0.00546
3469.32984,0.00537
3467.26967,0.00533
3465.20950,0.00544
3463.14933,0.00553
3461.08916,0.00559
3459.02898,0.00565
3456.96881,0.00568
3454.90864,0.00584
3452.84847,0.00610
3450.78830,0.00619
3448.72812,0.00604
3446.66795,0.00594
3444.60778,0.00596
3442.54761,0.00598
3440.48744,0.00597
3438.42726,0.00602
3436.36709,0.00617
3434.30692,0.00635
3432.24675,0.00643
3430.18657,0.00635
3428.12640,0.00628
3426.06623,0.00638
3424.00606,0.00651
3421.94589,0.00647
3419.88571,0.00648
3417.82554,0.00673
3415.76537,0.00693
3413.70520,0.00696
3411.64503,0.00696
3409.58485,0.00690
3407.52468,0.00690
3405.46451,0.00711
3403.40434,0.00720
3401.34416,0.00698
3399.28399,0.00681
3397.22382,0.00690
3395.16365,0.00711
3393.10348,0.00720
3391.04330,0.00718
3388.98313,0.00717
3386.92296,0.00714
3384.86279,0.00705
3382.80262,0.00699
3380.74244,0.00713
3378.68227,0.00737
3376.62210,0.00744
3374.56193,0.00735
3372.50176,0.00726
3370.44158,0.00727
3368.38141,0.00742
3366.32124,0.00754
3364.26107,0.00755
3362.20089,0.00752
3360.14072,0.00753
3358.08055,0.00759
3356.02038,0.00769
3353.96021,0.00774
3351.90003,0.00765
3349.83986,0.00759
3347.77969,0.00777
3345.71952,0.00799
3343.65935,0.00802
3341.59917,0.00793
3339.53900,0.00787
3337.47883,0.00779
3335.41866,0.00779
3333.35849,0.00785
3331.29831,0.00774
3329.23814,0.00757
3327.17797,0.00762
3325.11780,0.00777
3323.05762,0.00775
3320.99745,0.00769
3318.93728,0.00774
3316.87711,0.00777
3314.81694,0.00768
3312.75676,0.00768
3310.69659,0.00790
3308.63642,0.00804
3306.57625,0.00797
3304.51608,0.00791
3302.45590,0.00780
3300.39573,0.00769
3298.33556,0.00785
3296.27539,0.00811
3294.21521,0.00810
3292.15504,0.00784
3290.09487,0.00771
3288.03470,0.00778
3285.97453,0.00782
3283.91435,0.00770
3281.85418,0.00744
3279.79401,0.00726
3277.73384,0.00731
3275.67367,0.00748
3273.61349,0.00766
3271.55332,0.00782
3269.49315,0.00791
3267.43298,0.00785
3265.37281,0.00776
3263.31263,0.00775
3261.25246,0.00772
3259.19229,0.00768
3257.13212,0.00764
3255.07194,0.00753
3253.01177,0.00746
3250.95160,0.00750
3248.89143,0.00750
3246.83126,0.00741
3244.77108,0.00732
3242.71091,0.00733
3240.65074,0.00740
3238.59057,0.00742
3236.53040,0.00731
3234.47022,0.00714
3232.41005,0.00710
3230.34988,0.00731
3228.28971,0.00756
3226.22954,0.00753
3224.16936,0.00733
3222.10919,0.00724
3220.04902,0.00726
3217.98885,0.00721
3215.92867,0.00695
3213.86850,0.00663
3211.80833,0.00659
3209.74816,0.00687
3207.68799,0.00712
3205.62781,0.00702
3203.56764,0.00678
3201.50747,0.00669
3199.44730,0.00661
3197.38713,0.00643
3195.32695,0.00638
3193.26678,0.00659
3191.20661,0.00679
3189.14644,0.00679
3187.08626,0.00663
3185.02609,0.00637
3182.96592,0.00617
3180.90575,0.00616
3178.84558,0.00625
3176.78540,0.00627
3174.72523,0.00622
3172.66506,0.00615
3170.60489,0.00615
3168.54472,0.00620
3166.48454,0.00619
3164.42437,0.00615
3162.36420,0.00615
3160.30403,0.00619
3158.24386,0.00619
3156.18368,0.00618
3154.12351,0.00617
3152.06334,0.00605
3150.00317,0.00587
3147.94299,0.00573
3145.88282,0.00568
3143.82265,0.00566
3141.76248,0.00558
3139.70231,0.00547
3137.64213,0.00546
3135.58196,0.00552
3133.52179,0.00554
3131.46162,0.00551
3129.40145,0.00542
3127.34127,0.00523
3125.28110,0.00510
3123.22093,0.00518
3121.16076,0.00535
3119.10058,0.00546
3117.04041,0.00549
3114.98024,0.00542
3112.92007,0.00532
3110.85990,0.00521
3108.79972,0.00505
3106.73955,0.00495
3104.67938,0.00500
3102.61921,0.00504
3100.55904,0.00495
3098.49886,0.00488
3096.43869,0.00491
3094.37852,0.00494
3092.31835,0.00490
3090.25818,0.00481
3088.19800,0.00482
3086.13783,0.00495
3084.07766,0.00508
3082.01749,0.00507
3079.95731,0.00495
3077.89714,0.00484
3075.83697,0.00473
3073.77680,0.00465
3071.71663,0.00460
3069.65645,0.00444
3067.59628,0.00433
3065.53611,0.00446
3063.47594,0.00466
3061.41577,0.00465
3059.35559,0.00444
3057.29542,0.00437
3055.23525,0.00454
3053.17508,0.00459
3051.11491,0.00439
3049.05473,0.00416
3046.99456,0.00415
3044.93439,0.00428
3042.87422,0.00428
3040.81404,0.00414
3038.75387,0.00399
3036.69370,0.00401
3034.63353,0.00418
3032.57336,0.00425
3030.51318,0.00409
3028.45301,0.00392
3026.39284,0.00393
3024.33267,0.00403
3022.27250,0.00413
3020.21232,0.00417
3018.15215,0.00408
3016.09198,0.00398
3014.03181,0.00400
3011.97163,0.00407
3009.91146,0.00404
3007.85129,0.00390
3005.79112,0.00370
3003.73095,0.00358
3001.67077,0.00367
2999.61060,0.00385
2997.55043,0.00396
2995.49026,0.00393
2993.43009,0.00387
2991.36991,0.00392
2989.30974,0.00404
2987.24957,0.00401
2985.18940,0.00403
2983.12923,0.00429
2981.06905,0.00447
2979.00888,0.00439
2976.94871,0.00427
2974.88854,0.00418
2972.82836,0.00412
2970.76819,0.00413
2968.70802,0.00410
2966.64785,0.00403
2964.58768,0.00405
2962.52750,0.00421
2960.46733,0.00445
2958.40716,0.00459
2956.34699,0.00457
2954.28682,0.00458
2952.22664,0.00466
2950.16647,0.00473
2948.10630,0.00481
2946.04613,0.00487
2943.98596,0.00495
2941.92578,0.00508
2939.86561,0.00513
2937.80544,0.00508
2935.74527,0.00510
2933.68509,0.00533
2931.62492,0.00556
2929.56475,0.00563
2927.50458,0.00558
2925.44441,0.00551
2923.38423,0.00539
2921.32406,0.00526
2919.26389,0.00530
2917.20372,0.00539
2915.14355,0.00541
2913.08337,0.00545
2911.02320,0.00538
2908.96303,0.00515
2906.90286,0.00499
2904.84268,0.00492
2902.78251,0.00494
2900.72234,0.00502
2898.66217,0.00499
2896.60200,0.00483
2894.54182,0.00465
2892.48165,0.00466
2890.42148,0.00483
2888.36131,0.00489
2886.30114,0.00485
2884.24096,0.00486
2882.18079,0.00489
2880.12062,0.00490
2878.06045,0.00483
2876.00028,0.00471
2873.94010,0.00466
2871.87993,0.00465
2869.81976,0.00462
2867.75959,0.00461
2865.69941,0.00457
2863.63924,0.00451
2861.57907,0.00456
2859.51890,0.00465
2857.45873,0.00456
2855.39855,0.00442
2853.33838,0.00447
2851.27821,0.00464
2849.21804,0.00469
2847.15787,0.00461
2845.09769,0.00456
2843.03752,0.00456
2840.97735,0.00442
2838.91718,0.00415
2836.85700,0.00394
2834.79683,0.00387
2832.73666,0.00389
2830.67649,0.00398
2828.61632,0.00405
2826.55614,0.00402
2824.49597,0.00390
2822.43580,0.00382
2820.37563,0.00384
2818.31546,0.00387
2816.25528,0.00383
2814.19511,0.00377
2812.13494,0.00373
2810.07477,0.00372
2808.01460,0.00377
2805.95442,0.00388
2803.89425,0.00400
2801.83408,0.00400
2799.77391,0.00385
2797.71373,0.00375
2795.65356,0.00367
2793.59339,0.00349
2791.53322,0.00349
2789.47305,0.00371
2787.41287,0.00380
2785.35270,0.00375
2783.29253,0.00378
2781.23236,0.00386
2779.17219,0.00385
2777.11201,0.00375
2775.05184,0.00367
2772.99167,0.00364
2770.93150,0.00362
2768.87133,0.00360
2766.81115,0.00362
2764.75098,0.00363
2762.69081,0.00359
2760.63064,0.00359
2758.57046,0.00364
2756.51029,0.00371
2754.45012,0.00379
2752.38995,0.00384
2750.32978,0.00383
2748.26960,0.00377
2746.20943,0.00369
2744.14926,0.00367
2742.08909,0.00368
2740.02892,0.00363
2737.96874,0.00360
2735.90857,0.00358
2733.84840,0.00356
2731.78823,0.00358
2729.72805,0.00359
2727.66788,0.00360
2725.60771,0.00364
2723.54754,0.00370
2721.48737,0.00378
2719.42719,0.00379
2717.36702,0.00371
2715.30685,0.00364
2713.24668,0.00366
2711.18651,0.00365
2709.12633,0.00362
2707.06616,0.00361
2705.00599,0.00350
2702.94582,0.00343
2700.88565,0.00350
2698.82547,0.00356
2696.76530,0.00360
2694.70513,0.00370
2692.64496,0.00375
2690.58478,0.00371
2688.52461,0.00364
2686.46444,0.00365
2684.40427,0.00375
2682.34410,0.00377
2680.28392,0.00376
2678.22375,0.00380
2676.16358,0.00378
2674.10341,0.00369
2672.04324,0.00363
2669.98306,0.00370
2667.92289,0.00380
2665.86272,0.00383
2663.80255,0.00384
2661.74238,0.00381
2659.68220,0.00376
2657.62203,0.00368
2655.56186,0.00367
2653.50169,0.00377
2651.44151,0.00382
2649.38134,0.00382
2647.32117,0.00386
2645.26100,0.00382
2643.20083,0.00365
2641.14065,0.00353
2639.08048,0.00346
2637.02031,0.00342
2634.96014,0.00347
2632.89997,0.00353
2630.83979,0.00361
2628.77962,0.00378
2626.71945,0.00396
2624.65928,0.00398
2622.59910,0.00380
2620.53893,0.00362
2618.47876,0.00359
2616.41859,0.00366
2614.35842,0.00375
2612.29824,0.00370
2610.23807,0.00338
2608.17790,0.00312
2606.11773,0.00319
2604.05756,0.00343
2601.99738,0.00353
2599.93721,0.00343
2597.87704,0.00328
2595.81687,0.00312
2593.75670,0.00306
2591.69652,0.00321
2589.63635,0.00332
2587.57618,0.00321
2585.51601,0.00300
2583.45583,0.00287
2581.39566,0.00298
2579.33549,0.00312
2577.27532,0.00318
2575.21515,0.00332
2573.15497,0.00342
2571.09480,0.00348
2569.03463,0.00346
2566.97446,0.00321
2564.91429,0.00301
2562.85411,0.00295
2560.79394,0.00279
2558.73377,0.00264
2556.67360,0.00279
2554.61342,0.00323
2552.55325,0.00350
2550.49308,0.00343
2548.43291,0.00328
2546.37274,0.00326
2544.31256,0.00332
2542.25239,0.00323
2540.19222,0.00299
2538.13205,0.00293
2536.07188,0.00313
2534.01170,0.00325
2531.95153,0.00303
2529.89136,0.00265
2527.83119,0.00251
2525.77102,0.00288
2523.71084,0.00330
2521.65067,0.00327
2519.59050,0.00297
2517.53033,0.00283
2515.47015,0.00302
2513.40998,0.00335
2511.34981,0.00338
2509.28964,0.00311
2507.22947,0.00297
2505.16929,0.00290
2503.10912,0.00275
2501.04895,0.00273
2498.98878,0.00278
2496.92861,0.00261
2494.86843,0.00239
2492.80826,0.00249
2490.74809,0.00281
2488.68792,0.00295
2486.62775,0.00299
2484.56757,0.00321
2482.50740,0.00343
2480.44723,0.00339
2478.38706,0.00317
2476.32688,0.00290
2474.26671,0.00281
2472.20654,0.00298
2470.14637,0.00314
2468.08620,0.00320
2466.02602,0.00319
2463.96585,0.00296
2461.90568,0.00257
2459.84551,0.00241
2457.78534,0.00268
2455.72516,0.00303
2453.66499,0.00307
2451.60482,0.00288
2449.54465,0.00276
2447.48447,0.00281
2445.42430,0.00288
2443.36413,0.00292
2441.30396,0.00301
2439.24379,0.00312
2437.18361,0.00317
2435.12344,0.00321
2433.06327,0.00317
2431.00310,0.00296
2428.94293,0.00266
2426.88275,0.00240
2424.82258,0.00227
2422.76241,0.00239
2420.70224,0.00259
2418.64207,0.00262
2416.58189,0.00269
2414.52172,0.00295
2412.46155,0.00318
2410.40138,0.00314
2408.34120,0.00279
2406.28103,0.00254
2404.22086,0.00261
2402.16069,0.00280
2400.10052,0.00293
2398.04034,0.00291
2395.98017,0.00290
2393.92000,0.00300
2391.85983,0.00303
2389.79966,0.00296
2387.73948,0.00285
2385.67931,0.00267
2383.61914,0.00252
2381.55897,0.00252
2379.49880,0.00264
2377.43862,0.00282
2375.37845,0.00314
2373.31828,0.00294
2371.25811,0.00241
2369.19793,0.00272
2367.13776,0.00329
2365.07759,0.00285
2363.01742,0.00259
2360.95725,0.00200
2358.89707,0.00244
2356.83690,0.00314
2354.77673,0.00321
2352.71656,0.00271
2350.65639,0.00120
2348.59621,0.00070
2346.53604,0.00335
2344.47587,0.00358
2342.41570,0.00315
2340.35552,0.00347
2338.29535,0.00348
2336.23518,0.00290
2334.17501,0.00206
2332.11484,0.00210
2330.05466,0.00305
2327.99449,0.00447
2325.93432,0.00449
2323.87415,0.00392
2321.81398,0.00316
2319.75380,0.00325
2317.69363,0.00333
2315.63346,0.00358
2313.57329,0.00373
2311.51312,0.00366
2309.45294,0.00372
2307.39277,0.00368
2305.33260,0.00338
2303.27243,0.00306
2301.21225,0.00304
2299.15208,0.00306
2297.09191,0.00315
2295.03174,0.00338
2292.97157,0.00344
2290.91139,0.00334
2288.85122,0.00343
2286.79105,0.00366
2284.73088,0.00366
2282.67071,0.00339
2280.61053,0.00320
2278.55036,0.00337
2276.49019,0.00372
2274.43002,0.00391
2272.36984,0.00380
2270.30967,0.00349
2268.24950,0.00320
2266.18933,0.00292
2264.12916,0.00270
2262.06898,0.00279
2260.00881,0.00327
2257.94864,0.00371
2255.88847,0.00353
2253.82830,0.00282
2251.76812,0.00223
2249.70795,0.00207
2247.64778,0.00217
2245.58761,0.00233
2243.52744,0.00249
2241.46726,0.00267
2239.40709,0.00313
2237.34692,0.00345
2235.28675,0.00309
2233.22657,0.00276
2231.16640,0.00285
2229.10623,0.00288
2227.04606,0.00312
2224.98589,0.00363
2222.92571,0.00372
2220.86554,0.00358
2218.80537,0.00365
2216.74520,0.00324
2214.68503,0.00263
2212.62485,0.00253
2210.56468,0.00255
2208.50451,0.00256
2206.44434,0.00261
2204.38417,0.00288
2202.32399,0.00341
2200.26382,0.00360
2198.20365,0.00332
2196.14348,0.00282
2194.08330,0.00277
2192.02313,0.00304
2189.96296,0.00294
2187.90279,0.00306
2185.84262,0.00331
2183.78244,0.00301
2181.72227,0.00271
2179.66210,0.00241
2177.60193,0.00179
2175.54176,0.00145
2173.48158,0.00207
2171.42141,0.00326
2169.36124,0.00361
2167.30107,0.00312
2165.24089,0.00314
2163.18072,0.00381
2161.12055,0.00348
2159.06038,0.00144
2157.00021,0.00000
2154.94003,0.00048
2152.87986,0.00163
2150.81969,0.00216
2148.75952,0.00217
2146.69935,0.00213
2144.63917,0.00181
2142.57900,0.00129
2140.51883,0.00117
2138.45866,0.00176
2136.39849,0.00249
2134.33831,0.00272
2132.27814,0.00242
2130.21797,0.00213
2128.15780,0.00221
2126.09762,0.00253
2124.03745,0.00295
2121.97728,0.00308
2119.91711,0.00277
2117.85694,0.00258
2115.79676,0.00269
2113.73659,0.00260
2111.67642,0.00261
2109.61625,0.00299
2107.55608,0.00310
2105.49590,0.00289
2103.43573,0.00260
2101.37556,0.00238
2099.31539,0.00250
2097.25521,0.00264
2095.19504,0.00248
2093.13487,0.00217
2091.07470,0.00203
2089.01453,0.00231
2086.95435,0.00282
2084.89418,0.00302
2082.83401,0.00284
2080.77384,0.00264
2078.71367,0.00248
2076.65349,0.00240
2074.59332,0.00266
2072.53315,0.00296
2070.47298,0.00286
2068.41281,0.00246
2066.35263,0.00201
2064.29246,0.00175
2062.23229,0.00178
2060.17212,0.00213
2058.11194,0.00266
2056.05177,0.00295
2053.99160,0.00284
2051.93143,0.00244
2049.87126,0.00191
2047.81108,0.00153
2045.75091,0.00167
2043.69074,0.00242
2041.63057,0.00335
2039.57040,0.00362
2037.51022,0.00264
2035.45005,0.00106
2033.38988,0.00015
2031.32971,0.00000
2029.26954,0.00026
2027.20936,0.00074
2025.14919,0.00099
2023.08902,0.00104
2021.02885,0.00135
2018.96867,0.00162
2016.90850,0.00119
2014.84833,0.00070
2012.78816,0.00096
2010.72799,0.00147
2008.66781,0.00166
2006.60764,0.00138
2004.54747,0.00051
2002.48730,-0.00029
2000.42713,-0.00026
1998.36695,0.00047
1996.30678,0.00143
1994.24661,0.00218
1992.18644,0.00277
1990.12626,0.00305
1988.06609,0.00253
1986.00592,0.00190
1983.94575,0.00227
1981.88558,0.00304
1979.82540,0.00274
1977.76523,0.00147
1975.70506,0.00052
1973.64489,0.00041
1971.58472,0.00103
1969.52454,0.00161
1967.46437,0.00137
1965.40420,0.00058
1963.34403,0.00015
1961.28386,0.00032
1959.22368,0.00050
1957.16351,0.00053
1955.10334,0.00067
1953.04317,0.00076
1950.98299,0.00059
1948.92282,0.00036
1946.86265,0.00020
1944.80248,0.00021
1942.74231,0.00046
1940.68213,0.00051
1938.62196,0.00036
1936.56179,0.00031
1934.50162,0.00023
1932.44145,0.00025
1930.38127,0.00063
1928.32110,0.00108
1926.26093,0.00127
1924.20076,0.00112
1922.14059,0.00089
1920.08041,0.00094
1918.02024,0.00101
1915.96007,0.00093
1913.89990,0.00098
1911.83972,0.00114
1909.77955,0.00113
1907.71938,0.00110
1905.65921,0.00132
1903.59904,0.00154
1901.53886,0.00141
1899.47869,0.00118
1897.41852,0.00125
1895.35835,0.00149
1893.29818,0.00159
1891.23800,0.00153
1889.17783,0.00130
1887.11766,0.00098
1885.05749,0.00076
1882.99731,0.00073
1880.93714,0.00094
1878.87697,0.00117
1876.81680,0.00124
1874.75663,0.00112
1872.69645,0.00104
1870.63628,0.00120
1868.57611,0.00139
1866.51594,0.00134
1864.45577,0.00120
1862.39559,0.00122
1860.33542,0.00126
1858.27525,0.00123
1856.21508,0.00124
1854.15491,0.00133
1852.09473,0.00133
1850.03456,0.00123
1847.97439,0.00115
1845.91422,0.00108
1843.85404,0.00103
1841.79387,0.00103
1839.73370,0.00106
1837.67353,0.00106
1835.61336,0.00098
1833.55318,0.00087
1831.49301,0.00086
1829.43284,0.00094
1827.37267,0.00091
1825.31250,0.00076
1823.25232,0.00069
1821.19215,0.00073
1819.13198,0.00080
1817.07181,0.00094
1815.01163,0.00105
1812.95146,0.00109
1810.89129,0.00105
1808.83112,0.00088
1806.77095,0.00068
1804.71077,0.00057
1802.65060,0.00050
1800.59043,0.00039
1798.53026,0.00035
1796.47009,0.00044
1794.40991,0.00055
1792.34974,0.00057
1790.28957,0.00052
1788.22940,0.00052
1786.16923,0.00060
1784.10905,0.00072
1782.04888,0.00090
1779.98871,0.00103
1777.92854,0.00099
1775.86836,0.00088
1773.80819,0.00079
1771.74802,0.00076
1769.68785,0.00074
1767.62768,0.00066
1765.56750,0.00062
1763.50733,0.00074
1761.44716,0.00096
1759.38699,0.00109
1757.32682,0.00109
1755.26664,0.00107
1753.20647,0.00116
1751.14630,0.00137
1749.08613,0.00162
1747.02596,0.00177
1744.96578,0.00180
1742.90561,0.00173
1740.84544,0.00157
1738.78527,0.00153
1736.72509,0.00169
1734.66492,0.00190
1732.60475,0.00196
1730.54458,0.00192
1728.48441,0.00190
1726.42423,0.00190
1724.36406,0.00195
1722.30389,0.00207
1720.24372,0.00214
1718.18355,0.00208
1716.12337,0.00190
1714.06320,0.00176
1712.00303,0.00171
1709.94286,0.00166
1707.88268,0.00157
1705.82251,0.00143
1703.76234,0.00129
1701.70217,0.00127
1699.64200,0.00137
1697.58182,0.00141
1695.52165,0.00125
1693.46148,0.00105
1691.40131,0.00101
1689.34114,0.00106
1687.28096,0.00109
1685.22079,0.00113
1683.16062,0.00122
1681.10045,0.00130
1679.04028,0.00142
1676.98010,0.00163
1674.91993,0.00184
1672.85976,0.00201
1670.79959,0.00216
1668.73941,0.00226
1666.67924,0.00232
1664.61907,0.00241
1662.55890,0.00255
1660.49873,0.00277
1658.43855,0.00300
1656.37838,0.00320
1654.31821,0.00344
1652.25804,0.00362
1650.19787,0.00364
1648.13769,0.00365
1646.07752,0.00367
1644.01735,0.00366
1641.95718,0.00358
1639.89701,0.00345
1637.83683,0.00344
1635.77666,0.00366
1633.71649,0.00391
1631.65632,0.00399
1629.59614,0.00402
1627.53597,0.00410
1625.47580,0.00422
1623.41563,0.00430
1621.35546,0.00429
1619.29528,0.00427
1617.23511,0.00432
1615.17494,0.00437
1613.11477,0.00434
1611.05460,0.00422
1608.99442,0.00406
1606.93425,0.00389
1604.87408,0.00377
1602.81391,0.00372
1600.75373,0.00370
1598.69356,0.00360
1596.63339,0.00342
1594.57322,0.00324
1592.51305,0.00308
1590.45287,0.00288
1588.39270,0.00264
1586.33253,0.00245
1584.27236,0.00235
1582.21219,0.00227
1580.15201,0.00217
1578.09184,0.00203
1576.03167,0.00181
1573.97150,0.00157
1571.91133,0.00141
1569.85115,0.00131
1567.79098,0.00124
1565.73081,0.00114
1563.67064,0.00105
1561.61046,0.00097
1559.55029,0.00085
1557.49012,0.00074
1555.42995,0.00075
1553.36978,0.00079
1551.30960,0.00081
1549.24943,0.00079
1547.18926,0.00074
1545.12909,0.00079
1543.06892,0.00092
1541.00874,0.00085
1538.94857,0.00059
1536.88840,0.00051
1534.82823,0.00054
1532.76805,0.00048
1530.70788,0.00041
1528.64771,0.00048
1526.58754,0.00063
1524.52737,0.00061
1522.46719,0.00034
1520.40702,0.00006
1518.34685,0.00000
1516.28668,0.00015
1514.22651,0.00032
1512.16633,0.00035
1510.10616,0.00035
1508.04599,0.00048
1505.98582,0.00052
1503.92565,0.00033
1501.86547,0.00016
1499.80530,0.00015
1497.74513,0.00022
1495.68496,0.00029
1493.62478,0.00037
1491.56461,0.00043
1489.50444,0.00043
1487.44427,0.00047
1485.38410,0.00051
1483.32392,0.00051
1481.26375,0.00049
1479.20358,0.00051
1477.14341,0.00062
1475.08324,0.00085
1473.02306,0.00113
1470.96289,0.00129
1468.90272,0.00139
1466.84255,0.00155
1464.78238,0.00173
1462.72220,0.00185
1460.66203,0.00187
1458.60186,0.00191
1456.54169,0.00206
1454.48151,0.00216
1452.42134,0.00213
1450.36117,0.00207
1448.30100,0.00210
1446.24083,0.00223
1444.18065,0.00235
1442.12048,0.00236
1440.06031,0.00238
1438.00014,0.00254
1435.93997,0.00277
1433.87979,0.00293
1431.81962,0.00305
1429.75945,0.00317
1427.69928,0.00328
1425.63910,0.00336
1423.57893,0.00339
1421.51876,0.00343
1419.45859,0.00354
1417.39842,0.00367
1415.33824,0.00379
1413.27807,0.00388
1411.21790,0.00384
1409.15773,0.00369
1407.09756,0.00359
1405.03738,0.00356
1402.97721,0.00353
1400.91704,0.00353
1398.85687,0.00347
1396.79670,0.00324
1394.73652,0.00298
1392.67635,0.00284
1390.61618,0.00282
1388.55601,0.00286
1386.49583,0.00297
1384.43566,0.00310
1382.37549,0.00320
1380.31532,0.00328
1378.25515,0.00339
1376.19497,0.00356
1374.13480,0.00367
1372.07463,0.00363
1370.01446,0.00353
1367.95429,0.00345
1365.89411,0.00341
1363.83394,0.00339
1361.77377,0.00334
1359.71360,0.00327
1357.65343,0.00319
1355.59325,0.00313
1353.53308,0.00310
1351.47291,0.00308
1349.41274,0.00303
1347.35256,0.00294
1345.29239,0.00286
1343.23222,0.00285
1341.17205,0.00290
1339.11188,0.00296
1337.05170,0.00297
1334.99153,0.00292
1332.93136,0.00285
1330.87119,0.00279
1328.81102,0.00275
1326.75084,0.00275
1324.69067,0.00281
1322.63050,0.00288
1320.57033,0.00293
1318.51015,0.00293
1316.44998,0.00293
1314.38981,0.00299
1312.32964,0.00303
1310.26947,0.00294
1308.20929,0.00275
1306.14912,0.00254
1304.08895,0.00242
1302.02878,0.00242
1299.96861,0.00245
1297.90843,0.00240
1295.84826,0.00232
1293.78809,0.00227
1291.72792,0.00227
1289.66775,0.00232
1287.60757,0.00234
1285.54740,0.00228
1283.48723,0.00218
1281.42706,0.00210
1279.36688,0.00209
1277.30671,0.00214
1275.24654,0.00219
1273.18637,0.00222
1271.12620,0.00226
1269.06602,0.00228
1267.00585,0.00236
1264.94568,0.00264
1262.88551,0.00299
1260.82534,0.00322
1258.76516,0.00330
1256.70499,0.00329
1254.64482,0.00333
1252.58465,0.00339
1250.52447,0.00343
1248.46430,0.00348
1246.40413,0.00354
1244.34396,0.00356
1242.28379,0.00355
1240.22361,0.00355
1238.16344,0.00346
1236.10327,0.00332
1234.04310,0.00317
1231.98293,0.00299
1229.92275,0.00279
1227.86258,0.00262
1225.80241,0.00258
1223.74224,0.00261
1221.68207,0.00254
1219.62189,0.00234
1217.56172,0.00213
1215.50155,0.00204
1213.44138,0.00201
1211.38120,0.00192
1209.32103,0.00174
1207.26086,0.00151
1205.20069,0.00125
1203.14052,0.00099
1201.08034,0.00072
1199.02017,0.00046
1196.96000,0.00025
1194.89983,0.00011
1192.83966,0.00000
1190.77948,-0.00012
1188.71931,-0.00015
1186.65914,-0.00020
1184.59897,-0.00021
1182.53880,-0.00009
1180.47862,0.00011
1178.41845,0.00035
1176.35828,0.00057
1174.29811,0.00074
1172.23793,0.00092
1170.17776,0.00122
1168.11759,0.00167
1166.05742,0.00214
1163.99725,0.00246
1161.93707,0.00271
1159.87690,0.00300
1157.81673,0.00338
1155.75656,0.00380
1153.69639,0.00424
1151.63621,0.00468
1149.57604,0.00500
1147.51587,0.00525
1145.45570,0.00558
1143.39552,0.00583
1141.33535,0.00589
1139.27518,0.00597
1137.21501,0.00617
1135.15484,0.00642
1133.09466,0.00667
1131.03449,0.00684
1128.97432,0.00701
1126.91415,0.00742
1124.85398,0.00791
1122.79380,0.00826
1120.73363,0.00857
1118.67346,0.00896
1116.61329,0.00945
1114.55312,0.01000
1112.49294,0.01049
1110.43277,0.01096
1108.37260,0.01145
1106.31243,0.01200
1104.25225,0.01269
1102.19208,0.01341
1100.13191,0.01405
1098.07174,0.01474
1096.01157,0.01557
1093.95139,0.01636
1091.89122,0.01700
1089.83105,0.01759
1087.77088,0.01820
1085.71071,0.01876
1083.65053,0.01934
1081.59036,0.01998
1079.53019,0.02060
1077.47002,0.02125
1075.40985,0.02191
1073.34967,0.02244
1071.28950,0.02282
1069.22933,0.02315
1067.16916,0.02352
1065.10898,0.02392
1063.04881,0.02422
1060.98864,0.02432
1058.92847,0.02432
1056.86830,0.02436
1054.80812,0.02461
1052.74795,0.02505
1050.68778,0.02551
1048.62761,0.02596
1046.56744,0.02655
1044.50726,0.02713
1042.44709,0.02737
1040.38692,0.02732
1038.32675,0.02730
1036.26657,0.02734
1034.20640,0.02721
1032.14623,0.02678
1030.08606,0.02633
1028.02589,0.02604
1025.96571,0.02575
1023.90554,0.02548
1021.84537,0.02534
1019.78520,0.02530
1017.72503,0.02511
1015.66485,0.02472
1013.60468,0.02432
1011.54451,0.02388
1009.48434,0.02330
1007.42417,0.02274
1005.36399,0.02229
1003.30382,0.02185
1001.24365,0.02127
999.18348,0.02066
997.12330,0.02024
995.06313,0.01991
993.00296,0.01948
990.94279,0.01899
988.88262,0.01862
986.82244,0.01837
984.76227,0.01808
982.70210,0.01773
980.64193,0.01738
978.58176,0.01711
976.52158,0.01694
974.46141,0.01680
972.40124,0.01647
970.34107,0.01595
968.28089,0.01554
966.22072,0.01524
964.16055,0.01494
962.10038,0.01467
960.04021,0.01449
957.98003,0.01435
955.91986,0.01419
953.85969,0.01404
951.79952,0.01379
949.73935,0.01340
947.67917,0.01309
945.61900,0.01296
943.55883,0.01285
941.49866,0.01259
939.43849,0.01216
937.37831,0.01163
935.31814,0.01119
933.25797,0.01087
931.19780,0.01057
929.13762,0.01027
927.07745,0.01010
925.01728,0.01017
922.95711,0.01047
920.89694,0.01059
918.83676,0.01043
916.77659,0.01042
914.71642,0.01066
912.65625,0.01087
910.59608,0.01093
908.53590,0.01091
906.47573,0.01088
904.41556,0.01090
902.35539,0.01112
900.29522,0.01160
898.23504,0.01220
896.17487,0.01271
894.11470,0.01313
892.05453,0.01347
889.99435,0.01359
887.93418,0.01351
885.87401,0.01341
883.81384,0.01342
881.75367,0.01358
879.69349,0.01379
877.63332,0.01390
875.57315,0.01396
873.51298,0.01403
871.45281,0.01405
869.39263,0.01407
867.33246,0.01417
865.27229,0.01428
863.21212,0.01429
861.15194,0.01416
859.09177,0.01392
857.03160,0.01361
854.97143,0.01327
852.91126,0.01279
850.85108,0.01210
848.79091,0.01128
846.73074,0.01041
844.67057,0.00948
842.61040,0.00852
840.55022,0.00754
838.49005,0.00646
836.42988,0.00526
834.36971,0.00405
832.30954,0.00301
830.24936,0.00242
828.18919,0.00206
826.12902,0.00171
824.06885,0.00137
822.00867,0.00094
819.94850,0.00042
817.88833,0.00014
815.82816,0.00024
813.76799,0.00038
811.70781,0.00048
809.64764,0.00075
807.58747,0.00097
805.52730,0.00084
803.46713,0.00066
801.40695,0.00083
799.34678,0.00121
797.28661,0.00157
795.22644,0.00193
793.16627,0.00225
791.10609,0.00238
789.04592,0.00243
786.98575,0.00267
784.92558,0.00296
782.86540,0.00322
780.80523,0.00356
778.74506,0.00392
776.68489,0.00431
774.62472,0.00453
772.56454,0.00452
770.50437,0.00480
768.44420,0.00532
766.38403,0.00561
764.32386,0.00589
762.26368,0.00628
760.20351,0.00637
758.14334,0.00630
756.08317,0.00649
754.02299,0.00696
751.96282,0.00751
749.90265,0.00789
747.84248,0.00791
745.78231,0.00758
743.72213,0.00735
741.66196,0.00752
739.60179,0.00767
737.54162,0.00768
735.48145,0.00763
733.42127,0.00746
731.36110,0.00743
729.30093,0.00763
727.24076,0.00745
725.18059,0.00686
723.12041,0.00655
721.06024,0.00697
719.00007,0.00689
716.93990,0.00674
714.87972,0.00688
712.81955,0.00707
710.75938,0.00718
708.69921,0.00725
706.63904,0.00728
704.57886,0.00718
702.51869,0.00692
700.45852,0.00637
698.39835,0.00582
696.33818,0.00561
694.27800,0.00558
692.21783,0.00555
690.15766,0.00556
688.09749,0.00548
686.03731,0.00504
683.97714,0.00432
681.91697,0.00386
679.85680,0.00385
677.79663,0.00391
675.73645,0.00373
673.67628,0.00305
671.61611,0.00201
669.55594,0.00450
667.49577,0.00664
665.43559,0.00000
663.37542,0.00022
661.31525,0.00218
659.25508,0.00299
657.19491,0.00282
655.13473,0.00212
653.07456,0.00149
651.01439,0.00152
648.95422,0.00195
646.89404,0.00199
644.83387,0.00207
642.77370,0.00184
640.71353,0.00147
638.65336,0.00182
636.59318,0.00245
634.53301,0.00233
632.47284,0.00177
630.41267,0.00135
628.35250,0.00078
626.29232,-0.00009
624.23215,0.00015
622.17198,0.00152
620.11181,0.00190
618.05164,0.00094
615.99146,0.00045
613.93129,0.00090
611.87112,0.00139
609.81095,0.00154
607.75077,0.00124
605.69060,0.00040
603.63043,-0.00022
601.57026,0.00004
599.51009,0.00000
