3996.73391,0.00021
3994.67373,0.00005
3992.61356,-0.00001
3990.55339,0.00001
3988.49322,0.00011
3986.43305,0.00029
3984.37287,0.00034
3982.31270,0.00017
3980.25253,0.00007
3978.19236,0.00015
3976.13219,0.00024
3974.07201,0.00024
3972.01184,0.00015
3969.95167,0.00002
3967.89150,0.00000
3965.83133,0.00009
3963.77115,0.00019
3961.71098,0.00022
3959.65081,0.00022
3957.59064,0.00019
3955.53046,0.00014
3953.47029,0.00006
3951.41012,0.00009
3949.34995,0.00026
3947.28978,0.00040
3945.22960,0.00041
3943.16943,0.00027
3941.10926,0.00010
3939.04909,0.00023
3936.98892,0.00058
3934.92874,0.00073
3932.86857,0.00062
3930.80840,0.00053
3928.74823,0.00050
3926.68805,0.00041
3924.62788,0.00036
3922.56771,0.00043
3920.50754,0.00054
3918.44737,0.00066
3916.38719,0.00071
3914.32702,0.00061
3912.26685,0.00049
3910.20668,0.00049
3908.14651,0.00063
3906.08633,0.00077
3904.02616,0.00073
3901.96599,0.00070
3899.90582,0.00093
3897.84565,0.00116
3895.78547,0.00119
3893.72530,0.00105
3891.66513,0.00076
3889.60496,0.00050
3887.54478,0.00043
3885.48461,0.00054
3883.42444,0.00075
3881.36427,0.00083
3879.30410,0.00055
3877.24392,0.00017
3875.18375,0.00000
3873.12358,0.00001
3871.06341,0.00025
3869.00324,0.00077
3866.94306,0.00107
3864.88289,0.00082
3862.82272,0.00039
3860.76255,0.00030
3858.70237,0.00056
3856.64220,0.00094
3854.58203,0.00116
3852.52186,0.00094
3850.46169,0.00062
3848.40151,0.00060
3846.34134,0.00077
3844.28117,0.00089
3842.22100,0.00087
3840.16083,0.00093
3838.10065,0.00126
3836.04048,0.00175
3833.98031,0.00207
3831.92014,0.00181
3829.85997,0.00122
3827.79979,0.00099
3825.73962,0.00113
3823.67945,0.00129
3821.61928,0.00130
3819.55910,0.00116
3817.49893,0.00109
3815.43876,0.00115
3813.37859,0.00116
3811.31842,0.00116
3809.25824,0.00111
3807.19807,0.00091
3805.13790,0.00085
3803.07773,0.00109
3801.01756,0.00101
3798.95738,0.00057
3796.89721,0.00037
3794.83704,0.00034
3792.77687,0.00040
3790.71670,0.00064
3788.65652,0.00087
3786.59635,0.00082
3784.53618,0.00045
3782.47601,0.00005
3780.41583,0.00000
3778.35566,0.00023
3776.29549,0.00043
3774.23532,0.00045
3772.17515,0.00042
3770.11497,0.00046
3768.05480,0.00055
3765.99463,0.00065
3763.93446,0.00067
3761.87429,0.00058
3759.81411,0.00050
3757.75394,0.00057
3755.69377,0.00087
3753.63360,0.00132
3751.57342,0.00175
3749.51325,0.00174
3747.45308,0.00143
3745.39291,0.00134
3743.33274,0.00135
3741.27256,0.00118
3739.21239,0.00096
3737.15222,0.00108
3735.09205,0.00157
3733.03188,0.00185
3730.97170,0.00167
3728.91153,0.00136
3726.85136,0.00137
3724.79119,0.00176
3722.73102,0.00197
3720.67084,0.00168
3718.61067,0.00113
3716.55050,0.00070
3714.49033,0.00054
3712.43015,0.00059
3710.36998,0.00078
3708.30981,0.00098
3706.24964,0.00110
3704.18947,0.00106
3702.12929,0.00097
3700.06912,0.00096
3698.00895,0.00103
3695.94878,0.00116
3693.88861,0.00125
3691.82843,0.00151
3689.76826,0.00202
3687.70809,0.00217
3685.64792,0.00175
3683.58775,0.00126
3681.52757,0.00101
3679.46740,0.00104
3677.40723,0.00135
3675.34706,0.00182
3673.28688,0.00220
3671.22671,0.00243
3669.16654,0.00234
3667.10637,0.00206
3665.04620,0.00204
3662.98602,0.00214
3660.92585,0.00216
3658.86568,0.00220
3656.80551,0.00233
3654.74534,0.00254
3652.68516,0.00292
3650.62499,0.00355
3648.56482,0.00418
3646.50465,0.00413
3644.44447,0.00367
3642.38430,0.00359
3640.32413,0.00397
3638.26396,0.00448
3636.20379,0.00491
3634.14361,0.00508
3632.08344,0.00501
3630.02327,0.00502
3627.96310,0.00532
3625.90293,0.00562
3623.84275,0.00581
3621.78258,0.00606
3619.72241,0.00651
3617.66224,0.00686
3615.60207,0.00694
3613.54189,0.00702
3611.48172,0.00736
3609.42155,0.00797
3607.36138,0.00840
3605.30120,0.00851
3603.24103,0.00877
3601.18086,0.00932
3599.12069,0.00975
3597.06052,0.00972
3595.00034,0.00945
3592.94017,0.00930
3590.88000,0.00954
3588.81983,0.01009
3586.75966,0.01060
3584.69948,0.01083
3582.63931,0.01090
3580.57914,0.01094
3578.51897,0.01116
3576.45879,0.01169
3574.39862,0.01220
3572.33845,0.01239
3570.27828,0.01252
3568.21811,0.01282
3566.15793,0.01324
3564.09776,0.01360
3562.03759,0.01374
3559.97742,0.01379
3557.91725,0.01409
3555.85707,0.01474
3553.79690,0.01543
3551.73673,0.01572
3549.67656,0.01577
3547.61639,0.01601
3545.55621,0.01623
3543.49604,0.01620
3541.43587,0.01620
3539.37570,0.01643
3537.31552,0.01674
3535.25535,0.01698
3533.19518,0.01711
3531.13501,0.01737
3529.07484,0.01782
3527.01466,0.01822
3524.95449,0.01839
3522.89432,0.01849
3520.83415,0.01871
3518.77398,0.01895
3516.71380,0.01912
3514.65363,0.01936
3512.59346,0.01987
3510.53329,0.02052
3508.47312,0.02101
3506.41294,0.02134
3504.35277,0.02170
3502.29260,0.02190
3500.23243,0.02175
3498.17225,0.02166
3496.11208,0.02199
3494.05191,0.02245
3491.99174,0.02258
3489.93157,0.02249
3487.87139,0.02267
3485.81122,0.02309
3483.75105,0.02350
3481.69088,0.02381
3479.63071,0.02398
3477.57053,0.02414
3475.51036,0.02434
3473.45019,0.02443
3471.39002,0.02456
3469.32984,0.02493
3467.26967,0.02532
3465.20950,0.02553
3463.14933,0.02553
3461.08916,0.02543
3459.02898,0.02557
3456.96881,0.02600
3454.90864,0.02643
3452.84847,0.02676
3450.78830,0.02710
3448.72812,0.02762
3446.66795,0.02800
3444.60778,0.02805
3442.54761,0.02819
3440.48744,0.02847
3438.42726,0.02863
3436.36709,0.02870
3434.30692,0.02880
3432.24675,0.02878
3430.18657,0.02874
3428.12640,0.02885
3426.06623,0.02910
3424.00606,0.02939
3421.94589,0.02956
3419.88571,0.02969
3417.82554,0.02986
3415.76537,0.02984
3413.70520,0.02974
3411.64503,0.02992
3409.58485,0.03043
3407.52468,0.03099
3405.46451,0.03140
3403.40434,0.03155
3401.34416,0.03153
3399.28399,0.03164
3397.22382,0.03181
3395.16365,0.03178
3393.10348,0.03173
3391.04330,0.03195
3388.98313,0.03240
3386.92296,0.03288
3384.86279,0.03308
3382.80262,0.03282
3380.74244,0.03245
3378.68227,0.03237
3376.62210,0.03254
3374.56193,0.03286
3372.50176,0.03314
3370.44158,0.03324
3368.38141,0.03328
3366.32124,0.03336
3364.26107,0.03343
3362.20089,0.03349
3360.14072,0.03355
3358.08055,0.03355
3356.02038,0.03361
3353.96021,0.03372
3351.90003,0.03382
3349.83986,0.03402
3347.77969,0.03429
3345.71952,0.03428
3343.65935,0.03394
3341.59917,0.03368
3339.53900,0.03375
3337.47883,0.03413
3335.41866,0.03452
3333.35849,0.03472
3331.29831,0.03475
3329.23814,0.03456
3327.17797,0.03424
3325.11780,0.03419
3323.05762,0.03444
3320.99745,0.03459
3318.93728,0.03439
3316.87711,0.03412
3314.81694,0.03409
3312.75676,0.03421
3310.69659,0.03422
3308.63642,0.03424
3306.57625,0.03440
3304.51608,0.03454
3302.45590,0.03455
3300.39573,0.03456
3298.33556,0.03454
3296.27539,0.03446
3294.21521,0.03437
3292.15504,0.03427
3290.09487,0.03428
3288.03470,0.03440
3285.97453,0.03439
3283.91435,0.03423
3281.85418,0.03413
3279.79401,0.03417
3277.73384,0.03430
3275.67367,0.03429
3273.61349,0.03406
3271.55332,0.03384
3269.49315,0.03375
3267.43298,0.03375
3265.37281,0.03383
3263.31263,0.03391
3261.25246,0.03388
3259.19229,0.03386
3257.13212,0.03390
3255.07194,0.03398
3253.01177,0.03409
3250.95160,0.03416
3248.89143,0.03401
3246.83126,0.03364
3244.77108,0.03330
3242.71091,0.03315
3240.65074,0.03313
3238.59057,0.03319
3236.53040,0.03321
3234.47022,0.03302
3232.41005,0.03282
3230.34988,0.03278
3228.28971,0.03269
3226.22954,0.03240
3224.16936,0.03205
3222.10919,0.03184
3220.04902,0.03175
3217.98885,0.03167
3215.92867,0.03160
3213.86850,0.03154
3211.80833,0.03148
3209.74816,0.03140
3207.68799,0.03125
3205.62781,0.03108
3203.56764,0.03095
3201.50747,0.03087
3199.44730,0.03068
3197.38713,0.03022
3195.32695,0.02984
3193.26678,0.02983
3191.20661,0.02982
3189.14644,0.02954
3187.08626,0.02913
3185.02609,0.02878
3182.96592,0.02848
3180.90575,0.02820
3178.84558,0.02805
3176.78540,0.02798
3174.72523,0.02775
3172.66506,0.02751
3170.60489,0.02731
3168.54472,0.02688
3166.48454,0.02644
3164.42437,0.02629
3162.36420,0.02623
3160.30403,0.02607
3158.24386,0.02585
3156.18368,0.02561
3154.12351,0.02529
3152.06334,0.02487
3150.00317,0.02444
3147.94299,0.02422
3145.88282,0.02410
3143.82265,0.02386
3141.76248,0.02356
3139.70231,0.02325
3137.64213,0.02297
3135.58196,0.02294
3133.52179,0.02303
3131.46162,0.02278
3129.40145,0.02232
3127.34127,0.02203
3125.28110,0.02190
3123.22093,0.02161
3121.16076,0.02115
3119.10058,0.02083
3117.04041,0.02063
3114.98024,0.02038
3112.92007,0.02016
3110.85990,0.01994
3108.79972,0.01975
3106.73955,0.01956
3104.67938,0.01923
3102.61921,0.01893
3100.55904,0.01877
3098.49886,0.01860
3096.43869,0.01829
3094.37852,0.01798
3092.31835,0.01779
3090.25818,0.01766
3088.19800,0.01756
3086.13783,0.01745
3084.07766,0.01726
3082.01749,0.01701
3079.95731,0.01669
3077.89714,0.01636
3075.83697,0.01619
3073.77680,0.01608
3071.71663,0.01579
3069.65645,0.01544
3067.59628,0.01529
3065.53611,0.01518
3063.47594,0.01495
3061.41577,0.01475
3059.35559,0.01462
3057.29542,0.01444
3055.23525,0.01420
3053.17508,0.01392
3051.11491,0.01367
3049.05473,0.01353
3046.99456,0.01338
3044.93439,0.01310
3042.87422,0.01287
3040.81404,0.01285
3038.75387,0.01285
3036.69370,0.01267
3034.63353,0.01240
3032.57336,0.01220
3030.51318,0.01211
3028.45301,0.01210
3026.39284,0.01191
3024.33267,0.01146
3022.27250,0.01109
3020.21232,0.01099
3018.15215,0.01095
3016.09198,0.01083
3014.03181,0.01075
3011.97163,0.01075
3009.91146,0.01072
3007.85129,0.01065
3005.79112,0.01060
3003.73095,0.01058
3001.67077,0.01062
2999.61060,0.01060
2997.55043,0.01040
2995.49026,0.01023
2993.43009,0.01028
2991.36991,0.01048
2989.30974,0.01060
2987.24957,0.01054
2985.18940,0.01042
2983.12923,0.01036
2981.06905,0.01033
2979.00888,0.01031
2976.94871,0.01036
2974.88854,0.01053
2972.82836,0.01079
2970.76819,0.01105
2968.70802,0.01130
2966.64785,0.01148
2964.58768,0.01155
2962.52750,0.01168
2960.46733,0.01193
2958.40716,0.01225
2956.34699,0.01266
2954.28682,0.01307
2952.22664,0.01342
2950.16647,0.01382
2948.10630,0.01414
2946.04613,0.01429
2943.98596,0.01452
2941.92578,0.01479
2939.86561,0.01497
2937.80544,0.01502
2935.74527,0.01499
2933.68509,0.01503
2931.62492,0.01513
2929.56475,0.01521
2927.50458,0.01520
2925.44441,0.01510
2923.38423,0.01496
2921.32406,0.01480
2919.26389,0.01461
2917.20372,0.01426
2915.14355,0.01388
2913.08337,0.01369
2911.02320,0.01366
2908.96303,0.01369
2906.90286,0.01361
2904.84268,0.01341
2902.78251,0.01326
2900.72234,0.01315
2898.66217,0.01304
2896.60200,0.01297
2894.54182,0.01300
2892.48165,0.01310
2890.42148,0.01299
2888.36131,0.01277
2886.30114,0.01278
2884.24096,0.01290
2882.18079,0.01283
2880.12062,0.01262
2878.06045,0.01247
2876.00028,0.01239
2873.94010,0.01224
2871.87993,0.01192
2869.81976,0.01155
2867.75959,0.01124
2865.69941,0.01098
2863.63924,0.01076
2861.57907,0.01064
2859.51890,0.01055
2857.45873,0.01036
2855.39855,0.01013
2853.33838,0.00992
2851.27821,0.00972
2849.21804,0.00960
2847.15787,0.00947
2845.09769,0.00927
2843.03752,0.00914
2840.97735,0.00901
2838.91718,0.00880
2836.85700,0.00861
2834.79683,0.00836
2832.73666,0.00804
2830.67649,0.00793
2828.61632,0.00800
2826.55614,0.00798
2824.49597,0.00792
2822.43580,0.00793
2820.37563,0.00797
2818.31546,0.00792
2816.25528,0.00765
2814.19511,0.00728
2812.13494,0.00712
2810.07477,0.00718
2808.01460,0.00733
2805.95442,0.00734
2803.89425,0.00708
2801.83408,0.00683
2799.77391,0.00669
2797.71373,0.00652
2795.65356,0.00642
2793.59339,0.00646
2791.53322,0.00652
2789.47305,0.00654
2787.41287,0.00650
2785.35270,0.00639
2783.29253,0.00646
2781.23236,0.00676
2779.17219,0.00681
2777.11201,0.00648
2775.05184,0.00614
2772.99167,0.00595
2770.93150,0.00588
2768.87133,0.00596
2766.81115,0.00606
2764.75098,0.00607
2762.69081,0.00595
2760.63064,0.00559
2758.57046,0.00523
2756.51029,0.00525
2754.45012,0.00557
2752.38995,0.00586
2750.32978,0.00591
2748.26960,0.00578
2746.20943,0.00572
2744.14926,0.00580
2742.08909,0.00579
2740.02892,0.00568
2737.96874,0.00564
2735.90857,0.00561
2733.84840,0.00546
2731.78823,0.00542
2729.72805,0.00556
2727.66788,0.00567
2725.60771,0.00568
2723.54754,0.00559
2721.48737,0.00546
2719.42719,0.00543
2717.36702,0.00547
2715.30685,0.00555
2713.24668,0.00561
2711.18651,0.00548
2709.12633,0.00528
2707.06616,0.00514
2705.00599,0.00496
2702.94582,0.00489
2700.88565,0.00512
2698.82547,0.00528
2696.76530,0.00522
2694.70513,0.00510
2692.64496,0.00487
2690.58478,0.00462
2688.52461,0.00456
2686.46444,0.00460
2684.40427,0.00462
2682.34410,0.00467
2680.28392,0.00465
2678.22375,0.00453
2676.16358,0.00453
2674.10341,0.00455
2672.04324,0.00442
2669.98306,0.00433
2667.92289,0.00436
2665.86272,0.00432
2663.80255,0.00422
2661.74238,0.00428
2659.68220,0.00444
2657.62203,0.00449
2655.56186,0.00444
2653.50169,0.00443
2651.44151,0.00447
2649.38134,0.00447
2647.32117,0.00438
2645.26100,0.00420
2643.20083,0.00397
2641.14065,0.00389
2639.08048,0.00402
2637.02031,0.00404
2634.96014,0.00379
2632.89997,0.00370
2630.83979,0.00386
2628.77962,0.00401
2626.71945,0.00402
2624.65928,0.00392
2622.59910,0.00373
2620.53893,0.00353
2618.47876,0.00335
2616.41859,0.00320
2614.35842,0.00318
2612.29824,0.00323
2610.23807,0.00337
2608.17790,0.00359
2606.11773,0.00353
2604.05756,0.00330
2601.99738,0.00329
2599.93721,0.00336
2597.87704,0.00325
2595.81687,0.00307
2593.75670,0.00293
2591.69652,0.00277
2589.63635,0.00263
2587.57618,0.00261
2585.51601,0.00273
2583.45583,0.00302
2581.39566,0.00324
2579.33549,0.00316
2577.27532,0.00303
2575.21515,0.00304
2573.15497,0.00308
2571.09480,0.00297
2569.03463,0.00279
2566.97446,0.00271
2564.91429,0.00285
2562.85411,0.00294
2560.79394,0.00275
2558.73377,0.00252
2556.67360,0.00238
2554.61342,0.00237
2552.55325,0.00240
2550.49308,0.00228
2548.43291,0.00219
2546.37274,0.00223
2544.31256,0.00226
2542.25239,0.00221
2540.19222,0.00217
2538.13205,0.00209
2536.07188,0.00207
2534.01170,0.00222
2531.95153,0.00225
2529.89136,0.00207
2527.83119,0.00194
2525.77102,0.00194
2523.71084,0.00207
2521.65067,0.00230
2519.59050,0.00243
2517.53033,0.00245
2515.47015,0.00246
2513.40998,0.00251
2511.34981,0.00259
2509.28964,0.00244
2507.22947,0.00201
2505.16929,0.00165
2503.10912,0.00173
2501.04895,0.00202
2498.98878,0.00205
2496.92861,0.00210
2494.86843,0.00226
2492.80826,0.00232
2490.74809,0.00242
2488.68792,0.00255
2486.62775,0.00247
2484.56757,0.00237
2482.50740,0.00256
2480.44723,0.00279
2478.38706,0.00263
2476.32688,0.00224
2474.26671,0.00231
2472.20654,0.00265
2470.14637,0.00254
2468.08620,0.00204
2466.02602,0.00168
2463.96585,0.00171
2461.90568,0.00182
2459.84551,0.00178
2457.78534,0.00178
2455.72516,0.00196
2453.66499,0.00188
2451.60482,0.00154
2449.54465,0.00149
2447.48447,0.00176
2445.42430,0.00194
2443.36413,0.00188
2441.30396,0.00170
2439.24379,0.00149
2437.18361,0.00128
2435.12344,0.00122
2433.06327,0.00131
2431.00310,0.00130
2428.94293,0.00103
2426.88275,0.00095
2424.82258,0.00139
2422.76241,0.00190
2420.70224,0.00215
2418.64207,0.00217
2416.58189,0.00205
2414.52172,0.00195
2412.46155,0.00169
2410.40138,0.00131
2408.34120,0.00118
2406.28103,0.00123
2404.22086,0.00117
2402.16069,0.00107
2400.10052,0.00123
2398.04034,0.00145
2395.98017,0.00137
2393.92000,0.00104
2391.85983,0.00094
2389.79966,0.00125
2387.73948,0.00171
2385.67931,0.00194
2383.61914,0.00186
2381.55897,0.00184
2379.49880,0.00209
2377.43862,0.00234
2375.37845,0.00223
2373.31828,0.00209
2371.25811,0.00179
2369.19793,0.00103
2367.13776,0.00028
2365.07759,0.00000
2363.01742,0.00043
2360.95725,0.00316
2358.89707,0.00485
2356.83690,0.00460
2354.77673,0.00367
2352.71656,0.00307
2350.65639,0.00388
2348.59621,0.00408
2346.53604,0.00143
2344.47587,0.00145
2342.41570,0.00236
2340.35552,0.00241
2338.29535,0.00228
2336.23518,0.00193
2334.17501,0.00162
2332.11484,0.00162
2330.05466,0.00198
2327.99449,0.00184
2325.93432,0.00183
2323.87415,0.00150
2321.81398,0.00170
2319.75380,0.00207
2317.69363,0.00287
2315.63346,0.00299
2313.57329,0.00246
2311.51312,0.00195
2309.45294,0.00174
2307.39277,0.00189
2305.33260,0.00214
2303.27243,0.00244
2301.21225,0.00277
2299.15208,0.00302
2297.09191,0.00296
2295.03174,0.00287
2292.97157,0.00290
2290.91139,0.00269
2288.85122,0.00220
2286.79105,0.00193
2284.73088,0.00212
2282.67071,0.00231
2280.61053,0.00206
2278.55036,0.00171
2276.49019,0.00167
2274.43002,0.00176
2272.36984,0.00172
2270.30967,0.00172
2268.24950,0.00190
2266.18933,0.00201
2264.12916,0.00175
2262.06898,0.00124
2260.00881,0.00087
2257.94864,0.00077
2255.88847,0.00090
2253.82830,0.00121
2251.76812,0.00147
2249.70795,0.00143
2247.64778,0.00121
2245.58761,0.00132
2243.52744,0.00171
2241.46726,0.00173
2239.40709,0.00185
2237.34692,0.00246
2235.28675,0.00253
2233.22657,0.00184
2231.16640,0.00118
2229.10623,0.00093
2227.04606,0.00094
2224.98589,0.00101
2222.92571,0.00132
2220.86554,0.00160
2218.80537,0.00138
2216.74520,0.00107
2214.68503,0.00122
2212.62485,0.00129
2210.56468,0.00102
2208.50451,0.00128
2206.44434,0.00201
2204.38417,0.00223
2202.32399,0.00186
2200.26382,0.00144
2198.20365,0.00148
2196.14348,0.00186
2194.08330,0.00207
2192.02313,0.00183
2189.96296,0.00133
2187.90279,0.00115
2185.84262,0.00153
2183.78244,0.00216
2181.72227,0.00229
2179.66210,0.00174
2177.60193,0.00162
2175.54176,0.00215
2173.48158,0.00260
2171.42141,0.00309
2169.36124,0.00293
2167.30107,0.00171
2165.24089,0.00105
2163.18072,0.00103
2161.12055,0.00070
2159.06038,0.00120
2157.00021,0.00198
2154.94003,0.00175
2152.87986,0.00149
2150.81969,0.00147
2148.75952,0.00107
2146.69935,0.00052
2144.63917,0.00056
2142.57900,0.00109
2140.51883,0.00103
2138.45866,0.00083
2136.39849,0.00151
2134.33831,0.00205
2132.27814,0.00169
2130.21797,0.00118
2128.15780,0.00131
2126.09762,0.00202
2124.03745,0.00238
2121.97728,0.00208
2119.91711,0.00180
2117.85694,0.00189
2115.79676,0.00223
2113.73659,0.00240
2111.67642,0.00236
2109.61625,0.00239
2107.55608,0.00226
2105.49590,0.00207
2103.43573,0.00215
2101.37556,0.00228
2099.31539,0.00243
2097.25521,0.00252
2095.19504,0.00249
2093.13487,0.00244
2091.07470,0.00260
2089.01453,0.00287
2086.95435,0.00286
2084.89418,0.00266
2082.83401,0.00273
2080.77384,0.00295
2078.71367,0.00293
2076.65349,0.00269
2074.59332,0.00211
2072.53315,0.00156
2070.47298,0.00182
2068.41281,0.00254
2066.35263,0.00268
2064.29246,0.00234
2062.23229,0.00208
2060.17212,0.00184
2058.11194,0.00214
2056.05177,0.00282
2053.99160,0.00275
2051.93143,0.00191
2049.87126,0.00095
2047.81108,0.00069
2045.75091,0.00122
2043.69074,0.00148
2041.63057,0.00157
2039.57040,0.00191
2037.51022,0.00181
2035.45005,0.00117
2033.38988,0.00054
2031.32971,0.00000
2029.26954,0.00005
2027.20936,0.00101
2025.14919,0.00242
2023.08902,0.00341
2021.02885,0.00315
2018.96867,0.00227
2016.90850,0.00205
2014.84833,0.00185
2012.78816,0.00098
2010.72799,0.00076
2008.66781,0.00139
2006.60764,0.00179
2004.54747,0.00155
2002.48730,0.00085
2000.42713,0.00078
1998.36695,0.00191
1996.30678,0.00262
1994.24661,0.00192
1992.18644,0.00141
1990.12626,0.00175
1988.06609,0.00177
1986.00592,0.00193
1983.94575,0.00288
1981.88558,0.00326
1979.82540,0.00220
1977.76523,0.00080
1975.70506,0.00028
1973.64489,0.00059
1971.58472,0.00099
1969.52454,0.00146
1967.46437,0.00194
1965.40420,0.00167
1963.34403,0.00080
1961.28386,0.00017
1959.22368,0.00000
1957.16351,0.00021
1955.10334,0.00079
1953.04317,0.00111
1950.98299,0.00070
1948.92282,0.00022
1946.86265,-0.00001
1944.80248,0.00015
1942.74231,0.00094
1940.68213,0.00161
1938.62196,0.00128
1936.56179,0.00043
1934.50162,0.00000
1932.44145,0.00024
1930.38127,0.00066
1928.32110,0.00066
1926.26093,0.00036
1924.20076,0.00022
1922.14059,0.00018
1920.08041,0.00019
1918.02024,0.00057
1915.96007,0.00110
1913.89990,0.00123
1911.83972,0.00106
1909.77955,0.00101
1907.71938,0.00116
1905.65921,0.00124
1903.59904,0.00112
1901.53886,0.00088
1899.47869,0.00066
1897.41852,0.00063
1895.35835,0.00085
1893.29818,0.00106
1891.23800,0.00109
1889.17783,0.00105
1887.11766,0.00106
1885.05749,0.00101
1882.99731,0.00079
1880.93714,0.00057
1878.87697,0.00050
1876.81680,0.00051
1874.75663,0.00053
1872.69645,0.00056
1870.63628,0.00050
1868.57611,0.00026
1866.51594,0.00021
1864.45577,0.00050
1862.39559,0.00069
1860.33542,0.00054
1858.27525,0.00023
1856.21508,0.00000
1854.15491,0.00001
1852.09473,0.00025
1850.03456,0.00057
1847.97439,0.00080
1845.91422,0.00081
1843.85404,0.00050
1841.79387,0.00019
1839.73370,0.00020
1837.67353,0.00039
1835.61336,0.00044
1833.55318,0.00024
1831.49301,0.00000
1829.43284,0.00005
1827.37267,0.00040
1825.31250,0.00059
1823.25232,0.00047
1821.19215,0.00031
1819.13198,0.00026
1817.07181,0.00025
1815.01163,0.00023
1812.95146,0.00012
1810.89129,-0.00004
1808.83112,-0.00018
1806.77095,-0.00030
1804.71077,-0.00039
1802.65060,-0.00037
1800.59043,-0.00023
1798.53026,-0.00000
1796.47009,0.00023
1794.40991,0.00038
1792.34974,0.00031
1790.28957,0.00009
1788.22940,-0.00006
1786.16923,-0.00012
1784.10905,-0.00010
1782.04888,0.00000
1779.98871,0.00002
1777.92854,-0.00008
1775.86836,-0.00002
1773.80819,0.00034
1771.74802,0.00064
1769.68785,0.00063
1767.62768,0.00059
1765.56750,0.00079
1763.50733,0.00120
1761.44716,0.00171
1759.38699,0.00223
1757.32682,0.00272
1755.26664,0.00333
1753.20647,0.00420
1751.14630,0.00523
1749.08613,0.00614
1747.02596,0.00675
1744.96578,0.00713
1742.90561,0.00731
1740.84544,0.00751
1738.78527,0.00796
1736.72509,0.00857
1734.66492,0.00907
1732.60475,0.00920
1730.54458,0.00904
1728.48441,0.00879
1726.42423,0.00858
1724.36406,0.00841
1722.30389,0.00830
1720.24372,0.00822
1718.18355,0.00792
1716.12337,0.00718
1714.06320,0.00640
1712.00303,0.00598
1709.94286,0.00580
1707.88268,0.00560
1705.82251,0.00525
1703.76234,0.00488
1701.70217,0.00470
1699.64200,0.00468
1697.58182,0.00466
1695.52165,0.00452
1693.46148,0.00451
1691.40131,0.00481
1689.34114,0.00523
1687.28096,0.00561
1685.22079,0.00602
1683.16062,0.00640
1681.10045,0.00675
1679.04028,0.00716
1676.98010,0.00767
1674.91993,0.00829
1672.85976,0.00899
1670.79959,0.00964
1668.73941,0.01018
1666.67924,0.01071
1664.61907,0.01139
1662.55890,0.01211
1660.49873,0.01270
1658.43855,0.01321
1656.37838,0.01392
1654.31821,0.01490
1652.25804,0.01567
1650.19787,0.01610
1648.13769,0.01658
1646.07752,0.01692
1644.01735,0.01699
1641.95718,0.01717
1639.89701,0.01754
1637.83683,0.01805
1635.77666,0.01841
1633.71649,0.01839
1631.65632,0.01839
1629.59614,0.01864
1627.53597,0.01898
1625.47580,0.01916
1623.41563,0.01907
1621.35546,0.01891
1619.29528,0.01902
1617.23511,0.01909
1615.17494,0.01877
1613.11477,0.01843
1611.05460,0.01826
1608.99442,0.01799
1606.93425,0.01759
1604.87408,0.01712
1602.81391,0.01651
1600.75373,0.01574
1598.69356,0.01490
1596.63339,0.01402
1594.57322,0.01306
1592.51305,0.01211
1590.45287,0.01120
1588.39270,0.01033
1586.33253,0.00944
1584.27236,0.00854
1582.21219,0.00775
1580.15201,0.00717
1578.09184,0.00663
1576.03167,0.00581
1573.97150,0.00493
1571.91133,0.00441
1569.85115,0.00407
1567.79098,0.00366
1565.73081,0.00328
1563.67064,0.00306
1561.61046,0.00302
1559.55029,0.00290
1557.49012,0.00247
1555.42995,0.00216
1553.36978,0.00193
1551.30960,0.00164
1549.24943,0.00148
1547.18926,0.00158
1545.12909,0.00188
1543.06892,0.00208
1541.00874,0.00184
1538.94857,0.00120
1536.88840,0.00083
1534.82823,0.00080
1532.76805,0.00075
1530.70788,0.00060
1528.64771,0.00055
1526.58754,0.00061
1524.52737,0.00076
1522.46719,0.00091
1520.40702,0.00090
1518.34685,0.00081
1516.28668,0.00064
1514.22651,0.00038
1512.16633,0.00041
1510.10616,0.00083
1508.04599,0.00103
1505.98582,0.00048
1503.92565,0.00000
1501.86547,0.00001
1499.80530,0.00018
1497.74513,0.00024
1495.68496,0.00021
1493.62478,0.00036
1491.56461,0.00081
1489.50444,0.00127
1487.44427,0.00137
1485.38410,0.00127
1483.32392,0.00134
1481.26375,0.00163
1479.20358,0.00206
1477.14341,0.00264
1475.08324,0.00331
1473.02306,0.00392
1470.96289,0.00437
1468.90272,0.00479
1466.84255,0.00530
1464.78238,0.00582
1462.72220,0.00631
1460.66203,0.00690
1458.60186,0.00753
1456.54169,0.00791
1454.48151,0.00806
1452.42134,0.00825
1450.36117,0.00846
1448.30100,0.00865
1446.24083,0.00891
1444.18065,0.00928
1442.12048,0.00972
1440.06031,0.01021
1438.00014,0.01072
1435.93997,0.01114
1433.87979,0.01152
1431.81962,0.01205
1429.75945,0.01263
1427.69928,0.01314
1425.63910,0.01366
1423.57893,0.01420
1421.51876,0.01463
1419.45859,0.01493
1417.39842,0.01517
1415.33824,0.01536
1413.27807,0.01542
1411.21790,0.01534
1409.15773,0.01524
1407.09756,0.01516
1405.03738,0.01493
1402.97721,0.01449
1400.91704,0.01420
1398.85687,0.01410
1396.79670,0.01383
1394.73652,0.01318
1392.67635,0.01252
1390.61618,0.01237
1388.55601,0.01263
1386.49583,0.01289
1384.43566,0.01310
1382.37549,0.01345
1380.31532,0.01389
1378.25515,0.01438
1376.19497,0.01492
1374.13480,0.01530
1372.07463,0.01534
1370.01446,0.01517
1367.95429,0.01496
1365.89411,0.01477
1363.83394,0.01461
1361.77377,0.01434
1359.71360,0.01403
1357.65343,0.01377
1355.59325,0.01354
1353.53308,0.01334
1351.47291,0.01315
1349.41274,0.01291
1347.35256,0.01263
1345.29239,0.01240
1343.23222,0.01232
1341.17205,0.01235
1339.11188,0.01235
1337.05170,0.01229
1334.99153,0.01219
1332.93136,0.01207
1330.87119,0.01201
1328.81102,0.01204
1326.75084,0.01208
1324.69067,0.01213
1322.63050,0.01214
1320.57033,0.01210
1318.51015,0.01206
1316.44998,0.01208
1314.38981,0.01211
1312.32964,0.01206
1310.26947,0.01193
1308.20929,0.01168
1306.14912,0.01128
1304.08895,0.01080
1302.02878,0.01041
1299.96861,0.01030
1297.90843,0.01035
1295.84826,0.01024
1293.78809,0.00995
1291.72792,0.00979
1289.66775,0.00981
1287.60757,0.00985
1285.54740,0.00981
1283.48723,0.00973
1281.42706,0.00974
1279.36688,0.00994
1277.30671,0.01020
1275.24654,0.01042
1273.18637,0.01074
1271.12620,0.01124
1269.06602,0.01181
1267.00585,0.01246
1264.94568,0.01326
1262.88551,0.01417
1260.82534,0.01502
1258.76516,0.01572
1256.70499,0.01634
1254.64482,0.01690
1252.58465,0.01725
1250.52447,0.01742
1248.46430,0.01753
1246.40413,0.01752
1244.34396,0.01737
1242.28379,0.01714
1240.22361,0.01687
1238.16344,0.01662
1236.10327,0.01626
1234.04310,0.01565
1231.98293,0.01489
1229.92275,0.01424
1227.86258,0.01366
1225.80241,0.01298
1223.74224,0.01224
1221.68207,0.01155
1219.62189,0.01086
1217.56172,0.01012
1215.50155,0.00927
1213.44138,0.00826
1211.38120,0.00734
1209.32103,0.00658
1207.26086,0.00582
1205.20069,0.00488
1203.14052,0.00384
1201.08034,0.00290
1199.02017,0.00207
1196.96000,0.00133
1194.89983,0.00073
1192.83966,0.00032
1190.77948,0.00009
1188.71931,0.00000
1186.65914,-0.00002
1184.59897,0.00015
1182.53880,0.00041
1180.47862,0.00088
1178.41845,0.00169
1176.35828,0.00268
1174.29811,0.00375
1172.23793,0.00492
1170.17776,0.00614
1168.11759,0.00748
1166.05742,0.00894
1163.99725,0.01027
1161.93707,0.01134
1159.87690,0.01239
1157.81673,0.01339
1155.75656,0.01426
1153.69639,0.01505
1151.63621,0.01585
1149.57604,0.01671
1147.51587,0.01745
1145.45570,0.01785
1143.39552,0.01808
1141.33535,0.01833
1139.27518,0.01855
1137.21501,0.01870
1135.15484,0.01891
1133.09466,0.01920
1131.03449,0.01967
1128.97432,0.02037
1126.91415,0.02106
1124.85398,0.02180
1122.79380,0.02281
1120.73363,0.02373
1118.67346,0.02440
1116.61329,0.02516
1114.55312,0.02592
1112.49294,0.02647
1110.43277,0.02696
1108.37260,0.02758
1106.31243,0.02836
1104.25225,0.02922
1102.19208,0.03023
1100.13191,0.03159
1098.07174,0.03328
1096.01157,0.03516
1093.95139,0.03686
1091.89122,0.03829
1089.83105,0.03961
1087.77088,0.04074
1085.71071,0.04176
1083.65053,0.04285
1081.59036,0.04391
1079.53019,0.04507
1077.47002,0.04651
1075.40985,0.04798
1073.34967,0.04926
1071.28950,0.05031
1069.22933,0.05130
1067.16916,0.05231
1065.10898,0.05305
1063.04881,0.05348
1060.98864,0.05395
1058.92847,0.05463
1056.86830,0.05536
1054.80812,0.05616
1052.74795,0.05708
1050.68778,0.05799
1048.62761,0.05895
1046.56744,0.06016
1044.50726,0.06148
1042.44709,0.06265
1040.38692,0.06361
1038.32675,0.06439
1036.26657,0.06496
1034.20640,0.06521
1032.14623,0.06515
1030.08606,0.06487
1028.02589,0.06456
1025.96571,0.06443
1023.90554,0.06443
1021.84537,0.06430
1019.78520,0.06410
1017.72503,0.06402
1015.66485,0.06400
1013.60468,0.06404
1011.54451,0.06415
1009.48434,0.06397
1007.42417,0.06346
1005.36399,0.06273
1003.30382,0.06173
1001.24365,0.06058
999.18348,0.05943
997.12330,0.05825
995.06313,0.05704
993.00296,0.05599
990.94279,0.05506
988.88262,0.05414
986.82244,0.05340
984.76227,0.05280
982.70210,0.05213
980.64193,0.05144
978.58176,0.05079
976.52158,0.05012
974.46141,0.04932
972.40124,0.04827
970.34107,0.04703
968.28089,0.04581
966.22072,0.04468
964.16055,0.04353
962.10038,0.04240
960.04021,0.04137
957.98003,0.04039
955.91986,0.03938
953.85969,0.03844
951.79952,0.03753
949.73935,0.03630
947.67917,0.03477
945.61900,0.03323
943.55883,0.03153
941.49866,0.02928
939.43849,0.02662
937.37831,0.02388
935.31814,0.02111
933.25797,0.01853
931.19780,0.01650
929.13762,0.01512
927.07745,0.01396
925.01728,0.01266
922.95711,0.01153
920.89694,0.01076
918.83676,0.00993
916.77659,0.00889
914.71642,0.00781
912.65625,0.00708
910.59608,0.00677
908.53590,0.00637
906.47573,0.00572
904.41556,0.00535
902.35539,0.00559
900.29522,0.00615
898.23504,0.00663
896.17487,0.00717
894.11470,0.00776
892.05453,0.00800
889.99435,0.00779
887.93418,0.00733
885.87401,0.00677
883.81384,0.00616
881.75367,0.00542
879.69349,0.00461
877.63332,0.00369
875.57315,0.00289
873.51298,0.00236
871.45281,0.00189
869.39263,0.00171
867.33246,0.00185
865.27229,0.00150
863.21212,0.00055
861.15194,0.00012
859.09177,0.00048
857.03160,0.00064
854.97143,0.00027
852.91126,0.00000
850.85108,0.00000
848.79091,0.00003
846.73074,-0.00031
844.67057,-0.00088
842.61040,-0.00130
840.55022,-0.00151
838.49005,-0.00166
836.42988,-0.00177
834.36971,-0.00185
832.30954,-0.00190
830.24936,-0.00180
828.18919,-0.00155
826.12902,-0.00129
824.06885,-0.00128
822.00867,-0.00132
819.94850,-0.00124
817.88833,-0.00115
815.82816,-0.00088
813.76799,-0.00045
811.70781,-0.00004
809.64764,0.00037
807.58747,0.00063
805.52730,0.00060
803.46713,0.00057
801.40695,0.00064
799.34678,0.00061
797.28661,0.00048
795.22644,0.00012
793.16627,-0.00044
791.10609,-0.00075
789.04592,-0.00050
786.98575,-0.00012
784.92558,-0.00013
782.86540,-0.00012
780.80523,0.00033
778.74506,0.00066
776.68489,0.00062
774.62472,0.00061
772.56454,0.00060
770.50437,0.00044
768.44420,0.00035
766.38403,0.00027
764.32386,0.00013
762.26368,0.00027
760.20351,0.00052
758.14334,0.00062
756.08317,0.00095
754.02299,0.00133
751.96282,0.00099
749.90265,0.00028
747.84248,0.00000
745.78231,-0.00013
743.72213,-0.00016
741.66196,0.00004
739.60179,0.00043
737.54162,0.00057
735.48145,0.00024
733.42127,-0.00009
731.36110,0.00018
729.30093,0.00081
727.24076,0.00084
725.18059,0.00020
723.12041,0.00003
721.06024,-0.00008
719.00007,0.00020
716.93990,0.00054
714.87972,0.00090
712.81955,0.00117
710.75938,0.00126
708.69921,0.00139
706.63904,0.00186
704.57886,0.00278
702.51869,0.00371
700.45852,0.00423
698.39835,0.00429
696.33818,0.00401
694.27800,0.00361
692.21783,0.00337
690.15766,0.00314
688.09749,0.00228
686.03731,0.00091
683.97714,0.00021
681.91697,0.00053
679.85680,0.00077
677.79663,0.00021
675.73645,-0.00034
673.67628,0.00082
671.61611,0.00345
669.55594,0.00176
667.49577,-0.00201
665.43559,0.00277
663.37542,0.00239
661.31525,0.00128
659.25508,0.00103
657.19491,0.00102
655.13473,0.00083
653.07456,0.00064
651.01439,0.00116
648.95422,0.00181
646.89404,0.00160
644.83387,0.00050
642.77370,0.00000
640.71353,0.00025
638.65336,0.00080
636.59318,0.00133
634.53301,0.00195
632.47284,0.00267
630.41267,0.00249
628.35250,0.00093
626.29232,-0.00046
624.23215,-0.00088
622.17198,-0.00136
620.11181,-0.00154
618.05164,-0.00174
615.99146,-0.00240
613.93129,-0.00214
611.87112,-0.00096
609.81095,0.00030
607.75077,0.00062
605.69060,-0.00016
603.63043,-0.00020
601.57026,0.00046
599.51009,0.00000
