3996.73391,0.00067
3994.67373,0.00080
3992.61356,0.00082
3990.55339,0.00072
3988.49322,0.00060
3986.43305,0.00053
3984.37287,0.00045
3982.31270,0.00032
3980.25253,0.00022
3978.19236,0.00020
3976.13219,0.00026
3974.07201,0.00038
3972.01184,0.00031
3969.95167,0.00007
3967.89150,0.00000
3965.83133,0.00014
3963.77115,0.00023
3961.71098,0.00019
3959.65081,0.00017
3957.59064,0.00026
3955.53046,0.00035
3953.47029,0.00026
3951.41012,0.00019
3949.34995,0.00035
3947.28978,0.00058
3945.22960,0.00070
3943.16943,0.00074
3941.10926,0.00076
3939.04909,0.00088
3936.98892,0.00104
3934.92874,0.00096
3932.86857,0.00068
3930.80840,0.00056
3928.74823,0.00052
3926.68805,0.00043
3924.62788,0.00049
3922.56771,0.00065
3920.50754,0.00077
3918.44737,0.00097
3916.38719,0.00120
3914.32702,0.00115
3912.26685,0.00088
3910.20668,0.00066
3908.14651,0.00058
3906.08633,0.00052
3904.02616,0.00045
3901.96599,0.00052
3899.90582,0.00072
3897.84565,0.00081
3895.78547,0.00069
3893.72530,0.00051
3891.66513,0.00042
3889.60496,0.00035
3887.54478,0.00027
3885.48461,0.00032
3883.42444,0.00046
3881.36427,0.00061
3879.30410,0.00079
3877.24392,0.00083
3875.18375,0.00074
3873.12358,0.00063
3871.06341,0.00072
3869.00324,0.00115
3866.94306,0.00138
3864.88289,0.00115
3862.82272,0.00085
3860.76255,0.00080
3858.70237,0.00088
3856.64220,0.00085
3854.58203,0.00054
3852.52186,0.00025
3850.46169,0.00032
3848.40151,0.00041
3846.34134,0.00047
3844.28117,0.00065
3842.22100,0.00073
3840.16083,0.00062
3838.10065,0.00064
3836.04048,0.00100
3833.98031,0.00126
3831.92014,0.00096
3829.85997,0.00047
3827.79979,0.00048
3825.73962,0.00092
3823.67945,0.00130
3821.61928,0.00157
3819.55910,0.00171
3817.49893,0.00159
3815.43876,0.00136
3813.37859,0.00118
3811.31842,0.00098
3809.25824,0.00077
3807.19807,0.00067
3805.13790,0.00074
3803.07773,0.00088
3801.01756,0.00084
3798.95738,0.00065
3796.89721,0.00069
3794.83704,0.00092
3792.77687,0.00095
3790.71670,0.00072
3788.65652,0.00046
3786.59635,0.00030
3784.53618,0.00014
3782.47601,0.00000
3780.41583,0.00009
3778.35566,0.00046
3776.29549,0.00079
3774.23532,0.00085
3772.17515,0.00076
3770.11497,0.00069
3768.05480,0.00075
3765.99463,0.00088
3763.93446,0.00080
3761.87429,0.00064
3759.81411,0.00082
3757.75394,0.00107
3755.69377,0.00087
3753.63360,0.00060
3751.57342,0.00082
3749.51325,0.00112
3747.45308,0.00104
3745.39291,0.00115
3743.33274,0.00164
3741.27256,0.00181
3739.21239,0.00156
3737.15222,0.00139
3735.09205,0.00158
3733.03188,0.00165
3730.97170,0.00139
3728.91153,0.00106
3726.85136,0.00087
3724.79119,0.00086
3722.73102,0.00092
3720.67084,0.00114
3718.61067,0.00130
3716.55050,0.00105
3714.49033,0.00052
3712.43015,0.00024
3710.36998,0.00065
3708.30981,0.00100
3706.24964,0.00086
3704.18947,0.00035
3702.12929,0.00004
3700.06912,0.00030
3698.00895,0.00067
3695.94878,0.00073
3693.88861,0.00041
3691.82843,0.00016
3689.76826,0.00055
3687.70809,0.00126
3685.64792,0.00134
3683.58775,0.00097
3681.52757,0.00069
3679.46740,0.00075
3677.40723,0.00111
3675.34706,0.00149
3673.28688,0.00157
3671.22671,0.00162
3669.16654,0.00168
3667.10637,0.00162
3665.04620,0.00165
3662.98602,0.00174
3660.92585,0.00175
3658.86568,0.00168
3656.80551,0.00142
3654.74534,0.00107
3652.68516,0.00099
3650.62499,0.00135
3648.56482,0.00193
3646.50465,0.00217
3644.44447,0.00202
3642.38430,0.00188
3640.32413,0.00184
3638.26396,0.00193
3636.20379,0.00219
3634.14361,0.00232
3632.08344,0.00216
3630.02327,0.00202
3627.96310,0.00215
3625.90293,0.00226
3623.84275,0.00236
3621.78258,0.00256
3619.72241,0.00269
3617.66224,0.00265
3615.60207,0.00265
3613.54189,0.00276
3611.48172,0.00271
3609.42155,0.00264
3607.36138,0.00275
3605.30120,0.00301
3603.24103,0.00345
3601.18086,0.00375
3599.12069,0.00365
3597.06052,0.00325
3595.00034,0.00303
3592.94017,0.00312
3590.88000,0.00337
3588.81983,0.00344
3586.75966,0.00340
3584.69948,0.00355
3582.63931,0.00386
3580.57914,0.00404
3578.51897,0.00405
3576.45879,0.00407
3574.39862,0.00404
3572.33845,0.00399
3570.27828,0.00425
3568.21811,0.00468
3566.15793,0.00481
3564.09776,0.00470
3562.03759,0.00467
3559.97742,0.00481
3557.91725,0.00504
3555.85707,0.00526
3553.79690,0.00535
3551.73673,0.00535
3549.67656,0.00542
3547.61639,0.00565
3545.55621,0.00582
3543.49604,0.00577
3541.43587,0.00569
3539.37570,0.00580
3537.31552,0.00602
3535.25535,0.00607
3533.19518,0.00592
3531.13501,0.00591
3529.07484,0.00620
3527.01466,0.00651
3524.95449,0.00653
3522.89432,0.00644
3520.83415,0.00651
3518.77398,0.00669
3516.71380,0.00683
3514.65363,0.00696
3512.59346,0.00722
3510.53329,0.00749
3508.47312,0.00755
3506.41294,0.00740
3504.35277,0.00744
3502.29260,0.00779
3500.23243,0.00796
3498.17225,0.00782
3496.11208,0.00771
3494.05191,0.00773
3491.99174,0.00760
3489.93157,0.00727
3487.87139,0.00714
3485.81122,0.00743
3483.75105,0.00784
3481.69088,0.00802
3479.63071,0.00807
3477.57053,0.00828
3475.51036,0.00854
3473.45019,0.00855
3471.39002,0.00841
3469.32984,0.00821
3467.26967,0.00808
3465.20950,0.00820
3463.14933,0.00841
3461.08916,0.00841
3459.02898,0.00845
3456.96881,0.00867
3454.90864,0.00876
3452.84847,0.00868
3450.78830,0.00872
3448.72812,0.00902
3446.66795,0.00919
3444.60778,0.00909
3442.54761,0.00914
3440.48744,0.00945
3438.42726,0.00977
3436.36709,0.00999
3434.30692,0.01018
3432.24675,0.01014
3430.18657,0.01000
3428.12640,0.01011
3426.06623,0.01025
3424.00606,0.01013
3421.94589,0.00986
3419.88571,0.00967
3417.82554,0.00966
3415.76537,0.00976
3413.70520,0.00977
3411.64503,0.00982
3409.58485,0.01003
3407.52468,0.01019
3405.46451,0.01028
3403.40434,0.01041
3401.34416,0.01047
3399.28399,0.01052
3397.22382,0.01054
3395.16365,0.01043
3393.10348,0.01031
3391.04330,0.01043
3388.98313,0.01077
3386.92296,0.01107
3384.86279,0.01111
3382.80262,0.01092
3380.74244,0.01077
3378.68227,0.01079
3376.62210,0.01090
3374.56193,0.01103
3372.50176,0.01120
3370.44158,0.01141
3368.38141,0.01148
3366.32124,0.01133
3364.26107,0.01108
3362.20089,0.01089
3360.14072,0.01080
3358.08055,0.01082
3356.02038,0.01094
3353.96021,0.01096
3351.90003,0.01096
3349.83986,0.01117
3347.77969,0.01144
3345.71952,0.01152
3343.65935,0.01146
3341.59917,0.01142
3339.53900,0.01141
3337.47883,0.01157
3335.41866,0.01186
3333.35849,0.01195
3331.29831,0.01187
3329.23814,0.01171
3327.17797,0.01155
3325.11780,0.01151
3323.05762,0.01152
3320.99745,0.01162
3318.93728,0.01181
3316.87711,0.01181
3314.81694,0.01165
3312.75676,0.01165
3310.69659,0.01174
3308.63642,0.01169
3306.57625,0.01160
3304.51608,0.01157
3302.45590,0.01161
3300.39573,0.01166
3298.33556,0.01164
3296.27539,0.01162
3294.21521,0.01163
3292.15504,0.01161
3290.09487,0.01160
3288.03470,0.01165
3285.97453,0.01167
3283.91435,0.01161
3281.85418,0.01149
3279.79401,0.01142
3277.73384,0.01146
3275.67367,0.01146
3273.61349,0.01146
3271.55332,0.01152
3269.49315,0.01152
3267.43298,0.01148
3265.37281,0.01150
3263.31263,0.01151
3261.25246,0.01141
3259.19229,0.01131
3257.13212,0.01146
3255.07194,0.01166
3253.01177,0.01158
3250.95160,0.01136
3248.89143,0.01123
3246.83126,0.01114
3244.77108,0.01100
3242.71091,0.01102
3240.65074,0.01126
3238.59057,0.01136
3236.53040,0.01130
3234.47022,0.01129
3232.41005,0.01135
3230.34988,0.01133
3228.28971,0.01121
3226.22954,0.01103
3224.16936,0.01086
3222.10919,0.01080
3220.04902,0.01081
3217.98885,0.01094
3215.92867,0.01109
3213.86850,0.01098
3211.80833,0.01068
3209.74816,0.01053
3207.68799,0.01052
3205.62781,0.01060
3203.56764,0.01077
3201.50747,0.01093
3199.44730,0.01092
3197.38713,0.01065
3195.32695,0.01045
3193.26678,0.01050
3191.20661,0.01050
3189.14644,0.01026
3187.08626,0.01008
3185.02609,0.01007
3182.96592,0.01004
3180.90575,0.01000
3178.84558,0.00999
3176.78540,0.00990
3174.72523,0.00967
3172.66506,0.00956
3170.60489,0.00970
3168.54472,0.00973
3166.48454,0.00951
3164.42437,0.00933
3162.36420,0.00933
3160.30403,0.00938
3158.24386,0.00935
3156.18368,0.00924
3154.12351,0.00898
3152.06334,0.00869
3150.00317,0.00860
3147.94299,0.00866
3145.88282,0.00870
3143.82265,0.00865
3141.76248,0.00856
3139.70231,0.00850
3137.64213,0.00844
3135.58196,0.00831
3133.52179,0.00819
3131.46162,0.00806
3129.40145,0.00795
3127.34127,0.00803
3125.28110,0.00815
3123.22093,0.00799
3121.16076,0.00771
3119.10058,0.00765
3117.04041,0.00760
3114.98024,0.00747
3112.92007,0.00750
3110.85990,0.00753
3108.79972,0.00741
3106.73955,0.00728
3104.67938,0.00716
3102.61921,0.00703
3100.55904,0.00701
3098.49886,0.00704
3096.43869,0.00700
3094.37852,0.00689
3092.31835,0.00679
3090.25818,0.00665
3088.19800,0.00659
3086.13783,0.00665
3084.07766,0.00663
3082.01749,0.00654
3079.95731,0.00648
3077.89714,0.00641
3075.83697,0.00631
3073.77680,0.00620
3071.71663,0.00607
3069.65645,0.00603
3067.59628,0.00611
3065.53611,0.00616
3063.47594,0.00609
3061.41577,0.00596
3059.35559,0.00586
3057.29542,0.00585
3055.23525,0.00584
3053.17508,0.00566
3051.11491,0.00543
3049.05473,0.00535
3046.99456,0.00534
3044.93439,0.00525
3042.87422,0.00518
3040.81404,0.00525
3038.75387,0.00535
3036.69370,0.00533
3034.63353,0.00526
3032.57336,0.00525
3030.51318,0.00525
3028.45301,0.00524
3026.39284,0.00523
3024.33267,0.00519
3022.27250,0.00504
3020.21232,0.00487
3018.15215,0.00473
3016.09198,0.00462
3014.03181,0.00466
3011.97163,0.00475
3009.91146,0.00471
3007.85129,0.00470
3005.79112,0.00480
3003.73095,0.00492
3001.67077,0.00500
2999.61060,0.00504
2997.55043,0.00499
2995.49026,0.00489
2993.43009,0.00478
2991.36991,0.00471
2989.30974,0.00473
2987.24957,0.00471
2985.18940,0.00460
2983.12923,0.00458
2981.06905,0.00449
2979.00888,0.00425
2976.94871,0.00410
2974.88854,0.00414
2972.82836,0.00441
2970.76819,0.00476
2968.70802,0.00491
2966.64785,0.00491
2964.58768,0.00490
2962.52750,0.00486
2960.46733,0.00485
2958.40716,0.00497
2956.34699,0.00528
2954.28682,0.00562
2952.22664,0.00576
2950.16647,0.00574
2948.10630,0.00575
2946.04613,0.00585
2943.98596,0.00603
2941.92578,0.00621
2939.86561,0.00618
2937.80544,0.00598
2935.74527,0.00592
2933.68509,0.00607
2931.62492,0.00621
2929.56475,0.00630
2927.50458,0.00635
2925.44441,0.00626
2923.38423,0.00610
2921.32406,0.00603
2919.26389,0.00598
2917.20372,0.00592
2915.14355,0.00582
2913.08337,0.00560
2911.02320,0.00544
2908.96303,0.00549
2906.90286,0.00554
2904.84268,0.00539
2902.78251,0.00531
2900.72234,0.00538
2898.66217,0.00537
2896.60200,0.00527
2894.54182,0.00529
2892.48165,0.00551
2890.42148,0.00563
2888.36131,0.00558
2886.30114,0.00561
2884.24096,0.00566
2882.18079,0.00554
2880.12062,0.00534
2878.06045,0.00519
2876.00028,0.00524
2873.94010,0.00538
2871.87993,0.00529
2869.81976,0.00519
2867.75959,0.00518
2865.69941,0.00494
2863.63924,0.00456
2861.57907,0.00441
2859.51890,0.00452
2857.45873,0.00463
2855.39855,0.00453
2853.33838,0.00424
2851.27821,0.00409
2849.21804,0.00421
2847.15787,0.00433
2845.09769,0.00435
2843.03752,0.00434
2840.97735,0.00426
2838.91718,0.00416
2836.85700,0.00412
2834.79683,0.00404
2832.73666,0.00389
2830.67649,0.00384
2828.61632,0.00393
2826.55614,0.00394
2824.49597,0.00389
2822.43580,0.00387
2820.37563,0.00390
2818.31546,0.00395
2816.25528,0.00392
2814.19511,0.00391
2812.13494,0.00400
2810.07477,0.00408
2808.01460,0.00410
2805.95442,0.00384
2803.89425,0.00336
2801.83408,0.00311
2799.77391,0.00325
2797.71373,0.00348
2795.65356,0.00349
2793.59339,0.00335
2791.53322,0.00331
2789.47305,0.00336
2787.41287,0.00343
2785.35270,0.00349
2783.29253,0.00361
2781.23236,0.00376
2779.17219,0.00381
2777.11201,0.00378
2775.05184,0.00365
2772.99167,0.00345
2770.93150,0.00337
2768.87133,0.00344
2766.81115,0.00349
2764.75098,0.00343
2762.69081,0.00331
2760.63064,0.00318
2758.57046,0.00309
2756.51029,0.00311
2754.45012,0.00318
2752.38995,0.00319
2750.32978,0.00315
2748.26960,0.00316
2746.20943,0.00319
2744.14926,0.00331
2742.08909,0.00339
2740.02892,0.00327
2737.96874,0.00320
2735.90857,0.00323
2733.84840,0.00321
2731.78823,0.00326
2729.72805,0.00341
2727.66788,0.00343
2725.60771,0.00331
2723.54754,0.00323
2721.48737,0.00321
2719.42719,0.00324
2717.36702,0.00325
2715.30685,0.00319
2713.24668,0.00316
2711.18651,0.00324
2709.12633,0.00339
2707.06616,0.00328
2705.00599,0.00284
2702.94582,0.00257
2700.88565,0.00279
2698.82547,0.00312
2696.76530,0.00319
2694.70513,0.00319
2692.64496,0.00322
2690.58478,0.00316
2688.52461,0.00300
2686.46444,0.00287
2684.40427,0.00288
2682.34410,0.00298
2680.28392,0.00295
2678.22375,0.00283
2676.16358,0.00286
2674.10341,0.00297
2672.04324,0.00288
2669.98306,0.00280
2667.92289,0.00287
2665.86272,0.00286
2663.80255,0.00275
2661.74238,0.00278
2659.68220,0.00297
2657.62203,0.00307
2655.56186,0.00304
2653.50169,0.00300
2651.44151,0.00301
2649.38134,0.00309
2647.32117,0.00312
2645.26100,0.00295
2643.20083,0.00266
2641.14065,0.00250
2639.08048,0.00259
2637.02031,0.00280
2634.96014,0.00291
2632.89997,0.00294
2630.83979,0.00295
2628.77962,0.00289
2626.71945,0.00281
2624.65928,0.00283
2622.59910,0.00278
2620.53893,0.00266
2618.47876,0.00254
2616.41859,0.00244
2614.35842,0.00257
2612.29824,0.00277
2610.23807,0.00279
2608.17790,0.00283
2606.11773,0.00273
2604.05756,0.00253
2601.99738,0.00260
2599.93721,0.00274
2597.87704,0.00275
2595.81687,0.00261
2593.75670,0.00228
2591.69652,0.00208
2589.63635,0.00208
2587.57618,0.00209
2585.51601,0.00224
2583.45583,0.00257
2581.39566,0.00271
2579.33549,0.00252
2577.27532,0.00239
2575.21515,0.00254
2573.15497,0.00279
2571.09480,0.00276
2569.03463,0.00240
2566.97446,0.00226
2564.91429,0.00244
2562.85411,0.00259
2560.79394,0.00256
2558.73377,0.00237
2556.67360,0.00214
2554.61342,0.00203
2552.55325,0.00215
2550.49308,0.00246
2548.43291,0.00261
2546.37274,0.00252
2544.31256,0.00240
2542.25239,0.00217
2540.19222,0.00185
2538.13205,0.00170
2536.07188,0.00186
2534.01170,0.00207
2531.95153,0.00212
2529.89136,0.00206
2527.83119,0.00186
2525.77102,0.00160
2523.71084,0.00148
2521.65067,0.00159
2519.59050,0.00179
2517.53033,0.00205
2515.47015,0.00235
2513.40998,0.00253
2511.34981,0.00256
2509.28964,0.00247
2507.22947,0.00228
2505.16929,0.00210
2503.10912,0.00202
2501.04895,0.00201
2498.98878,0.00204
2496.92861,0.00218
2494.86843,0.00224
2492.80826,0.00228
2490.74809,0.00253
2488.68792,0.00281
2486.62775,0.00275
2484.56757,0.00245
2482.50740,0.00223
2480.44723,0.00216
2478.38706,0.00207
2476.32688,0.00201
2474.26671,0.00218
2472.20654,0.00236
2470.14637,0.00215
2468.08620,0.00172
2466.02602,0.00161
2463.96585,0.00195
2461.90568,0.00234
2459.84551,0.00248
2457.78534,0.00240
2455.72516,0.00229
2453.66499,0.00212
2451.60482,0.00181
2449.54465,0.00162
2447.48447,0.00181
2445.42430,0.00219
2443.36413,0.00231
2441.30396,0.00220
2439.24379,0.00209
2437.18361,0.00198
2435.12344,0.00185
2433.06327,0.00194
2431.00310,0.00212
2428.94293,0.00208
2426.88275,0.00201
2424.82258,0.00216
2422.76241,0.00233
2420.70224,0.00238
2418.64207,0.00240
2416.58189,0.00252
2414.52172,0.00253
2412.46155,0.00220
2410.40138,0.00187
2408.34120,0.00182
2406.28103,0.00183
2404.22086,0.00172
2402.16069,0.00166
2400.10052,0.00186
2398.04034,0.00206
2395.98017,0.00201
2393.92000,0.00182
2391.85983,0.00181
2389.79966,0.00198
2387.73948,0.00232
2385.67931,0.00279
2383.61914,0.00301
2381.55897,0.00291
2379.49880,0.00284
2377.43862,0.00298
2375.37845,0.00288
2373.31828,0.00296
2371.25811,0.00277
2369.19793,0.00182
2367.13776,0.00129
2365.07759,0.00157
2363.01742,0.00143
2360.95725,0.00393
2358.89707,0.00465
2356.83690,0.00388
2354.77673,0.00288
2352.71656,0.00283
2350.65639,0.00581
2348.59621,0.00740
2346.53604,0.00212
2344.47587,0.00179
2342.41570,0.00337
2340.35552,0.00336
2338.29535,0.00280
2336.23518,0.00242
2334.17501,0.00228
2332.11484,0.00180
2330.05466,0.00207
2327.99449,0.00219
2325.93432,0.00300
2323.87415,0.00241
2321.81398,0.00230
2319.75380,0.00217
2317.69363,0.00332
2315.63346,0.00378
2313.57329,0.00337
2311.51312,0.00275
2309.45294,0.00211
2307.39277,0.00190
2305.33260,0.00210
2303.27243,0.00255
2301.21225,0.00272
2299.15208,0.00281
2297.09191,0.00287
2295.03174,0.00310
2292.97157,0.00343
2290.91139,0.00330
2288.85122,0.00281
2286.79105,0.00256
2284.73088,0.00254
2282.67071,0.00230
2280.61053,0.00192
2278.55036,0.00167
2276.49019,0.00164
2274.43002,0.00195
2272.36984,0.00229
2270.30967,0.00240
2268.24950,0.00229
2266.18933,0.00216
2264.12916,0.00208
2262.06898,0.00203
2260.00881,0.00189
2257.94864,0.00170
2255.88847,0.00157
2253.82830,0.00171
2251.76812,0.00180
2249.70795,0.00144
2247.64778,0.00120
2245.58761,0.00164
2243.52744,0.00247
2241.46726,0.00263
2239.40709,0.00198
2237.34692,0.00156
2235.28675,0.00138
2233.22657,0.00117
2231.16640,0.00121
2229.10623,0.00154
2227.04606,0.00186
2224.98589,0.00177
2222.92571,0.00161
2220.86554,0.00194
2218.80537,0.00238
2216.74520,0.00214
2214.68503,0.00139
2212.62485,0.00107
2210.56468,0.00162
2208.50451,0.00286
2206.44434,0.00351
2204.38417,0.00259
2202.32399,0.00129
2200.26382,0.00077
2198.20365,0.00097
2196.14348,0.00143
2194.08330,0.00165
2192.02313,0.00175
2189.96296,0.00184
2187.90279,0.00195
2185.84262,0.00199
2183.78244,0.00181
2181.72227,0.00145
2179.66210,0.00097
2177.60193,0.00115
2175.54176,0.00225
2173.48158,0.00335
2171.42141,0.00339
2169.36124,0.00223
2167.30107,0.00158
2165.24089,0.00208
2163.18072,0.00156
2161.12055,0.00000
2159.06038,0.00002
2157.00021,0.00065
2154.94003,0.00039
2152.87986,0.00075
2150.81969,0.00161
2148.75952,0.00201
2146.69935,0.00225
2144.63917,0.00208
2142.57900,0.00142
2140.51883,0.00092
2138.45866,0.00132
2136.39849,0.00228
2134.33831,0.00245
2132.27814,0.00179
2130.21797,0.00142
2128.15780,0.00180
2126.09762,0.00241
2124.03745,0.00262
2121.97728,0.00239
2119.91711,0.00218
2117.85694,0.00230
2115.79676,0.00258
2113.73659,0.00274
2111.67642,0.00263
2109.61625,0.00219
2107.55608,0.00170
2105.49590,0.00170
2103.43573,0.00198
2101.37556,0.00215
2099.31539,0.00235
2097.25521,0.00261
2095.19504,0.00273
2093.13487,0.00273
2091.07470,0.00281
2089.01453,0.00283
2086.95435,0.00273
2084.89418,0.00282
2082.83401,0.00300
2080.77384,0.00322
2078.71367,0.00353
2076.65349,0.00361
2074.59332,0.00323
2072.53315,0.00259
2070.47298,0.00220
2068.41281,0.00241
2066.35263,0.00276
2064.29246,0.00300
2062.23229,0.00317
2060.17212,0.00296
2058.11194,0.00264
2056.05177,0.00253
2053.99160,0.00232
2051.93143,0.00171
2049.87126,0.00095
2047.81108,0.00118
2045.75091,0.00217
2043.69074,0.00237
2041.63057,0.00187
2039.57040,0.00153
2037.51022,0.00172
2035.45005,0.00228
2033.38988,0.00221
2031.32971,0.00096
2029.26954,0.00000
2027.20936,0.00007
2025.14919,0.00085
2023.08902,0.00173
2021.02885,0.00143
2018.96867,0.00046
2016.90850,0.00066
2014.84833,0.00226
2012.78816,0.00369
2010.72799,0.00327
2008.66781,0.00153
2006.60764,0.00053
2004.54747,0.00056
2002.48730,0.00086
2000.42713,0.00139
1998.36695,0.00198
1996.30678,0.00167
1994.24661,0.00087
1992.18644,0.00129
1990.12626,0.00254
1988.06609,0.00301
1986.00592,0.00254
1983.94575,0.00207
1981.88558,0.00207
1979.82540,0.00185
1977.76523,0.00115
1975.70506,0.00103
1973.64489,0.00170
1971.58472,0.00174
1969.52454,0.00122
1967.46437,0.00139
1965.40420,0.00195
1963.34403,0.00183
1961.28386,0.00117
1959.22368,0.00087
1957.16351,0.00118
1955.10334,0.00156
1953.04317,0.00153
1950.98299,0.00127
1948.92282,0.00106
1946.86265,0.00090
1944.80248,0.00085
1942.74231,0.00096
1940.68213,0.00094
1938.62196,0.00063
1936.56179,0.00046
1934.50162,0.00080
1932.44145,0.00138
1930.38127,0.00156
1928.32110,0.00109
1926.26093,0.00061
1924.20076,0.00065
1922.14059,0.00088
1920.08041,0.00113
1918.02024,0.00158
1915.96007,0.00183
1913.89990,0.00164
1911.83972,0.00140
1909.77955,0.00127
1907.71938,0.00112
1905.65921,0.00115
1903.59904,0.00127
1901.53886,0.00114
1899.47869,0.00105
1897.41852,0.00124
1895.35835,0.00133
1893.29818,0.00118
1891.23800,0.00113
1889.17783,0.00127
1887.11766,0.00131
1885.05749,0.00115
1882.99731,0.00104
1880.93714,0.00098
1878.87697,0.00083
1876.81680,0.00068
1874.75663,0.00058
1872.69645,0.00058
1870.63628,0.00074
1868.57611,0.00087
1866.51594,0.00091
1864.45577,0.00103
1862.39559,0.00110
1860.33542,0.00108
1858.27525,0.00097
1856.21508,0.00076
1854.15491,0.00059
1852.09473,0.00067
1850.03456,0.00090
1847.97439,0.00097
1845.91422,0.00079
1843.85404,0.00063
1841.79387,0.00075
1839.73370,0.00093
1837.67353,0.00091
1835.61336,0.00069
1833.55318,0.00035
1831.49301,0.00003
1829.43284,0.00000
1827.37267,0.00032
1825.31250,0.00078
1823.25232,0.00110
1821.19215,0.00113
1819.13198,0.00105
1817.07181,0.00096
1815.01163,0.00076
1812.95146,0.00047
1810.89129,0.00033
1808.83112,0.00039
1806.77095,0.00043
1804.71077,0.00035
1802.65060,0.00033
1800.59043,0.00045
1798.53026,0.00059
1796.47009,0.00074
1794.40991,0.00097
1792.34974,0.00107
1790.28957,0.00081
1788.22940,0.00048
1786.16923,0.00034
1784.10905,0.00035
1782.04888,0.00036
1779.98871,0.00035
1777.92854,0.00036
1775.86836,0.00042
1773.80819,0.00053
1771.74802,0.00073
1769.68785,0.00085
1767.62768,0.00082
1765.56750,0.00080
1763.50733,0.00089
1761.44716,0.00110
1759.38699,0.00140
1757.32682,0.00168
1755.26664,0.00187
1753.20647,0.00211
1751.14630,0.00248
1749.08613,0.00279
1747.02596,0.00293
1744.96578,0.00296
1742.90561,0.00288
1740.84544,0.00277
1738.78527,0.00292
1736.72509,0.00331
1734.66492,0.00364
1732.60475,0.00363
1730.54458,0.00344
1728.48441,0.00333
1726.42423,0.00332
1724.36406,0.00325
1722.30389,0.00304
1720.24372,0.00287
1718.18355,0.00285
1716.12337,0.00287
1714.06320,0.00274
1712.00303,0.00256
1709.94286,0.00243
1707.88268,0.00234
1705.82251,0.00219
1703.76234,0.00206
1701.70217,0.00212
1699.64200,0.00229
1697.58182,0.00233
1695.52165,0.00217
1693.46148,0.00199
1691.40131,0.00201
1689.34114,0.00209
1687.28096,0.00207
1685.22079,0.00199
1683.16062,0.00199
1681.10045,0.00225
1679.04028,0.00272
1676.98010,0.00322
1674.91993,0.00353
1672.85976,0.00367
1670.79959,0.00376
1668.73941,0.00377
1666.67924,0.00381
1664.61907,0.00405
1662.55890,0.00433
1660.49873,0.00449
1658.43855,0.00455
1656.37838,0.00476
1654.31821,0.00516
1652.25804,0.00543
1650.19787,0.00555
1648.13769,0.00574
1646.07752,0.00584
1644.01735,0.00590
1641.95718,0.00601
1639.89701,0.00619
1637.83683,0.00638
1635.77666,0.00638
1633.71649,0.00620
1631.65632,0.00614
1629.59614,0.00623
1627.53597,0.00638
1625.47580,0.00650
1623.41563,0.00645
1621.35546,0.00632
1619.29528,0.00633
1617.23511,0.00621
1615.17494,0.00590
1613.11477,0.00581
1611.05460,0.00590
1608.99442,0.00588
1606.93425,0.00576
1604.87408,0.00564
1602.81391,0.00550
1600.75373,0.00529
1598.69356,0.00503
1596.63339,0.00472
1594.57322,0.00436
1592.51305,0.00402
1590.45287,0.00383
1588.39270,0.00376
1586.33253,0.00361
1584.27236,0.00332
1582.21219,0.00306
1580.15201,0.00291
1578.09184,0.00276
1576.03167,0.00240
1573.97150,0.00194
1571.91133,0.00166
1569.85115,0.00156
1567.79098,0.00154
1565.73081,0.00151
1563.67064,0.00147
1561.61046,0.00140
1559.55029,0.00118
1557.49012,0.00094
1555.42995,0.00106
1553.36978,0.00123
1551.30960,0.00118
1549.24943,0.00102
1547.18926,0.00095
1545.12909,0.00094
1543.06892,0.00075
1541.00874,0.00046
1538.94857,0.00044
1536.88840,0.00064
1534.82823,0.00077
1532.76805,0.00071
1530.70788,0.00061
1528.64771,0.00063
1526.58754,0.00071
1524.52737,0.00073
1522.46719,0.00073
1520.40702,0.00077
1518.34685,0.00083
1516.28668,0.00075
1514.22651,0.00056
1512.16633,0.00048
1510.10616,0.00058
1508.04599,0.00063
1505.98582,0.00044
1503.92565,0.00031
1501.86547,0.00038
1499.80530,0.00047
1497.74513,0.00048
1495.68496,0.00049
1493.62478,0.00059
1491.56461,0.00076
1489.50444,0.00089
1487.44427,0.00088
1485.38410,0.00082
1483.32392,0.00085
1481.26375,0.00098
1479.20358,0.00116
1477.14341,0.00136
1475.08324,0.00153
1473.02306,0.00162
1470.96289,0.00167
1468.90272,0.00182
1466.84255,0.00203
1464.78238,0.00220
1462.72220,0.00237
1460.66203,0.00270
1458.60186,0.00304
1456.54169,0.00301
1454.48151,0.00282
1452.42134,0.00279
1450.36117,0.00291
1448.30100,0.00311
1446.24083,0.00330
1444.18065,0.00343
1442.12048,0.00356
1440.06031,0.00378
1438.00014,0.00400
1435.93997,0.00408
1433.87979,0.00410
1431.81962,0.00421
1429.75945,0.00434
1427.69928,0.00446
1425.63910,0.00466
1423.57893,0.00493
1421.51876,0.00520
1419.45859,0.00537
1417.39842,0.00537
1415.33824,0.00531
1413.27807,0.00524
1411.21790,0.00517
1409.15773,0.00525
1407.09756,0.00542
1405.03738,0.00540
1402.97721,0.00518
1400.91704,0.00505
1398.85687,0.00505
1396.79670,0.00495
1394.73652,0.00465
1392.67635,0.00435
1390.61618,0.00442
1388.55601,0.00469
1386.49583,0.00469
1384.43566,0.00452
1382.37549,0.00452
1380.31532,0.00470
1378.25515,0.00500
1376.19497,0.00536
1374.13480,0.00550
1372.07463,0.00537
1370.01446,0.00525
1367.95429,0.00521
1365.89411,0.00516
1363.83394,0.00510
1361.77377,0.00500
1359.71360,0.00485
1357.65343,0.00473
1355.59325,0.00464
1353.53308,0.00455
1351.47291,0.00449
1349.41274,0.00439
1347.35256,0.00427
1345.29239,0.00425
1343.23222,0.00433
1341.17205,0.00441
1339.11188,0.00445
1337.05170,0.00449
1334.99153,0.00447
1332.93136,0.00437
1330.87119,0.00426
1328.81102,0.00422
1326.75084,0.00428
1324.69067,0.00439
1322.63050,0.00443
1320.57033,0.00431
1318.51015,0.00420
1316.44998,0.00426
1314.38981,0.00433
1312.32964,0.00428
1310.26947,0.00423
1308.20929,0.00422
1306.14912,0.00415
1304.08895,0.00396
1302.02878,0.00370
1299.96861,0.00353
1297.90843,0.00349
1295.84826,0.00346
1293.78809,0.00341
1291.72792,0.00344
1289.66775,0.00350
1287.60757,0.00346
1285.54740,0.00337
1283.48723,0.00332
1281.42706,0.00330
1279.36688,0.00331
1277.30671,0.00337
1275.24654,0.00350
1273.18637,0.00368
1271.12620,0.00383
1269.06602,0.00394
1267.00585,0.00406
1264.94568,0.00427
1262.88551,0.00458
1260.82534,0.00487
1258.76516,0.00513
1256.70499,0.00527
1254.64482,0.00538
1252.58465,0.00556
1250.52447,0.00573
1248.46430,0.00579
1246.40413,0.00573
1244.34396,0.00566
1242.28379,0.00562
1240.22361,0.00554
1238.16344,0.00542
1236.10327,0.00523
1234.04310,0.00499
1231.98293,0.00477
1229.92275,0.00457
1227.86258,0.00437
1225.80241,0.00415
1223.74224,0.00393
1221.68207,0.00372
1219.62189,0.00352
1217.56172,0.00337
1215.50155,0.00312
1213.44138,0.00264
1211.38120,0.00218
1209.32103,0.00193
1207.26086,0.00175
1205.20069,0.00146
1203.14052,0.00114
1201.08034,0.00093
1199.02017,0.00070
1196.96000,0.00038
1194.89983,0.00012
1192.83966,0.00000
1190.77948,-0.00001
1188.71931,0.00002
1186.65914,0.00001
1184.59897,-0.00002
1182.53880,-0.00006
1180.47862,0.00002
1178.41845,0.00033
1176.35828,0.00075
1174.29811,0.00109
1172.23793,0.00134
1170.17776,0.00172
1168.11759,0.00233
1166.05742,0.00290
1163.99725,0.00326
1161.93707,0.00353
1159.87690,0.00379
1157.81673,0.00398
1155.75656,0.00419
1153.69639,0.00449
1151.63621,0.00479
1149.57604,0.00516
1147.51587,0.00550
1145.45570,0.00561
1143.39552,0.00569
1141.33535,0.00583
1139.27518,0.00589
1137.21501,0.00588
1135.15484,0.00590
1133.09466,0.00604
1131.03449,0.00617
1128.97432,0.00626
1126.91415,0.00641
1124.85398,0.00673
1122.79380,0.00725
1120.73363,0.00759
1118.67346,0.00757
1116.61329,0.00761
1114.55312,0.00790
1112.49294,0.00822
1110.43277,0.00844
1108.37260,0.00856
1106.31243,0.00873
1104.25225,0.00895
1102.19208,0.00924
1100.13191,0.00969
1098.07174,0.01027
1096.01157,0.01091
1093.95139,0.01144
1091.89122,0.01192
1089.83105,0.01242
1087.77088,0.01278
1085.71071,0.01305
1083.65053,0.01333
1081.59036,0.01362
1079.53019,0.01399
1077.47002,0.01451
1075.40985,0.01504
1073.34967,0.01543
1071.28950,0.01569
1069.22933,0.01594
1067.16916,0.01629
1065.10898,0.01655
1063.04881,0.01659
1060.98864,0.01667
1058.92847,0.01687
1056.86830,0.01712
1054.80812,0.01742
1052.74795,0.01766
1050.68778,0.01781
1048.62761,0.01802
1046.56744,0.01841
1044.50726,0.01898
1042.44709,0.01952
1040.38692,0.01984
1038.32675,0.02009
1036.26657,0.02032
1034.20640,0.02031
1032.14623,0.02010
1030.08606,0.01988
1028.02589,0.01971
1025.96571,0.01965
1023.90554,0.01963
1021.84537,0.01956
1019.78520,0.01949
1017.72503,0.01947
1015.66485,0.01948
1013.60468,0.01962
1011.54451,0.01979
1009.48434,0.01971
1007.42417,0.01947
1005.36399,0.01916
1003.30382,0.01872
1001.24365,0.01835
999.18348,0.01808
997.12330,0.01770
995.06313,0.01718
993.00296,0.01668
990.94279,0.01640
988.88262,0.01627
986.82244,0.01616
984.76227,0.01611
982.70210,0.01603
980.64193,0.01584
978.58176,0.01560
976.52158,0.01546
974.46141,0.01553
972.40124,0.01537
970.34107,0.01476
968.28089,0.01425
966.22072,0.01401
964.16055,0.01370
962.10038,0.01326
960.04021,0.01278
957.98003,0.01231
955.91986,0.01204
953.85969,0.01191
951.79952,0.01165
949.73935,0.01108
947.67917,0.01043
945.61900,0.01002
943.55883,0.00967
941.49866,0.00898
939.43849,0.00806
937.37831,0.00719
935.31814,0.00629
933.25797,0.00542
931.19780,0.00482
929.13762,0.00451
927.07745,0.00426
925.01728,0.00394
922.95711,0.00372
920.89694,0.00367
918.83676,0.00345
916.77659,0.00290
914.71642,0.00230
912.65625,0.00202
910.59608,0.00209
908.53590,0.00206
906.47573,0.00179
904.41556,0.00161
902.35539,0.00158
900.29522,0.00158
898.23504,0.00185
896.17487,0.00229
894.11470,0.00255
892.05453,0.00256
889.99435,0.00248
887.93418,0.00253
885.87401,0.00260
883.81384,0.00241
881.75367,0.00202
879.69349,0.00167
877.63332,0.00137
875.57315,0.00113
873.51298,0.00098
871.45281,0.00086
869.39263,0.00096
867.33246,0.00116
865.27229,0.00079
863.21212,0.00015
861.15194,0.00016
859.09177,0.00070
857.03160,0.00103
854.97143,0.00101
852.91126,0.00097
850.85108,0.00116
848.79091,0.00125
846.73074,0.00101
844.67057,0.00061
842.61040,0.00023
840.55022,0.00000
838.49005,0.00010
836.42988,0.00051
834.36971,0.00068
832.30954,0.00050
830.24936,0.00040
828.18919,0.00042
826.12902,0.00036
824.06885,0.00017
822.00867,0.00004
819.94850,0.00022
817.88833,0.00050
815.82816,0.00053
813.76799,0.00059
811.70781,0.00091
809.64764,0.00110
807.58747,0.00109
805.52730,0.00111
803.46713,0.00123
801.40695,0.00140
799.34678,0.00139
797.28661,0.00136
795.22644,0.00154
793.16627,0.00167
791.10609,0.00154
789.04592,0.00150
786.98575,0.00172
784.92558,0.00155
782.86540,0.00096
780.80523,0.00078
778.74506,0.00103
776.68489,0.00130
774.62472,0.00170
772.56454,0.00206
770.50437,0.00203
768.44420,0.00184
766.38403,0.00186
764.32386,0.00212
762.26368,0.00235
760.20351,0.00212
758.14334,0.00158
756.08317,0.00145
754.02299,0.00167
751.96282,0.00159
749.90265,0.00167
747.84248,0.00213
745.78231,0.00211
743.72213,0.00182
741.66196,0.00190
739.60179,0.00226
737.54162,0.00281
735.48145,0.00325
733.42127,0.00331
731.36110,0.00337
729.30093,0.00338
727.24076,0.00325
725.18059,0.00334
723.12041,0.00406
721.06024,0.00402
719.00007,0.00432
716.93990,0.00432
714.87972,0.00461
712.81955,0.00520
710.75938,0.00527
708.69921,0.00499
706.63904,0.00490
704.57886,0.00523
702.51869,0.00592
700.45852,0.00668
698.39835,0.00708
696.33818,0.00684
694.27800,0.00639
692.21783,0.00641
690.15766,0.00702
688.09749,0.00766
686.03731,0.00779
683.97714,0.00751
681.91697,0.00737
679.85680,0.00786
677.79663,0.00843
675.73645,0.00831
673.67628,0.00911
671.61611,0.01200
669.55594,0.00779
667.49577,0.00000
665.43559,0.01061
663.37542,0.01018
661.31525,0.00800
659.25508,0.00718
657.19491,0.00682
655.13473,0.00681
653.07456,0.00667
651.01439,0.00611
648.95422,0.00525
646.89404,0.00463
644.83387,0.00337
642.77370,0.00228
640.71353,0.00201
638.65336,0.00222
636.59318,0.00214
634.53301,0.00175
632.47284,0.00182
630.41267,0.00177
628.35250,0.00069
626.29232,-0.00017
624.23215,0.00015
622.17198,-0.00002
620.11181,-0.00059
618.05164,-0.00074
615.99146,-0.00038
613.93129,0.00024
611.87112,-0.00027
609.81095,-0.00130
607.75077,-0.00112
605.69060,-0.00089
603.63043,-0.00161
601.57026,-0.00115
599.51009,0.00000
