3996.73391,0.00049
3994.67373,0.00043
3992.61356,0.00037
3990.55339,0.00022
3988.49322,0.00005
3986.43305,0.00002
3984.37287,0.00014
3982.31270,0.00021
3980.25253,0.00020
3978.19236,0.00019
3976.13219,0.00019
3974.07201,0.00019
3972.01184,0.00024
3969.95167,0.00036
3967.89150,0.00040
3965.83133,0.00038
3963.77115,0.00047
3961.71098,0.00063
3959.65081,0.00066
3957.59064,0.00050
3955.53046,0.00029
3953.47029,0.00014
3951.41012,0.00002
3949.34995,0.00000
3947.28978,0.00026
3945.22960,0.00066
3943.16943,0.00089
3941.10926,0.00085
3939.04909,0.00062
3936.98892,0.00047
3934.92874,0.00058
3932.86857,0.00078
3930.80840,0.00080
3928.74823,0.00072
3926.68805,0.00067
3924.62788,0.00058
3922.56771,0.00045
3920.50754,0.00043
3918.44737,0.00048
3916.38719,0.00047
3914.32702,0.00043
3912.26685,0.00048
3910.20668,0.00063
3908.14651,0.00073
3906.08633,0.00059
3904.02616,0.00023
3901.96599,0.00000
3899.90582,0.00017
3897.84565,0.00047
3895.78547,0.00080
3893.72530,0.00114
3891.66513,0.00120
3889.60496,0.00095
3887.54478,0.00068
3885.48461,0.00038
3883.42444,0.00008
3881.36427,-0.00004
3879.30410,0.00015
3877.24392,0.00039
3875.18375,0.00042
3873.12358,0.00047
3871.06341,0.00064
3869.00324,0.00067
3866.94306,0.00050
3864.88289,0.00024
3862.82272,0.00015
3860.76255,0.00049
3858.70237,0.00100
3856.64220,0.00113
3854.58203,0.00064
3852.52186,0.00000
3850.46169,0.00002
3848.40151,0.00053
3846.34134,0.00101
3844.28117,0.00114
3842.22100,0.00095
3840.16083,0.00074
3838.10065,0.00068
3836.04048,0.00074
3833.98031,0.00080
3831.92014,0.00082
3829.85997,0.00077
3827.79979,0.00067
3825.73962,0.00068
3823.67945,0.00079
3821.61928,0.00088
3819.55910,0.00110
3817.49893,0.00125
3815.43876,0.00101
3813.37859,0.00078
3811.31842,0.00095
3809.25824,0.00128
3807.19807,0.00133
3805.13790,0.00113
3803.07773,0.00105
3801.01756,0.00108
3798.95738,0.00110
3796.89721,0.00121
3794.83704,0.00126
3792.77687,0.00112
3790.71670,0.00099
3788.65652,0.00108
3786.59635,0.00123
3784.53618,0.00124
3782.47601,0.00114
3780.41583,0.00111
3778.35566,0.00133
3776.29549,0.00163
3774.23532,0.00168
3772.17515,0.00138
3770.11497,0.00105
3768.05480,0.00105
3765.99463,0.00122
3763.93446,0.00104
3761.87429,0.00059
3759.81411,0.00034
3757.75394,0.00053
3755.69377,0.00091
3753.63360,0.00102
3751.57342,0.00074
3749.51325,0.00039
3747.45308,0.00045
3745.39291,0.00090
3743.33274,0.00112
3741.27256,0.00081
3739.21239,0.00041
3737.15222,0.00017
3735.09205,0.00018
3733.03188,0.00046
3730.97170,0.00087
3728.91153,0.00131
3726.85136,0.00144
3724.79119,0.00112
3722.73102,0.00083
3720.67084,0.00081
3718.61067,0.00089
3716.55050,0.00105
3714.49033,0.00124
3712.43015,0.00113
3710.36998,0.00079
3708.30981,0.00072
3706.24964,0.00089
3704.18947,0.00097
3702.12929,0.00077
3700.06912,0.00048
3698.00895,0.00048
3695.94878,0.00069
3693.88861,0.00076
3691.82843,0.00061
3689.76826,0.00052
3687.70809,0.00068
3685.64792,0.00094
3683.58775,0.00109
3681.52757,0.00104
3679.46740,0.00090
3677.40723,0.00085
3675.34706,0.00083
3673.28688,0.00063
3671.22671,0.00019
3669.16654,0.00000
3667.10637,0.00050
3665.04620,0.00107
3662.98602,0.00128
3660.92585,0.00140
3658.86568,0.00149
3656.80551,0.00136
3654.74534,0.00121
3652.68516,0.00130
3650.62499,0.00124
3648.56482,0.00073
3646.50465,0.00045
3644.44447,0.00071
3642.38430,0.00122
3640.32413,0.00165
3638.26396,0.00174
3636.20379,0.00139
3634.14361,0.00090
3632.08344,0.00068
3630.02327,0.00080
3627.96310,0.00098
3625.90293,0.00118
3623.84275,0.00140
3621.78258,0.00143
3619.72241,0.00112
3617.66224,0.00086
3615.60207,0.00086
3613.54189,0.00089
3611.48172,0.00091
3609.42155,0.00102
3607.36138,0.00119
3605.30120,0.00137
3603.24103,0.00148
3601.18086,0.00147
3599.12069,0.00138
3597.06052,0.00124
3595.00034,0.00110
3592.94017,0.00105
3590.88000,0.00099
3588.81983,0.00090
3586.75966,0.00101
3584.69948,0.00130
3582.63931,0.00144
3580.57914,0.00149
3578.51897,0.00163
3576.45879,0.00189
3574.39862,0.00216
3572.33845,0.00236
3570.27828,0.00241
3568.21811,0.00217
3566.15793,0.00172
3564.09776,0.00157
3562.03759,0.00187
3559.97742,0.00217
3557.91725,0.00223
3555.85707,0.00215
3553.79690,0.00205
3551.73673,0.00201
3549.67656,0.00196
3547.61639,0.00183
3545.55621,0.00179
3543.49604,0.00194
3541.43587,0.00217
3539.37570,0.00234
3537.31552,0.00247
3535.25535,0.00274
3533.19518,0.00305
3531.13501,0.00309
3529.07484,0.00286
3527.01466,0.00263
3524.95449,0.00247
3522.89432,0.00241
3520.83415,0.00252
3518.77398,0.00279
3516.71380,0.00308
3514.65363,0.00325
3512.59346,0.00323
3510.53329,0.00308
3508.47312,0.00291
3506.41294,0.00277
3504.35277,0.00262
3502.29260,0.00262
3500.23243,0.00287
3498.17225,0.00309
3496.11208,0.00317
3494.05191,0.00325
3491.99174,0.00332
3489.93157,0.00327
3487.87139,0.00322
3485.81122,0.00327
3483.75105,0.00342
3481.69088,0.00351
3479.63071,0.00351
3477.57053,0.00364
3475.51036,0.00385
3473.45019,0.00393
3471.39002,0.00387
3469.32984,0.00376
3467.26967,0.00370
3465.20950,0.00384
3463.14933,0.00399
3461.08916,0.00402
3459.02898,0.00411
3456.96881,0.00421
3454.90864,0.00423
3452.84847,0.00419
3450.78830,0.00416
3448.72812,0.00418
3446.66795,0.00418
3444.60778,0.00404
3442.54761,0.00381
3440.48744,0.00385
3438.42726,0.00418
3436.36709,0.00430
3434.30692,0.00411
3432.24675,0.00399
3430.18657,0.00408
3428.12640,0.00427
3426.06623,0.00448
3424.00606,0.00469
3421.94589,0.00479
3419.88571,0.00462
3417.82554,0.00431
3415.76537,0.00413
3413.70520,0.00419
3411.64503,0.00439
3409.58485,0.00446
3407.52468,0.00448
3405.46451,0.00464
3403.40434,0.00473
3401.34416,0.00468
3399.28399,0.00456
3397.22382,0.00451
3395.16365,0.00451
3393.10348,0.00448
3391.04330,0.00450
3388.98313,0.00464
3386.92296,0.00482
3384.86279,0.00488
3382.80262,0.00478
3380.74244,0.00472
3378.68227,0.00481
3376.62210,0.00490
3374.56193,0.00493
3372.50176,0.00499
3370.44158,0.00504
3368.38141,0.00494
3366.32124,0.00482
3364.26107,0.00483
3362.20089,0.00478
3360.14072,0.00467
3358.08055,0.00476
3356.02038,0.00489
3353.96021,0.00492
3351.90003,0.00493
3349.83986,0.00481
3347.77969,0.00467
3345.71952,0.00486
3343.65935,0.00521
3341.59917,0.00522
3339.53900,0.00499
3337.47883,0.00493
3335.41866,0.00505
3333.35849,0.00516
3331.29831,0.00526
3329.23814,0.00533
3327.17797,0.00530
3325.11780,0.00520
3323.05762,0.00513
3320.99745,0.00512
3318.93728,0.00513
3316.87711,0.00505
3314.81694,0.00494
3312.75676,0.00494
3310.69659,0.00495
3308.63642,0.00490
3306.57625,0.00484
3304.51608,0.00485
3302.45590,0.00498
3300.39573,0.00512
3298.33556,0.00513
3296.27539,0.00514
3294.21521,0.00518
3292.15504,0.00515
3290.09487,0.00502
3288.03470,0.00488
3285.97453,0.00491
3283.91435,0.00504
3281.85418,0.00514
3279.79401,0.00514
3277.73384,0.00503
3275.67367,0.00489
3273.61349,0.00476
3271.55332,0.00461
3269.49315,0.00454
3267.43298,0.00471
3265.37281,0.00501
3263.31263,0.00508
3261.25246,0.00488
3259.19229,0.00470
3257.13212,0.00471
3255.07194,0.00480
3253.01177,0.00480
3250.95160,0.00468
3248.89143,0.00463
3246.83126,0.00474
3244.77108,0.00485
3242.71091,0.00485
3240.65074,0.00481
3238.59057,0.00486
3236.53040,0.00503
3234.47022,0.00516
3232.41005,0.00510
3230.34988,0.00484
3228.28971,0.00460
3226.22954,0.00454
3224.16936,0.00462
3222.10919,0.00477
3220.04902,0.00487
3217.98885,0.00480
3215.92867,0.00457
3213.86850,0.00434
3211.80833,0.00423
3209.74816,0.00418
3207.68799,0.00422
3205.62781,0.00439
3203.56764,0.00457
3201.50747,0.00450
3199.44730,0.00425
3197.38713,0.00419
3195.32695,0.00433
3193.26678,0.00430
3191.20661,0.00409
3189.14644,0.00407
3187.08626,0.00424
3185.02609,0.00426
3182.96592,0.00410
3180.90575,0.00397
3178.84558,0.00394
3176.78540,0.00404
3174.72523,0.00417
3172.66506,0.00414
3170.60489,0.00400
3168.54472,0.00388
3166.48454,0.00386
3164.42437,0.00394
3162.36420,0.00398
3160.30403,0.00394
3158.24386,0.00393
3156.18368,0.00396
3154.12351,0.00387
3152.06334,0.00369
3150.00317,0.00367
3147.94299,0.00383
3145.88282,0.00396
3143.82265,0.00385
3141.76248,0.00362
3139.70231,0.00359
3137.64213,0.00371
3135.58196,0.00374
3133.52179,0.00364
3131.46162,0.00358
3129.40145,0.00361
3127.34127,0.00371
3125.28110,0.00367
3123.22093,0.00348
3121.16076,0.00344
3119.10058,0.00353
3117.04041,0.00345
3114.98024,0.00326
3112.92007,0.00326
3110.85990,0.00345
3108.79972,0.00361
3106.73955,0.00360
3104.67938,0.00344
3102.61921,0.00331
3100.55904,0.00328
3098.49886,0.00326
3096.43869,0.00323
3094.37852,0.00329
3092.31835,0.00338
3090.25818,0.00332
3088.19800,0.00311
3086.13783,0.00297
3084.07766,0.00292
3082.01749,0.00293
3079.95731,0.00297
3077.89714,0.00306
3075.83697,0.00321
3073.77680,0.00333
3071.71663,0.00322
3069.65645,0.00291
3067.59628,0.00275
3065.53611,0.00293
3063.47594,0.00318
3061.41577,0.00321
3059.35559,0.00314
3057.29542,0.00311
3055.23525,0.00313
3053.17508,0.00318
3051.11491,0.00320
3049.05473,0.00314
3046.99456,0.00315
3044.93439,0.00323
3042.87422,0.00316
3040.81404,0.00293
3038.75387,0.00278
3036.69370,0.00274
3034.63353,0.00271
3032.57336,0.00275
3030.51318,0.00286
3028.45301,0.00291
3026.39284,0.00286
3024.33267,0.00284
3022.27250,0.00282
3020.21232,0.00274
3018.15215,0.00263
3016.09198,0.00256
3014.03181,0.00260
3011.97163,0.00274
3009.91146,0.00274
3007.85129,0.00257
3005.79112,0.00246
3003.73095,0.00248
3001.67077,0.00250
2999.61060,0.00248
2997.55043,0.00242
2995.49026,0.00237
2993.43009,0.00242
2991.36991,0.00247
2989.30974,0.00243
2987.24957,0.00241
2985.18940,0.00240
2983.12923,0.00241
2981.06905,0.00249
2979.00888,0.00257
2976.94871,0.00257
2974.88854,0.00260
2972.82836,0.00270
2970.76819,0.00277
2968.70802,0.00282
2966.64785,0.00288
2964.58768,0.00297
2962.52750,0.00307
2960.46733,0.00312
2958.40716,0.00307
2956.34699,0.00301
2954.28682,0.00315
2952.22664,0.00330
2950.16647,0.00325
2948.10630,0.00322
2946.04613,0.00331
2943.98596,0.00336
2941.92578,0.00331
2939.86561,0.00329
2937.80544,0.00344
2935.74527,0.00351
2933.68509,0.00341
2931.62492,0.00330
2929.56475,0.00320
2927.50458,0.00310
2925.44441,0.00311
2923.38423,0.00322
2921.32406,0.00328
2919.26389,0.00319
2917.20372,0.00310
2915.14355,0.00318
2913.08337,0.00324
2911.02320,0.00318
2908.96303,0.00317
2906.90286,0.00316
2904.84268,0.00307
2902.78251,0.00308
2900.72234,0.00324
2898.66217,0.00337
2896.60200,0.00334
2894.54182,0.00325
2892.48165,0.00320
2890.42148,0.00316
2888.36131,0.00315
2886.30114,0.00313
2884.24096,0.00308
2882.18079,0.00312
2880.12062,0.00319
2878.06045,0.00314
2876.00028,0.00301
2873.94010,0.00296
2871.87993,0.00299
2869.81976,0.00291
2867.75959,0.00283
2865.69941,0.00284
2863.63924,0.00284
2861.57907,0.00281
2859.51890,0.00281
2857.45873,0.00283
2855.39855,0.00286
2853.33838,0.00288
2851.27821,0.00288
2849.21804,0.00285
2847.15787,0.00279
2845.09769,0.00276
2843.03752,0.00272
2840.97735,0.00260
2838.91718,0.00253
2836.85700,0.00256
2834.79683,0.00252
2832.73666,0.00241
2830.67649,0.00237
2828.61632,0.00247
2826.55614,0.00266
2824.49597,0.00274
2822.43580,0.00264
2820.37563,0.00252
2818.31546,0.00246
2816.25528,0.00239
2814.19511,0.00243
2812.13494,0.00259
2810.07477,0.00264
2808.01460,0.00261
2805.95442,0.00265
2803.89425,0.00265
2801.83408,0.00262
2799.77391,0.00261
2797.71373,0.00251
2795.65356,0.00234
2793.59339,0.00232
2791.53322,0.00244
2789.47305,0.00244
2787.41287,0.00233
2785.35270,0.00223
2783.29253,0.00221
2781.23236,0.00230
2779.17219,0.00240
2777.11201,0.00240
2775.05184,0.00237
2772.99167,0.00239
2770.93150,0.00242
2768.87133,0.00242
2766.81115,0.00236
2764.75098,0.00230
2762.69081,0.00235
2760.63064,0.00234
2758.57046,0.00221
2756.51029,0.00225
2754.45012,0.00240
2752.38995,0.00241
2750.32978,0.00237
2748.26960,0.00240
2746.20943,0.00240
2744.14926,0.00234
2742.08909,0.00236
2740.02892,0.00245
2737.96874,0.00239
2735.90857,0.00232
2733.84840,0.00242
2731.78823,0.00250
2729.72805,0.00239
2727.66788,0.00223
2725.60771,0.00220
2723.54754,0.00236
2721.48737,0.00256
2719.42719,0.00259
2717.36702,0.00249
2715.30685,0.00241
2713.24668,0.00243
2711.18651,0.00256
2709.12633,0.00268
2707.06616,0.00267
2705.00599,0.00257
2702.94582,0.00254
2700.88565,0.00260
2698.82547,0.00259
2696.76530,0.00248
2694.70513,0.00238
2692.64496,0.00241
2690.58478,0.00247
2688.52461,0.00245
2686.46444,0.00235
2684.40427,0.00227
2682.34410,0.00229
2680.28392,0.00238
2678.22375,0.00243
2676.16358,0.00244
2674.10341,0.00243
2672.04324,0.00239
2669.98306,0.00230
2667.92289,0.00233
2665.86272,0.00247
2663.80255,0.00252
2661.74238,0.00248
2659.68220,0.00251
2657.62203,0.00261
2655.56186,0.00262
2653.50169,0.00251
2651.44151,0.00248
2649.38134,0.00256
2647.32117,0.00265
2645.26100,0.00270
2643.20083,0.00265
2641.14065,0.00259
2639.08048,0.00259
2637.02031,0.00257
2634.96014,0.00256
2632.89997,0.00249
2630.83979,0.00243
2628.77962,0.00247
2626.71945,0.00244
2624.65928,0.00236
2622.59910,0.00238
2620.53893,0.00239
2618.47876,0.00234
2616.41859,0.00241
2614.35842,0.00263
2612.29824,0.00277
2610.23807,0.00271
2608.17790,0.00255
2606.11773,0.00243
2604.05756,0.00222
2601.99738,0.00200
2599.93721,0.00205
2597.87704,0.00225
2595.81687,0.00232
2593.75670,0.00222
2591.69652,0.00216
2589.63635,0.00219
2587.57618,0.00217
2585.51601,0.00213
2583.45583,0.00218
2581.39566,0.00230
2579.33549,0.00234
2577.27532,0.00225
2575.21515,0.00217
2573.15497,0.00214
2571.09480,0.00217
2569.03463,0.00221
2566.97446,0.00219
2564.91429,0.00215
2562.85411,0.00225
2560.79394,0.00239
2558.73377,0.00239
2556.67360,0.00232
2554.61342,0.00220
2552.55325,0.00200
2550.49308,0.00190
2548.43291,0.00197
2546.37274,0.00213
2544.31256,0.00230
2542.25239,0.00232
2540.19222,0.00221
2538.13205,0.00214
2536.07188,0.00203
2534.01170,0.00184
2531.95153,0.00176
2529.89136,0.00182
2527.83119,0.00176
2525.77102,0.00159
2523.71084,0.00155
2521.65067,0.00167
2519.59050,0.00181
2517.53033,0.00187
2515.47015,0.00179
2513.40998,0.00176
2511.34981,0.00201
2509.28964,0.00218
2507.22947,0.00200
2505.16929,0.00173
2503.10912,0.00166
2501.04895,0.00182
2498.98878,0.00193
2496.92861,0.00186
2494.86843,0.00174
2492.80826,0.00170
2490.74809,0.00178
2488.68792,0.00185
2486.62775,0.00172
2484.56757,0.00166
2482.50740,0.00192
2480.44723,0.00210
2478.38706,0.00208
2476.32688,0.00216
2474.26671,0.00218
2472.20654,0.00209
2470.14637,0.00207
2468.08620,0.00217
2466.02602,0.00228
2463.96585,0.00223
2461.90568,0.00200
2459.84551,0.00179
2457.78534,0.00168
2455.72516,0.00157
2453.66499,0.00156
2451.60482,0.00166
2449.54465,0.00180
2447.48447,0.00208
2445.42430,0.00229
2443.36413,0.00221
2441.30396,0.00205
2439.24379,0.00202
2437.18361,0.00207
2435.12344,0.00210
2433.06327,0.00217
2431.00310,0.00236
2428.94293,0.00239
2426.88275,0.00218
2424.82258,0.00213
2422.76241,0.00228
2420.70224,0.00235
2418.64207,0.00228
2416.58189,0.00205
2414.52172,0.00182
2412.46155,0.00187
2410.40138,0.00197
2408.34120,0.00191
2406.28103,0.00188
2404.22086,0.00197
2402.16069,0.00197
2400.10052,0.00188
2398.04034,0.00178
2395.98017,0.00164
2393.92000,0.00159
2391.85983,0.00173
2389.79966,0.00188
2387.73948,0.00192
2385.67931,0.00191
2383.61914,0.00185
2381.55897,0.00170
2379.49880,0.00172
2377.43862,0.00202
2375.37845,0.00230
2373.31828,0.00234
2371.25811,0.00226
2369.19793,0.00236
2367.13776,0.00276
2365.07759,0.00305
2363.01742,0.00283
2360.95725,0.00235
2358.89707,0.00208
2356.83690,0.00212
2354.77673,0.00224
2352.71656,0.00226
2350.65639,0.00220
2348.59621,0.00222
2346.53604,0.00235
2344.47587,0.00245
2342.41570,0.00259
2340.35552,0.00304
2338.29535,0.00349
2336.23518,0.00347
2334.17501,0.00300
2332.11484,0.00250
2330.05466,0.00244
2327.99449,0.00300
2325.93432,0.00361
2323.87415,0.00361
2321.81398,0.00313
2319.75380,0.00280
2317.69363,0.00265
2315.63346,0.00247
2313.57329,0.00231
2311.51312,0.00209
2309.45294,0.00181
2307.39277,0.00173
2305.33260,0.00192
2303.27243,0.00222
2301.21225,0.00253
2299.15208,0.00277
2297.09191,0.00268
2295.03174,0.00223
2292.97157,0.00189
2290.91139,0.00207
2288.85122,0.00249
2286.79105,0.00270
2284.73088,0.00263
2282.67071,0.00255
2280.61053,0.00264
2278.55036,0.00268
2276.49019,0.00235
2274.43002,0.00198
2272.36984,0.00189
2270.30967,0.00200
2268.24950,0.00220
2266.18933,0.00229
2264.12916,0.00214
2262.06898,0.00208
2260.00881,0.00225
2257.94864,0.00212
2255.88847,0.00167
2253.82830,0.00163
2251.76812,0.00222
2249.70795,0.00267
2247.64778,0.00257
2245.58761,0.00265
2243.52744,0.00276
2241.46726,0.00233
2239.40709,0.00192
2237.34692,0.00192
2235.28675,0.00194
2233.22657,0.00191
2231.16640,0.00209
2229.10623,0.00260
2227.04606,0.00292
2224.98589,0.00269
2222.92571,0.00234
2220.86554,0.00201
2218.80537,0.00163
2216.74520,0.00158
2214.68503,0.00179
2212.62485,0.00209
2210.56468,0.00246
2208.50451,0.00264
2206.44434,0.00259
2204.38417,0.00245
2202.32399,0.00224
2200.26382,0.00183
2198.20365,0.00148
2196.14348,0.00146
2194.08330,0.00149
2192.02313,0.00185
2189.96296,0.00271
2187.90279,0.00318
2185.84262,0.00308
2183.78244,0.00277
2181.72227,0.00240
2179.66210,0.00222
2177.60193,0.00192
2175.54176,0.00170
2173.48158,0.00233
2171.42141,0.00332
2169.36124,0.00381
2167.30107,0.00369
2165.24089,0.00297
2163.18072,0.00179
2161.12055,0.00056
2159.06038,0.00000
2157.00021,0.00023
2154.94003,0.00063
2152.87986,0.00068
2150.81969,0.00053
2148.75952,0.00062
2146.69935,0.00052
2144.63917,0.00023
2142.57900,0.00044
2140.51883,0.00122
2138.45866,0.00158
2136.39849,0.00095
2134.33831,0.00027
2132.27814,0.00031
2130.21797,0.00070
2128.15780,0.00074
2126.09762,0.00076
2124.03745,0.00112
2121.97728,0.00142
2119.91711,0.00150
2117.85694,0.00159
2115.79676,0.00183
2113.73659,0.00205
2111.67642,0.00221
2109.61625,0.00233
2107.55608,0.00228
2105.49590,0.00204
2103.43573,0.00179
2101.37556,0.00181
2099.31539,0.00190
2097.25521,0.00160
2095.19504,0.00136
2093.13487,0.00168
2091.07470,0.00206
2089.01453,0.00220
2086.95435,0.00242
2084.89418,0.00249
2082.83401,0.00213
2080.77384,0.00166
2078.71367,0.00139
2076.65349,0.00144
2074.59332,0.00182
2072.53315,0.00210
2070.47298,0.00222
2068.41281,0.00235
2066.35263,0.00234
2064.29246,0.00218
2062.23229,0.00199
2060.17212,0.00165
2058.11194,0.00127
2056.05177,0.00150
2053.99160,0.00265
2051.93143,0.00366
2049.87126,0.00325
2047.81108,0.00197
2045.75091,0.00147
2043.69074,0.00184
2041.63057,0.00222
2039.57040,0.00246
2037.51022,0.00269
2035.45005,0.00277
2033.38988,0.00258
2031.32971,0.00214
2029.26954,0.00141
2027.20936,0.00069
2025.14919,0.00077
2023.08902,0.00105
2021.02885,0.00062
2018.96867,0.00037
2016.90850,0.00104
2014.84833,0.00189
2012.78816,0.00256
2010.72799,0.00310
2008.66781,0.00301
2006.60764,0.00196
2004.54747,0.00105
2002.48730,0.00122
2000.42713,0.00156
1998.36695,0.00136
1996.30678,0.00120
1994.24661,0.00099
1992.18644,0.00022
1990.12626,0.00000
1988.06609,0.00122
1986.00592,0.00259
1983.94575,0.00299
1981.88558,0.00304
1979.82540,0.00329
1977.76523,0.00332
1975.70506,0.00277
1973.64489,0.00187
1971.58472,0.00105
1969.52454,0.00058
1967.46437,0.00058
1965.40420,0.00117
1963.34403,0.00196
1961.28386,0.00190
1959.22368,0.00090
1957.16351,0.00032
1955.10334,0.00056
1953.04317,0.00080
1950.98299,0.00076
1948.92282,0.00073
1946.86265,0.00078
1944.80248,0.00099
1942.74231,0.00145
1940.68213,0.00179
1938.62196,0.00181
1936.56179,0.00179
1934.50162,0.00188
1932.44145,0.00197
1930.38127,0.00180
1928.32110,0.00149
1926.26093,0.00148
1924.20076,0.00164
1922.14059,0.00155
1920.08041,0.00127
1918.02024,0.00130
1915.96007,0.00170
1913.89990,0.00199
1911.83972,0.00195
1909.77955,0.00175
1907.71938,0.00159
1905.65921,0.00158
1903.59904,0.00162
1901.53886,0.00156
1899.47869,0.00147
1897.41852,0.00142
1895.35835,0.00146
1893.29818,0.00160
1891.23800,0.00165
1889.17783,0.00141
1887.11766,0.00115
1885.05749,0.00117
1882.99731,0.00137
1880.93714,0.00149
1878.87697,0.00142
1876.81680,0.00138
1874.75663,0.00153
1872.69645,0.00171
1870.63628,0.00179
1868.57611,0.00174
1866.51594,0.00160
1864.45577,0.00146
1862.39559,0.00131
1860.33542,0.00119
1858.27525,0.00126
1856.21508,0.00149
1854.15491,0.00160
1852.09473,0.00151
1850.03456,0.00139
1847.97439,0.00132
1845.91422,0.00127
1843.85404,0.00119
1841.79387,0.00107
1839.73370,0.00100
1837.67353,0.00102
1835.61336,0.00117
1833.55318,0.00128
1831.49301,0.00123
1829.43284,0.00117
1827.37267,0.00125
1825.31250,0.00125
1823.25232,0.00117
1821.19215,0.00123
1819.13198,0.00136
1817.07181,0.00132
1815.01163,0.00113
1812.95146,0.00090
1810.89129,0.00076
1808.83112,0.00085
1806.77095,0.00103
1804.71077,0.00110
1802.65060,0.00114
1800.59043,0.00119
1798.53026,0.00115
1796.47009,0.00104
1794.40991,0.00100
1792.34974,0.00111
1790.28957,0.00127
1788.22940,0.00137
1786.16923,0.00133
1784.10905,0.00121
1782.04888,0.00114
1779.98871,0.00112
1777.92854,0.00108
1775.86836,0.00096
1773.80819,0.00083
1771.74802,0.00083
1769.68785,0.00101
1767.62768,0.00126
1765.56750,0.00137
1763.50733,0.00129
1761.44716,0.00118
1759.38699,0.00122
1757.32682,0.00136
1755.26664,0.00148
1753.20647,0.00142
1751.14630,0.00117
1749.08613,0.00100
1747.02596,0.00105
1744.96578,0.00114
1742.90561,0.00130
1740.84544,0.00148
1738.78527,0.00153
1736.72509,0.00147
1734.66492,0.00149
1732.60475,0.00167
1730.54458,0.00184
1728.48441,0.00192
1726.42423,0.00192
1724.36406,0.00183
1722.30389,0.00165
1720.24372,0.00141
1718.18355,0.00108
1716.12337,0.00083
1714.06320,0.00090
1712.00303,0.00110
1709.94286,0.00118
1707.88268,0.00109
1705.82251,0.00101
1703.76234,0.00112
1701.70217,0.00131
1699.64200,0.00133
1697.58182,0.00125
1695.52165,0.00126
1693.46148,0.00134
1691.40131,0.00132
1689.34114,0.00122
1687.28096,0.00116
1685.22079,0.00107
1683.16062,0.00084
1681.10045,0.00084
1679.04028,0.00115
1676.98010,0.00142
1674.91993,0.00148
1672.85976,0.00143
1670.79959,0.00153
1668.73941,0.00184
1666.67924,0.00214
1664.61907,0.00225
1662.55890,0.00221
1660.49873,0.00214
1658.43855,0.00215
1656.37838,0.00220
1654.31821,0.00220
1652.25804,0.00213
1650.19787,0.00200
1648.13769,0.00192
1646.07752,0.00205
1644.01735,0.00226
1641.95718,0.00238
1639.89701,0.00245
1637.83683,0.00243
1635.77666,0.00239
1633.71649,0.00246
1631.65632,0.00258
1629.59614,0.00264
1627.53597,0.00261
1625.47580,0.00255
1623.41563,0.00257
1621.35546,0.00271
1619.29528,0.00287
1617.23511,0.00295
1615.17494,0.00292
1613.11477,0.00287
1611.05460,0.00283
1608.99442,0.00281
1606.93425,0.00279
1604.87408,0.00272
1602.81391,0.00263
1600.75373,0.00256
1598.69356,0.00254
1596.63339,0.00246
1594.57322,0.00231
1592.51305,0.00219
1590.45287,0.00218
1588.39270,0.00217
1586.33253,0.00208
1584.27236,0.00195
1582.21219,0.00187
1580.15201,0.00177
1578.09184,0.00157
1576.03167,0.00137
1573.97150,0.00132
1571.91133,0.00129
1569.85115,0.00124
1567.79098,0.00120
1565.73081,0.00119
1563.67064,0.00123
1561.61046,0.00122
1559.55029,0.00097
1557.49012,0.00058
1555.42995,0.00047
1553.36978,0.00055
1551.30960,0.00063
1549.24943,0.00067
1547.18926,0.00066
1545.12909,0.00062
1543.06892,0.00062
1541.00874,0.00069
1538.94857,0.00075
1536.88840,0.00068
1534.82823,0.00056
1532.76805,0.00049
1530.70788,0.00046
1528.64771,0.00038
1526.58754,0.00028
1524.52737,0.00015
1522.46719,0.00000
1520.40702,-0.00002
1518.34685,0.00010
1516.28668,0.00024
1514.22651,0.00041
1512.16633,0.00050
1510.10616,0.00032
1508.04599,0.00003
1505.98582,0.00017
1503.92565,0.00051
1501.86547,0.00062
1499.80530,0.00058
1497.74513,0.00060
1495.68496,0.00074
1493.62478,0.00084
1491.56461,0.00073
1489.50444,0.00056
1487.44427,0.00062
1485.38410,0.00076
1483.32392,0.00083
1481.26375,0.00087
1479.20358,0.00097
1477.14341,0.00104
1475.08324,0.00101
1473.02306,0.00099
1470.96289,0.00110
1468.90272,0.00122
1466.84255,0.00129
1464.78238,0.00133
1462.72220,0.00139
1460.66203,0.00146
1458.60186,0.00147
1456.54169,0.00149
1454.48151,0.00158
1452.42134,0.00167
1450.36117,0.00173
1448.30100,0.00175
1446.24083,0.00182
1444.18065,0.00195
1442.12048,0.00206
1440.06031,0.00212
1438.00014,0.00213
1435.93997,0.00210
1433.87979,0.00207
1431.81962,0.00210
1429.75945,0.00221
1427.69928,0.00230
1425.63910,0.00224
1423.57893,0.00212
1421.51876,0.00208
1419.45859,0.00212
1417.39842,0.00220
1415.33824,0.00226
1413.27807,0.00229
1411.21790,0.00231
1409.15773,0.00234
1407.09756,0.00236
1405.03738,0.00237
1402.97721,0.00237
1400.91704,0.00233
1398.85687,0.00218
1396.79670,0.00201
1394.73652,0.00197
1392.67635,0.00204
1390.61618,0.00206
1388.55601,0.00200
1386.49583,0.00202
1384.43566,0.00211
1382.37549,0.00214
1380.31532,0.00213
1378.25515,0.00219
1376.19497,0.00224
1374.13480,0.00225
1372.07463,0.00233
1370.01446,0.00243
1367.95429,0.00245
1365.89411,0.00239
1363.83394,0.00235
1361.77377,0.00234
1359.71360,0.00232
1357.65343,0.00229
1355.59325,0.00225
1353.53308,0.00221
1351.47291,0.00214
1349.41274,0.00207
1347.35256,0.00205
1345.29239,0.00206
1343.23222,0.00196
1341.17205,0.00173
1339.11188,0.00164
1337.05170,0.00187
1334.99153,0.00213
1332.93136,0.00219
1330.87119,0.00219
1328.81102,0.00221
1326.75084,0.00217
1324.69067,0.00209
1322.63050,0.00205
1320.57033,0.00201
1318.51015,0.00196
1316.44998,0.00192
1314.38981,0.00186
1312.32964,0.00186
1310.26947,0.00193
1308.20929,0.00198
1306.14912,0.00200
1304.08895,0.00195
1302.02878,0.00184
1299.96861,0.00178
1297.90843,0.00181
1295.84826,0.00184
1293.78809,0.00184
1291.72792,0.00177
1289.66775,0.00167
1287.60757,0.00161
1285.54740,0.00160
1283.48723,0.00157
1281.42706,0.00151
1279.36688,0.00150
1277.30671,0.00152
1275.24654,0.00154
1273.18637,0.00159
1271.12620,0.00169
1269.06602,0.00177
1267.00585,0.00183
1264.94568,0.00194
1262.88551,0.00207
1260.82534,0.00218
1258.76516,0.00229
1256.70499,0.00237
1254.64482,0.00242
1252.58465,0.00241
1250.52447,0.00238
1248.46430,0.00240
1246.40413,0.00238
1244.34396,0.00234
1242.28379,0.00236
1240.22361,0.00232
1238.16344,0.00222
1236.10327,0.00218
1234.04310,0.00220
1231.98293,0.00215
1229.92275,0.00200
1227.86258,0.00185
1225.80241,0.00179
1223.74224,0.00177
1221.68207,0.00167
1219.62189,0.00152
1217.56172,0.00138
1215.50155,0.00129
1213.44138,0.00124
1211.38120,0.00117
1209.32103,0.00113
1207.26086,0.00112
1205.20069,0.00106
1203.14052,0.00096
1201.08034,0.00077
1199.02017,0.00052
1196.96000,0.00037
1194.89983,0.00033
1192.83966,0.00025
1190.77948,0.00016
1188.71931,0.00014
1186.65914,0.00010
1184.59897,0.00000
1182.53880,-0.00002
1180.47862,0.00018
1178.41845,0.00049
1176.35828,0.00071
1174.29811,0.00082
1172.23793,0.00094
1170.17776,0.00099
1168.11759,0.00101
1166.05742,0.00125
1163.99725,0.00164
1161.93707,0.00190
1159.87690,0.00198
1157.81673,0.00211
1155.75656,0.00235
1153.69639,0.00257
1151.63621,0.00271
1149.57604,0.00284
1147.51587,0.00299
1145.45570,0.00308
1143.39552,0.00314
1141.33535,0.00319
1139.27518,0.00317
1137.21501,0.00308
1135.15484,0.00311
1133.09466,0.00325
1131.03449,0.00346
1128.97432,0.00371
1126.91415,0.00388
1124.85398,0.00404
1122.79380,0.00431
1120.73363,0.00459
1118.67346,0.00474
1116.61329,0.00492
1114.55312,0.00524
1112.49294,0.00548
1110.43277,0.00560
1108.37260,0.00580
1106.31243,0.00612
1104.25225,0.00650
1102.19208,0.00683
1100.13191,0.00700
1098.07174,0.00719
1096.01157,0.00759
1093.95139,0.00805
1091.89122,0.00840
1089.83105,0.00866
1087.77088,0.00898
1085.71071,0.00937
1083.65053,0.00977
1081.59036,0.01018
1079.53019,0.01056
1077.47002,0.01083
1075.40985,0.01088
1073.34967,0.01079
1071.28950,0.01086
1069.22933,0.01110
1067.16916,0.01134
1065.10898,0.01146
1063.04881,0.01147
1060.98864,0.01143
1058.92847,0.01155
1056.86830,0.01185
1054.80812,0.01211
1052.74795,0.01231
1050.68778,0.01248
1048.62761,0.01254
1046.56744,0.01257
1044.50726,0.01271
1042.44709,0.01297
1040.38692,0.01322
1038.32675,0.01325
1036.26657,0.01312
1034.20640,0.01304
1032.14623,0.01296
1030.08606,0.01280
1028.02589,0.01264
1025.96571,0.01247
1023.90554,0.01234
1021.84537,0.01218
1019.78520,0.01186
1017.72503,0.01159
1015.66485,0.01159
1013.60468,0.01164
1011.54451,0.01153
1009.48434,0.01133
1007.42417,0.01112
1005.36399,0.01085
1003.30382,0.01047
1001.24365,0.01008
999.18348,0.00988
997.12330,0.00978
995.06313,0.00954
993.00296,0.00914
990.94279,0.00882
988.88262,0.00865
986.82244,0.00848
984.76227,0.00829
982.70210,0.00815
980.64193,0.00801
978.58176,0.00793
976.52158,0.00796
974.46141,0.00782
972.40124,0.00747
970.34107,0.00715
968.28089,0.00687
966.22072,0.00665
964.16055,0.00651
962.10038,0.00636
960.04021,0.00610
957.98003,0.00588
955.91986,0.00581
953.85969,0.00573
951.79952,0.00554
949.73935,0.00531
947.67917,0.00504
945.61900,0.00465
943.55883,0.00432
941.49866,0.00407
939.43849,0.00375
937.37831,0.00344
935.31814,0.00312
933.25797,0.00268
931.19780,0.00232
929.13762,0.00223
927.07745,0.00222
925.01728,0.00204
922.95711,0.00177
920.89694,0.00166
918.83676,0.00160
916.77659,0.00147
914.71642,0.00144
912.65625,0.00150
910.59608,0.00146
908.53590,0.00128
906.47573,0.00122
904.41556,0.00137
902.35539,0.00145
900.29522,0.00143
898.23504,0.00140
896.17487,0.00133
894.11470,0.00140
892.05453,0.00160
889.99435,0.00183
887.93418,0.00183
885.87401,0.00153
883.81384,0.00134
881.75367,0.00129
879.69349,0.00117
877.63332,0.00106
875.57315,0.00105
873.51298,0.00111
871.45281,0.00123
869.39263,0.00132
867.33246,0.00131
865.27229,0.00124
863.21212,0.00118
861.15194,0.00119
859.09177,0.00128
857.03160,0.00133
854.97143,0.00129
852.91126,0.00109
850.85108,0.00080
848.79091,0.00066
846.73074,0.00070
844.67057,0.00082
842.61040,0.00101
840.55022,0.00103
838.49005,0.00081
836.42988,0.00071
834.36971,0.00072
832.30954,0.00049
830.24936,0.00029
828.18919,0.00035
826.12902,0.00031
824.06885,0.00010
822.00867,0.00013
819.94850,0.00046
817.88833,0.00066
815.82816,0.00059
813.76799,0.00040
811.70781,0.00015
809.64764,0.00010
807.58747,0.00040
805.52730,0.00067
803.46713,0.00056
801.40695,0.00033
799.34678,0.00014
797.28661,0.00000
795.22644,0.00007
793.16627,0.00018
791.10609,0.00023
789.04592,0.00041
786.98575,0.00063
784.92558,0.00076
782.86540,0.00065
780.80523,0.00045
778.74506,0.00050
776.68489,0.00074
774.62472,0.00083
772.56454,0.00065
770.50437,0.00044
768.44420,0.00038
766.38403,0.00033
764.32386,0.00046
762.26368,0.00090
760.20351,0.00125
758.14334,0.00131
756.08317,0.00127
754.02299,0.00119
751.96282,0.00098
749.90265,0.00089
747.84248,0.00108
745.78231,0.00126
743.72213,0.00130
741.66196,0.00125
739.60179,0.00101
737.54162,0.00084
735.48145,0.00084
733.42127,0.00079
731.36110,0.00055
729.30093,0.00030
727.24076,0.00062
725.18059,0.00124
723.12041,0.00130
721.06024,0.00101
719.00007,0.00091
716.93990,0.00110
714.87972,0.00143
712.81955,0.00173
710.75938,0.00175
708.69921,0.00158
706.63904,0.00157
704.57886,0.00158
702.51869,0.00151
700.45852,0.00157
698.39835,0.00169
696.33818,0.00163
694.27800,0.00150
692.21783,0.00156
690.15766,0.00186
688.09749,0.00211
686.03731,0.00206
683.97714,0.00169
681.91697,0.00122
679.85680,0.00119
677.79663,0.00172
675.73645,0.00213
673.67628,0.00197
671.61611,0.00167
669.55594,0.00180
667.49577,0.00218
665.43559,0.00215
663.37542,0.00178
661.31525,0.00159
659.25508,0.00189
657.19491,0.00218
655.13473,0.00192
653.07456,0.00188
651.01439,0.00260
648.95422,0.00306
646.89404,0.00230
644.83387,0.00108
642.77370,0.00085
640.71353,0.00205
638.65336,0.00371
636.59318,0.00441
634.53301,0.00372
632.47284,0.00247
630.41267,0.00176
628.35250,0.00223
626.29232,0.00369
624.23215,0.00454
622.17198,0.00324
620.11181,0.00085
618.05164,0.00000
615.99146,0.00128
613.93129,0.00342
611.87112,0.00401
609.81095,0.00286
607.75077,0.00213
605.69060,0.00196
603.63043,0.00106
601.57026,-0.00016
599.51009,0.00000
