3996.73391,0.00038
3994.67373,0.00034
3992.61356,0.00030
3990.55339,0.00021
3988.49322,0.00008
3986.43305,0.00000
3984.37287,0.00005
3982.31270,0.00022
3980.25253,0.00044
3978.19236,0.00067
3976.13219,0.00088
3974.07201,0.00102
3972.01184,0.00109
3969.95167,0.00111
3967.89150,0.00114
3965.83133,0.00118
3963.77115,0.00116
3961.71098,0.00100
3959.65081,0.00073
3957.59064,0.00052
3955.53046,0.00049
3953.47029,0.00062
3951.41012,0.00079
3949.34995,0.00090
3947.28978,0.00089
3945.22960,0.00082
3943.16943,0.00073
3941.10926,0.00069
3939.04909,0.00076
3936.98892,0.00091
3934.92874,0.00107
3932.86857,0.00113
3930.80840,0.00108
3928.74823,0.00099
3926.68805,0.00095
3924.62788,0.00089
3922.56771,0.00077
3920.50754,0.00062
3918.44737,0.00057
3916.38719,0.00065
3914.32702,0.00076
3912.26685,0.00084
3910.20668,0.00091
3908.14651,0.00102
3906.08633,0.00115
3904.02616,0.00113
3901.96599,0.00081
3899.90582,0.00032
3897.84565,0.00000
3895.78547,0.00002
3893.72530,0.00037
3891.66513,0.00081
3889.60496,0.00109
3887.54478,0.00114
3885.48461,0.00110
3883.42444,0.00113
3881.36427,0.00124
3879.30410,0.00132
3877.24392,0.00133
3875.18375,0.00130
3873.12358,0.00129
3871.06341,0.00133
3869.00324,0.00133
3866.94306,0.00127
3864.88289,0.00123
3862.82272,0.00126
3860.76255,0.00135
3858.70237,0.00144
3856.64220,0.00146
3854.58203,0.00130
3852.52186,0.00096
3850.46169,0.00064
3848.40151,0.00060
3846.34134,0.00086
3844.28117,0.00132
3842.22100,0.00185
3840.16083,0.00229
3838.10065,0.00239
3836.04048,0.00200
3833.98031,0.00133
3831.92014,0.00081
3829.85997,0.00066
3827.79979,0.00078
3825.73962,0.00093
3823.67945,0.00105
3821.61928,0.00117
3819.55910,0.00132
3817.49893,0.00144
3815.43876,0.00144
3813.37859,0.00134
3811.31842,0.00127
3809.25824,0.00131
3807.19807,0.00141
3805.13790,0.00149
3803.07773,0.00144
3801.01756,0.00117
3798.95738,0.00076
3796.89721,0.00043
3794.83704,0.00034
3792.77687,0.00045
3790.71670,0.00059
3788.65652,0.00058
3786.59635,0.00042
3784.53618,0.00031
3782.47601,0.00040
3780.41583,0.00068
3778.35566,0.00105
3776.29549,0.00140
3774.23532,0.00165
3772.17515,0.00176
3770.11497,0.00173
3768.05480,0.00157
3765.99463,0.00140
3763.93446,0.00132
3761.87429,0.00136
3759.81411,0.00143
3757.75394,0.00141
3755.69377,0.00134
3753.63360,0.00133
3751.57342,0.00140
3749.51325,0.00145
3747.45308,0.00142
3745.39291,0.00132
3743.33274,0.00121
3741.27256,0.00118
3739.21239,0.00134
3737.15222,0.00160
3735.09205,0.00181
3733.03188,0.00181
3730.97170,0.00161
3728.91153,0.00131
3726.85136,0.00112
3724.79119,0.00114
3722.73102,0.00128
3720.67084,0.00130
3718.61067,0.00121
3716.55050,0.00121
3714.49033,0.00138
3712.43015,0.00160
3710.36998,0.00170
3708.30981,0.00163
3706.24964,0.00145
3704.18947,0.00118
3702.12929,0.00094
3700.06912,0.00089
3698.00895,0.00111
3695.94878,0.00152
3693.88861,0.00190
3691.82843,0.00198
3689.76826,0.00160
3687.70809,0.00096
3685.64792,0.00054
3683.58775,0.00057
3681.52757,0.00093
3679.46740,0.00149
3677.40723,0.00212
3675.34706,0.00258
3673.28688,0.00262
3671.22671,0.00225
3669.16654,0.00172
3667.10637,0.00125
3665.04620,0.00097
3662.98602,0.00093
3660.92585,0.00119
3658.86568,0.00159
3656.80551,0.00192
3654.74534,0.00209
3652.68516,0.00217
3650.62499,0.00213
3648.56482,0.00183
3646.50465,0.00135
3644.44447,0.00099
3642.38430,0.00097
3640.32413,0.00122
3638.26396,0.00157
3636.20379,0.00188
3634.14361,0.00201
3632.08344,0.00189
3630.02327,0.00162
3627.96310,0.00149
3625.90293,0.00178
3623.84275,0.00244
3621.78258,0.00324
3619.72241,0.00388
3617.66224,0.00415
3615.60207,0.00414
3613.54189,0.00405
3611.48172,0.00395
3609.42155,0.00383
3607.36138,0.00378
3605.30120,0.00394
3603.24103,0.00429
3601.18086,0.00459
3599.12069,0.00460
3597.06052,0.00436
3595.00034,0.00416
3592.94017,0.00419
3590.88000,0.00441
3588.81983,0.00461
3586.75966,0.00463
3584.69948,0.00460
3582.63931,0.00463
3580.57914,0.00475
3578.51897,0.00493
3576.45879,0.00512
3574.39862,0.00524
3572.33845,0.00531
3570.27828,0.00543
3568.21811,0.00561
3566.15793,0.00569
3564.09776,0.00560
3562.03759,0.00550
3559.97742,0.00552
3557.91725,0.00566
3555.85707,0.00588
3553.79690,0.00616
3551.73673,0.00648
3549.67656,0.00675
3547.61639,0.00693
3545.55621,0.00694
3543.49604,0.00677
3541.43587,0.00652
3539.37570,0.00629
3537.31552,0.00619
3535.25535,0.00630
3533.19518,0.00667
3531.13501,0.00716
3529.07484,0.00758
3527.01466,0.00789
3524.95449,0.00809
3522.89432,0.00820
3520.83415,0.00819
3518.77398,0.00813
3516.71380,0.00816
3514.65363,0.00829
3512.59346,0.00843
3510.53329,0.00847
3508.47312,0.00850
3506.41294,0.00870
3504.35277,0.00908
3502.29260,0.00941
3500.23243,0.00954
3498.17225,0.00953
3496.11208,0.00951
3494.05191,0.00954
3491.99174,0.00962
3489.93157,0.00970
3487.87139,0.00974
3485.81122,0.00972
3483.75105,0.00970
3481.69088,0.00978
3479.63071,0.00998
3477.57053,0.01026
3475.51036,0.01057
3473.45019,0.01087
3471.39002,0.01111
3469.32984,0.01119
3467.26967,0.01109
3465.20950,0.01093
3463.14933,0.01087
3461.08916,0.01093
3459.02898,0.01106
3456.96881,0.01124
3454.90864,0.01141
3452.84847,0.01149
3450.78830,0.01149
3448.72812,0.01157
3446.66795,0.01179
3444.60778,0.01206
3442.54761,0.01226
3440.48744,0.01241
3438.42726,0.01250
3436.36709,0.01254
3434.30692,0.01251
3432.24675,0.01242
3430.18657,0.01230
3428.12640,0.01220
3426.06623,0.01221
3424.00606,0.01239
3421.94589,0.01272
3419.88571,0.01303
3417.82554,0.01319
3415.76537,0.01320
3413.70520,0.01319
3411.64503,0.01328
3409.58485,0.01345
3407.52468,0.01351
3405.46451,0.01342
3403.40434,0.01333
3401.34416,0.01334
3399.28399,0.01344
3397.22382,0.01357
3395.16365,0.01368
3393.10348,0.01375
3391.04330,0.01376
3388.98313,0.01372
3386.92296,0.01374
3384.86279,0.01384
3382.80262,0.01397
3380.74244,0.01406
3378.68227,0.01413
3376.62210,0.01425
3374.56193,0.01444
3372.50176,0.01469
3370.44158,0.01494
3368.38141,0.01514
3366.32124,0.01524
3364.26107,0.01525
3362.20089,0.01517
3360.14072,0.01504
3358.08055,0.01497
3356.02038,0.01503
3353.96021,0.01525
3351.90003,0.01554
3349.83986,0.01575
3347.77969,0.01576
3345.71952,0.01559
3343.65935,0.01535
3341.59917,0.01518
3339.53900,0.01510
3337.47883,0.01505
3335.41866,0.01497
3333.35849,0.01492
3331.29831,0.01498
3329.23814,0.01512
3327.17797,0.01526
3325.11780,0.01530
3323.05762,0.01527
3320.99745,0.01524
3318.93728,0.01528
3316.87711,0.01540
3314.81694,0.01551
3312.75676,0.01556
3310.69659,0.01556
3308.63642,0.01561
3306.57625,0.01572
3304.51608,0.01579
3302.45590,0.01571
3300.39573,0.01552
3298.33556,0.01534
3296.27539,0.01527
3294.21521,0.01536
3292.15504,0.01557
3290.09487,0.01579
3288.03470,0.01595
3285.97453,0.01604
3283.91435,0.01604
3281.85418,0.01590
3279.79401,0.01563
3277.73384,0.01533
3275.67367,0.01515
3273.61349,0.01513
3271.55332,0.01520
3269.49315,0.01521
3267.43298,0.01516
3265.37281,0.01514
3263.31263,0.01525
3261.25246,0.01551
3259.19229,0.01579
3257.13212,0.01599
3255.07194,0.01603
3253.01177,0.01595
3250.95160,0.01581
3248.89143,0.01570
3246.83126,0.01566
3244.77108,0.01568
3242.71091,0.01568
3240.65074,0.01561
3238.59057,0.01546
3236.53040,0.01528
3234.47022,0.01510
3232.41005,0.01495
3230.34988,0.01482
3228.28971,0.01473
3226.22954,0.01473
3224.16936,0.01478
3222.10919,0.01482
3220.04902,0.01473
3217.98885,0.01449
3215.92867,0.01420
3213.86850,0.01401
3211.80833,0.01399
3209.74816,0.01413
3207.68799,0.01436
3205.62781,0.01453
3203.56764,0.01455
3201.50747,0.01443
3199.44730,0.01422
3197.38713,0.01398
3195.32695,0.01378
3193.26678,0.01369
3191.20661,0.01365
3189.14644,0.01360
3187.08626,0.01353
3185.02609,0.01342
3182.96592,0.01328
3180.90575,0.01314
3178.84558,0.01304
3176.78540,0.01299
3174.72523,0.01289
3172.66506,0.01268
3170.60489,0.01240
3168.54472,0.01217
3166.48454,0.01211
3164.42437,0.01215
3162.36420,0.01216
3160.30403,0.01204
3158.24386,0.01182
3156.18368,0.01167
3154.12351,0.01166
3152.06334,0.01172
3150.00317,0.01174
3147.94299,0.01169
3145.88282,0.01161
3143.82265,0.01150
3141.76248,0.01133
3139.70231,0.01107
3137.64213,0.01076
3135.58196,0.01047
3133.52179,0.01027
3131.46162,0.01011
3129.40145,0.00999
3127.34127,0.00994
3125.28110,0.00993
3123.22093,0.00990
3121.16076,0.00983
3119.10058,0.00972
3117.04041,0.00962
3114.98024,0.00952
3112.92007,0.00937
3110.85990,0.00919
3108.79972,0.00900
3106.73955,0.00888
3104.67938,0.00883
3102.61921,0.00881
3100.55904,0.00875
3098.49886,0.00860
3096.43869,0.00842
3094.37852,0.00832
3092.31835,0.00835
3090.25818,0.00845
3088.19800,0.00853
3086.13783,0.00854
3084.07766,0.00844
3082.01749,0.00822
3079.95731,0.00788
3077.89714,0.00753
3075.83697,0.00730
3073.77680,0.00729
3071.71663,0.00742
3069.65645,0.00755
3067.59628,0.00756
3065.53611,0.00746
3063.47594,0.00730
3061.41577,0.00709
3059.35559,0.00686
3057.29542,0.00669
3055.23525,0.00664
3053.17508,0.00670
3051.11491,0.00676
3049.05473,0.00670
3046.99456,0.00653
3044.93439,0.00637
3042.87422,0.00632
3040.81404,0.00638
3038.75387,0.00642
3036.69370,0.00636
3034.63353,0.00617
3032.57336,0.00591
3030.51318,0.00566
3028.45301,0.00550
3026.39284,0.00545
3024.33267,0.00548
3022.27250,0.00549
3020.21232,0.00541
3018.15215,0.00527
3016.09198,0.00514
3014.03181,0.00506
3011.97163,0.00500
3009.91146,0.00494
3007.85129,0.00490
3005.79112,0.00495
3003.73095,0.00511
3001.67077,0.00530
2999.61060,0.00541
2997.55043,0.00535
2995.49026,0.00512
2993.43009,0.00483
2991.36991,0.00470
2989.30974,0.00484
2987.24957,0.00504
2985.18940,0.00512
2983.12923,0.00514
2981.06905,0.00523
2979.00888,0.00534
2976.94871,0.00545
2974.88854,0.00568
2972.82836,0.00590
2970.76819,0.00588
2968.70802,0.00577
2966.64785,0.00591
2964.58768,0.00627
2962.52750,0.00654
2960.46733,0.00662
2958.40716,0.00667
2956.34699,0.00675
2954.28682,0.00687
2952.22664,0.00700
2950.16647,0.00714
2948.10630,0.00741
2946.04613,0.00776
2943.98596,0.00789
2941.92578,0.00771
2939.86561,0.00746
2937.80544,0.00739
2935.74527,0.00755
2933.68509,0.00781
2931.62492,0.00804
2929.56475,0.00827
2927.50458,0.00846
2925.44441,0.00843
2923.38423,0.00819
2921.32406,0.00796
2919.26389,0.00782
2917.20372,0.00768
2915.14355,0.00757
2913.08337,0.00752
2911.02320,0.00737
2908.96303,0.00713
2906.90286,0.00697
2904.84268,0.00690
2902.78251,0.00683
2900.72234,0.00674
2898.66217,0.00672
2896.60200,0.00675
2894.54182,0.00672
2892.48165,0.00663
2890.42148,0.00655
2888.36131,0.00656
2886.30114,0.00661
2884.24096,0.00670
2882.18079,0.00685
2880.12062,0.00693
2878.06045,0.00697
2876.00028,0.00696
2873.94010,0.00685
2871.87993,0.00667
2869.81976,0.00648
2867.75959,0.00621
2865.69941,0.00594
2863.63924,0.00584
2861.57907,0.00583
2859.51890,0.00574
2857.45873,0.00567
2855.39855,0.00571
2853.33838,0.00574
2851.27821,0.00565
2849.21804,0.00550
2847.15787,0.00537
2845.09769,0.00531
2843.03752,0.00533
2840.97735,0.00536
2838.91718,0.00531
2836.85700,0.00517
2834.79683,0.00496
2832.73666,0.00473
2830.67649,0.00467
2828.61632,0.00477
2826.55614,0.00483
2824.49597,0.00482
2822.43580,0.00479
2820.37563,0.00475
2818.31546,0.00462
2816.25528,0.00453
2814.19511,0.00454
2812.13494,0.00458
2810.07477,0.00461
2808.01460,0.00470
2805.95442,0.00480
2803.89425,0.00479
2801.83408,0.00462
2799.77391,0.00438
2797.71373,0.00419
2795.65356,0.00411
2793.59339,0.00411
2791.53322,0.00414
2789.47305,0.00406
2787.41287,0.00384
2785.35270,0.00367
2783.29253,0.00371
2781.23236,0.00390
2779.17219,0.00407
2777.11201,0.00403
2775.05184,0.00388
2772.99167,0.00379
2770.93150,0.00385
2768.87133,0.00394
2766.81115,0.00397
2764.75098,0.00386
2762.69081,0.00369
2760.63064,0.00367
2758.57046,0.00379
2756.51029,0.00387
2754.45012,0.00387
2752.38995,0.00385
2750.32978,0.00386
2748.26960,0.00389
2746.20943,0.00386
2744.14926,0.00376
2742.08909,0.00366
2740.02892,0.00356
2737.96874,0.00349
2735.90857,0.00348
2733.84840,0.00356
2731.78823,0.00371
2729.72805,0.00380
2727.66788,0.00376
2725.60771,0.00365
2723.54754,0.00358
2721.48737,0.00354
2719.42719,0.00342
2717.36702,0.00326
2715.30685,0.00324
2713.24668,0.00336
2711.18651,0.00344
2709.12633,0.00341
2707.06616,0.00339
2705.00599,0.00336
2702.94582,0.00325
2700.88565,0.00325
2698.82547,0.00350
2696.76530,0.00379
2694.70513,0.00390
2692.64496,0.00380
2690.58478,0.00355
2688.52461,0.00327
2686.46444,0.00307
2684.40427,0.00296
2682.34410,0.00293
2680.28392,0.00296
2678.22375,0.00306
2676.16358,0.00324
2674.10341,0.00338
2672.04324,0.00339
2669.98306,0.00324
2667.92289,0.00296
2665.86272,0.00273
2663.80255,0.00273
2661.74238,0.00286
2659.68220,0.00303
2657.62203,0.00324
2655.56186,0.00338
2653.50169,0.00336
2651.44151,0.00330
2649.38134,0.00335
2647.32117,0.00336
2645.26100,0.00320
2643.20083,0.00303
2641.14065,0.00294
2639.08048,0.00285
2637.02031,0.00283
2634.96014,0.00293
2632.89997,0.00297
2630.83979,0.00277
2628.77962,0.00252
2626.71945,0.00248
2624.65928,0.00263
2622.59910,0.00286
2620.53893,0.00307
2618.47876,0.00319
2616.41859,0.00319
2614.35842,0.00316
2612.29824,0.00311
2610.23807,0.00310
2608.17790,0.00314
2606.11773,0.00308
2604.05756,0.00289
2601.99738,0.00277
2599.93721,0.00273
2597.87704,0.00265
2595.81687,0.00265
2593.75670,0.00279
2591.69652,0.00278
2589.63635,0.00257
2587.57618,0.00255
2585.51601,0.00286
2583.45583,0.00320
2581.39566,0.00332
2579.33549,0.00322
2577.27532,0.00300
2575.21515,0.00289
2573.15497,0.00298
2571.09480,0.00299
2569.03463,0.00264
2566.97446,0.00222
2564.91429,0.00211
2562.85411,0.00220
2560.79394,0.00221
2558.73377,0.00215
2556.67360,0.00226
2554.61342,0.00252
2552.55325,0.00268
2550.49308,0.00274
2548.43291,0.00278
2546.37274,0.00269
2544.31256,0.00235
2542.25239,0.00208
2540.19222,0.00204
2538.13205,0.00198
2536.07188,0.00191
2534.01170,0.00215
2531.95153,0.00267
2529.89136,0.00305
2527.83119,0.00307
2525.77102,0.00293
2523.71084,0.00286
2521.65067,0.00285
2519.59050,0.00278
2517.53033,0.00263
2515.47015,0.00237
2513.40998,0.00210
2511.34981,0.00204
2509.28964,0.00215
2507.22947,0.00221
2505.16929,0.00213
2503.10912,0.00207
2501.04895,0.00219
2498.98878,0.00252
2496.92861,0.00282
2494.86843,0.00287
2492.80826,0.00280
2490.74809,0.00287
2488.68792,0.00303
2486.62775,0.00303
2484.56757,0.00290
2482.50740,0.00274
2480.44723,0.00248
2478.38706,0.00219
2476.32688,0.00215
2474.26671,0.00232
2472.20654,0.00241
2470.14637,0.00239
2468.08620,0.00235
2466.02602,0.00238
2463.96585,0.00251
2461.90568,0.00270
2459.84551,0.00272
2457.78534,0.00242
2455.72516,0.00198
2453.66499,0.00160
2451.60482,0.00149
2449.54465,0.00168
2447.48447,0.00196
2445.42430,0.00213
2443.36413,0.00212
2441.30396,0.00196
2439.24379,0.00168
2437.18361,0.00144
2435.12344,0.00147
2433.06327,0.00178
2431.00310,0.00203
2428.94293,0.00189
2426.88275,0.00140
2424.82258,0.00099
2422.76241,0.00092
2420.70224,0.00102
2418.64207,0.00115
2416.58189,0.00138
2414.52172,0.00160
2412.46155,0.00169
2410.40138,0.00172
2408.34120,0.00177
2406.28103,0.00184
2404.22086,0.00190
2402.16069,0.00189
2400.10052,0.00186
2398.04034,0.00187
2395.98017,0.00190
2393.92000,0.00188
2391.85983,0.00180
2389.79966,0.00170
2387.73948,0.00162
2385.67931,0.00158
2383.61914,0.00165
2381.55897,0.00185
2379.49880,0.00210
2377.43862,0.00230
2375.37845,0.00236
2373.31828,0.00224
2371.25811,0.00189
2369.19793,0.00131
2367.13776,0.00058
2365.07759,0.00005
2363.01742,0.00036
2360.95725,0.00171
2358.89707,0.00321
2356.83690,0.00366
2354.77673,0.00286
2352.71656,0.00165
2350.65639,0.00074
2348.59621,0.00021
2346.53604,0.00011
2344.47587,0.00059
2342.41570,0.00135
2340.35552,0.00174
2338.29535,0.00168
2336.23518,0.00171
2334.17501,0.00208
2332.11484,0.00253
2330.05466,0.00289
2327.99449,0.00324
2325.93432,0.00352
2323.87415,0.00349
2321.81398,0.00317
2319.75380,0.00282
2317.69363,0.00262
2315.63346,0.00257
2313.57329,0.00261
2311.51312,0.00269
2309.45294,0.00269
2307.39277,0.00251
2305.33260,0.00228
2303.27243,0.00212
2301.21225,0.00206
2299.15208,0.00208
2297.09191,0.00214
2295.03174,0.00222
2292.97157,0.00222
2290.91139,0.00203
2288.85122,0.00173
2286.79105,0.00152
2284.73088,0.00150
2282.67071,0.00159
2280.61053,0.00179
2278.55036,0.00217
2276.49019,0.00255
2274.43002,0.00259
2272.36984,0.00226
2270.30967,0.00178
2268.24950,0.00146
2266.18933,0.00148
2264.12916,0.00184
2262.06898,0.00234
2260.00881,0.00270
2257.94864,0.00276
2255.88847,0.00262
2253.82830,0.00243
2251.76812,0.00220
2249.70795,0.00189
2247.64778,0.00156
2245.58761,0.00158
2243.52744,0.00211
2241.46726,0.00270
2239.40709,0.00297
2237.34692,0.00300
2235.28675,0.00283
2233.22657,0.00233
2231.16640,0.00173
2229.10623,0.00134
2227.04606,0.00131
2224.98589,0.00171
2222.92571,0.00245
2220.86554,0.00299
2218.80537,0.00288
2216.74520,0.00246
2214.68503,0.00208
2212.62485,0.00166
2210.56468,0.00125
2208.50451,0.00109
2206.44434,0.00154
2204.38417,0.00268
2202.32399,0.00363
2200.26382,0.00362
2198.20365,0.00303
2196.14348,0.00280
2194.08330,0.00316
2192.02313,0.00352
2189.96296,0.00326
2187.90279,0.00216
2185.84262,0.00111
2183.78244,0.00101
2181.72227,0.00125
2179.66210,0.00120
2177.60193,0.00135
2175.54176,0.00210
2173.48158,0.00294
2171.42141,0.00303
2169.36124,0.00226
2167.30107,0.00103
2165.24089,0.00000
2163.18072,0.00012
2161.12055,0.00101
2159.06038,0.00134
2157.00021,0.00138
2154.94003,0.00201
2152.87986,0.00298
2150.81969,0.00346
2148.75952,0.00289
2146.69935,0.00157
2144.63917,0.00053
2142.57900,0.00061
2140.51883,0.00167
2138.45866,0.00254
2136.39849,0.00223
2134.33831,0.00133
2132.27814,0.00110
2130.21797,0.00182
2128.15780,0.00272
2126.09762,0.00309
2124.03745,0.00282
2121.97728,0.00228
2119.91711,0.00178
2117.85694,0.00141
2115.79676,0.00144
2113.73659,0.00198
2111.67642,0.00254
2109.61625,0.00265
2107.55608,0.00252
2105.49590,0.00243
2103.43573,0.00223
2101.37556,0.00192
2099.31539,0.00192
2097.25521,0.00229
2095.19504,0.00276
2093.13487,0.00305
2091.07470,0.00309
2089.01453,0.00305
2086.95435,0.00311
2084.89418,0.00324
2082.83401,0.00324
2080.77384,0.00296
2078.71367,0.00246
2076.65349,0.00189
2074.59332,0.00142
2072.53315,0.00120
2070.47298,0.00131
2068.41281,0.00167
2066.35263,0.00204
2064.29246,0.00216
2062.23229,0.00195
2060.17212,0.00155
2058.11194,0.00121
2056.05177,0.00107
2053.99160,0.00107
2051.93143,0.00101
2049.87126,0.00093
2047.81108,0.00107
2045.75091,0.00147
2043.69074,0.00187
2041.63057,0.00197
2039.57040,0.00180
2037.51022,0.00151
2035.45005,0.00121
2033.38988,0.00109
2031.32971,0.00141
2029.26954,0.00201
2027.20936,0.00251
2025.14919,0.00264
2023.08902,0.00218
2021.02885,0.00119
2018.96867,0.00025
2016.90850,0.00000
2014.84833,0.00060
2012.78816,0.00168
2010.72799,0.00267
2008.66781,0.00317
2006.60764,0.00316
2004.54747,0.00276
2002.48730,0.00228
2000.42713,0.00212
1998.36695,0.00243
1996.30678,0.00302
1994.24661,0.00352
1992.18644,0.00367
1990.12626,0.00342
1988.06609,0.00300
1986.00592,0.00263
1983.94575,0.00230
1981.88558,0.00197
1979.82540,0.00173
1977.76523,0.00161
1975.70506,0.00154
1973.64489,0.00133
1971.58472,0.00090
1969.52454,0.00041
1967.46437,0.00019
1965.40420,0.00034
1963.34403,0.00057
1961.28386,0.00060
1959.22368,0.00049
1957.16351,0.00062
1955.10334,0.00111
1953.04317,0.00160
1950.98299,0.00161
1948.92282,0.00108
1946.86265,0.00042
1944.80248,0.00008
1942.74231,0.00020
1940.68213,0.00057
1938.62196,0.00088
1936.56179,0.00112
1934.50162,0.00138
1932.44145,0.00163
1930.38127,0.00172
1928.32110,0.00162
1926.26093,0.00146
1924.20076,0.00134
1922.14059,0.00130
1920.08041,0.00125
1918.02024,0.00110
1915.96007,0.00097
1913.89990,0.00111
1911.83972,0.00144
1909.77955,0.00170
1907.71938,0.00164
1905.65921,0.00131
1903.59904,0.00094
1901.53886,0.00071
1899.47869,0.00064
1897.41852,0.00069
1895.35835,0.00085
1893.29818,0.00109
1891.23800,0.00132
1889.17783,0.00147
1887.11766,0.00152
1885.05749,0.00153
1882.99731,0.00152
1880.93714,0.00152
1878.87697,0.00151
1876.81680,0.00143
1874.75663,0.00124
1872.69645,0.00092
1870.63628,0.00052
1868.57611,0.00015
1866.51594,0.00000
1864.45577,0.00007
1862.39559,0.00031
1860.33542,0.00061
1858.27525,0.00091
1856.21508,0.00108
1854.15491,0.00112
1852.09473,0.00114
1850.03456,0.00125
1847.97439,0.00142
1845.91422,0.00154
1843.85404,0.00151
1841.79387,0.00137
1839.73370,0.00117
1837.67353,0.00097
1835.61336,0.00088
1833.55318,0.00098
1831.49301,0.00122
1829.43284,0.00142
1827.37267,0.00149
1825.31250,0.00146
1823.25232,0.00136
1821.19215,0.00119
1819.13198,0.00101
1817.07181,0.00088
1815.01163,0.00084
1812.95146,0.00085
1810.89129,0.00088
1808.83112,0.00089
1806.77095,0.00089
1804.71077,0.00090
1802.65060,0.00093
1800.59043,0.00094
1798.53026,0.00090
1796.47009,0.00085
1794.40991,0.00082
1792.34974,0.00080
1790.28957,0.00078
1788.22940,0.00082
1786.16923,0.00092
1784.10905,0.00102
1782.04888,0.00104
1779.98871,0.00098
1777.92854,0.00096
1775.86836,0.00108
1773.80819,0.00126
1771.74802,0.00138
1769.68785,0.00135
1767.62768,0.00121
1765.56750,0.00108
1763.50733,0.00106
1761.44716,0.00119
1759.38699,0.00142
1757.32682,0.00170
1755.26664,0.00200
1753.20647,0.00230
1751.14630,0.00253
1749.08613,0.00266
1747.02596,0.00276
1744.96578,0.00291
1742.90561,0.00314
1740.84544,0.00339
1738.78527,0.00357
1736.72509,0.00363
1734.66492,0.00364
1732.60475,0.00366
1730.54458,0.00369
1728.48441,0.00368
1726.42423,0.00364
1724.36406,0.00361
1722.30389,0.00359
1720.24372,0.00355
1718.18355,0.00341
1716.12337,0.00313
1714.06320,0.00278
1712.00303,0.00245
1709.94286,0.00224
1707.88268,0.00217
1705.82251,0.00219
1703.76234,0.00221
1701.70217,0.00217
1699.64200,0.00202
1697.58182,0.00186
1695.52165,0.00180
1693.46148,0.00186
1691.40131,0.00204
1689.34114,0.00235
1687.28096,0.00275
1685.22079,0.00312
1683.16062,0.00330
1681.10045,0.00329
1679.04028,0.00322
1676.98010,0.00321
1674.91993,0.00329
1672.85976,0.00343
1670.79959,0.00358
1668.73941,0.00376
1666.67924,0.00402
1664.61907,0.00434
1662.55890,0.00471
1660.49873,0.00508
1658.43855,0.00549
1656.37838,0.00590
1654.31821,0.00623
1652.25804,0.00638
1650.19787,0.00643
1648.13769,0.00651
1646.07752,0.00661
1644.01735,0.00669
1641.95718,0.00679
1639.89701,0.00701
1637.83683,0.00730
1635.77666,0.00753
1633.71649,0.00757
1631.65632,0.00750
1629.59614,0.00742
1627.53597,0.00741
1625.47580,0.00749
1623.41563,0.00759
1621.35546,0.00766
1619.29528,0.00768
1617.23511,0.00770
1615.17494,0.00766
1613.11477,0.00755
1611.05460,0.00737
1608.99442,0.00715
1606.93425,0.00691
1604.87408,0.00665
1602.81391,0.00635
1600.75373,0.00599
1598.69356,0.00561
1596.63339,0.00525
1594.57322,0.00490
1592.51305,0.00454
1590.45287,0.00415
1588.39270,0.00376
1586.33253,0.00340
1584.27236,0.00309
1582.21219,0.00282
1580.15201,0.00260
1578.09184,0.00243
1576.03167,0.00231
1573.97150,0.00218
1571.91133,0.00207
1569.85115,0.00198
1567.79098,0.00193
1565.73081,0.00191
1563.67064,0.00195
1561.61046,0.00202
1559.55029,0.00201
1557.49012,0.00178
1555.42995,0.00147
1553.36978,0.00124
1551.30960,0.00116
1549.24943,0.00122
1547.18926,0.00137
1545.12909,0.00155
1543.06892,0.00168
1541.00874,0.00165
1538.94857,0.00141
1536.88840,0.00107
1534.82823,0.00082
1532.76805,0.00070
1530.70788,0.00065
1528.64771,0.00067
1526.58754,0.00075
1524.52737,0.00078
1522.46719,0.00068
1520.40702,0.00047
1518.34685,0.00023
1516.28668,0.00005
1514.22651,0.00000
1512.16633,0.00013
1510.10616,0.00038
1508.04599,0.00059
1505.98582,0.00063
1503.92565,0.00058
1501.86547,0.00057
1499.80530,0.00064
1497.74513,0.00073
1495.68496,0.00078
1493.62478,0.00085
1491.56461,0.00095
1489.50444,0.00102
1487.44427,0.00099
1485.38410,0.00090
1483.32392,0.00086
1481.26375,0.00092
1479.20358,0.00108
1477.14341,0.00130
1475.08324,0.00154
1473.02306,0.00175
1470.96289,0.00191
1468.90272,0.00205
1466.84255,0.00226
1464.78238,0.00252
1462.72220,0.00280
1460.66203,0.00305
1458.60186,0.00331
1456.54169,0.00355
1454.48151,0.00374
1452.42134,0.00387
1450.36117,0.00395
1448.30100,0.00404
1446.24083,0.00414
1444.18065,0.00424
1442.12048,0.00434
1440.06031,0.00448
1438.00014,0.00466
1435.93997,0.00480
1433.87979,0.00491
1431.81962,0.00501
1429.75945,0.00513
1427.69928,0.00530
1425.63910,0.00553
1423.57893,0.00585
1421.51876,0.00617
1419.45859,0.00640
1417.39842,0.00646
1415.33824,0.00642
1413.27807,0.00636
1411.21790,0.00630
1409.15773,0.00624
1407.09756,0.00620
1405.03738,0.00615
1402.97721,0.00607
1400.91704,0.00594
1398.85687,0.00577
1396.79670,0.00555
1394.73652,0.00531
1392.67635,0.00513
1390.61618,0.00505
1388.55601,0.00504
1386.49583,0.00502
1384.43566,0.00500
1382.37549,0.00509
1380.31532,0.00535
1378.25515,0.00569
1376.19497,0.00598
1374.13480,0.00613
1372.07463,0.00611
1370.01446,0.00596
1367.95429,0.00575
1365.89411,0.00554
1363.83394,0.00534
1361.77377,0.00521
1359.71360,0.00516
1357.65343,0.00516
1355.59325,0.00519
1353.53308,0.00520
1351.47291,0.00519
1349.41274,0.00512
1347.35256,0.00501
1345.29239,0.00487
1343.23222,0.00475
1341.17205,0.00464
1339.11188,0.00457
1337.05170,0.00455
1334.99153,0.00455
1332.93136,0.00457
1330.87119,0.00459
1328.81102,0.00462
1326.75084,0.00468
1324.69067,0.00478
1322.63050,0.00494
1320.57033,0.00511
1318.51015,0.00522
1316.44998,0.00522
1314.38981,0.00513
1312.32964,0.00504
1310.26947,0.00501
1308.20929,0.00499
1306.14912,0.00494
1304.08895,0.00481
1302.02878,0.00463
1299.96861,0.00443
1297.90843,0.00425
1295.84826,0.00408
1293.78809,0.00391
1291.72792,0.00379
1289.66775,0.00372
1287.60757,0.00370
1285.54740,0.00366
1283.48723,0.00360
1281.42706,0.00355
1279.36688,0.00356
1277.30671,0.00366
1275.24654,0.00385
1273.18637,0.00408
1271.12620,0.00433
1269.06602,0.00453
1267.00585,0.00469
1264.94568,0.00485
1262.88551,0.00508
1260.82534,0.00538
1258.76516,0.00569
1256.70499,0.00592
1254.64482,0.00605
1252.58465,0.00612
1250.52447,0.00618
1248.46430,0.00623
1246.40413,0.00625
1244.34396,0.00619
1242.28379,0.00604
1240.22361,0.00583
1238.16344,0.00564
1236.10327,0.00551
1234.04310,0.00540
1231.98293,0.00528
1229.92275,0.00510
1227.86258,0.00490
1225.80241,0.00470
1223.74224,0.00453
1221.68207,0.00438
1219.62189,0.00419
1217.56172,0.00396
1215.50155,0.00368
1213.44138,0.00338
1211.38120,0.00307
1209.32103,0.00276
1207.26086,0.00245
1205.20069,0.00210
1203.14052,0.00170
1201.08034,0.00126
1199.02017,0.00086
1196.96000,0.00061
1194.89983,0.00047
1192.83966,0.00029
1190.77948,0.00008
1188.71931,0.00000
1186.65914,0.00004
1184.59897,0.00007
1182.53880,-0.00004
1180.47862,-0.00011
1178.41845,0.00009
1176.35828,0.00052
1174.29811,0.00095
1172.23793,0.00126
1170.17776,0.00162
1168.11759,0.00214
1166.05742,0.00266
1163.99725,0.00312
1161.93707,0.00368
1159.87690,0.00438
1157.81673,0.00496
1155.75656,0.00535
1153.69639,0.00569
1151.63621,0.00609
1149.57604,0.00645
1147.51587,0.00668
1145.45570,0.00688
1143.39552,0.00707
1141.33535,0.00710
1139.27518,0.00700
1137.21501,0.00701
1135.15484,0.00723
1133.09466,0.00761
1131.03449,0.00802
1128.97432,0.00833
1126.91415,0.00856
1124.85398,0.00887
1122.79380,0.00927
1120.73363,0.00963
1118.67346,0.01000
1116.61329,0.01041
1114.55312,0.01077
1112.49294,0.01111
1110.43277,0.01165
1108.37260,0.01237
1106.31243,0.01293
1104.25225,0.01322
1102.19208,0.01348
1100.13191,0.01385
1098.07174,0.01435
1096.01157,0.01500
1093.95139,0.01571
1091.89122,0.01633
1089.83105,0.01689
1087.77088,0.01752
1085.71071,0.01823
1083.65053,0.01895
1081.59036,0.01958
1079.53019,0.02000
1077.47002,0.02032
1075.40985,0.02066
1073.34967,0.02097
1071.28950,0.02121
1069.22933,0.02161
1067.16916,0.02228
1065.10898,0.02299
1063.04881,0.02344
1060.98864,0.02359
1058.92847,0.02362
1056.86830,0.02359
1054.80812,0.02350
1052.74795,0.02353
1050.68778,0.02390
1048.62761,0.02449
1046.56744,0.02489
1044.50726,0.02506
1042.44709,0.02540
1040.38692,0.02605
1038.32675,0.02664
1036.26657,0.02687
1034.20640,0.02677
1032.14623,0.02652
1030.08606,0.02627
1028.02589,0.02614
1025.96571,0.02621
1023.90554,0.02647
1021.84537,0.02674
1019.78520,0.02681
1017.72503,0.02674
1015.66485,0.02669
1013.60468,0.02663
1011.54451,0.02655
1009.48434,0.02652
1007.42417,0.02643
1005.36399,0.02615
1003.30382,0.02582
1001.24365,0.02547
999.18348,0.02500
997.12330,0.02445
995.06313,0.02400
993.00296,0.02370
990.94279,0.02355
988.88262,0.02352
986.82244,0.02344
984.76227,0.02312
982.70210,0.02256
980.64193,0.02214
978.58176,0.02203
976.52158,0.02201
974.46141,0.02184
972.40124,0.02152
970.34107,0.02117
968.28089,0.02087
966.22072,0.02073
964.16055,0.02067
962.10038,0.02053
960.04021,0.02019
957.98003,0.01963
955.91986,0.01901
953.85969,0.01857
951.79952,0.01837
949.73935,0.01820
947.67917,0.01782
945.61900,0.01725
943.55883,0.01666
941.49866,0.01598
939.43849,0.01502
937.37831,0.01383
935.31814,0.01268
933.25797,0.01159
931.19780,0.01050
929.13762,0.00960
927.07745,0.00899
925.01728,0.00844
922.95711,0.00787
920.89694,0.00739
918.83676,0.00703
916.77659,0.00667
914.71642,0.00627
912.65625,0.00589
910.59608,0.00553
908.53590,0.00515
906.47573,0.00480
904.41556,0.00459
902.35539,0.00452
900.29522,0.00436
898.23504,0.00419
896.17487,0.00430
894.11470,0.00457
892.05453,0.00478
889.99435,0.00484
887.93418,0.00463
885.87401,0.00416
883.81384,0.00357
881.75367,0.00305
879.69349,0.00269
877.63332,0.00257
875.57315,0.00258
873.51298,0.00239
871.45281,0.00191
869.39263,0.00151
867.33246,0.00162
865.27229,0.00208
863.21212,0.00241
861.15194,0.00247
859.09177,0.00238
857.03160,0.00221
854.97143,0.00203
852.91126,0.00200
850.85108,0.00207
848.79091,0.00203
846.73074,0.00189
844.67057,0.00175
842.61040,0.00150
840.55022,0.00114
838.49005,0.00084
836.42988,0.00067
834.36971,0.00064
832.30954,0.00072
830.24936,0.00082
828.18919,0.00078
826.12902,0.00063
824.06885,0.00065
822.00867,0.00093
819.94850,0.00105
817.88833,0.00072
815.82816,0.00040
813.76799,0.00072
811.70781,0.00145
809.64764,0.00188
807.58747,0.00173
805.52730,0.00136
803.46713,0.00117
801.40695,0.00124
799.34678,0.00134
797.28661,0.00129
795.22644,0.00120
793.16627,0.00114
791.10609,0.00103
789.04592,0.00077
786.98575,0.00033
784.92558,0.00000
782.86540,0.00025
780.80523,0.00103
778.74506,0.00162
776.68489,0.00161
774.62472,0.00130
772.56454,0.00113
770.50437,0.00111
768.44420,0.00116
766.38403,0.00124
764.32386,0.00130
762.26368,0.00115
760.20351,0.00082
758.14334,0.00073
756.08317,0.00108
754.02299,0.00147
751.96282,0.00159
749.90265,0.00133
747.84248,0.00080
745.78231,0.00035
743.72213,0.00036
741.66196,0.00085
739.60179,0.00139
737.54162,0.00180
735.48145,0.00215
733.42127,0.00207
731.36110,0.00134
729.30093,0.00050
727.24076,0.00020
725.18059,0.00052
723.12041,0.00121
721.06024,0.00205
719.00007,0.00280
716.93990,0.00319
714.87972,0.00310
712.81955,0.00263
710.75938,0.00196
708.69921,0.00136
706.63904,0.00118
704.57886,0.00155
702.51869,0.00223
700.45852,0.00285
698.39835,0.00324
696.33818,0.00348
694.27800,0.00356
692.21783,0.00336
690.15766,0.00295
688.09749,0.00251
686.03731,0.00213
683.97714,0.00183
681.91697,0.00174
679.85680,0.00205
677.79663,0.00258
675.73645,0.00279
673.67628,0.00237
671.61611,0.00152
669.55594,0.00059
667.49577,0.00000
665.43559,-0.00011
663.37542,0.00025
661.31525,0.00107
659.25508,0.00232
657.19491,0.00353
655.13473,0.00404
653.07456,0.00374
651.01439,0.00327
648.95422,0.00348
646.89404,0.00451
644.83387,0.00557
642.77370,0.00577
640.71353,0.00496
638.65336,0.00373
636.59318,0.00287
634.53301,0.00307
632.47284,0.00450
630.41267,0.00660
628.35250,0.00809
626.29232,0.00776
624.23215,0.00588
622.17198,0.00408
620.11181,0.00256
618.05164,0.00072
615.99146,0.00000
613.93129,0.00133
611.87112,0.00376
609.81095,0.00540
607.75077,0.00567
605.69060,0.00513
603.63043,0.00397
601.57026,0.00211
599.51009,0.00000
