3996.73391,-0.00001
3994.67373,0.00012
3992.61356,0.00024
3990.55339,0.00028
3988.49322,0.00029
3986.43305,0.00019
3984.37287,-0.00000
3982.31270,0.00000
3980.25253,0.00029
3978.19236,0.00063
3976.13219,0.00082
3974.07201,0.00081
3972.01184,0.00063
3969.95167,0.00048
3967.89150,0.00049
3965.83133,0.00056
3963.77115,0.00057
3961.71098,0.00047
3959.65081,0.00034
3957.59064,0.00035
3955.53046,0.00054
3953.47029,0.00069
3951.41012,0.00059
3949.34995,0.00043
3947.28978,0.00035
3945.22960,0.00028
3943.16943,0.00030
3941.10926,0.00048
3939.04909,0.00063
3936.98892,0.00061
3934.92874,0.00041
3932.86857,0.00018
3930.80840,0.00016
3928.74823,0.00026
3926.68805,0.00031
3924.62788,0.00032
3922.56771,0.00044
3920.50754,0.00070
3918.44737,0.00091
3916.38719,0.00089
3914.32702,0.00067
3912.26685,0.00055
3910.20668,0.00067
3908.14651,0.00073
3906.08633,0.00047
3904.02616,0.00015
3901.96599,0.00026
3899.90582,0.00063
3897.84565,0.00082
3895.78547,0.00075
3893.72530,0.00056
3891.66513,0.00054
3889.60496,0.00077
3887.54478,0.00098
3885.48461,0.00111
3883.42444,0.00114
3881.36427,0.00105
3879.30410,0.00102
3877.24392,0.00094
3875.18375,0.00085
3873.12358,0.00101
3871.06341,0.00136
3869.00324,0.00159
3866.94306,0.00159
3864.88289,0.00147
3862.82272,0.00132
3860.76255,0.00112
3858.70237,0.00099
3856.64220,0.00106
3854.58203,0.00122
3852.52186,0.00121
3850.46169,0.00115
3848.40151,0.00116
3846.34134,0.00117
3844.28117,0.00113
3842.22100,0.00116
3840.16083,0.00132
3838.10065,0.00146
3836.04048,0.00144
3833.98031,0.00138
3831.92014,0.00139
3829.85997,0.00148
3827.79979,0.00167
3825.73962,0.00161
3823.67945,0.00088
3821.61928,0.00000
3819.55910,0.00001
3817.49893,0.00078
3815.43876,0.00162
3813.37859,0.00211
3811.31842,0.00204
3809.25824,0.00162
3807.19807,0.00145
3805.13790,0.00164
3803.07773,0.00172
3801.01756,0.00173
3798.95738,0.00180
3796.89721,0.00185
3794.83704,0.00178
3792.77687,0.00158
3790.71670,0.00140
3788.65652,0.00134
3786.59635,0.00136
3784.53618,0.00132
3782.47601,0.00113
3780.41583,0.00105
3778.35566,0.00128
3776.29549,0.00157
3774.23532,0.00171
3772.17515,0.00180
3770.11497,0.00195
3768.05480,0.00210
3765.99463,0.00203
3763.93446,0.00177
3761.87429,0.00153
3759.81411,0.00156
3757.75394,0.00175
3755.69377,0.00183
3753.63360,0.00163
3751.57342,0.00093
3749.51325,0.00012
3747.45308,0.00000
3745.39291,0.00072
3743.33274,0.00169
3741.27256,0.00197
3739.21239,0.00171
3737.15222,0.00150
3735.09205,0.00139
3733.03188,0.00138
3730.97170,0.00171
3728.91153,0.00211
3726.85136,0.00232
3724.79119,0.00233
3722.73102,0.00212
3720.67084,0.00176
3718.61067,0.00154
3716.55050,0.00147
3714.49033,0.00150
3712.43015,0.00175
3710.36998,0.00216
3708.30981,0.00250
3706.24964,0.00250
3704.18947,0.00219
3702.12929,0.00189
3700.06912,0.00205
3698.00895,0.00253
3695.94878,0.00279
3693.88861,0.00256
3691.82843,0.00193
3689.76826,0.00154
3687.70809,0.00192
3685.64792,0.00245
3683.58775,0.00258
3681.52757,0.00249
3679.46740,0.00230
3677.40723,0.00190
3675.34706,0.00129
3673.28688,0.00095
3671.22671,0.00133
3669.16654,0.00242
3667.10637,0.00317
3665.04620,0.00313
3662.98602,0.00297
3660.92585,0.00319
3658.86568,0.00367
3656.80551,0.00406
3654.74534,0.00411
3652.68516,0.00373
3650.62499,0.00322
3648.56482,0.00327
3646.50465,0.00397
3644.44447,0.00445
3642.38430,0.00439
3640.32413,0.00436
3638.26396,0.00476
3636.20379,0.00536
3634.14361,0.00586
3632.08344,0.00609
3630.02327,0.00605
3627.96310,0.00603
3625.90293,0.00625
3623.84275,0.00649
3621.78258,0.00661
3619.72241,0.00670
3617.66224,0.00692
3615.60207,0.00719
3613.54189,0.00749
3611.48172,0.00808
3609.42155,0.00877
3607.36138,0.00914
3605.30120,0.00926
3603.24103,0.00942
3601.18086,0.00974
3599.12069,0.01000
3597.06052,0.01006
3595.00034,0.01009
3592.94017,0.01028
3590.88000,0.01052
3588.81983,0.01086
3586.75966,0.01128
3584.69948,0.01147
3582.63931,0.01138
3580.57914,0.01137
3578.51897,0.01173
3576.45879,0.01229
3574.39862,0.01285
3572.33845,0.01324
3570.27828,0.01335
3568.21811,0.01340
3566.15793,0.01378
3564.09776,0.01430
3562.03759,0.01475
3559.97742,0.01515
3557.91725,0.01552
3555.85707,0.01588
3553.79690,0.01623
3551.73673,0.01646
3549.67656,0.01660
3547.61639,0.01675
3545.55621,0.01683
3543.49604,0.01693
3541.43587,0.01736
3539.37570,0.01800
3537.31552,0.01833
3535.25535,0.01831
3533.19518,0.01834
3531.13501,0.01857
3529.07484,0.01888
3527.01466,0.01920
3524.95449,0.01963
3522.89432,0.02023
3520.83415,0.02070
3518.77398,0.02082
3516.71380,0.02076
3514.65363,0.02095
3512.59346,0.02147
3510.53329,0.02194
3508.47312,0.02213
3506.41294,0.02216
3504.35277,0.02226
3502.29260,0.02255
3500.23243,0.02288
3498.17225,0.02312
3496.11208,0.02338
3494.05191,0.02368
3491.99174,0.02388
3489.93157,0.02392
3487.87139,0.02397
3485.81122,0.02416
3483.75105,0.02443
3481.69088,0.02469
3479.63071,0.02494
3477.57053,0.02526
3475.51036,0.02560
3473.45019,0.02581
3471.39002,0.02603
3469.32984,0.02637
3467.26967,0.02656
3465.20950,0.02667
3463.14933,0.02695
3461.08916,0.02719
3459.02898,0.02734
3456.96881,0.02753
3454.90864,0.02777
3452.84847,0.02809
3450.78830,0.02851
3448.72812,0.02884
3446.66795,0.02898
3444.60778,0.02909
3442.54761,0.02930
3440.48744,0.02940
3438.42726,0.02936
3436.36709,0.02948
3434.30692,0.02975
3432.24675,0.03013
3430.18657,0.03051
3428.12640,0.03066
3426.06623,0.03062
3424.00606,0.03068
3421.94589,0.03099
3419.88571,0.03131
3417.82554,0.03140
3415.76537,0.03138
3413.70520,0.03140
3411.64503,0.03149
3409.58485,0.03162
3407.52468,0.03170
3405.46451,0.03182
3403.40434,0.03214
3401.34416,0.03254
3399.28399,0.03279
3397.22382,0.03291
3395.16365,0.03296
3393.10348,0.03286
3391.04330,0.03303
3388.98313,0.03348
3386.92296,0.03359
3384.86279,0.03345
3382.80262,0.03344
3380.74244,0.03346
3378.68227,0.03343
3376.62210,0.03368
3374.56193,0.03413
3372.50176,0.03430
3370.44158,0.03435
3368.38141,0.03447
3366.32124,0.03454
3364.26107,0.03468
3362.20089,0.03480
3360.14072,0.03490
3358.08055,0.03500
3356.02038,0.03492
3353.96021,0.03483
3351.90003,0.03505
3349.83986,0.03529
3347.77969,0.03519
3345.71952,0.03488
3343.65935,0.03468
3341.59917,0.03474
3339.53900,0.03485
3337.47883,0.03484
3335.41866,0.03483
3333.35849,0.03497
3331.29831,0.03516
3329.23814,0.03525
3327.17797,0.03529
3325.11780,0.03535
3323.05762,0.03523
3320.99745,0.03503
3318.93728,0.03497
3316.87711,0.03496
3314.81694,0.03504
3312.75676,0.03522
3310.69659,0.03527
3308.63642,0.03515
3306.57625,0.03503
3304.51608,0.03497
3302.45590,0.03492
3300.39573,0.03493
3298.33556,0.03494
3296.27539,0.03479
3294.21521,0.03466
3292.15504,0.03470
3290.09487,0.03472
3288.03470,0.03464
3285.97453,0.03468
3283.91435,0.03493
3281.85418,0.03521
3279.79401,0.03521
3277.73384,0.03501
3275.67367,0.03481
3273.61349,0.03466
3271.55332,0.03459
3269.49315,0.03458
3267.43298,0.03448
3265.37281,0.03430
3263.31263,0.03433
3261.25246,0.03450
3259.19229,0.03459
3257.13212,0.03469
3255.07194,0.03482
3253.01177,0.03471
3250.95160,0.03449
3248.89143,0.03434
3246.83126,0.03428
3244.77108,0.03422
3242.71091,0.03403
3240.65074,0.03377
3238.59057,0.03365
3236.53040,0.03355
3234.47022,0.03334
3232.41005,0.03324
3230.34988,0.03317
3228.28971,0.03294
3226.22954,0.03277
3224.16936,0.03287
3222.10919,0.03302
3220.04902,0.03286
3217.98885,0.03243
3215.92867,0.03208
3213.86850,0.03190
3211.80833,0.03174
3209.74816,0.03161
3207.68799,0.03152
3205.62781,0.03139
3203.56764,0.03124
3201.50747,0.03113
3199.44730,0.03101
3197.38713,0.03087
3195.32695,0.03077
3193.26678,0.03058
3191.20661,0.03016
3189.14644,0.02978
3187.08626,0.02965
3185.02609,0.02950
3182.96592,0.02917
3180.90575,0.02893
3178.84558,0.02890
3176.78540,0.02890
3174.72523,0.02869
3172.66506,0.02830
3170.60489,0.02791
3168.54472,0.02755
3166.48454,0.02708
3164.42437,0.02662
3162.36420,0.02648
3160.30403,0.02641
3158.24386,0.02616
3156.18368,0.02598
3154.12351,0.02590
3152.06334,0.02574
3150.00317,0.02551
3147.94299,0.02528
3145.88282,0.02510
3143.82265,0.02491
3141.76248,0.02465
3139.70231,0.02442
3137.64213,0.02417
3135.58196,0.02380
3133.52179,0.02349
3131.46162,0.02323
3129.40145,0.02299
3127.34127,0.02288
3125.28110,0.02285
3123.22093,0.02271
3121.16076,0.02234
3119.10058,0.02180
3117.04041,0.02134
3114.98024,0.02107
3112.92007,0.02087
3110.85990,0.02064
3108.79972,0.02040
3106.73955,0.02020
3104.67938,0.01991
3102.61921,0.01951
3100.55904,0.01925
3098.49886,0.01915
3096.43869,0.01907
3094.37852,0.01898
3092.31835,0.01887
3090.25818,0.01870
3088.19800,0.01843
3086.13783,0.01821
3084.07766,0.01803
3082.01749,0.01786
3079.95731,0.01773
3077.89714,0.01751
3075.83697,0.01717
3073.77680,0.01697
3071.71663,0.01688
3069.65645,0.01661
3067.59628,0.01617
3065.53611,0.01590
3063.47594,0.01578
3061.41577,0.01565
3059.35559,0.01550
3057.29542,0.01533
3055.23525,0.01511
3053.17508,0.01486
3051.11491,0.01469
3049.05473,0.01456
3046.99456,0.01436
3044.93439,0.01417
3042.87422,0.01402
3040.81404,0.01390
3038.75387,0.01384
3036.69370,0.01372
3034.63353,0.01353
3032.57336,0.01339
3030.51318,0.01321
3028.45301,0.01301
3026.39284,0.01289
3024.33267,0.01268
3022.27250,0.01238
3020.21232,0.01222
3018.15215,0.01223
3016.09198,0.01228
3014.03181,0.01221
3011.97163,0.01205
3009.91146,0.01187
3007.85129,0.01178
3005.79112,0.01181
3003.73095,0.01177
3001.67077,0.01151
2999.61060,0.01119
2997.55043,0.01104
2995.49026,0.01108
2993.43009,0.01124
2991.36991,0.01142
2989.30974,0.01144
2987.24957,0.01145
2985.18940,0.01166
2983.12923,0.01175
2981.06905,0.01172
2979.00888,0.01176
2976.94871,0.01195
2974.88854,0.01217
2972.82836,0.01221
2970.76819,0.01215
2968.70802,0.01215
2966.64785,0.01221
2964.58768,0.01236
2962.52750,0.01268
2960.46733,0.01302
2958.40716,0.01331
2956.34699,0.01359
2954.28682,0.01377
2952.22664,0.01406
2950.16647,0.01453
2948.10630,0.01486
2946.04613,0.01492
2943.98596,0.01481
2941.92578,0.01481
2939.86561,0.01502
2937.80544,0.01528
2935.74527,0.01562
2933.68509,0.01589
2931.62492,0.01599
2929.56475,0.01593
2927.50458,0.01570
2925.44441,0.01538
2923.38423,0.01513
2921.32406,0.01505
2919.26389,0.01508
2917.20372,0.01495
2915.14355,0.01468
2913.08337,0.01447
2911.02320,0.01426
2908.96303,0.01410
2906.90286,0.01407
2904.84268,0.01404
2902.78251,0.01389
2900.72234,0.01372
2898.66217,0.01366
2896.60200,0.01368
2894.54182,0.01382
2892.48165,0.01391
2890.42148,0.01371
2888.36131,0.01346
2886.30114,0.01343
2884.24096,0.01354
2882.18079,0.01350
2880.12062,0.01319
2878.06045,0.01281
2876.00028,0.01262
2873.94010,0.01267
2871.87993,0.01265
2869.81976,0.01241
2867.75959,0.01223
2865.69941,0.01209
2863.63924,0.01187
2861.57907,0.01161
2859.51890,0.01141
2857.45873,0.01124
2855.39855,0.01096
2853.33838,0.01062
2851.27821,0.01047
2849.21804,0.01059
2847.15787,0.01071
2845.09769,0.01055
2843.03752,0.01023
2840.97735,0.00997
2838.91718,0.00986
2836.85700,0.00974
2834.79683,0.00959
2832.73666,0.00954
2830.67649,0.00952
2828.61632,0.00947
2826.55614,0.00929
2824.49597,0.00899
2822.43580,0.00880
2820.37563,0.00881
2818.31546,0.00879
2816.25528,0.00871
2814.19511,0.00873
2812.13494,0.00880
2810.07477,0.00879
2808.01460,0.00866
2805.95442,0.00854
2803.89425,0.00843
2801.83408,0.00822
2799.77391,0.00807
2797.71373,0.00810
2795.65356,0.00813
2793.59339,0.00809
2791.53322,0.00809
2789.47305,0.00818
2787.41287,0.00821
2785.35270,0.00809
2783.29253,0.00798
2781.23236,0.00792
2779.17219,0.00787
2777.11201,0.00779
2775.05184,0.00766
2772.99167,0.00767
2770.93150,0.00777
2768.87133,0.00774
2766.81115,0.00759
2764.75098,0.00749
2762.69081,0.00744
2760.63064,0.00736
2758.57046,0.00727
2756.51029,0.00720
2754.45012,0.00713
2752.38995,0.00706
2750.32978,0.00706
2748.26960,0.00708
2746.20943,0.00703
2744.14926,0.00695
2742.08909,0.00701
2740.02892,0.00720
2737.96874,0.00733
2735.90857,0.00733
2733.84840,0.00732
2731.78823,0.00733
2729.72805,0.00732
2727.66788,0.00732
2725.60771,0.00729
2723.54754,0.00709
2721.48737,0.00684
2719.42719,0.00673
2717.36702,0.00670
2715.30685,0.00657
2713.24668,0.00644
2711.18651,0.00644
2709.12633,0.00646
2707.06616,0.00643
2705.00599,0.00640
2702.94582,0.00639
2700.88565,0.00653
2698.82547,0.00672
2696.76530,0.00676
2694.70513,0.00660
2692.64496,0.00638
2690.58478,0.00632
2688.52461,0.00641
2686.46444,0.00644
2684.40427,0.00634
2682.34410,0.00624
2680.28392,0.00619
2678.22375,0.00618
2676.16358,0.00619
2674.10341,0.00611
2672.04324,0.00598
2669.98306,0.00595
2667.92289,0.00601
2665.86272,0.00591
2663.80255,0.00572
2661.74238,0.00568
2659.68220,0.00578
2657.62203,0.00590
2655.56186,0.00605
2653.50169,0.00618
2651.44151,0.00613
2649.38134,0.00596
2647.32117,0.00587
2645.26100,0.00580
2643.20083,0.00566
2641.14065,0.00548
2639.08048,0.00534
2637.02031,0.00534
2634.96014,0.00538
2632.89997,0.00527
2630.83979,0.00512
2628.77962,0.00512
2626.71945,0.00521
2624.65928,0.00513
2622.59910,0.00492
2620.53893,0.00490
2618.47876,0.00498
2616.41859,0.00485
2614.35842,0.00458
2612.29824,0.00440
2610.23807,0.00440
2608.17790,0.00456
2606.11773,0.00476
2604.05756,0.00490
2601.99738,0.00498
2599.93721,0.00491
2597.87704,0.00462
2595.81687,0.00443
2593.75670,0.00450
2591.69652,0.00452
2589.63635,0.00437
2587.57618,0.00419
2585.51601,0.00415
2583.45583,0.00414
2581.39566,0.00395
2579.33549,0.00384
2577.27532,0.00401
2575.21515,0.00424
2573.15497,0.00442
2571.09480,0.00448
2569.03463,0.00439
2566.97446,0.00416
2564.91429,0.00389
2562.85411,0.00383
2560.79394,0.00407
2558.73377,0.00435
2556.67360,0.00438
2554.61342,0.00428
2552.55325,0.00427
2550.49308,0.00423
2548.43291,0.00420
2546.37274,0.00432
2544.31256,0.00432
2542.25239,0.00402
2540.19222,0.00372
2538.13205,0.00368
2536.07188,0.00386
2534.01170,0.00395
2531.95153,0.00384
2529.89136,0.00383
2527.83119,0.00395
2525.77102,0.00390
2523.71084,0.00375
2521.65067,0.00375
2519.59050,0.00378
2517.53033,0.00376
2515.47015,0.00390
2513.40998,0.00423
2511.34981,0.00438
2509.28964,0.00406
2507.22947,0.00367
2505.16929,0.00374
2503.10912,0.00399
2501.04895,0.00398
2498.98878,0.00383
2496.92861,0.00369
2494.86843,0.00345
2492.80826,0.00328
2490.74809,0.00336
2488.68792,0.00352
2486.62775,0.00343
2484.56757,0.00313
2482.50740,0.00301
2480.44723,0.00312
2478.38706,0.00313
2476.32688,0.00317
2474.26671,0.00334
2472.20654,0.00332
2470.14637,0.00325
2468.08620,0.00328
2466.02602,0.00319
2463.96585,0.00317
2461.90568,0.00327
2459.84551,0.00331
2457.78534,0.00339
2455.72516,0.00351
2453.66499,0.00352
2451.60482,0.00347
2449.54465,0.00349
2447.48447,0.00350
2445.42430,0.00330
2443.36413,0.00325
2441.30396,0.00336
2439.24379,0.00311
2437.18361,0.00275
2435.12344,0.00278
2433.06327,0.00281
2431.00310,0.00258
2428.94293,0.00258
2426.88275,0.00307
2424.82258,0.00367
2422.76241,0.00392
2420.70224,0.00377
2418.64207,0.00358
2416.58189,0.00358
2414.52172,0.00365
2412.46155,0.00372
2410.40138,0.00364
2408.34120,0.00324
2406.28103,0.00287
2404.22086,0.00293
2402.16069,0.00324
2400.10052,0.00330
2398.04034,0.00290
2395.98017,0.00260
2393.92000,0.00276
2391.85983,0.00316
2389.79966,0.00328
2387.73948,0.00308
2385.67931,0.00286
2383.61914,0.00284
2381.55897,0.00303
2379.49880,0.00320
2377.43862,0.00320
2375.37845,0.00350
2373.31828,0.00399
2371.25811,0.00441
2369.19793,0.00487
2367.13776,0.00490
2365.07759,0.00443
2363.01742,0.00439
2360.95725,0.00384
2358.89707,0.00487
2356.83690,0.00637
2354.77673,0.00671
2352.71656,0.00593
2350.65639,0.00358
2348.59621,0.00231
2346.53604,0.00497
2344.47587,0.00579
2342.41570,0.00511
2340.35552,0.00423
2338.29535,0.00342
2336.23518,0.00327
2334.17501,0.00377
2332.11484,0.00473
2330.05466,0.00514
2327.99449,0.00506
2325.93432,0.00430
2323.87415,0.00401
2321.81398,0.00371
2319.75380,0.00384
2317.69363,0.00388
2315.63346,0.00435
2313.57329,0.00480
2311.51312,0.00483
2309.45294,0.00462
2307.39277,0.00413
2305.33260,0.00354
2303.27243,0.00326
2301.21225,0.00344
2299.15208,0.00361
2297.09191,0.00379
2295.03174,0.00402
2292.97157,0.00404
2290.91139,0.00387
2288.85122,0.00358
2286.79105,0.00325
2284.73088,0.00311
2282.67071,0.00327
2280.61053,0.00350
2278.55036,0.00346
2276.49019,0.00312
2274.43002,0.00275
2272.36984,0.00266
2270.30967,0.00266
2268.24950,0.00248
2266.18933,0.00229
2264.12916,0.00254
2262.06898,0.00302
2260.00881,0.00308
2257.94864,0.00253
2255.88847,0.00194
2253.82830,0.00201
2251.76812,0.00256
2249.70795,0.00288
2247.64778,0.00307
2245.58761,0.00362
2243.52744,0.00401
2241.46726,0.00352
2239.40709,0.00307
2237.34692,0.00333
2235.28675,0.00358
2233.22657,0.00364
2231.16640,0.00376
2229.10623,0.00354
2227.04606,0.00310
2224.98589,0.00300
2222.92571,0.00330
2220.86554,0.00385
2218.80537,0.00398
2216.74520,0.00312
2214.68503,0.00193
2212.62485,0.00128
2210.56468,0.00158
2208.50451,0.00225
2206.44434,0.00214
2204.38417,0.00187
2202.32399,0.00215
2200.26382,0.00218
2198.20365,0.00198
2196.14348,0.00220
2194.08330,0.00300
2192.02313,0.00365
2189.96296,0.00356
2187.90279,0.00314
2185.84262,0.00238
2183.78244,0.00159
2181.72227,0.00144
2179.66210,0.00155
2177.60193,0.00140
2175.54176,0.00151
2173.48158,0.00213
2171.42141,0.00237
2169.36124,0.00210
2167.30107,0.00233
2165.24089,0.00280
2163.18072,0.00239
2161.12055,0.00118
2159.06038,0.00053
2157.00021,0.00138
2154.94003,0.00207
2152.87986,0.00136
2150.81969,0.00091
2148.75952,0.00128
2146.69935,0.00130
2144.63917,0.00127
2142.57900,0.00176
2140.51883,0.00221
2138.45866,0.00189
2136.39849,0.00137
2134.33831,0.00152
2132.27814,0.00198
2130.21797,0.00251
2128.15780,0.00301
2126.09762,0.00304
2124.03745,0.00258
2121.97728,0.00236
2119.91711,0.00275
2117.85694,0.00325
2115.79676,0.00363
2113.73659,0.00388
2111.67642,0.00376
2109.61625,0.00326
2107.55608,0.00287
2105.49590,0.00270
2103.43573,0.00246
2101.37556,0.00221
2099.31539,0.00214
2097.25521,0.00247
2095.19504,0.00302
2093.13487,0.00344
2091.07470,0.00364
2089.01453,0.00348
2086.95435,0.00293
2084.89418,0.00254
2082.83401,0.00251
2080.77384,0.00234
2078.71367,0.00230
2076.65349,0.00275
2074.59332,0.00320
2072.53315,0.00333
2070.47298,0.00336
2068.41281,0.00344
2066.35263,0.00335
2064.29246,0.00311
2062.23229,0.00301
2060.17212,0.00285
2058.11194,0.00251
2056.05177,0.00229
2053.99160,0.00248
2051.93143,0.00301
2049.87126,0.00331
2047.81108,0.00331
2045.75091,0.00345
2043.69074,0.00344
2041.63057,0.00318
2039.57040,0.00334
2037.51022,0.00306
2035.45005,0.00184
2033.38988,0.00116
2031.32971,0.00086
2029.26954,0.00053
2027.20936,0.00068
2025.14919,0.00077
2023.08902,0.00038
2021.02885,0.00001
2018.96867,0.00026
2016.90850,0.00087
2014.84833,0.00098
2012.78816,0.00052
2010.72799,0.00028
2008.66781,0.00073
2006.60764,0.00147
2004.54747,0.00209
2002.48730,0.00239
2000.42713,0.00200
1998.36695,0.00140
1996.30678,0.00163
1994.24661,0.00232
1992.18644,0.00250
1990.12626,0.00240
1988.06609,0.00247
1986.00592,0.00225
1983.94575,0.00155
1981.88558,0.00127
1979.82540,0.00141
1977.76523,0.00092
1975.70506,0.00014
1973.64489,0.00000
1971.58472,0.00031
1969.52454,0.00054
1967.46437,0.00060
1965.40420,0.00089
1963.34403,0.00106
1961.28386,0.00084
1959.22368,0.00092
1957.16351,0.00117
1955.10334,0.00082
1953.04317,0.00042
1950.98299,0.00102
1948.92282,0.00195
1946.86265,0.00194
1944.80248,0.00140
1942.74231,0.00123
1940.68213,0.00134
1938.62196,0.00131
1936.56179,0.00103
1934.50162,0.00069
1932.44145,0.00069
1930.38127,0.00105
1928.32110,0.00130
1926.26093,0.00111
1924.20076,0.00069
1922.14059,0.00036
1920.08041,0.00028
1918.02024,0.00039
1915.96007,0.00066
1913.89990,0.00102
1911.83972,0.00138
1909.77955,0.00146
1907.71938,0.00112
1905.65921,0.00079
1903.59904,0.00079
1901.53886,0.00105
1899.47869,0.00132
1897.41852,0.00119
1895.35835,0.00072
1893.29818,0.00048
1891.23800,0.00067
1889.17783,0.00098
1887.11766,0.00102
1885.05749,0.00088
1882.99731,0.00085
1880.93714,0.00094
1878.87697,0.00110
1876.81680,0.00130
1874.75663,0.00132
1872.69645,0.00105
1870.63628,0.00082
1868.57611,0.00089
1866.51594,0.00114
1864.45577,0.00125
1862.39559,0.00117
1860.33542,0.00104
1858.27525,0.00104
1856.21508,0.00119
1854.15491,0.00128
1852.09473,0.00126
1850.03456,0.00125
1847.97439,0.00119
1845.91422,0.00099
1843.85404,0.00076
1841.79387,0.00064
1839.73370,0.00073
1837.67353,0.00095
1835.61336,0.00109
1833.55318,0.00098
1831.49301,0.00072
1829.43284,0.00051
1827.37267,0.00042
1825.31250,0.00044
1823.25232,0.00059
1821.19215,0.00067
1819.13198,0.00059
1817.07181,0.00051
1815.01163,0.00059
1812.95146,0.00063
1810.89129,0.00047
1808.83112,0.00035
1806.77095,0.00039
1804.71077,0.00042
1802.65060,0.00037
1800.59043,0.00035
1798.53026,0.00034
1796.47009,0.00026
1794.40991,0.00018
1792.34974,0.00015
1790.28957,0.00018
1788.22940,0.00025
1786.16923,0.00044
1784.10905,0.00064
1782.04888,0.00057
1779.98871,0.00037
1777.92854,0.00037
1775.86836,0.00041
1773.80819,0.00039
1771.74802,0.00054
1769.68785,0.00085
1767.62768,0.00111
1765.56750,0.00127
1763.50733,0.00138
1761.44716,0.00162
1759.38699,0.00203
1757.32682,0.00251
1755.26664,0.00295
1753.20647,0.00319
1751.14630,0.00339
1749.08613,0.00392
1747.02596,0.00464
1744.96578,0.00510
1742.90561,0.00532
1740.84544,0.00555
1738.78527,0.00567
1736.72509,0.00554
1734.66492,0.00541
1732.60475,0.00573
1730.54458,0.00621
1728.48441,0.00641
1726.42423,0.00635
1724.36406,0.00621
1722.30389,0.00604
1720.24372,0.00568
1718.18355,0.00512
1716.12337,0.00480
1714.06320,0.00481
1712.00303,0.00467
1709.94286,0.00426
1707.88268,0.00386
1705.82251,0.00378
1703.76234,0.00389
1701.70217,0.00383
1699.64200,0.00363
1697.58182,0.00372
1695.52165,0.00429
1693.46148,0.00487
1691.40131,0.00509
1689.34114,0.00501
1687.28096,0.00477
1685.22079,0.00469
1683.16062,0.00519
1681.10045,0.00592
1679.04028,0.00651
1676.98010,0.00698
1674.91993,0.00740
1672.85976,0.00781
1670.79959,0.00841
1668.73941,0.00932
1666.67924,0.01015
1664.61907,0.01068
1662.55890,0.01124
1660.49873,0.01194
1658.43855,0.01246
1656.37838,0.01268
1654.31821,0.01293
1652.25804,0.01355
1650.19787,0.01407
1648.13769,0.01432
1646.07752,0.01460
1644.01735,0.01491
1641.95718,0.01510
1639.89701,0.01512
1637.83683,0.01502
1635.77666,0.01520
1633.71649,0.01564
1631.65632,0.01586
1629.59614,0.01581
1627.53597,0.01569
1625.47580,0.01566
1623.41563,0.01567
1621.35546,0.01558
1619.29528,0.01537
1617.23511,0.01523
1615.17494,0.01531
1613.11477,0.01533
1611.05460,0.01507
1608.99442,0.01458
1606.93425,0.01399
1604.87408,0.01338
1602.81391,0.01277
1600.75373,0.01224
1598.69356,0.01179
1596.63339,0.01124
1594.57322,0.01051
1592.51305,0.00973
1590.45287,0.00897
1588.39270,0.00818
1586.33253,0.00747
1584.27236,0.00691
1582.21219,0.00649
1580.15201,0.00607
1578.09184,0.00551
1576.03167,0.00494
1573.97150,0.00449
1571.91133,0.00398
1569.85115,0.00348
1567.79098,0.00321
1565.73081,0.00306
1563.67064,0.00282
1561.61046,0.00237
1559.55029,0.00184
1557.49012,0.00168
1555.42995,0.00187
1553.36978,0.00205
1551.30960,0.00201
1549.24943,0.00178
1547.18926,0.00139
1545.12909,0.00077
1543.06892,0.00018
1541.00874,0.00015
1538.94857,0.00072
1536.88840,0.00110
1534.82823,0.00103
1532.76805,0.00082
1530.70788,0.00064
1528.64771,0.00043
1526.58754,0.00025
1524.52737,0.00009
1522.46719,0.00000
1520.40702,0.00009
1518.34685,0.00020
1516.28668,0.00021
1514.22651,0.00024
1512.16633,0.00026
1510.10616,0.00006
1508.04599,-0.00024
1505.98582,-0.00017
1503.92565,0.00017
1501.86547,0.00034
1499.80530,0.00038
1497.74513,0.00046
1495.68496,0.00068
1493.62478,0.00083
1491.56461,0.00084
1489.50444,0.00094
1487.44427,0.00119
1485.38410,0.00140
1483.32392,0.00154
1481.26375,0.00173
1479.20358,0.00200
1477.14341,0.00232
1475.08324,0.00264
1473.02306,0.00306
1470.96289,0.00370
1468.90272,0.00434
1466.84255,0.00480
1464.78238,0.00510
1462.72220,0.00527
1460.66203,0.00533
1458.60186,0.00539
1456.54169,0.00572
1454.48151,0.00623
1452.42134,0.00657
1450.36117,0.00672
1448.30100,0.00695
1446.24083,0.00736
1444.18065,0.00774
1442.12048,0.00794
1440.06031,0.00807
1438.00014,0.00826
1435.93997,0.00852
1433.87979,0.00881
1431.81962,0.00913
1429.75945,0.00954
1427.69928,0.00999
1425.63910,0.01034
1423.57893,0.01061
1421.51876,0.01091
1419.45859,0.01125
1417.39842,0.01155
1415.33824,0.01170
1413.27807,0.01173
1411.21790,0.01170
1409.15773,0.01163
1407.09756,0.01146
1405.03738,0.01116
1402.97721,0.01082
1400.91704,0.01046
1398.85687,0.01008
1396.79670,0.00972
1394.73652,0.00948
1392.67635,0.00939
1390.61618,0.00929
1388.55601,0.00920
1386.49583,0.00932
1384.43566,0.00963
1382.37549,0.00997
1380.31532,0.01029
1378.25515,0.01055
1376.19497,0.01080
1374.13480,0.01103
1372.07463,0.01116
1370.01446,0.01115
1367.95429,0.01099
1365.89411,0.01074
1363.83394,0.01055
1361.77377,0.01044
1359.71360,0.01032
1357.65343,0.01015
1355.59325,0.01003
1353.53308,0.01001
1351.47291,0.01004
1349.41274,0.00999
1347.35256,0.00971
1345.29239,0.00930
1343.23222,0.00900
1341.17205,0.00886
1339.11188,0.00877
1337.05170,0.00876
1334.99153,0.00885
1332.93136,0.00896
1330.87119,0.00902
1328.81102,0.00899
1326.75084,0.00893
1324.69067,0.00893
1322.63050,0.00903
1320.57033,0.00916
1318.51015,0.00921
1316.44998,0.00916
1314.38981,0.00911
1312.32964,0.00907
1310.26947,0.00893
1308.20929,0.00872
1306.14912,0.00860
1304.08895,0.00852
1302.02878,0.00832
1299.96861,0.00805
1297.90843,0.00783
1295.84826,0.00766
1293.78809,0.00751
1291.72792,0.00744
1289.66775,0.00742
1287.60757,0.00738
1285.54740,0.00734
1283.48723,0.00728
1281.42706,0.00719
1279.36688,0.00718
1277.30671,0.00731
1275.24654,0.00747
1273.18637,0.00765
1271.12620,0.00794
1269.06602,0.00830
1267.00585,0.00869
1264.94568,0.00925
1262.88551,0.00999
1260.82534,0.01063
1258.76516,0.01110
1256.70499,0.01152
1254.64482,0.01181
1252.58465,0.01198
1250.52447,0.01216
1248.46430,0.01233
1246.40413,0.01237
1244.34396,0.01225
1242.28379,0.01206
1240.22361,0.01177
1238.16344,0.01138
1236.10327,0.01106
1234.04310,0.01080
1231.98293,0.01044
1229.92275,0.00996
1227.86258,0.00953
1225.80241,0.00910
1223.74224,0.00859
1221.68207,0.00810
1219.62189,0.00764
1217.56172,0.00709
1215.50155,0.00646
1213.44138,0.00595
1211.38120,0.00548
1209.32103,0.00489
1207.26086,0.00424
1205.20069,0.00350
1203.14052,0.00269
1201.08034,0.00199
1199.02017,0.00138
1196.96000,0.00081
1194.89983,0.00046
1192.83966,0.00032
1190.77948,0.00016
1188.71931,0.00000
1186.65914,-0.00008
1184.59897,-0.00002
1182.53880,0.00016
1180.47862,0.00061
1178.41845,0.00132
1176.35828,0.00201
1174.29811,0.00265
1172.23793,0.00341
1170.17776,0.00426
1168.11759,0.00516
1166.05742,0.00617
1163.99725,0.00730
1161.93707,0.00837
1159.87690,0.00930
1157.81673,0.01017
1155.75656,0.01090
1153.69639,0.01142
1151.63621,0.01189
1149.57604,0.01246
1147.51587,0.01316
1145.45570,0.01381
1143.39552,0.01417
1141.33535,0.01432
1139.27518,0.01454
1137.21501,0.01475
1135.15484,0.01490
1133.09466,0.01518
1131.03449,0.01568
1128.97432,0.01635
1126.91415,0.01712
1124.85398,0.01793
1122.79380,0.01868
1120.73363,0.01935
1118.67346,0.01996
1116.61329,0.02064
1114.55312,0.02128
1112.49294,0.02183
1110.43277,0.02238
1108.37260,0.02305
1106.31243,0.02393
1104.25225,0.02492
1102.19208,0.02591
1100.13191,0.02705
1098.07174,0.02846
1096.01157,0.02997
1093.95139,0.03142
1091.89122,0.03278
1089.83105,0.03400
1087.77088,0.03505
1085.71071,0.03589
1083.65053,0.03666
1081.59036,0.03755
1079.53019,0.03872
1077.47002,0.04010
1075.40985,0.04135
1073.34967,0.04235
1071.28950,0.04322
1069.22933,0.04397
1067.16916,0.04452
1065.10898,0.04491
1063.04881,0.04529
1060.98864,0.04571
1058.92847,0.04619
1056.86830,0.04671
1054.80812,0.04723
1052.74795,0.04788
1050.68778,0.04875
1048.62761,0.04972
1046.56744,0.05069
1044.50726,0.05161
1042.44709,0.05239
1040.38692,0.05293
1038.32675,0.05325
1036.26657,0.05337
1034.20640,0.05341
1032.14623,0.05333
1030.08606,0.05306
1028.02589,0.05274
1025.96571,0.05247
1023.90554,0.05225
1021.84537,0.05195
1019.78520,0.05151
1017.72503,0.05114
1015.66485,0.05087
1013.60468,0.05052
1011.54451,0.05002
1009.48434,0.04948
1007.42417,0.04895
1005.36399,0.04841
1003.30382,0.04759
1001.24365,0.04631
999.18348,0.04486
997.12330,0.04362
995.06313,0.04267
993.00296,0.04179
990.94279,0.04085
988.88262,0.04001
986.82244,0.03937
984.76227,0.03897
982.70210,0.03858
980.64193,0.03780
978.58176,0.03680
976.52158,0.03601
974.46141,0.03545
972.40124,0.03493
970.34107,0.03421
968.28089,0.03315
966.22072,0.03196
964.16055,0.03096
962.10038,0.03004
960.04021,0.02905
957.98003,0.02812
955.91986,0.02733
953.85969,0.02659
951.79952,0.02576
949.73935,0.02479
947.67917,0.02365
945.61900,0.02227
943.55883,0.02073
941.49866,0.01914
939.43849,0.01741
937.37831,0.01554
935.31814,0.01364
933.25797,0.01184
931.19780,0.01036
929.13762,0.00924
927.07745,0.00835
925.01728,0.00753
922.95711,0.00670
920.89694,0.00614
918.83676,0.00578
916.77659,0.00511
914.71642,0.00419
912.65625,0.00364
910.59608,0.00356
908.53590,0.00339
906.47573,0.00308
904.41556,0.00310
902.35539,0.00327
900.29522,0.00337
898.23504,0.00355
896.17487,0.00387
894.11470,0.00435
892.05453,0.00456
889.99435,0.00428
887.93418,0.00380
885.87401,0.00355
883.81384,0.00357
881.75367,0.00334
879.69349,0.00267
877.63332,0.00218
875.57315,0.00221
873.51298,0.00225
871.45281,0.00204
869.39263,0.00181
867.33246,0.00167
865.27229,0.00151
863.21212,0.00135
861.15194,0.00150
859.09177,0.00169
857.03160,0.00148
854.97143,0.00129
852.91126,0.00148
850.85108,0.00166
848.79091,0.00160
846.73074,0.00139
844.67057,0.00121
842.61040,0.00100
840.55022,0.00065
838.49005,0.00042
836.42988,0.00025
834.36971,0.00000
832.30954,-0.00022
830.24936,-0.00021
828.18919,-0.00030
826.12902,-0.00058
824.06885,-0.00077
822.00867,-0.00055
819.94850,-0.00014
817.88833,-0.00013
815.82816,-0.00027
813.76799,-0.00015
811.70781,0.00016
809.64764,0.00034
807.58747,0.00042
805.52730,0.00062
803.46713,0.00081
801.40695,0.00096
799.34678,0.00105
797.28661,0.00086
795.22644,0.00031
793.16627,-0.00021
791.10609,-0.00047
789.04592,-0.00055
786.98575,-0.00046
784.92558,-0.00030
782.86540,-0.00026
780.80523,-0.00023
778.74506,0.00010
776.68489,0.00050
774.62472,0.00051
772.56454,0.00027
770.50437,0.00040
768.44420,0.00087
766.38403,0.00085
764.32386,0.00041
762.26368,0.00022
760.20351,0.00006
758.14334,-0.00011
756.08317,0.00010
754.02299,0.00017
751.96282,0.00000
749.90265,0.00005
747.84248,0.00018
745.78231,0.00018
743.72213,0.00011
741.66196,-0.00014
739.60179,-0.00041
737.54162,-0.00033
735.48145,0.00005
733.42127,0.00025
731.36110,0.00016
729.30093,0.00001
727.24076,-0.00009
725.18059,-0.00001
723.12041,0.00038
721.06024,0.00134
719.00007,0.00181
716.93990,0.00224
714.87972,0.00292
712.81955,0.00310
710.75938,0.00276
708.69921,0.00281
706.63904,0.00346
704.57886,0.00402
702.51869,0.00412
700.45852,0.00404
698.39835,0.00403
696.33818,0.00388
694.27800,0.00362
692.21783,0.00358
690.15766,0.00371
688.09749,0.00381
686.03731,0.00368
683.97714,0.00324
681.91697,0.00271
679.85680,0.00253
677.79663,0.00290
675.73645,0.00327
673.67628,0.00224
671.61611,0.00000
669.55594,0.00199
667.49577,0.00542
665.43559,0.00060
663.37542,0.00122
661.31525,0.00213
659.25508,0.00171
657.19491,0.00131
655.13473,0.00135
653.07456,0.00138
651.01439,0.00100
648.95422,0.00054
646.89404,0.00049
644.83387,0.00125
642.77370,0.00191
640.71353,0.00180
638.65336,0.00134
636.59318,0.00118
634.53301,0.00134
632.47284,0.00190
630.41267,0.00268
628.35250,0.00272
626.29232,0.00167
624.23215,0.00053
622.17198,-0.00029
620.11181,-0.00045
618.05164,0.00011
615.99146,0.00063
613.93129,0.00018
611.87112,0.00005
609.81095,0.00174
607.75077,0.00341
605.69060,0.00312
603.63043,0.00234
601.57026,0.00153
599.51009,0.00000
