3996.73391,0.00008
3994.67373,0.00035
3992.61356,0.00058
3990.55339,0.00073
3988.49322,0.00072
3986.43305,0.00055
3984.37287,0.00034
3982.31270,0.00020
3980.25253,0.00021
3978.19236,0.00035
3976.13219,0.00051
3974.07201,0.00062
3972.01184,0.00063
3969.95167,0.00054
3967.89150,0.00036
3965.83133,0.00015
3963.77115,0.00001
3961.71098,0.00000
3959.65081,0.00008
3957.59064,0.00022
3955.53046,0.00038
3953.47029,0.00051
3951.41012,0.00056
3949.34995,0.00050
3947.28978,0.00039
3945.22960,0.00034
3943.16943,0.00038
3941.10926,0.00049
3939.04909,0.00066
3936.98892,0.00087
3934.92874,0.00101
3932.86857,0.00098
3930.80840,0.00078
3928.74823,0.00049
3926.68805,0.00024
3924.62788,0.00015
3922.56771,0.00030
3920.50754,0.00062
3918.44737,0.00093
3916.38719,0.00108
3914.32702,0.00107
3912.26685,0.00100
3910.20668,0.00099
3908.14651,0.00109
3906.08633,0.00128
3904.02616,0.00147
3901.96599,0.00157
3899.90582,0.00153
3897.84565,0.00137
3895.78547,0.00119
3893.72530,0.00104
3891.66513,0.00093
3889.60496,0.00085
3887.54478,0.00080
3885.48461,0.00075
3883.42444,0.00066
3881.36427,0.00055
3879.30410,0.00046
3877.24392,0.00047
3875.18375,0.00064
3873.12358,0.00086
3871.06341,0.00102
3869.00324,0.00102
3866.94306,0.00088
3864.88289,0.00068
3862.82272,0.00046
3860.76255,0.00035
3858.70237,0.00045
3856.64220,0.00077
3854.58203,0.00112
3852.52186,0.00127
3850.46169,0.00120
3848.40151,0.00112
3846.34134,0.00113
3844.28117,0.00114
3842.22100,0.00098
3840.16083,0.00068
3838.10065,0.00040
3836.04048,0.00031
3833.98031,0.00043
3831.92014,0.00065
3829.85997,0.00082
3827.79979,0.00084
3825.73962,0.00081
3823.67945,0.00094
3821.61928,0.00123
3819.55910,0.00144
3817.49893,0.00140
3815.43876,0.00122
3813.37859,0.00101
3811.31842,0.00086
3809.25824,0.00077
3807.19807,0.00072
3805.13790,0.00074
3803.07773,0.00086
3801.01756,0.00098
3798.95738,0.00098
3796.89721,0.00088
3794.83704,0.00075
3792.77687,0.00068
3790.71670,0.00074
3788.65652,0.00089
3786.59635,0.00102
3784.53618,0.00103
3782.47601,0.00098
3780.41583,0.00091
3778.35566,0.00083
3776.29549,0.00075
3774.23532,0.00068
3772.17515,0.00067
3770.11497,0.00073
3768.05480,0.00080
3765.99463,0.00082
3763.93446,0.00079
3761.87429,0.00080
3759.81411,0.00095
3757.75394,0.00121
3755.69377,0.00146
3753.63360,0.00166
3751.57342,0.00177
3749.51325,0.00171
3747.45308,0.00158
3745.39291,0.00148
3743.33274,0.00135
3741.27256,0.00119
3739.21239,0.00116
3737.15222,0.00121
3735.09205,0.00117
3733.03188,0.00101
3730.97170,0.00089
3728.91153,0.00091
3726.85136,0.00104
3724.79119,0.00119
3722.73102,0.00134
3720.67084,0.00143
3718.61067,0.00144
3716.55050,0.00130
3714.49033,0.00106
3712.43015,0.00082
3710.36998,0.00071
3708.30981,0.00075
3706.24964,0.00088
3704.18947,0.00094
3702.12929,0.00088
3700.06912,0.00077
3698.00895,0.00083
3695.94878,0.00115
3693.88861,0.00167
3691.82843,0.00209
3689.76826,0.00210
3687.70809,0.00170
3685.64792,0.00120
3683.58775,0.00088
3681.52757,0.00076
3679.46740,0.00083
3677.40723,0.00106
3675.34706,0.00142
3673.28688,0.00173
3671.22671,0.00179
3669.16654,0.00153
3667.10637,0.00125
3665.04620,0.00127
3662.98602,0.00158
3660.92585,0.00190
3658.86568,0.00205
3656.80551,0.00209
3654.74534,0.00215
3652.68516,0.00235
3650.62499,0.00266
3648.56482,0.00288
3646.50465,0.00288
3644.44447,0.00282
3642.38430,0.00290
3640.32413,0.00308
3638.26396,0.00321
3636.20379,0.00323
3634.14361,0.00326
3632.08344,0.00343
3630.02327,0.00371
3627.96310,0.00400
3625.90293,0.00417
3623.84275,0.00429
3621.78258,0.00451
3619.72241,0.00484
3617.66224,0.00523
3615.60207,0.00563
3613.54189,0.00594
3611.48172,0.00605
3609.42155,0.00597
3607.36138,0.00591
3605.30120,0.00601
3603.24103,0.00622
3601.18086,0.00643
3599.12069,0.00663
3597.06052,0.00686
3595.00034,0.00712
3592.94017,0.00738
3590.88000,0.00762
3588.81983,0.00784
3586.75966,0.00798
3584.69948,0.00808
3582.63931,0.00831
3580.57914,0.00869
3578.51897,0.00909
3576.45879,0.00935
3574.39862,0.00944
3572.33845,0.00944
3570.27828,0.00951
3568.21811,0.00972
3566.15793,0.00997
3564.09776,0.01012
3562.03759,0.01020
3559.97742,0.01030
3557.91725,0.01050
3555.85707,0.01083
3553.79690,0.01119
3551.73673,0.01149
3549.67656,0.01173
3547.61639,0.01194
3545.55621,0.01213
3543.49604,0.01232
3541.43587,0.01253
3539.37570,0.01276
3537.31552,0.01300
3535.25535,0.01327
3533.19518,0.01361
3531.13501,0.01398
3529.07484,0.01431
3527.01466,0.01458
3524.95449,0.01475
3522.89432,0.01482
3520.83415,0.01492
3518.77398,0.01515
3516.71380,0.01549
3514.65363,0.01577
3512.59346,0.01592
3510.53329,0.01596
3508.47312,0.01608
3506.41294,0.01646
3504.35277,0.01699
3502.29260,0.01736
3500.23243,0.01745
3498.17225,0.01737
3496.11208,0.01729
3494.05191,0.01735
3491.99174,0.01757
3489.93157,0.01784
3487.87139,0.01803
3485.81122,0.01816
3483.75105,0.01830
3481.69088,0.01853
3479.63071,0.01885
3477.57053,0.01913
3475.51036,0.01927
3473.45019,0.01931
3471.39002,0.01939
3469.32984,0.01957
3467.26967,0.01986
3465.20950,0.02018
3463.14933,0.02052
3461.08916,0.02083
3459.02898,0.02104
3456.96881,0.02107
3454.90864,0.02097
3452.84847,0.02093
3450.78830,0.02107
3448.72812,0.02132
3446.66795,0.02154
3444.60778,0.02169
3442.54761,0.02176
3440.48744,0.02179
3438.42726,0.02193
3436.36709,0.02223
3434.30692,0.02258
3432.24675,0.02292
3430.18657,0.02328
3428.12640,0.02367
3426.06623,0.02404
3424.00606,0.02431
3421.94589,0.02445
3419.88571,0.02448
3417.82554,0.02441
3415.76537,0.02421
3413.70520,0.02401
3411.64503,0.02400
3409.58485,0.02423
3407.52468,0.02457
3405.46451,0.02486
3403.40434,0.02501
3401.34416,0.02508
3399.28399,0.02518
3397.22382,0.02531
3395.16365,0.02541
3393.10348,0.02547
3391.04330,0.02553
3388.98313,0.02566
3386.92296,0.02583
3384.86279,0.02600
3382.80262,0.02614
3380.74244,0.02629
3378.68227,0.02647
3376.62210,0.02659
3374.56193,0.02661
3372.50176,0.02662
3370.44158,0.02676
3368.38141,0.02703
3366.32124,0.02732
3364.26107,0.02751
3362.20089,0.02763
3360.14072,0.02776
3358.08055,0.02791
3356.02038,0.02802
3353.96021,0.02806
3351.90003,0.02806
3349.83986,0.02809
3347.77969,0.02819
3345.71952,0.02829
3343.65935,0.02834
3341.59917,0.02832
3339.53900,0.02827
3337.47883,0.02823
3335.41866,0.02825
3333.35849,0.02834
3331.29831,0.02843
3329.23814,0.02841
3327.17797,0.02825
3325.11780,0.02803
3323.05762,0.02791
3320.99745,0.02795
3318.93728,0.02808
3316.87711,0.02823
3314.81694,0.02833
3312.75676,0.02838
3310.69659,0.02837
3308.63642,0.02835
3306.57625,0.02836
3304.51608,0.02843
3302.45590,0.02851
3300.39573,0.02855
3298.33556,0.02855
3296.27539,0.02854
3294.21521,0.02852
3292.15504,0.02850
3290.09487,0.02851
3288.03470,0.02860
3285.97453,0.02874
3283.91435,0.02883
3281.85418,0.02883
3279.79401,0.02875
3277.73384,0.02869
3275.67367,0.02870
3273.61349,0.02877
3271.55332,0.02885
3269.49315,0.02889
3267.43298,0.02886
3265.37281,0.02878
3263.31263,0.02866
3261.25246,0.02854
3259.19229,0.02847
3257.13212,0.02844
3255.07194,0.02840
3253.01177,0.02834
3250.95160,0.02829
3248.89143,0.02823
3246.83126,0.02817
3244.77108,0.02815
3242.71091,0.02822
3240.65074,0.02831
3238.59057,0.02829
3236.53040,0.02808
3234.47022,0.02777
3232.41005,0.02747
3230.34988,0.02727
3228.28971,0.02714
3226.22954,0.02707
3224.16936,0.02701
3222.10919,0.02699
3220.04902,0.02701
3217.98885,0.02707
3215.92867,0.02710
3213.86850,0.02705
3211.80833,0.02695
3209.74816,0.02685
3207.68799,0.02675
3205.62781,0.02659
3203.56764,0.02632
3201.50747,0.02601
3199.44730,0.02575
3197.38713,0.02556
3195.32695,0.02543
3193.26678,0.02533
3191.20661,0.02524
3189.14644,0.02510
3187.08626,0.02493
3185.02609,0.02469
3182.96592,0.02442
3180.90575,0.02416
3178.84558,0.02396
3176.78540,0.02384
3174.72523,0.02378
3172.66506,0.02375
3170.60489,0.02370
3168.54472,0.02361
3166.48454,0.02345
3164.42437,0.02324
3162.36420,0.02301
3160.30403,0.02276
3158.24386,0.02254
3156.18368,0.02236
3154.12351,0.02223
3152.06334,0.02212
3150.00317,0.02199
3147.94299,0.02182
3145.88282,0.02155
3143.82265,0.02120
3141.76248,0.02084
3139.70231,0.02055
3137.64213,0.02038
3135.58196,0.02031
3133.52179,0.02028
3131.46162,0.02019
3129.40145,0.01998
3127.34127,0.01963
3125.28110,0.01924
3123.22093,0.01891
3121.16076,0.01870
3119.10058,0.01860
3117.04041,0.01854
3114.98024,0.01848
3112.92007,0.01834
3110.85990,0.01809
3108.79972,0.01776
3106.73955,0.01739
3104.67938,0.01705
3102.61921,0.01677
3100.55904,0.01654
3098.49886,0.01634
3096.43869,0.01618
3094.37852,0.01605
3092.31835,0.01592
3090.25818,0.01578
3088.19800,0.01562
3086.13783,0.01551
3084.07766,0.01547
3082.01749,0.01543
3079.95731,0.01531
3077.89714,0.01510
3075.83697,0.01481
3073.77680,0.01451
3071.71663,0.01427
3069.65645,0.01409
3067.59628,0.01393
3065.53611,0.01374
3063.47594,0.01353
3061.41577,0.01332
3059.35559,0.01314
3057.29542,0.01298
3055.23525,0.01284
3053.17508,0.01272
3051.11491,0.01262
3049.05473,0.01256
3046.99456,0.01251
3044.93439,0.01249
3042.87422,0.01247
3040.81404,0.01238
3038.75387,0.01218
3036.69370,0.01193
3034.63353,0.01167
3032.57336,0.01143
3030.51318,0.01119
3028.45301,0.01098
3026.39284,0.01086
3024.33267,0.01083
3022.27250,0.01083
3020.21232,0.01080
3018.15215,0.01071
3016.09198,0.01055
3014.03181,0.01038
3011.97163,0.01026
3009.91146,0.01020
3007.85129,0.01019
3005.79112,0.01016
3003.73095,0.01011
3001.67077,0.01007
2999.61060,0.01008
2997.55043,0.01010
2995.49026,0.01002
2993.43009,0.00985
2991.36991,0.00978
2989.30974,0.00995
2987.24957,0.01024
2985.18940,0.01042
2983.12923,0.01043
2981.06905,0.01044
2979.00888,0.01051
2976.94871,0.01062
2974.88854,0.01075
2972.82836,0.01085
2970.76819,0.01088
2968.70802,0.01085
2966.64785,0.01085
2964.58768,0.01089
2962.52750,0.01096
2960.46733,0.01119
2958.40716,0.01163
2956.34699,0.01219
2954.28682,0.01268
2952.22664,0.01297
2950.16647,0.01309
2948.10630,0.01319
2946.04613,0.01345
2943.98596,0.01390
2941.92578,0.01426
2939.86561,0.01428
2937.80544,0.01415
2935.74527,0.01417
2933.68509,0.01432
2931.62492,0.01439
2929.56475,0.01437
2927.50458,0.01435
2925.44441,0.01430
2923.38423,0.01410
2921.32406,0.01379
2919.26389,0.01350
2917.20372,0.01336
2915.14355,0.01336
2913.08337,0.01339
2911.02320,0.01342
2908.96303,0.01342
2906.90286,0.01336
2904.84268,0.01316
2902.78251,0.01289
2900.72234,0.01270
2898.66217,0.01266
2896.60200,0.01271
2894.54182,0.01273
2892.48165,0.01270
2890.42148,0.01271
2888.36131,0.01281
2886.30114,0.01284
2884.24096,0.01270
2882.18079,0.01250
2880.12062,0.01232
2878.06045,0.01204
2876.00028,0.01166
2873.94010,0.01139
2871.87993,0.01136
2869.81976,0.01148
2867.75959,0.01154
2865.69941,0.01143
2863.63924,0.01113
2861.57907,0.01073
2859.51890,0.01045
2857.45873,0.01046
2855.39855,0.01064
2853.33838,0.01067
2851.27821,0.01043
2849.21804,0.01007
2847.15787,0.00982
2845.09769,0.00973
2843.03752,0.00973
2840.97735,0.00972
2838.91718,0.00954
2836.85700,0.00919
2834.79683,0.00895
2832.73666,0.00893
2830.67649,0.00897
2828.61632,0.00889
2826.55614,0.00881
2824.49597,0.00882
2822.43580,0.00888
2820.37563,0.00890
2818.31546,0.00879
2816.25528,0.00850
2814.19511,0.00816
2812.13494,0.00795
2810.07477,0.00788
2808.01460,0.00781
2805.95442,0.00769
2803.89425,0.00768
2801.83408,0.00783
2799.77391,0.00804
2797.71373,0.00814
2795.65356,0.00809
2793.59339,0.00796
2791.53322,0.00779
2789.47305,0.00757
2787.41287,0.00740
2785.35270,0.00730
2783.29253,0.00725
2781.23236,0.00732
2779.17219,0.00746
2777.11201,0.00751
2775.05184,0.00744
2772.99167,0.00738
2770.93150,0.00729
2768.87133,0.00714
2766.81115,0.00703
2764.75098,0.00701
2762.69081,0.00706
2760.63064,0.00707
2758.57046,0.00700
2756.51029,0.00692
2754.45012,0.00688
2752.38995,0.00683
2750.32978,0.00677
2748.26960,0.00669
2746.20943,0.00663
2744.14926,0.00663
2742.08909,0.00664
2740.02892,0.00670
2737.96874,0.00681
2735.90857,0.00688
2733.84840,0.00688
2731.78823,0.00685
2729.72805,0.00686
2727.66788,0.00695
2725.60771,0.00703
2723.54754,0.00699
2721.48737,0.00685
2719.42719,0.00674
2717.36702,0.00672
2715.30685,0.00672
2713.24668,0.00673
2711.18651,0.00675
2709.12633,0.00665
2707.06616,0.00644
2705.00599,0.00635
2702.94582,0.00652
2700.88565,0.00670
2698.82547,0.00664
2696.76530,0.00631
2694.70513,0.00600
2692.64496,0.00597
2690.58478,0.00615
2688.52461,0.00617
2686.46444,0.00600
2684.40427,0.00590
2682.34410,0.00598
2680.28392,0.00618
2678.22375,0.00629
2676.16358,0.00620
2674.10341,0.00609
2672.04324,0.00617
2669.98306,0.00624
2667.92289,0.00613
2665.86272,0.00603
2663.80255,0.00610
2661.74238,0.00625
2659.68220,0.00630
2657.62203,0.00622
2655.56186,0.00604
2653.50169,0.00585
2651.44151,0.00579
2649.38134,0.00586
2647.32117,0.00595
2645.26100,0.00597
2643.20083,0.00592
2641.14065,0.00583
2639.08048,0.00576
2637.02031,0.00576
2634.96014,0.00575
2632.89997,0.00572
2630.83979,0.00565
2628.77962,0.00545
2626.71945,0.00520
2624.65928,0.00517
2622.59910,0.00533
2620.53893,0.00542
2618.47876,0.00529
2616.41859,0.00510
2614.35842,0.00503
2612.29824,0.00506
2610.23807,0.00516
2608.17790,0.00530
2606.11773,0.00530
2604.05756,0.00508
2601.99738,0.00491
2599.93721,0.00497
2597.87704,0.00499
2595.81687,0.00475
2593.75670,0.00445
2591.69652,0.00437
2589.63635,0.00451
2587.57618,0.00469
2585.51601,0.00480
2583.45583,0.00472
2581.39566,0.00440
2579.33549,0.00400
2577.27532,0.00371
2575.21515,0.00368
2573.15497,0.00395
2571.09480,0.00435
2569.03463,0.00460
2566.97446,0.00469
2564.91429,0.00471
2562.85411,0.00460
2560.79394,0.00449
2558.73377,0.00441
2556.67360,0.00421
2554.61342,0.00398
2552.55325,0.00403
2550.49308,0.00432
2548.43291,0.00451
2546.37274,0.00439
2544.31256,0.00408
2542.25239,0.00388
2540.19222,0.00400
2538.13205,0.00436
2536.07188,0.00462
2534.01170,0.00463
2531.95153,0.00445
2529.89136,0.00429
2527.83119,0.00426
2525.77102,0.00425
2523.71084,0.00421
2521.65067,0.00420
2519.59050,0.00418
2517.53033,0.00409
2515.47015,0.00403
2513.40998,0.00405
2511.34981,0.00407
2509.28964,0.00407
2507.22947,0.00417
2505.16929,0.00429
2503.10912,0.00426
2501.04895,0.00403
2498.98878,0.00371
2496.92861,0.00349
2494.86843,0.00351
2492.80826,0.00364
2490.74809,0.00374
2488.68792,0.00378
2486.62775,0.00375
2484.56757,0.00377
2482.50740,0.00387
2480.44723,0.00387
2478.38706,0.00364
2476.32688,0.00326
2474.26671,0.00295
2472.20654,0.00316
2470.14637,0.00388
2468.08620,0.00439
2466.02602,0.00426
2463.96585,0.00389
2461.90568,0.00381
2459.84551,0.00401
2457.78534,0.00409
2455.72516,0.00389
2453.66499,0.00357
2451.60482,0.00330
2449.54465,0.00325
2447.48447,0.00344
2445.42430,0.00377
2443.36413,0.00399
2441.30396,0.00387
2439.24379,0.00352
2437.18361,0.00333
2435.12344,0.00345
2433.06327,0.00362
2431.00310,0.00379
2428.94293,0.00401
2426.88275,0.00404
2424.82258,0.00371
2422.76241,0.00321
2420.70224,0.00290
2418.64207,0.00299
2416.58189,0.00332
2414.52172,0.00351
2412.46155,0.00341
2410.40138,0.00318
2408.34120,0.00306
2406.28103,0.00315
2404.22086,0.00320
2402.16069,0.00314
2400.10052,0.00311
2398.04034,0.00318
2395.98017,0.00329
2393.92000,0.00337
2391.85983,0.00337
2389.79966,0.00333
2387.73948,0.00330
2385.67931,0.00333
2383.61914,0.00340
2381.55897,0.00347
2379.49880,0.00353
2377.43862,0.00358
2375.37845,0.00360
2373.31828,0.00358
2371.25811,0.00372
2369.19793,0.00420
2367.13776,0.00493
2365.07759,0.00566
2363.01742,0.00601
2360.95725,0.00545
2358.89707,0.00390
2356.83690,0.00220
2354.77673,0.00129
2352.71656,0.00137
2350.65639,0.00211
2348.59621,0.00307
2346.53604,0.00384
2344.47587,0.00412
2342.41570,0.00390
2340.35552,0.00343
2338.29535,0.00295
2336.23518,0.00255
2334.17501,0.00235
2332.11484,0.00246
2330.05466,0.00277
2327.99449,0.00311
2325.93432,0.00342
2323.87415,0.00371
2321.81398,0.00397
2319.75380,0.00420
2317.69363,0.00445
2315.63346,0.00466
2313.57329,0.00475
2311.51312,0.00471
2309.45294,0.00460
2307.39277,0.00443
2305.33260,0.00421
2303.27243,0.00399
2301.21225,0.00389
2299.15208,0.00390
2297.09191,0.00390
2295.03174,0.00381
2292.97157,0.00369
2290.91139,0.00364
2288.85122,0.00369
2286.79105,0.00382
2284.73088,0.00405
2282.67071,0.00431
2280.61053,0.00451
2278.55036,0.00455
2276.49019,0.00443
2274.43002,0.00415
2272.36984,0.00374
2270.30967,0.00335
2268.24950,0.00320
2266.18933,0.00334
2264.12916,0.00358
2262.06898,0.00369
2260.00881,0.00360
2257.94864,0.00341
2255.88847,0.00319
2253.82830,0.00287
2251.76812,0.00244
2249.70795,0.00202
2247.64778,0.00188
2245.58761,0.00208
2243.52744,0.00236
2241.46726,0.00274
2239.40709,0.00342
2237.34692,0.00403
2235.28675,0.00404
2233.22657,0.00334
2231.16640,0.00240
2229.10623,0.00204
2227.04606,0.00255
2224.98589,0.00317
2222.92571,0.00295
2220.86554,0.00197
2218.80537,0.00150
2216.74520,0.00248
2214.68503,0.00431
2212.62485,0.00556
2210.56468,0.00545
2208.50451,0.00425
2206.44434,0.00306
2204.38417,0.00262
2202.32399,0.00280
2200.26382,0.00327
2198.20365,0.00360
2196.14348,0.00351
2194.08330,0.00339
2192.02313,0.00357
2189.96296,0.00395
2187.90279,0.00426
2185.84262,0.00409
2183.78244,0.00354
2181.72227,0.00326
2179.66210,0.00347
2177.60193,0.00361
2175.54176,0.00330
2173.48158,0.00297
2171.42141,0.00335
2169.36124,0.00444
2167.30107,0.00538
2165.24089,0.00542
2163.18072,0.00432
2161.12055,0.00236
2159.06038,0.00050
2157.00021,0.00000
2154.94003,0.00093
2152.87986,0.00215
2150.81969,0.00298
2148.75952,0.00348
2146.69935,0.00351
2144.63917,0.00290
2142.57900,0.00194
2140.51883,0.00125
2138.45866,0.00101
2136.39849,0.00099
2134.33831,0.00109
2132.27814,0.00146
2130.21797,0.00209
2128.15780,0.00272
2126.09762,0.00312
2124.03745,0.00330
2121.97728,0.00332
2119.91711,0.00337
2117.85694,0.00360
2115.79676,0.00384
2113.73659,0.00400
2111.67642,0.00403
2109.61625,0.00387
2107.55608,0.00370
2105.49590,0.00358
2103.43573,0.00343
2101.37556,0.00338
2099.31539,0.00350
2097.25521,0.00372
2095.19504,0.00391
2093.13487,0.00393
2091.07470,0.00366
2089.01453,0.00314
2086.95435,0.00258
2084.89418,0.00220
2082.83401,0.00208
2080.77384,0.00217
2078.71367,0.00242
2076.65349,0.00276
2074.59332,0.00305
2072.53315,0.00318
2070.47298,0.00326
2068.41281,0.00332
2066.35263,0.00326
2064.29246,0.00304
2062.23229,0.00286
2060.17212,0.00284
2058.11194,0.00293
2056.05177,0.00292
2053.99160,0.00268
2051.93143,0.00229
2049.87126,0.00201
2047.81108,0.00218
2045.75091,0.00279
2043.69074,0.00353
2041.63057,0.00402
2039.57040,0.00402
2037.51022,0.00359
2035.45005,0.00305
2033.38988,0.00273
2031.32971,0.00272
2029.26954,0.00293
2027.20936,0.00307
2025.14919,0.00292
2023.08902,0.00253
2021.02885,0.00217
2018.96867,0.00201
2016.90850,0.00190
2014.84833,0.00167
2012.78816,0.00134
2010.72799,0.00102
2008.66781,0.00066
2006.60764,0.00032
2004.54747,0.00009
2002.48730,0.00000
2000.42713,0.00011
1998.36695,0.00066
1996.30678,0.00160
1994.24661,0.00255
1992.18644,0.00328
1990.12626,0.00383
1988.06609,0.00421
1986.00592,0.00417
1983.94575,0.00344
1981.88558,0.00213
1979.82540,0.00079
1977.76523,0.00000
1975.70506,-0.00002
1973.64489,0.00043
1971.58472,0.00086
1969.52454,0.00106
1967.46437,0.00108
1965.40420,0.00113
1963.34403,0.00135
1961.28386,0.00155
1959.22368,0.00155
1957.16351,0.00136
1955.10334,0.00107
1953.04317,0.00075
1950.98299,0.00046
1948.92282,0.00031
1946.86265,0.00030
1944.80248,0.00035
1942.74231,0.00034
1940.68213,0.00039
1938.62196,0.00071
1936.56179,0.00116
1934.50162,0.00142
1932.44145,0.00139
1930.38127,0.00125
1928.32110,0.00117
1926.26093,0.00120
1924.20076,0.00134
1922.14059,0.00147
1920.08041,0.00142
1918.02024,0.00115
1915.96007,0.00081
1913.89990,0.00061
1911.83972,0.00071
1909.77955,0.00108
1907.71938,0.00151
1905.65921,0.00177
1903.59904,0.00180
1901.53886,0.00172
1899.47869,0.00168
1897.41852,0.00174
1895.35835,0.00182
1893.29818,0.00174
1891.23800,0.00143
1889.17783,0.00099
1887.11766,0.00060
1885.05749,0.00041
1882.99731,0.00040
1880.93714,0.00048
1878.87697,0.00060
1876.81680,0.00077
1874.75663,0.00097
1872.69645,0.00111
1870.63628,0.00110
1868.57611,0.00098
1866.51594,0.00092
1864.45577,0.00103
1862.39559,0.00123
1860.33542,0.00132
1858.27525,0.00124
1856.21508,0.00106
1854.15491,0.00089
1852.09473,0.00078
1850.03456,0.00073
1847.97439,0.00076
1845.91422,0.00082
1843.85404,0.00084
1841.79387,0.00079
1839.73370,0.00070
1837.67353,0.00059
1835.61336,0.00049
1833.55318,0.00044
1831.49301,0.00044
1829.43284,0.00041
1827.37267,0.00033
1825.31250,0.00023
1823.25232,0.00013
1821.19215,0.00003
1819.13198,0.00000
1817.07181,0.00004
1815.01163,0.00016
1812.95146,0.00033
1810.89129,0.00049
1808.83112,0.00053
1806.77095,0.00044
1804.71077,0.00033
1802.65060,0.00028
1800.59043,0.00027
1798.53026,0.00026
1796.47009,0.00026
1794.40991,0.00033
1792.34974,0.00046
1790.28957,0.00060
1788.22940,0.00066
1786.16923,0.00061
1784.10905,0.00050
1782.04888,0.00041
1779.98871,0.00039
1777.92854,0.00044
1775.86836,0.00053
1773.80819,0.00058
1771.74802,0.00056
1769.68785,0.00054
1767.62768,0.00062
1765.56750,0.00079
1763.50733,0.00105
1761.44716,0.00136
1759.38699,0.00172
1757.32682,0.00209
1755.26664,0.00249
1753.20647,0.00295
1751.14630,0.00340
1749.08613,0.00373
1747.02596,0.00391
1744.96578,0.00398
1742.90561,0.00405
1740.84544,0.00418
1738.78527,0.00440
1736.72509,0.00469
1734.66492,0.00495
1732.60475,0.00509
1730.54458,0.00507
1728.48441,0.00495
1726.42423,0.00485
1724.36406,0.00480
1722.30389,0.00480
1720.24372,0.00481
1718.18355,0.00470
1716.12337,0.00437
1714.06320,0.00388
1712.00303,0.00342
1709.94286,0.00316
1707.88268,0.00307
1705.82251,0.00308
1703.76234,0.00312
1701.70217,0.00316
1699.64200,0.00318
1697.58182,0.00321
1695.52165,0.00320
1693.46148,0.00316
1691.40131,0.00315
1689.34114,0.00321
1687.28096,0.00331
1685.22079,0.00344
1683.16062,0.00359
1681.10045,0.00380
1679.04028,0.00410
1676.98010,0.00448
1674.91993,0.00488
1672.85976,0.00526
1670.79959,0.00564
1668.73941,0.00603
1666.67924,0.00643
1664.61907,0.00689
1662.55890,0.00741
1660.49873,0.00793
1658.43855,0.00847
1656.37838,0.00903
1654.31821,0.00955
1652.25804,0.00987
1650.19787,0.00999
1648.13769,0.01005
1646.07752,0.01016
1644.01735,0.01037
1641.95718,0.01070
1639.89701,0.01108
1637.83683,0.01138
1635.77666,0.01151
1633.71649,0.01146
1631.65632,0.01139
1629.59614,0.01144
1627.53597,0.01159
1625.47580,0.01178
1623.41563,0.01193
1621.35546,0.01202
1619.29528,0.01205
1617.23511,0.01200
1615.17494,0.01182
1613.11477,0.01160
1611.05460,0.01142
1608.99442,0.01121
1606.93425,0.01089
1604.87408,0.01044
1602.81391,0.00991
1600.75373,0.00931
1598.69356,0.00868
1596.63339,0.00804
1594.57322,0.00741
1592.51305,0.00680
1590.45287,0.00620
1588.39270,0.00562
1586.33253,0.00510
1584.27236,0.00465
1582.21219,0.00429
1580.15201,0.00402
1578.09184,0.00383
1576.03167,0.00367
1573.97150,0.00347
1571.91133,0.00323
1569.85115,0.00293
1567.79098,0.00258
1565.73081,0.00233
1563.67064,0.00228
1561.61046,0.00240
1559.55029,0.00247
1557.49012,0.00225
1555.42995,0.00183
1553.36978,0.00143
1551.30960,0.00116
1549.24943,0.00103
1547.18926,0.00105
1545.12909,0.00124
1543.06892,0.00149
1541.00874,0.00156
1538.94857,0.00132
1536.88840,0.00092
1534.82823,0.00059
1532.76805,0.00039
1530.70788,0.00034
1528.64771,0.00044
1526.58754,0.00061
1524.52737,0.00074
1522.46719,0.00077
1520.40702,0.00068
1518.34685,0.00051
1516.28668,0.00032
1514.22651,0.00017
1512.16633,0.00019
1510.10616,0.00035
1508.04599,0.00051
1505.98582,0.00053
1503.92565,0.00043
1501.86547,0.00037
1499.80530,0.00036
1497.74513,0.00036
1495.68496,0.00035
1493.62478,0.00038
1491.56461,0.00047
1489.50444,0.00058
1487.44427,0.00068
1485.38410,0.00081
1483.32392,0.00104
1481.26375,0.00136
1479.20358,0.00177
1477.14341,0.00225
1475.08324,0.00275
1473.02306,0.00314
1470.96289,0.00333
1468.90272,0.00341
1466.84255,0.00353
1464.78238,0.00381
1462.72220,0.00430
1460.66203,0.00494
1458.60186,0.00555
1456.54169,0.00591
1454.48151,0.00597
1452.42134,0.00592
1450.36117,0.00596
1448.30100,0.00613
1446.24083,0.00638
1444.18065,0.00665
1442.12048,0.00694
1440.06031,0.00725
1438.00014,0.00756
1435.93997,0.00783
1433.87979,0.00804
1431.81962,0.00824
1429.75945,0.00848
1427.69928,0.00879
1425.63910,0.00913
1423.57893,0.00945
1421.51876,0.00968
1419.45859,0.00984
1417.39842,0.00994
1415.33824,0.00999
1413.27807,0.01001
1411.21790,0.00997
1409.15773,0.00987
1407.09756,0.00970
1405.03738,0.00947
1402.97721,0.00919
1400.91704,0.00893
1398.85687,0.00871
1396.79670,0.00854
1394.73652,0.00842
1392.67635,0.00835
1390.61618,0.00834
1388.55601,0.00838
1386.49583,0.00845
1384.43566,0.00852
1382.37549,0.00862
1380.31532,0.00877
1378.25515,0.00896
1376.19497,0.00914
1374.13480,0.00930
1372.07463,0.00943
1370.01446,0.00952
1367.95429,0.00954
1365.89411,0.00948
1363.83394,0.00934
1361.77377,0.00917
1359.71360,0.00903
1357.65343,0.00895
1355.59325,0.00885
1353.53308,0.00868
1351.47291,0.00846
1349.41274,0.00826
1347.35256,0.00814
1345.29239,0.00809
1343.23222,0.00808
1341.17205,0.00804
1339.11188,0.00793
1337.05170,0.00778
1334.99153,0.00768
1332.93136,0.00765
1330.87119,0.00767
1328.81102,0.00770
1326.75084,0.00774
1324.69067,0.00783
1322.63050,0.00797
1320.57033,0.00811
1318.51015,0.00819
1316.44998,0.00815
1314.38981,0.00804
1312.32964,0.00795
1310.26947,0.00792
1308.20929,0.00791
1306.14912,0.00785
1304.08895,0.00767
1302.02878,0.00742
1299.96861,0.00717
1297.90843,0.00695
1295.84826,0.00676
1293.78809,0.00660
1291.72792,0.00648
1289.66775,0.00638
1287.60757,0.00629
1285.54740,0.00624
1283.48723,0.00626
1281.42706,0.00634
1279.36688,0.00646
1277.30671,0.00661
1275.24654,0.00679
1273.18637,0.00697
1271.12620,0.00714
1269.06602,0.00732
1267.00585,0.00758
1264.94568,0.00793
1262.88551,0.00833
1260.82534,0.00873
1258.76516,0.00907
1256.70499,0.00931
1254.64482,0.00944
1252.58465,0.00950
1250.52447,0.00950
1248.46430,0.00946
1246.40413,0.00939
1244.34396,0.00934
1242.28379,0.00931
1240.22361,0.00928
1238.16344,0.00921
1236.10327,0.00906
1234.04310,0.00879
1231.98293,0.00842
1229.92275,0.00801
1227.86258,0.00763
1225.80241,0.00732
1223.74224,0.00706
1221.68207,0.00686
1219.62189,0.00669
1217.56172,0.00650
1215.50155,0.00620
1213.44138,0.00575
1211.38120,0.00515
1209.32103,0.00444
1207.26086,0.00367
1205.20069,0.00290
1203.14052,0.00220
1201.08034,0.00164
1199.02017,0.00124
1196.96000,0.00088
1194.89983,0.00050
1192.83966,0.00023
1190.77948,0.00013
1188.71931,0.00006
1186.65914,0.00000
1184.59897,0.00006
1182.53880,0.00033
1180.47862,0.00069
1178.41845,0.00107
1176.35828,0.00150
1174.29811,0.00206
1172.23793,0.00279
1170.17776,0.00360
1168.11759,0.00438
1166.05742,0.00514
1163.99725,0.00586
1161.93707,0.00641
1159.87690,0.00685
1157.81673,0.00739
1155.75656,0.00808
1153.69639,0.00866
1151.63621,0.00899
1149.57604,0.00928
1147.51587,0.00966
1145.45570,0.01000
1143.39552,0.01023
1141.33535,0.01046
1139.27518,0.01076
1137.21501,0.01107
1135.15484,0.01140
1133.09466,0.01174
1131.03449,0.01208
1128.97432,0.01249
1126.91415,0.01297
1124.85398,0.01344
1122.79380,0.01391
1120.73363,0.01444
1118.67346,0.01503
1116.61329,0.01566
1114.55312,0.01632
1112.49294,0.01691
1110.43277,0.01743
1108.37260,0.01791
1106.31243,0.01843
1104.25225,0.01901
1102.19208,0.01959
1100.13191,0.02023
1098.07174,0.02104
1096.01157,0.02199
1093.95139,0.02291
1091.89122,0.02368
1089.83105,0.02436
1087.77088,0.02503
1085.71071,0.02566
1083.65053,0.02623
1081.59036,0.02681
1079.53019,0.02755
1077.47002,0.02849
1075.40985,0.02951
1073.34967,0.03044
1071.28950,0.03109
1069.22933,0.03151
1067.16916,0.03187
1065.10898,0.03220
1063.04881,0.03246
1060.98864,0.03266
1058.92847,0.03282
1056.86830,0.03302
1054.80812,0.03337
1052.74795,0.03386
1050.68778,0.03436
1048.62761,0.03483
1046.56744,0.03532
1044.50726,0.03589
1042.44709,0.03655
1040.38692,0.03718
1038.32675,0.03763
1036.26657,0.03789
1034.20640,0.03804
1032.14623,0.03808
1030.08606,0.03808
1028.02589,0.03821
1025.96571,0.03839
1023.90554,0.03842
1021.84537,0.03836
1019.78520,0.03836
1017.72503,0.03846
1015.66485,0.03857
1013.60468,0.03856
1011.54451,0.03848
1009.48434,0.03844
1007.42417,0.03839
1005.36399,0.03826
1003.30382,0.03793
1001.24365,0.03731
999.18348,0.03655
997.12330,0.03591
995.06313,0.03542
993.00296,0.03499
990.94279,0.03459
988.88262,0.03416
986.82244,0.03376
984.76227,0.03352
982.70210,0.03333
980.64193,0.03298
978.58176,0.03244
976.52158,0.03189
974.46141,0.03148
972.40124,0.03127
970.34107,0.03113
968.28089,0.03083
966.22072,0.03031
964.16055,0.02974
962.10038,0.02935
960.04021,0.02910
957.98003,0.02874
955.91986,0.02822
953.85969,0.02763
951.79952,0.02703
949.73935,0.02637
947.67917,0.02565
945.61900,0.02486
943.55883,0.02397
941.49866,0.02295
939.43849,0.02181
937.37831,0.02057
935.31814,0.01918
933.25797,0.01761
931.19780,0.01602
929.13762,0.01453
927.07745,0.01319
925.01728,0.01216
922.95711,0.01151
920.89694,0.01103
918.83676,0.01043
916.77659,0.00950
914.71642,0.00844
912.65625,0.00765
910.59608,0.00721
908.53590,0.00698
906.47573,0.00681
904.41556,0.00665
902.35539,0.00657
900.29522,0.00664
898.23504,0.00680
896.17487,0.00688
894.11470,0.00682
892.05453,0.00663
889.99435,0.00622
887.93418,0.00561
885.87401,0.00497
883.81384,0.00450
881.75367,0.00423
879.69349,0.00412
877.63332,0.00413
875.57315,0.00407
873.51298,0.00366
871.45281,0.00306
869.39263,0.00276
867.33246,0.00281
865.27229,0.00276
863.21212,0.00257
861.15194,0.00242
859.09177,0.00230
857.03160,0.00205
854.97143,0.00172
852.91126,0.00158
850.85108,0.00177
848.79091,0.00211
846.73074,0.00223
844.67057,0.00201
842.61040,0.00160
840.55022,0.00122
838.49005,0.00095
836.42988,0.00067
834.36971,0.00030
832.30954,0.00000
830.24936,0.00002
828.18919,0.00037
826.12902,0.00071
824.06885,0.00061
822.00867,0.00031
819.94850,0.00036
817.88833,0.00071
815.82816,0.00099
813.76799,0.00132
811.70781,0.00181
809.64764,0.00225
807.58747,0.00250
805.52730,0.00249
803.46713,0.00207
801.40695,0.00139
799.34678,0.00086
797.28661,0.00072
795.22644,0.00083
793.16627,0.00084
791.10609,0.00070
789.04592,0.00047
786.98575,0.00020
784.92558,0.00000
782.86540,-0.00009
780.80523,-0.00010
778.74506,-0.00009
776.68489,0.00005
774.62472,0.00037
772.56454,0.00054
770.50437,0.00033
768.44420,0.00007
766.38403,0.00008
764.32386,0.00011
762.26368,-0.00009
760.20351,-0.00016
758.14334,-0.00006
756.08317,-0.00016
754.02299,-0.00026
751.96282,0.00000
749.90265,0.00019
747.84248,-0.00007
745.78231,-0.00045
743.72213,-0.00050
741.66196,-0.00023
739.60179,0.00017
737.54162,0.00043
735.48145,0.00023
733.42127,-0.00030
731.36110,-0.00060
729.30093,-0.00042
727.24076,-0.00015
725.18059,-0.00013
723.12041,-0.00018
721.06024,-0.00017
719.00007,-0.00009
716.93990,0.00007
714.87972,0.00030
712.81955,0.00052
710.75938,0.00070
708.69921,0.00089
706.63904,0.00112
704.57886,0.00139
702.51869,0.00167
700.45852,0.00199
698.39835,0.00224
696.33818,0.00220
694.27800,0.00179
692.21783,0.00112
690.15766,0.00053
688.09749,0.00036
686.03731,0.00069
683.97714,0.00124
681.91697,0.00155
679.85680,0.00146
677.79663,0.00121
675.73645,0.00099
673.67628,0.00078
671.61611,0.00053
669.55594,0.00024
667.49577,-0.00002
665.43559,-0.00015
663.37542,-0.00010
661.31525,0.00021
659.25508,0.00065
657.19491,0.00093
655.13473,0.00095
653.07456,0.00099
651.01439,0.00130
648.95422,0.00184
646.89404,0.00238
644.83387,0.00261
642.77370,0.00235
640.71353,0.00172
638.65336,0.00100
636.59318,0.00039
634.53301,0.00000
632.47284,-0.00034
630.41267,-0.00024
628.35250,0.00012
626.29232,0.00004
624.23215,-0.00082
622.17198,-0.00077
620.11181,0.00129
618.05164,0.00342
615.99146,0.00337
613.93129,0.00165
611.87112,0.00007
609.81095,-0.00069
607.75077,-0.00134
605.69060,-0.00243
603.63043,-0.00268
601.57026,-0.00137
599.51009,0.00000
