3996.73391,0.00007
3994.67373,0.00005
3992.61356,0.00003
3990.55339,0.00002
3988.49322,0.00000
3986.43305,-0.00004
3984.37287,-0.00010
3982.31270,-0.00013
3980.25253,-0.00010
3978.19236,-0.00001
3976.13219,0.00010
3974.07201,0.00019
3972.01184,0.00021
3969.95167,0.00017
3967.89150,0.00009
3965.83133,0.00001
3963.77115,0.00000
3961.71098,0.00008
3959.65081,0.00023
3957.59064,0.00037
3955.53046,0.00047
3953.47029,0.00049
3951.41012,0.00040
3949.34995,0.00025
3947.28978,0.00016
3945.22960,0.00020
3943.16943,0.00034
3941.10926,0.00053
3939.04909,0.00072
3936.98892,0.00088
3934.92874,0.00099
3932.86857,0.00105
3930.80840,0.00096
3928.74823,0.00067
3926.68805,0.00026
3924.62788,0.00000
3922.56771,0.00008
3920.50754,0.00042
3918.44737,0.00075
3916.38719,0.00083
3914.32702,0.00068
3912.26685,0.00049
3910.20668,0.00045
3908.14651,0.00060
3906.08633,0.00083
3904.02616,0.00104
3901.96599,0.00117
3899.90582,0.00120
3897.84565,0.00116
3895.78547,0.00107
3893.72530,0.00094
3891.66513,0.00081
3889.60496,0.00073
3887.54478,0.00073
3885.48461,0.00080
3883.42444,0.00097
3881.36427,0.00121
3879.30410,0.00140
3877.24392,0.00148
3875.18375,0.00146
3873.12358,0.00137
3871.06341,0.00119
3869.00324,0.00092
3866.94306,0.00060
3864.88289,0.00030
3862.82272,0.00009
3860.76255,0.00006
3858.70237,0.00025
3856.64220,0.00060
3854.58203,0.00094
3852.52186,0.00109
3850.46169,0.00104
3848.40151,0.00092
3846.34134,0.00085
3844.28117,0.00085
3842.22100,0.00082
3840.16083,0.00070
3838.10065,0.00059
3836.04048,0.00064
3833.98031,0.00088
3831.92014,0.00115
3829.85997,0.00125
3827.79979,0.00112
3825.73962,0.00093
3823.67945,0.00095
3821.61928,0.00125
3819.55910,0.00157
3817.49893,0.00164
3815.43876,0.00150
3813.37859,0.00128
3811.31842,0.00106
3809.25824,0.00087
3807.19807,0.00072
3805.13790,0.00068
3803.07773,0.00080
3801.01756,0.00098
3798.95738,0.00104
3796.89721,0.00096
3794.83704,0.00081
3792.77687,0.00066
3790.71670,0.00056
3788.65652,0.00056
3786.59635,0.00067
3784.53618,0.00084
3782.47601,0.00099
3780.41583,0.00108
3778.35566,0.00114
3776.29549,0.00114
3774.23532,0.00107
3772.17515,0.00097
3770.11497,0.00098
3768.05480,0.00113
3765.99463,0.00133
3763.93446,0.00142
3761.87429,0.00136
3759.81411,0.00127
3757.75394,0.00132
3755.69377,0.00161
3753.63360,0.00204
3751.57342,0.00240
3749.51325,0.00250
3747.45308,0.00242
3745.39291,0.00235
3743.33274,0.00222
3741.27256,0.00197
3739.21239,0.00176
3737.15222,0.00167
3735.09205,0.00162
3733.03188,0.00151
3730.97170,0.00131
3728.91153,0.00108
3726.85136,0.00090
3724.79119,0.00086
3722.73102,0.00103
3720.67084,0.00134
3718.61067,0.00163
3716.55050,0.00175
3714.49033,0.00176
3712.43015,0.00176
3710.36998,0.00173
3708.30981,0.00162
3706.24964,0.00140
3704.18947,0.00106
3702.12929,0.00061
3700.06912,0.00019
3698.00895,0.00000
3695.94878,0.00015
3693.88861,0.00063
3691.82843,0.00130
3689.76826,0.00187
3687.70809,0.00209
3685.64792,0.00194
3683.58775,0.00159
3681.52757,0.00126
3679.46740,0.00107
3677.40723,0.00107
3675.34706,0.00126
3673.28688,0.00152
3671.22671,0.00164
3669.16654,0.00156
3667.10637,0.00139
3665.04620,0.00128
3662.98602,0.00126
3660.92585,0.00119
3658.86568,0.00111
3656.80551,0.00115
3654.74534,0.00137
3652.68516,0.00166
3650.62499,0.00196
3648.56482,0.00222
3646.50465,0.00234
3644.44447,0.00231
3642.38430,0.00218
3640.32413,0.00203
3638.26396,0.00191
3636.20379,0.00188
3634.14361,0.00201
3632.08344,0.00226
3630.02327,0.00261
3627.96310,0.00295
3625.90293,0.00311
3623.84275,0.00305
3621.78258,0.00295
3619.72241,0.00302
3617.66224,0.00327
3615.60207,0.00355
3613.54189,0.00375
3611.48172,0.00375
3609.42155,0.00353
3607.36138,0.00326
3605.30120,0.00313
3603.24103,0.00318
3601.18086,0.00334
3599.12069,0.00346
3597.06052,0.00344
3595.00034,0.00336
3592.94017,0.00334
3590.88000,0.00350
3588.81983,0.00380
3586.75966,0.00409
3584.69948,0.00429
3582.63931,0.00446
3580.57914,0.00468
3578.51897,0.00493
3576.45879,0.00512
3574.39862,0.00518
3572.33845,0.00512
3570.27828,0.00505
3568.21811,0.00505
3566.15793,0.00511
3564.09776,0.00513
3562.03759,0.00517
3559.97742,0.00526
3557.91725,0.00543
3555.85707,0.00563
3553.79690,0.00584
3551.73673,0.00605
3549.67656,0.00625
3547.61639,0.00643
3545.55621,0.00659
3543.49604,0.00671
3541.43587,0.00675
3539.37570,0.00667
3537.31552,0.00651
3535.25535,0.00642
3533.19518,0.00654
3531.13501,0.00688
3529.07484,0.00731
3527.01466,0.00771
3524.95449,0.00797
3522.89432,0.00804
3520.83415,0.00800
3518.77398,0.00797
3516.71380,0.00800
3514.65363,0.00808
3512.59346,0.00819
3510.53329,0.00834
3508.47312,0.00855
3506.41294,0.00874
3504.35277,0.00882
3502.29260,0.00874
3500.23243,0.00860
3498.17225,0.00854
3496.11208,0.00861
3494.05191,0.00872
3491.99174,0.00878
3489.93157,0.00880
3487.87139,0.00888
3485.81122,0.00907
3483.75105,0.00931
3481.69088,0.00953
3479.63071,0.00975
3477.57053,0.00996
3475.51036,0.01010
3473.45019,0.01021
3471.39002,0.01032
3469.32984,0.01044
3467.26967,0.01053
3465.20950,0.01058
3463.14933,0.01064
3461.08916,0.01075
3459.02898,0.01088
3456.96881,0.01094
3454.90864,0.01092
3452.84847,0.01090
3450.78830,0.01099
3448.72812,0.01120
3446.66795,0.01143
3444.60778,0.01152
3442.54761,0.01140
3440.48744,0.01119
3438.42726,0.01107
3436.36709,0.01107
3434.30692,0.01114
3432.24675,0.01127
3430.18657,0.01146
3428.12640,0.01171
3426.06623,0.01199
3424.00606,0.01229
3421.94589,0.01259
3419.88571,0.01282
3417.82554,0.01292
3415.76537,0.01284
3413.70520,0.01267
3411.64503,0.01255
3409.58485,0.01254
3407.52468,0.01261
3405.46451,0.01269
3403.40434,0.01273
3401.34416,0.01273
3399.28399,0.01278
3397.22382,0.01289
3395.16365,0.01300
3393.10348,0.01302
3391.04330,0.01298
3388.98313,0.01296
3386.92296,0.01308
3384.86279,0.01335
3382.80262,0.01368
3380.74244,0.01394
3378.68227,0.01400
3376.62210,0.01388
3374.56193,0.01369
3372.50176,0.01356
3370.44158,0.01359
3368.38141,0.01377
3366.32124,0.01401
3364.26107,0.01424
3362.20089,0.01440
3360.14072,0.01449
3358.08055,0.01454
3356.02038,0.01456
3353.96021,0.01455
3351.90003,0.01450
3349.83986,0.01442
3347.77969,0.01437
3345.71952,0.01439
3343.65935,0.01449
3341.59917,0.01461
3339.53900,0.01470
3337.47883,0.01468
3335.41866,0.01454
3333.35849,0.01437
3331.29831,0.01424
3329.23814,0.01421
3327.17797,0.01424
3325.11780,0.01428
3323.05762,0.01433
3320.99745,0.01439
3318.93728,0.01442
3316.87711,0.01442
3314.81694,0.01444
3312.75676,0.01451
3310.69659,0.01460
3308.63642,0.01465
3306.57625,0.01467
3304.51608,0.01470
3302.45590,0.01473
3300.39573,0.01469
3298.33556,0.01456
3296.27539,0.01440
3294.21521,0.01428
3292.15504,0.01426
3290.09487,0.01436
3288.03470,0.01453
3285.97453,0.01465
3283.91435,0.01468
3281.85418,0.01463
3279.79401,0.01452
3277.73384,0.01442
3275.67367,0.01440
3273.61349,0.01448
3271.55332,0.01463
3269.49315,0.01477
3267.43298,0.01486
3265.37281,0.01487
3263.31263,0.01481
3261.25246,0.01468
3259.19229,0.01454
3257.13212,0.01444
3255.07194,0.01439
3253.01177,0.01440
3250.95160,0.01445
3248.89143,0.01448
3246.83126,0.01445
3244.77108,0.01441
3242.71091,0.01443
3240.65074,0.01452
3238.59057,0.01462
3236.53040,0.01466
3234.47022,0.01457
3232.41005,0.01438
3230.34988,0.01419
3228.28971,0.01408
3226.22954,0.01407
3224.16936,0.01410
3222.10919,0.01409
3220.04902,0.01406
3217.98885,0.01408
3215.92867,0.01412
3213.86850,0.01413
3211.80833,0.01414
3209.74816,0.01419
3207.68799,0.01423
3205.62781,0.01416
3203.56764,0.01393
3201.50747,0.01363
3199.44730,0.01335
3197.38713,0.01312
3195.32695,0.01296
3193.26678,0.01291
3191.20661,0.01295
3189.14644,0.01301
3187.08626,0.01299
3185.02609,0.01287
3182.96592,0.01271
3180.90575,0.01257
3178.84558,0.01247
3176.78540,0.01238
3174.72523,0.01230
3172.66506,0.01223
3170.60489,0.01219
3168.54472,0.01217
3166.48454,0.01214
3164.42437,0.01207
3162.36420,0.01197
3160.30403,0.01184
3158.24386,0.01170
3156.18368,0.01161
3154.12351,0.01161
3152.06334,0.01169
3150.00317,0.01174
3147.94299,0.01168
3145.88282,0.01148
3143.82265,0.01113
3141.76248,0.01073
3139.70231,0.01042
3137.64213,0.01029
3135.58196,0.01036
3133.52179,0.01051
3131.46162,0.01060
3129.40145,0.01056
3127.34127,0.01044
3125.28110,0.01031
3123.22093,0.01017
3121.16076,0.01001
3119.10058,0.00985
3117.04041,0.00972
3114.98024,0.00962
3112.92007,0.00950
3110.85990,0.00934
3108.79972,0.00919
3106.73955,0.00909
3104.67938,0.00898
3102.61921,0.00881
3100.55904,0.00861
3098.49886,0.00847
3096.43869,0.00841
3094.37852,0.00843
3092.31835,0.00846
3090.25818,0.00847
3088.19800,0.00843
3086.13783,0.00837
3084.07766,0.00828
3082.01749,0.00817
3079.95731,0.00805
3077.89714,0.00794
3075.83697,0.00782
3073.77680,0.00768
3071.71663,0.00757
3069.65645,0.00746
3067.59628,0.00735
3065.53611,0.00724
3063.47594,0.00719
3061.41577,0.00719
3059.35559,0.00724
3057.29542,0.00730
3055.23525,0.00730
3053.17508,0.00725
3051.11491,0.00715
3049.05473,0.00705
3046.99456,0.00697
3044.93439,0.00691
3042.87422,0.00681
3040.81404,0.00665
3038.75387,0.00646
3036.69370,0.00631
3034.63353,0.00621
3032.57336,0.00618
3030.51318,0.00617
3028.45301,0.00618
3026.39284,0.00621
3024.33267,0.00624
3022.27250,0.00626
3020.21232,0.00621
3018.15215,0.00609
3016.09198,0.00591
3014.03181,0.00578
3011.97163,0.00576
3009.91146,0.00582
3007.85129,0.00586
3005.79112,0.00583
3003.73095,0.00573
3001.67077,0.00564
2999.61060,0.00563
2997.55043,0.00571
2995.49026,0.00576
2993.43009,0.00565
2991.36991,0.00544
2989.30974,0.00534
2987.24957,0.00542
2985.18940,0.00553
2983.12923,0.00562
2981.06905,0.00581
2979.00888,0.00597
2976.94871,0.00594
2974.88854,0.00583
2972.82836,0.00586
2970.76819,0.00594
2968.70802,0.00597
2966.64785,0.00598
2964.58768,0.00600
2962.52750,0.00606
2960.46733,0.00615
2958.40716,0.00628
2956.34699,0.00651
2954.28682,0.00684
2952.22664,0.00709
2950.16647,0.00709
2948.10630,0.00699
2946.04613,0.00711
2943.98596,0.00749
2941.92578,0.00784
2939.86561,0.00795
2937.80544,0.00793
2935.74527,0.00801
2933.68509,0.00816
2931.62492,0.00821
2929.56475,0.00810
2927.50458,0.00795
2925.44441,0.00786
2923.38423,0.00788
2921.32406,0.00787
2919.26389,0.00774
2917.20372,0.00766
2915.14355,0.00767
2913.08337,0.00763
2911.02320,0.00752
2908.96303,0.00752
2906.90286,0.00771
2904.84268,0.00790
2902.78251,0.00788
2900.72234,0.00769
2898.66217,0.00748
2896.60200,0.00732
2894.54182,0.00717
2892.48165,0.00705
2890.42148,0.00714
2888.36131,0.00734
2886.30114,0.00731
2884.24096,0.00700
2882.18079,0.00680
2880.12062,0.00686
2878.06045,0.00697
2876.00028,0.00702
2873.94010,0.00710
2871.87993,0.00716
2869.81976,0.00710
2867.75959,0.00697
2865.69941,0.00685
2863.63924,0.00666
2861.57907,0.00633
2859.51890,0.00603
2857.45873,0.00598
2855.39855,0.00615
2853.33838,0.00622
2851.27821,0.00604
2849.21804,0.00582
2847.15787,0.00571
2845.09769,0.00565
2843.03752,0.00562
2840.97735,0.00565
2838.91718,0.00569
2836.85700,0.00561
2834.79683,0.00550
2832.73666,0.00543
2830.67649,0.00538
2828.61632,0.00525
2826.55614,0.00510
2824.49597,0.00513
2822.43580,0.00530
2820.37563,0.00541
2818.31546,0.00529
2816.25528,0.00494
2814.19511,0.00459
2812.13494,0.00446
2810.07477,0.00458
2808.01460,0.00475
2805.95442,0.00482
2803.89425,0.00482
2801.83408,0.00487
2799.77391,0.00493
2797.71373,0.00490
2795.65356,0.00475
2793.59339,0.00454
2791.53322,0.00434
2789.47305,0.00424
2787.41287,0.00431
2785.35270,0.00445
2783.29253,0.00457
2781.23236,0.00464
2779.17219,0.00461
2777.11201,0.00451
2775.05184,0.00450
2772.99167,0.00464
2770.93150,0.00476
2768.87133,0.00472
2766.81115,0.00458
2764.75098,0.00445
2762.69081,0.00437
2760.63064,0.00437
2758.57046,0.00441
2756.51029,0.00442
2754.45012,0.00440
2752.38995,0.00440
2750.32978,0.00440
2748.26960,0.00440
2746.20943,0.00444
2744.14926,0.00452
2742.08909,0.00449
2740.02892,0.00438
2737.96874,0.00428
2735.90857,0.00426
2733.84840,0.00434
2731.78823,0.00447
2729.72805,0.00452
2727.66788,0.00453
2725.60771,0.00452
2723.54754,0.00442
2721.48737,0.00428
2719.42719,0.00420
2717.36702,0.00417
2715.30685,0.00418
2713.24668,0.00429
2711.18651,0.00441
2709.12633,0.00432
2707.06616,0.00408
2705.00599,0.00395
2702.94582,0.00403
2700.88565,0.00417
2698.82547,0.00423
2696.76530,0.00417
2694.70513,0.00403
2692.64496,0.00396
2690.58478,0.00410
2688.52461,0.00427
2686.46444,0.00420
2684.40427,0.00397
2682.34410,0.00379
2680.28392,0.00381
2678.22375,0.00397
2676.16358,0.00405
2674.10341,0.00402
2672.04324,0.00404
2669.98306,0.00413
2667.92289,0.00412
2665.86272,0.00405
2663.80255,0.00402
2661.74238,0.00407
2659.68220,0.00416
2657.62203,0.00422
2655.56186,0.00413
2653.50169,0.00390
2651.44151,0.00375
2649.38134,0.00381
2647.32117,0.00393
2645.26100,0.00397
2643.20083,0.00397
2641.14065,0.00401
2639.08048,0.00404
2637.02031,0.00399
2634.96014,0.00388
2632.89997,0.00379
2630.83979,0.00377
2628.77962,0.00377
2626.71945,0.00367
2624.65928,0.00340
2622.59910,0.00314
2620.53893,0.00318
2618.47876,0.00354
2616.41859,0.00389
2614.35842,0.00396
2612.29824,0.00372
2610.23807,0.00340
2608.17790,0.00326
2606.11773,0.00327
2604.05756,0.00331
2601.99738,0.00339
2599.93721,0.00354
2597.87704,0.00358
2595.81687,0.00344
2593.75670,0.00329
2591.69652,0.00334
2589.63635,0.00360
2587.57618,0.00387
2585.51601,0.00403
2583.45583,0.00401
2581.39566,0.00372
2579.33549,0.00332
2577.27532,0.00307
2575.21515,0.00308
2573.15497,0.00327
2571.09480,0.00349
2569.03463,0.00356
2566.97446,0.00346
2564.91429,0.00331
2562.85411,0.00321
2560.79394,0.00317
2558.73377,0.00316
2556.67360,0.00308
2554.61342,0.00300
2552.55325,0.00302
2550.49308,0.00309
2548.43291,0.00308
2546.37274,0.00301
2544.31256,0.00293
2542.25239,0.00290
2540.19222,0.00301
2538.13205,0.00324
2536.07188,0.00343
2534.01170,0.00344
2531.95153,0.00336
2529.89136,0.00337
2527.83119,0.00350
2525.77102,0.00357
2523.71084,0.00350
2521.65067,0.00342
2519.59050,0.00342
2517.53033,0.00340
2515.47015,0.00326
2513.40998,0.00309
2511.34981,0.00294
2509.28964,0.00287
2507.22947,0.00290
2505.16929,0.00297
2503.10912,0.00301
2501.04895,0.00295
2498.98878,0.00282
2496.92861,0.00281
2494.86843,0.00301
2492.80826,0.00331
2490.74809,0.00353
2488.68792,0.00346
2486.62775,0.00310
2484.56757,0.00274
2482.50740,0.00255
2480.44723,0.00247
2478.38706,0.00241
2476.32688,0.00230
2474.26671,0.00217
2472.20654,0.00221
2470.14637,0.00253
2468.08620,0.00293
2466.02602,0.00312
2463.96585,0.00299
2461.90568,0.00290
2459.84551,0.00313
2457.78534,0.00339
2455.72516,0.00335
2453.66499,0.00311
2451.60482,0.00294
2449.54465,0.00302
2447.48447,0.00322
2445.42430,0.00328
2443.36413,0.00317
2441.30396,0.00299
2439.24379,0.00294
2437.18361,0.00311
2435.12344,0.00333
2433.06327,0.00336
2431.00310,0.00319
2428.94293,0.00303
2426.88275,0.00291
2424.82258,0.00264
2422.76241,0.00236
2420.70224,0.00239
2418.64207,0.00260
2416.58189,0.00262
2414.52172,0.00249
2412.46155,0.00240
2410.40138,0.00234
2408.34120,0.00223
2406.28103,0.00225
2404.22086,0.00243
2402.16069,0.00255
2400.10052,0.00263
2398.04034,0.00283
2395.98017,0.00305
2393.92000,0.00317
2391.85983,0.00314
2389.79966,0.00299
2387.73948,0.00280
2385.67931,0.00261
2383.61914,0.00245
2381.55897,0.00233
2379.49880,0.00227
2377.43862,0.00232
2375.37845,0.00241
2373.31828,0.00245
2371.25811,0.00253
2369.19793,0.00281
2367.13776,0.00328
2365.07759,0.00375
2363.01742,0.00411
2360.95725,0.00410
2358.89707,0.00348
2356.83690,0.00253
2354.77673,0.00181
2352.71656,0.00161
2350.65639,0.00191
2348.59621,0.00255
2346.53604,0.00323
2344.47587,0.00358
2342.41570,0.00344
2340.35552,0.00310
2338.29535,0.00293
2336.23518,0.00291
2334.17501,0.00291
2332.11484,0.00283
2330.05466,0.00269
2327.99449,0.00256
2325.93432,0.00264
2323.87415,0.00303
2321.81398,0.00363
2319.75380,0.00425
2317.69363,0.00469
2315.63346,0.00485
2313.57329,0.00472
2311.51312,0.00435
2309.45294,0.00389
2307.39277,0.00350
2305.33260,0.00327
2303.27243,0.00317
2301.21225,0.00313
2299.15208,0.00312
2297.09191,0.00315
2295.03174,0.00321
2292.97157,0.00330
2290.91139,0.00336
2288.85122,0.00338
2286.79105,0.00337
2284.73088,0.00339
2282.67071,0.00347
2280.61053,0.00358
2278.55036,0.00366
2276.49019,0.00365
2274.43002,0.00348
2272.36984,0.00317
2270.30967,0.00288
2268.24950,0.00277
2266.18933,0.00287
2264.12916,0.00308
2262.06898,0.00322
2260.00881,0.00321
2257.94864,0.00314
2255.88847,0.00305
2253.82830,0.00285
2251.76812,0.00257
2249.70795,0.00251
2247.64778,0.00292
2245.58761,0.00343
2243.52744,0.00378
2241.46726,0.00414
2239.40709,0.00447
2237.34692,0.00448
2235.28675,0.00428
2233.22657,0.00401
2231.16640,0.00348
2229.10623,0.00279
2227.04606,0.00234
2224.98589,0.00221
2222.92571,0.00207
2220.86554,0.00197
2218.80537,0.00248
2216.74520,0.00355
2214.68503,0.00425
2212.62485,0.00409
2210.56468,0.00343
2208.50451,0.00288
2206.44434,0.00303
2204.38417,0.00383
2202.32399,0.00436
2200.26382,0.00414
2198.20365,0.00357
2196.14348,0.00310
2194.08330,0.00292
2192.02313,0.00318
2189.96296,0.00377
2187.90279,0.00409
2185.84262,0.00397
2183.78244,0.00405
2181.72227,0.00447
2179.66210,0.00445
2177.60193,0.00386
2175.54176,0.00340
2173.48158,0.00343
2171.42141,0.00404
2169.36124,0.00499
2167.30107,0.00543
2165.24089,0.00486
2163.18072,0.00346
2161.12055,0.00189
2159.06038,0.00113
2157.00021,0.00149
2154.94003,0.00222
2152.87986,0.00251
2150.81969,0.00248
2148.75952,0.00246
2146.69935,0.00213
2144.63917,0.00111
2142.57900,0.00007
2140.51883,0.00005
2138.45866,0.00097
2136.39849,0.00195
2134.33831,0.00245
2132.27814,0.00264
2130.21797,0.00283
2128.15780,0.00304
2126.09762,0.00328
2124.03745,0.00363
2121.97728,0.00407
2119.91711,0.00444
2117.85694,0.00458
2115.79676,0.00448
2113.73659,0.00425
2111.67642,0.00392
2109.61625,0.00359
2107.55608,0.00349
2105.49590,0.00367
2103.43573,0.00403
2101.37556,0.00441
2099.31539,0.00453
2097.25521,0.00432
2095.19504,0.00393
2093.13487,0.00355
2091.07470,0.00329
2089.01453,0.00312
2086.95435,0.00299
2084.89418,0.00293
2082.83401,0.00296
2080.77384,0.00301
2078.71367,0.00310
2076.65349,0.00333
2074.59332,0.00362
2072.53315,0.00378
2070.47298,0.00374
2068.41281,0.00359
2066.35263,0.00341
2064.29246,0.00320
2062.23229,0.00293
2060.17212,0.00266
2058.11194,0.00245
2056.05177,0.00238
2053.99160,0.00251
2051.93143,0.00288
2049.87126,0.00336
2047.81108,0.00382
2045.75091,0.00412
2043.69074,0.00434
2041.63057,0.00469
2039.57040,0.00520
2037.51022,0.00563
2035.45005,0.00559
2033.38988,0.00496
2031.32971,0.00397
2029.26954,0.00309
2027.20936,0.00256
2025.14919,0.00223
2023.08902,0.00200
2021.02885,0.00198
2018.96867,0.00220
2016.90850,0.00248
2014.84833,0.00262
2012.78816,0.00258
2010.72799,0.00254
2008.66781,0.00267
2006.60764,0.00290
2004.54747,0.00303
2002.48730,0.00310
2000.42713,0.00333
1998.36695,0.00384
1996.30678,0.00434
1994.24661,0.00457
1992.18644,0.00465
1990.12626,0.00490
1988.06609,0.00518
1986.00592,0.00497
1983.94575,0.00411
1981.88558,0.00293
1979.82540,0.00179
1977.76523,0.00084
1975.70506,0.00019
1973.64489,0.00000
1971.58472,0.00032
1969.52454,0.00103
1967.46437,0.00177
1965.40420,0.00223
1963.34403,0.00240
1961.28386,0.00243
1959.22368,0.00245
1957.16351,0.00251
1955.10334,0.00256
1953.04317,0.00255
1950.98299,0.00247
1948.92282,0.00229
1946.86265,0.00198
1944.80248,0.00159
1942.74231,0.00131
1940.68213,0.00136
1938.62196,0.00178
1936.56179,0.00233
1934.50162,0.00263
1932.44145,0.00259
1930.38127,0.00248
1928.32110,0.00254
1926.26093,0.00270
1924.20076,0.00275
1922.14059,0.00254
1920.08041,0.00212
1918.02024,0.00170
1915.96007,0.00148
1913.89990,0.00163
1911.83972,0.00209
1909.77955,0.00257
1907.71938,0.00279
1905.65921,0.00270
1903.59904,0.00249
1901.53886,0.00242
1899.47869,0.00257
1897.41852,0.00277
1895.35835,0.00279
1893.29818,0.00255
1891.23800,0.00220
1889.17783,0.00188
1887.11766,0.00171
1885.05749,0.00172
1882.99731,0.00181
1880.93714,0.00186
1878.87697,0.00185
1876.81680,0.00193
1874.75663,0.00217
1872.69645,0.00242
1870.63628,0.00245
1868.57611,0.00224
1866.51594,0.00199
1864.45577,0.00188
1862.39559,0.00192
1860.33542,0.00199
1858.27525,0.00196
1856.21508,0.00182
1854.15491,0.00162
1852.09473,0.00141
1850.03456,0.00130
1847.97439,0.00131
1845.91422,0.00140
1843.85404,0.00149
1841.79387,0.00154
1839.73370,0.00151
1837.67353,0.00144
1835.61336,0.00141
1833.55318,0.00148
1831.49301,0.00161
1829.43284,0.00167
1827.37267,0.00165
1825.31250,0.00161
1823.25232,0.00158
1821.19215,0.00155
1819.13198,0.00148
1817.07181,0.00137
1815.01163,0.00126
1812.95146,0.00127
1810.89129,0.00139
1808.83112,0.00149
1806.77095,0.00147
1804.71077,0.00140
1802.65060,0.00139
1800.59043,0.00144
1798.53026,0.00149
1796.47009,0.00151
1794.40991,0.00152
1792.34974,0.00154
1790.28957,0.00153
1788.22940,0.00147
1786.16923,0.00139
1784.10905,0.00135
1782.04888,0.00136
1779.98871,0.00141
1777.92854,0.00147
1775.86836,0.00151
1773.80819,0.00151
1771.74802,0.00148
1769.68785,0.00148
1767.62768,0.00155
1765.56750,0.00168
1763.50733,0.00185
1761.44716,0.00202
1759.38699,0.00215
1757.32682,0.00226
1755.26664,0.00240
1753.20647,0.00262
1751.14630,0.00292
1749.08613,0.00325
1747.02596,0.00354
1744.96578,0.00375
1742.90561,0.00388
1740.84544,0.00396
1738.78527,0.00406
1736.72509,0.00422
1734.66492,0.00442
1732.60475,0.00452
1730.54458,0.00446
1728.48441,0.00431
1726.42423,0.00418
1724.36406,0.00410
1722.30389,0.00404
1720.24372,0.00399
1718.18355,0.00392
1716.12337,0.00378
1714.06320,0.00353
1712.00303,0.00326
1709.94286,0.00306
1707.88268,0.00295
1705.82251,0.00285
1703.76234,0.00270
1701.70217,0.00253
1699.64200,0.00243
1697.58182,0.00244
1695.52165,0.00252
1693.46148,0.00259
1691.40131,0.00264
1689.34114,0.00271
1687.28096,0.00281
1685.22079,0.00299
1683.16062,0.00325
1681.10045,0.00353
1679.04028,0.00377
1676.98010,0.00397
1674.91993,0.00414
1672.85976,0.00433
1670.79959,0.00462
1668.73941,0.00497
1666.67924,0.00532
1664.61907,0.00562
1662.55890,0.00592
1660.49873,0.00623
1658.43855,0.00659
1656.37838,0.00705
1654.31821,0.00751
1652.25804,0.00777
1650.19787,0.00774
1648.13769,0.00766
1646.07752,0.00768
1644.01735,0.00781
1641.95718,0.00796
1639.89701,0.00812
1637.83683,0.00828
1635.77666,0.00838
1633.71649,0.00833
1631.65632,0.00819
1629.59614,0.00811
1627.53597,0.00817
1625.47580,0.00834
1623.41563,0.00856
1621.35546,0.00876
1619.29528,0.00894
1617.23511,0.00906
1615.17494,0.00906
1613.11477,0.00895
1611.05460,0.00879
1608.99442,0.00856
1606.93425,0.00822
1604.87408,0.00777
1602.81391,0.00729
1600.75373,0.00683
1598.69356,0.00641
1596.63339,0.00600
1594.57322,0.00560
1592.51305,0.00520
1590.45287,0.00481
1588.39270,0.00443
1586.33253,0.00406
1584.27236,0.00371
1582.21219,0.00338
1580.15201,0.00312
1578.09184,0.00297
1576.03167,0.00290
1573.97150,0.00281
1571.91133,0.00268
1569.85115,0.00252
1567.79098,0.00232
1565.73081,0.00213
1563.67064,0.00203
1561.61046,0.00205
1559.55029,0.00211
1557.49012,0.00203
1555.42995,0.00182
1553.36978,0.00159
1551.30960,0.00144
1549.24943,0.00138
1547.18926,0.00141
1545.12909,0.00154
1543.06892,0.00165
1541.00874,0.00160
1538.94857,0.00134
1536.88840,0.00104
1534.82823,0.00088
1532.76805,0.00085
1530.70788,0.00092
1528.64771,0.00105
1526.58754,0.00117
1524.52737,0.00120
1522.46719,0.00112
1520.40702,0.00095
1518.34685,0.00075
1516.28668,0.00057
1514.22651,0.00049
1512.16633,0.00059
1510.10616,0.00083
1508.04599,0.00105
1505.98582,0.00109
1503.92565,0.00095
1501.86547,0.00079
1499.80530,0.00065
1497.74513,0.00051
1495.68496,0.00038
1493.62478,0.00031
1491.56461,0.00037
1489.50444,0.00053
1487.44427,0.00071
1485.38410,0.00084
1483.32392,0.00096
1481.26375,0.00112
1479.20358,0.00134
1477.14341,0.00162
1475.08324,0.00196
1473.02306,0.00230
1470.96289,0.00255
1468.90272,0.00268
1466.84255,0.00278
1464.78238,0.00293
1462.72220,0.00318
1460.66203,0.00351
1458.60186,0.00387
1456.54169,0.00413
1454.48151,0.00424
1452.42134,0.00428
1450.36117,0.00436
1448.30100,0.00451
1446.24083,0.00466
1444.18065,0.00480
1442.12048,0.00493
1440.06031,0.00510
1438.00014,0.00532
1435.93997,0.00550
1433.87979,0.00561
1431.81962,0.00570
1429.75945,0.00583
1427.69928,0.00605
1425.63910,0.00632
1423.57893,0.00660
1421.51876,0.00684
1419.45859,0.00702
1417.39842,0.00710
1415.33824,0.00708
1413.27807,0.00704
1411.21790,0.00698
1409.15773,0.00690
1407.09756,0.00679
1405.03738,0.00667
1402.97721,0.00653
1400.91704,0.00640
1398.85687,0.00628
1396.79670,0.00615
1394.73652,0.00602
1392.67635,0.00588
1390.61618,0.00576
1388.55601,0.00572
1386.49583,0.00577
1384.43566,0.00589
1382.37549,0.00602
1380.31532,0.00618
1378.25515,0.00637
1376.19497,0.00659
1374.13480,0.00675
1372.07463,0.00683
1370.01446,0.00682
1367.95429,0.00675
1365.89411,0.00664
1363.83394,0.00655
1361.77377,0.00648
1359.71360,0.00643
1357.65343,0.00638
1355.59325,0.00627
1353.53308,0.00608
1351.47291,0.00590
1349.41274,0.00578
1347.35256,0.00574
1345.29239,0.00576
1343.23222,0.00582
1341.17205,0.00588
1339.11188,0.00587
1337.05170,0.00578
1334.99153,0.00568
1332.93136,0.00562
1330.87119,0.00560
1328.81102,0.00561
1326.75084,0.00562
1324.69067,0.00559
1322.63050,0.00557
1320.57033,0.00561
1318.51015,0.00571
1316.44998,0.00580
1314.38981,0.00583
1312.32964,0.00580
1310.26947,0.00576
1308.20929,0.00572
1306.14912,0.00564
1304.08895,0.00552
1302.02878,0.00533
1299.96861,0.00513
1297.90843,0.00495
1295.84826,0.00485
1293.78809,0.00479
1291.72792,0.00474
1289.66775,0.00467
1287.60757,0.00457
1285.54740,0.00449
1283.48723,0.00445
1281.42706,0.00445
1279.36688,0.00446
1277.30671,0.00451
1275.24654,0.00464
1273.18637,0.00483
1271.12620,0.00503
1269.06602,0.00519
1267.00585,0.00536
1264.94568,0.00559
1262.88551,0.00587
1260.82534,0.00616
1258.76516,0.00644
1256.70499,0.00666
1254.64482,0.00682
1252.58465,0.00694
1250.52447,0.00703
1248.46430,0.00709
1246.40413,0.00711
1244.34396,0.00710
1242.28379,0.00707
1240.22361,0.00703
1238.16344,0.00699
1236.10327,0.00689
1234.04310,0.00671
1231.98293,0.00645
1229.92275,0.00618
1227.86258,0.00593
1225.80241,0.00570
1223.74224,0.00551
1221.68207,0.00535
1219.62189,0.00520
1217.56172,0.00501
1215.50155,0.00472
1213.44138,0.00430
1211.38120,0.00379
1209.32103,0.00324
1207.26086,0.00268
1205.20069,0.00214
1203.14052,0.00167
1201.08034,0.00133
1199.02017,0.00113
1196.96000,0.00096
1194.89983,0.00068
1192.83966,0.00037
1190.77948,0.00019
1188.71931,0.00008
1186.65914,0.00000
1184.59897,-0.00000
1182.53880,0.00019
1180.47862,0.00051
1178.41845,0.00089
1176.35828,0.00129
1174.29811,0.00172
1172.23793,0.00225
1170.17776,0.00280
1168.11759,0.00321
1166.05742,0.00357
1163.99725,0.00406
1161.93707,0.00461
1159.87690,0.00515
1157.81673,0.00566
1155.75656,0.00610
1153.69639,0.00641
1151.63621,0.00663
1149.57604,0.00688
1147.51587,0.00714
1145.45570,0.00731
1143.39552,0.00748
1141.33535,0.00778
1139.27518,0.00814
1137.21501,0.00848
1135.15484,0.00879
1133.09466,0.00905
1131.03449,0.00934
1128.97432,0.00979
1126.91415,0.01027
1124.85398,0.01057
1122.79380,0.01079
1120.73363,0.01116
1118.67346,0.01169
1116.61329,0.01221
1114.55312,0.01266
1112.49294,0.01307
1110.43277,0.01347
1108.37260,0.01382
1106.31243,0.01416
1104.25225,0.01458
1102.19208,0.01511
1100.13191,0.01577
1098.07174,0.01653
1096.01157,0.01731
1093.95139,0.01802
1091.89122,0.01866
1089.83105,0.01922
1087.77088,0.01973
1085.71071,0.02025
1083.65053,0.02083
1081.59036,0.02132
1079.53019,0.02172
1077.47002,0.02228
1075.40985,0.02303
1073.34967,0.02377
1071.28950,0.02438
1069.22933,0.02486
1067.16916,0.02517
1065.10898,0.02528
1063.04881,0.02533
1060.98864,0.02545
1058.92847,0.02563
1056.86830,0.02588
1054.80812,0.02624
1052.74795,0.02665
1050.68778,0.02704
1048.62761,0.02743
1046.56744,0.02787
1044.50726,0.02837
1042.44709,0.02888
1040.38692,0.02944
1038.32675,0.03000
1036.26657,0.03033
1034.20640,0.03037
1032.14623,0.03032
1030.08606,0.03033
1028.02589,0.03037
1025.96571,0.03034
1023.90554,0.03031
1021.84537,0.03036
1019.78520,0.03045
1017.72503,0.03047
1015.66485,0.03039
1013.60468,0.03029
1011.54451,0.03034
1009.48434,0.03056
1007.42417,0.03062
1005.36399,0.03031
1003.30382,0.02985
1001.24365,0.02941
999.18348,0.02897
997.12330,0.02853
995.06313,0.02815
993.00296,0.02780
990.94279,0.02746
988.88262,0.02709
986.82244,0.02682
984.76227,0.02667
982.70210,0.02639
980.64193,0.02587
978.58176,0.02532
976.52158,0.02497
974.46141,0.02484
972.40124,0.02483
970.34107,0.02475
968.28089,0.02442
966.22072,0.02391
964.16055,0.02344
962.10038,0.02305
960.04021,0.02273
957.98003,0.02244
955.91986,0.02213
953.85969,0.02176
951.79952,0.02133
949.73935,0.02081
947.67917,0.02018
945.61900,0.01947
943.55883,0.01872
941.49866,0.01786
939.43849,0.01679
937.37831,0.01559
935.31814,0.01444
933.25797,0.01340
931.19780,0.01240
929.13762,0.01141
927.07745,0.01045
925.01728,0.00962
922.95711,0.00904
920.89694,0.00873
918.83676,0.00840
916.77659,0.00776
914.71642,0.00682
912.65625,0.00600
910.59608,0.00558
908.53590,0.00550
906.47573,0.00544
904.41556,0.00518
902.35539,0.00495
900.29522,0.00508
898.23504,0.00543
896.17487,0.00551
894.11470,0.00520
892.05453,0.00482
889.99435,0.00466
887.93418,0.00458
885.87401,0.00437
883.81384,0.00408
881.75367,0.00384
879.69349,0.00353
877.63332,0.00322
875.57315,0.00305
873.51298,0.00298
871.45281,0.00281
869.39263,0.00252
867.33246,0.00227
865.27229,0.00216
863.21212,0.00218
861.15194,0.00221
859.09177,0.00213
857.03160,0.00182
854.97143,0.00149
852.91126,0.00145
850.85108,0.00169
848.79091,0.00186
846.73074,0.00174
844.67057,0.00140
842.61040,0.00127
840.55022,0.00139
838.49005,0.00129
836.42988,0.00078
834.36971,0.00023
832.30954,0.00000
830.24936,0.00021
828.18919,0.00072
826.12902,0.00110
824.06885,0.00101
822.00867,0.00055
819.94850,0.00023
817.88833,0.00037
815.82816,0.00064
813.76799,0.00087
811.70781,0.00137
809.64764,0.00205
807.58747,0.00241
805.52730,0.00210
803.46713,0.00119
801.40695,0.00028
799.34678,0.00000
797.28661,0.00025
795.22644,0.00057
793.16627,0.00064
791.10609,0.00034
789.04592,-0.00025
786.98575,-0.00066
784.92558,-0.00057
782.86540,-0.00028
780.80523,-0.00006
778.74506,0.00013
776.68489,0.00037
774.62472,0.00060
772.56454,0.00060
770.50437,0.00025
768.44420,-0.00024
766.38403,-0.00048
764.32386,-0.00023
762.26368,0.00027
760.20351,0.00072
758.14334,0.00102
756.08317,0.00101
754.02299,0.00063
751.96282,0.00016
749.90265,0.00000
747.84248,0.00005
745.78231,-0.00003
743.72213,-0.00019
741.66196,-0.00007
739.60179,0.00013
737.54162,-0.00006
735.48145,-0.00053
733.42127,-0.00088
731.36110,-0.00096
729.30093,-0.00083
727.24076,-0.00058
725.18059,-0.00026
723.12041,0.00018
721.06024,0.00053
719.00007,0.00058
716.93990,0.00038
714.87972,0.00019
712.81955,0.00017
710.75938,0.00023
708.69921,0.00030
706.63904,0.00041
704.57886,0.00062
702.51869,0.00089
700.45852,0.00108
698.39835,0.00108
696.33818,0.00084
694.27800,0.00051
692.21783,0.00036
690.15766,0.00055
688.09749,0.00110
686.03731,0.00180
683.97714,0.00225
681.91697,0.00210
679.85680,0.00147
677.79663,0.00076
675.73645,0.00025
673.67628,-0.00002
671.61611,-0.00004
669.55594,0.00019
667.49577,0.00054
665.43559,0.00075
663.37542,0.00087
661.31525,0.00118
659.25508,0.00181
657.19491,0.00251
655.13473,0.00294
653.07456,0.00295
651.01439,0.00269
648.95422,0.00237
646.89404,0.00205
644.83387,0.00156
642.77370,0.00091
640.71353,0.00033
638.65336,0.00000
636.59318,-0.00024
634.53301,-0.00039
632.47284,-0.00041
630.41267,-0.00028
628.35250,0.00005
626.29232,0.00052
624.23215,0.00079
622.17198,0.00100
620.11181,0.00152
618.05164,0.00131
615.99146,-0.00022
613.93129,-0.00115
611.87112,-0.00073
609.81095,-0.00008
607.75077,0.00001
605.69060,-0.00098
603.63043,-0.00214
601.57026,-0.00177
599.51009,0.00000
