3996.73391,0.00064
3994.67373,0.00082
3992.61356,0.00094
3990.55339,0.00094
3988.49322,0.00073
3986.43305,0.00035
3984.37287,0.00004
3982.31270,0.00000
3980.25253,0.00022
3978.19236,0.00053
3976.13219,0.00082
3974.07201,0.00098
3972.01184,0.00097
3969.95167,0.00084
3967.89150,0.00070
3965.83133,0.00066
3963.77115,0.00069
3961.71098,0.00071
3959.65081,0.00068
3957.59064,0.00071
3955.53046,0.00082
3953.47029,0.00092
3951.41012,0.00096
3949.34995,0.00102
3947.28978,0.00114
3945.22960,0.00120
3943.16943,0.00105
3941.10926,0.00068
3939.04909,0.00027
3936.98892,0.00003
3934.92874,0.00000
3932.86857,0.00005
3930.80840,0.00008
3928.74823,0.00008
3926.68805,0.00015
3924.62788,0.00035
3922.56771,0.00060
3920.50754,0.00081
3918.44737,0.00097
3916.38719,0.00105
3914.32702,0.00099
3912.26685,0.00082
3910.20668,0.00065
3908.14651,0.00057
3906.08633,0.00065
3904.02616,0.00088
3901.96599,0.00117
3899.90582,0.00136
3897.84565,0.00138
3895.78547,0.00126
3893.72530,0.00105
3891.66513,0.00083
3889.60496,0.00065
3887.54478,0.00062
3885.48461,0.00083
3883.42444,0.00119
3881.36427,0.00144
3879.30410,0.00148
3877.24392,0.00139
3875.18375,0.00128
3873.12358,0.00115
3871.06341,0.00098
3869.00324,0.00083
3866.94306,0.00068
3864.88289,0.00052
3862.82272,0.00037
3860.76255,0.00025
3858.70237,0.00019
3856.64220,0.00031
3854.58203,0.00071
3852.52186,0.00119
3850.46169,0.00137
3848.40151,0.00114
3846.34134,0.00080
3844.28117,0.00063
3842.22100,0.00073
3840.16083,0.00093
3838.10065,0.00111
3836.04048,0.00130
3833.98031,0.00151
3831.92014,0.00167
3829.85997,0.00174
3827.79979,0.00171
3825.73962,0.00161
3823.67945,0.00142
3821.61928,0.00110
3819.55910,0.00067
3817.49893,0.00031
3815.43876,0.00016
3813.37859,0.00014
3811.31842,0.00006
3809.25824,0.00000
3807.19807,0.00014
3805.13790,0.00045
3803.07773,0.00076
3801.01756,0.00104
3798.95738,0.00133
3796.89721,0.00159
3794.83704,0.00174
3792.77687,0.00174
3790.71670,0.00159
3788.65652,0.00132
3786.59635,0.00109
3784.53618,0.00102
3782.47601,0.00109
3780.41583,0.00121
3778.35566,0.00131
3776.29549,0.00133
3774.23532,0.00132
3772.17515,0.00138
3770.11497,0.00155
3768.05480,0.00171
3765.99463,0.00160
3763.93446,0.00112
3761.87429,0.00050
3759.81411,0.00015
3757.75394,0.00032
3755.69377,0.00086
3753.63360,0.00141
3751.57342,0.00165
3749.51325,0.00157
3747.45308,0.00141
3745.39291,0.00140
3743.33274,0.00151
3741.27256,0.00157
3739.21239,0.00161
3737.15222,0.00187
3735.09205,0.00245
3733.03188,0.00311
3730.97170,0.00342
3728.91153,0.00321
3726.85136,0.00271
3724.79119,0.00230
3722.73102,0.00223
3720.67084,0.00241
3718.61067,0.00259
3716.55050,0.00269
3714.49033,0.00280
3712.43015,0.00291
3710.36998,0.00286
3708.30981,0.00259
3706.24964,0.00230
3704.18947,0.00218
3702.12929,0.00219
3700.06912,0.00211
3698.00895,0.00188
3695.94878,0.00167
3693.88861,0.00170
3691.82843,0.00190
3689.76826,0.00208
3687.70809,0.00207
3685.64792,0.00196
3683.58775,0.00190
3681.52757,0.00194
3679.46740,0.00205
3677.40723,0.00217
3675.34706,0.00226
3673.28688,0.00234
3671.22671,0.00247
3669.16654,0.00260
3667.10637,0.00248
3665.04620,0.00206
3662.98602,0.00166
3660.92585,0.00161
3658.86568,0.00199
3656.80551,0.00256
3654.74534,0.00300
3652.68516,0.00322
3650.62499,0.00348
3648.56482,0.00388
3646.50465,0.00411
3644.44447,0.00402
3642.38430,0.00386
3640.32413,0.00387
3638.26396,0.00400
3636.20379,0.00415
3634.14361,0.00431
3632.08344,0.00457
3630.02327,0.00495
3627.96310,0.00535
3625.90293,0.00564
3623.84275,0.00584
3621.78258,0.00604
3619.72241,0.00621
3617.66224,0.00625
3615.60207,0.00612
3613.54189,0.00592
3611.48172,0.00586
3609.42155,0.00605
3607.36138,0.00638
3605.30120,0.00666
3603.24103,0.00683
3601.18086,0.00700
3599.12069,0.00728
3597.06052,0.00766
3595.00034,0.00798
3592.94017,0.00813
3590.88000,0.00820
3588.81983,0.00832
3586.75966,0.00857
3584.69948,0.00880
3582.63931,0.00893
3580.57914,0.00902
3578.51897,0.00917
3576.45879,0.00935
3574.39862,0.00960
3572.33845,0.00997
3570.27828,0.01046
3568.21811,0.01090
3566.15793,0.01113
3564.09776,0.01115
3562.03759,0.01111
3559.97742,0.01118
3557.91725,0.01145
3555.85707,0.01192
3553.79690,0.01254
3551.73673,0.01308
3549.67656,0.01336
3547.61639,0.01334
3545.55621,0.01314
3543.49604,0.01295
3541.43587,0.01288
3539.37570,0.01299
3537.31552,0.01334
3535.25535,0.01382
3533.19518,0.01423
3531.13501,0.01448
3529.07484,0.01467
3527.01466,0.01490
3524.95449,0.01520
3522.89432,0.01554
3520.83415,0.01585
3518.77398,0.01608
3516.71380,0.01628
3514.65363,0.01648
3512.59346,0.01658
3510.53329,0.01649
3508.47312,0.01637
3506.41294,0.01642
3504.35277,0.01673
3502.29260,0.01721
3500.23243,0.01769
3498.17225,0.01806
3496.11208,0.01840
3494.05191,0.01878
3491.99174,0.01912
3489.93157,0.01926
3487.87139,0.01923
3485.81122,0.01921
3483.75105,0.01933
3481.69088,0.01955
3479.63071,0.01980
3477.57053,0.02006
3475.51036,0.02039
3473.45019,0.02074
3471.39002,0.02103
3469.32984,0.02125
3467.26967,0.02144
3465.20950,0.02164
3463.14933,0.02184
3461.08916,0.02198
3459.02898,0.02205
3456.96881,0.02209
3454.90864,0.02219
3452.84847,0.02238
3450.78830,0.02263
3448.72812,0.02287
3446.66795,0.02307
3444.60778,0.02327
3442.54761,0.02348
3440.48744,0.02366
3438.42726,0.02375
3436.36709,0.02374
3434.30692,0.02363
3432.24675,0.02347
3430.18657,0.02334
3428.12640,0.02334
3426.06623,0.02352
3424.00606,0.02387
3421.94589,0.02429
3419.88571,0.02467
3417.82554,0.02502
3415.76537,0.02538
3413.70520,0.02569
3411.64503,0.02588
3409.58485,0.02596
3407.52468,0.02604
3405.46451,0.02617
3403.40434,0.02638
3401.34416,0.02669
3399.28399,0.02709
3397.22382,0.02745
3395.16365,0.02761
3393.10348,0.02749
3391.04330,0.02715
3388.98313,0.02677
3386.92296,0.02655
3384.86279,0.02655
3382.80262,0.02670
3380.74244,0.02693
3378.68227,0.02725
3376.62210,0.02762
3374.56193,0.02792
3372.50176,0.02799
3370.44158,0.02786
3368.38141,0.02769
3366.32124,0.02764
3364.26107,0.02772
3362.20089,0.02784
3360.14072,0.02803
3358.08055,0.02841
3356.02038,0.02889
3353.96021,0.02921
3351.90003,0.02924
3349.83986,0.02913
3347.77969,0.02911
3345.71952,0.02928
3343.65935,0.02959
3341.59917,0.02979
3339.53900,0.02973
3337.47883,0.02956
3335.41866,0.02951
3333.35849,0.02961
3331.29831,0.02974
3329.23814,0.02976
3327.17797,0.02973
3325.11780,0.02977
3323.05762,0.02994
3320.99745,0.03016
3318.93728,0.03031
3316.87711,0.03032
3314.81694,0.03030
3312.75676,0.03033
3310.69659,0.03038
3308.63642,0.03043
3306.57625,0.03048
3304.51608,0.03054
3302.45590,0.03055
3300.39573,0.03049
3298.33556,0.03038
3296.27539,0.03027
3294.21521,0.03020
3292.15504,0.03017
3290.09487,0.03024
3288.03470,0.03040
3285.97453,0.03058
3283.91435,0.03073
3281.85418,0.03086
3279.79401,0.03095
3277.73384,0.03096
3275.67367,0.03093
3273.61349,0.03091
3271.55332,0.03085
3269.49315,0.03071
3267.43298,0.03055
3265.37281,0.03041
3263.31263,0.03031
3261.25246,0.03022
3259.19229,0.03009
3257.13212,0.02989
3255.07194,0.02968
3253.01177,0.02956
3250.95160,0.02956
3248.89143,0.02962
3246.83126,0.02968
3244.77108,0.02969
3242.71091,0.02961
3240.65074,0.02943
3238.59057,0.02924
3236.53040,0.02914
3234.47022,0.02921
3232.41005,0.02936
3230.34988,0.02945
3228.28971,0.02943
3226.22954,0.02935
3224.16936,0.02929
3222.10919,0.02922
3220.04902,0.02913
3217.98885,0.02904
3215.92867,0.02895
3213.86850,0.02886
3211.80833,0.02878
3209.74816,0.02867
3207.68799,0.02850
3205.62781,0.02832
3203.56764,0.02817
3201.50747,0.02801
3199.44730,0.02776
3197.38713,0.02747
3195.32695,0.02725
3193.26678,0.02707
3191.20661,0.02689
3189.14644,0.02671
3187.08626,0.02654
3185.02609,0.02642
3182.96592,0.02637
3180.90575,0.02633
3178.84558,0.02624
3176.78540,0.02606
3174.72523,0.02581
3172.66506,0.02553
3170.60489,0.02528
3168.54472,0.02512
3166.48454,0.02500
3164.42437,0.02485
3162.36420,0.02460
3160.30403,0.02425
3158.24386,0.02386
3156.18368,0.02347
3154.12351,0.02314
3152.06334,0.02291
3150.00317,0.02278
3147.94299,0.02275
3145.88282,0.02280
3143.82265,0.02287
3141.76248,0.02287
3139.70231,0.02280
3137.64213,0.02269
3135.58196,0.02258
3133.52179,0.02244
3131.46162,0.02227
3129.40145,0.02203
3127.34127,0.02167
3125.28110,0.02120
3123.22093,0.02068
3121.16076,0.02018
3119.10058,0.01975
3117.04041,0.01941
3114.98024,0.01920
3112.92007,0.01919
3110.85990,0.01935
3108.79972,0.01950
3106.73955,0.01947
3104.67938,0.01925
3102.61921,0.01895
3100.55904,0.01860
3098.49886,0.01818
3096.43869,0.01779
3094.37852,0.01758
3092.31835,0.01753
3090.25818,0.01748
3088.19800,0.01737
3086.13783,0.01721
3084.07766,0.01705
3082.01749,0.01692
3079.95731,0.01678
3077.89714,0.01657
3075.83697,0.01628
3073.77680,0.01596
3071.71663,0.01569
3069.65645,0.01546
3067.59628,0.01523
3065.53611,0.01498
3063.47594,0.01475
3061.41577,0.01459
3059.35559,0.01449
3057.29542,0.01446
3055.23525,0.01444
3053.17508,0.01439
3051.11491,0.01429
3049.05473,0.01414
3046.99456,0.01391
3044.93439,0.01363
3042.87422,0.01339
3040.81404,0.01324
3038.75387,0.01313
3036.69370,0.01304
3034.63353,0.01295
3032.57336,0.01286
3030.51318,0.01275
3028.45301,0.01261
3026.39284,0.01245
3024.33267,0.01237
3022.27250,0.01235
3020.21232,0.01234
3018.15215,0.01228
3016.09198,0.01216
3014.03181,0.01200
3011.97163,0.01184
3009.91146,0.01169
3007.85129,0.01155
3005.79112,0.01146
3003.73095,0.01147
3001.67077,0.01158
2999.61060,0.01167
2997.55043,0.01161
2995.49026,0.01153
2993.43009,0.01165
2991.36991,0.01202
2989.30974,0.01235
2987.24957,0.01231
2985.18940,0.01206
2983.12923,0.01194
2981.06905,0.01197
2979.00888,0.01203
2976.94871,0.01223
2974.88854,0.01252
2972.82836,0.01269
2970.76819,0.01284
2968.70802,0.01310
2966.64785,0.01331
2964.58768,0.01342
2962.52750,0.01356
2960.46733,0.01374
2958.40716,0.01383
2956.34699,0.01390
2954.28682,0.01409
2952.22664,0.01442
2950.16647,0.01495
2948.10630,0.01572
2946.04613,0.01632
2943.98596,0.01643
2941.92578,0.01632
2939.86561,0.01623
2937.80544,0.01613
2935.74527,0.01597
2933.68509,0.01585
2931.62492,0.01589
2929.56475,0.01596
2927.50458,0.01585
2925.44441,0.01572
2923.38423,0.01573
2921.32406,0.01567
2919.26389,0.01538
2917.20372,0.01519
2915.14355,0.01523
2913.08337,0.01522
2911.02320,0.01511
2908.96303,0.01507
2906.90286,0.01505
2904.84268,0.01500
2902.78251,0.01495
2900.72234,0.01493
2898.66217,0.01489
2896.60200,0.01472
2894.54182,0.01446
2892.48165,0.01431
2890.42148,0.01435
2888.36131,0.01457
2886.30114,0.01489
2884.24096,0.01497
2882.18079,0.01464
2880.12062,0.01422
2878.06045,0.01398
2876.00028,0.01389
2873.94010,0.01388
2871.87993,0.01382
2869.81976,0.01362
2867.75959,0.01335
2865.69941,0.01312
2863.63924,0.01302
2861.57907,0.01296
2859.51890,0.01278
2857.45873,0.01245
2855.39855,0.01214
2853.33838,0.01197
2851.27821,0.01190
2849.21804,0.01184
2847.15787,0.01176
2845.09769,0.01161
2843.03752,0.01132
2840.97735,0.01103
2838.91718,0.01092
2836.85700,0.01087
2834.79683,0.01072
2832.73666,0.01050
2830.67649,0.01025
2828.61632,0.01008
2826.55614,0.01006
2824.49597,0.01011
2822.43580,0.01009
2820.37563,0.01004
2818.31546,0.01010
2816.25528,0.01017
2814.19511,0.01022
2812.13494,0.01024
2810.07477,0.01011
2808.01460,0.00980
2805.95442,0.00953
2803.89425,0.00949
2801.83408,0.00972
2799.77391,0.00999
2797.71373,0.01003
2795.65356,0.00979
2793.59339,0.00952
2791.53322,0.00944
2789.47305,0.00954
2787.41287,0.00966
2785.35270,0.00961
2783.29253,0.00942
2781.23236,0.00917
2779.17219,0.00884
2777.11201,0.00859
2775.05184,0.00856
2772.99167,0.00861
2770.93150,0.00866
2768.87133,0.00880
2766.81115,0.00895
2764.75098,0.00892
2762.69081,0.00878
2760.63064,0.00877
2758.57046,0.00889
2756.51029,0.00898
2754.45012,0.00896
2752.38995,0.00894
2750.32978,0.00894
2748.26960,0.00887
2746.20943,0.00873
2744.14926,0.00863
2742.08909,0.00860
2740.02892,0.00869
2737.96874,0.00889
2735.90857,0.00899
2733.84840,0.00884
2731.78823,0.00860
2729.72805,0.00846
2727.66788,0.00849
2725.60771,0.00853
2723.54754,0.00850
2721.48737,0.00842
2719.42719,0.00835
2717.36702,0.00832
2715.30685,0.00836
2713.24668,0.00838
2711.18651,0.00824
2709.12633,0.00804
2707.06616,0.00804
2705.00599,0.00828
2702.94582,0.00849
2700.88565,0.00846
2698.82547,0.00828
2696.76530,0.00822
2694.70513,0.00833
2692.64496,0.00848
2690.58478,0.00852
2688.52461,0.00841
2686.46444,0.00823
2684.40427,0.00815
2682.34410,0.00817
2680.28392,0.00827
2678.22375,0.00838
2676.16358,0.00843
2674.10341,0.00840
2672.04324,0.00825
2669.98306,0.00801
2667.92289,0.00784
2665.86272,0.00772
2663.80255,0.00758
2661.74238,0.00757
2659.68220,0.00785
2657.62203,0.00830
2655.56186,0.00859
2653.50169,0.00853
2651.44151,0.00823
2649.38134,0.00784
2647.32117,0.00750
2645.26100,0.00737
2643.20083,0.00759
2641.14065,0.00801
2639.08048,0.00824
2637.02031,0.00813
2634.96014,0.00790
2632.89997,0.00773
2630.83979,0.00769
2628.77962,0.00776
2626.71945,0.00782
2624.65928,0.00771
2622.59910,0.00745
2620.53893,0.00719
2618.47876,0.00699
2616.41859,0.00681
2614.35842,0.00665
2612.29824,0.00648
2610.23807,0.00648
2608.17790,0.00681
2606.11773,0.00706
2604.05756,0.00687
2601.99738,0.00665
2599.93721,0.00677
2597.87704,0.00680
2595.81687,0.00643
2593.75670,0.00613
2591.69652,0.00627
2589.63635,0.00645
2587.57618,0.00636
2585.51601,0.00628
2583.45583,0.00646
2581.39566,0.00664
2579.33549,0.00658
2577.27532,0.00649
2575.21515,0.00664
2573.15497,0.00686
2571.09480,0.00691
2569.03463,0.00684
2566.97446,0.00686
2564.91429,0.00689
2562.85411,0.00678
2560.79394,0.00660
2558.73377,0.00658
2556.67360,0.00668
2554.61342,0.00658
2552.55325,0.00602
2550.49308,0.00518
2548.43291,0.00464
2546.37274,0.00465
2544.31256,0.00508
2542.25239,0.00569
2540.19222,0.00625
2538.13205,0.00653
2536.07188,0.00629
2534.01170,0.00573
2531.95153,0.00534
2529.89136,0.00534
2527.83119,0.00565
2525.77102,0.00613
2523.71084,0.00640
2521.65067,0.00635
2519.59050,0.00631
2517.53033,0.00637
2515.47015,0.00627
2513.40998,0.00596
2511.34981,0.00553
2509.28964,0.00513
2507.22947,0.00505
2505.16929,0.00533
2503.10912,0.00573
2501.04895,0.00587
2498.98878,0.00565
2496.92861,0.00538
2494.86843,0.00531
2492.80826,0.00532
2490.74809,0.00533
2488.68792,0.00550
2486.62775,0.00570
2484.56757,0.00584
2482.50740,0.00601
2480.44723,0.00612
2478.38706,0.00601
2476.32688,0.00590
2474.26671,0.00607
2472.20654,0.00645
2470.14637,0.00666
2468.08620,0.00642
2466.02602,0.00573
2463.96585,0.00512
2461.90568,0.00507
2459.84551,0.00536
2457.78534,0.00534
2455.72516,0.00492
2453.66499,0.00476
2451.60482,0.00522
2449.54465,0.00581
2447.48447,0.00592
2445.42430,0.00561
2443.36413,0.00533
2441.30396,0.00544
2439.24379,0.00588
2437.18361,0.00618
2435.12344,0.00600
2433.06327,0.00565
2431.00310,0.00549
2428.94293,0.00537
2426.88275,0.00522
2424.82258,0.00520
2422.76241,0.00518
2420.70224,0.00502
2418.64207,0.00479
2416.58189,0.00462
2414.52172,0.00465
2412.46155,0.00485
2410.40138,0.00495
2408.34120,0.00477
2406.28103,0.00435
2404.22086,0.00385
2402.16069,0.00366
2400.10052,0.00393
2398.04034,0.00426
2395.98017,0.00455
2393.92000,0.00485
2391.85983,0.00510
2389.79966,0.00521
2387.73948,0.00510
2385.67931,0.00483
2383.61914,0.00453
2381.55897,0.00441
2379.49880,0.00454
2377.43862,0.00480
2375.37845,0.00493
2373.31828,0.00470
2371.25811,0.00410
2369.19793,0.00338
2367.13776,0.00304
2365.07759,0.00347
2363.01742,0.00447
2360.95725,0.00545
2358.89707,0.00606
2356.83690,0.00635
2354.77673,0.00652
2352.71656,0.00658
2350.65639,0.00645
2348.59621,0.00637
2346.53604,0.00673
2344.47587,0.00746
2342.41570,0.00796
2340.35552,0.00781
2338.29535,0.00723
2336.23518,0.00670
2334.17501,0.00660
2332.11484,0.00705
2330.05466,0.00782
2327.99449,0.00831
2325.93432,0.00816
2323.87415,0.00768
2321.81398,0.00750
2319.75380,0.00774
2317.69363,0.00794
2315.63346,0.00773
2313.57329,0.00711
2311.51312,0.00638
2309.45294,0.00580
2307.39277,0.00550
2305.33260,0.00547
2303.27243,0.00567
2301.21225,0.00599
2299.15208,0.00634
2297.09191,0.00660
2295.03174,0.00683
2292.97157,0.00709
2290.91139,0.00727
2288.85122,0.00715
2286.79105,0.00667
2284.73088,0.00601
2282.67071,0.00552
2280.61053,0.00548
2278.55036,0.00594
2276.49019,0.00667
2274.43002,0.00729
2272.36984,0.00742
2270.30967,0.00699
2268.24950,0.00621
2266.18933,0.00533
2264.12916,0.00460
2262.06898,0.00420
2260.00881,0.00408
2257.94864,0.00405
2255.88847,0.00407
2253.82830,0.00421
2251.76812,0.00457
2249.70795,0.00517
2247.64778,0.00590
2245.58761,0.00634
2243.52744,0.00647
2241.46726,0.00649
2239.40709,0.00644
2237.34692,0.00640
2235.28675,0.00643
2233.22657,0.00631
2231.16640,0.00588
2229.10623,0.00532
2227.04606,0.00488
2224.98589,0.00462
2222.92571,0.00450
2220.86554,0.00464
2218.80537,0.00497
2216.74520,0.00490
2214.68503,0.00442
2212.62485,0.00423
2210.56468,0.00443
2208.50451,0.00436
2206.44434,0.00379
2204.38417,0.00355
2202.32399,0.00464
2200.26382,0.00654
2198.20365,0.00797
2196.14348,0.00866
2194.08330,0.00811
2192.02313,0.00618
2189.96296,0.00460
2187.90279,0.00463
2185.84262,0.00540
2183.78244,0.00573
2181.72227,0.00541
2179.66210,0.00495
2177.60193,0.00482
2175.54176,0.00509
2173.48158,0.00568
2171.42141,0.00641
2169.36124,0.00702
2167.30107,0.00754
2165.24089,0.00762
2163.18072,0.00631
2161.12055,0.00366
2159.06038,0.00108
2157.00021,0.00002
2154.94003,0.00082
2152.87986,0.00257
2150.81969,0.00418
2148.75952,0.00515
2146.69935,0.00549
2144.63917,0.00526
2142.57900,0.00469
2140.51883,0.00420
2138.45866,0.00375
2136.39849,0.00327
2134.33831,0.00295
2132.27814,0.00286
2130.21797,0.00345
2128.15780,0.00484
2126.09762,0.00609
2124.03745,0.00646
2121.97728,0.00634
2119.91711,0.00593
2117.85694,0.00514
2115.79676,0.00463
2113.73659,0.00493
2111.67642,0.00528
2109.61625,0.00484
2107.55608,0.00411
2105.49590,0.00426
2103.43573,0.00529
2101.37556,0.00592
2099.31539,0.00546
2097.25521,0.00465
2095.19504,0.00421
2093.13487,0.00426
2091.07470,0.00454
2089.01453,0.00486
2086.95435,0.00513
2084.89418,0.00528
2082.83401,0.00528
2080.77384,0.00513
2078.71367,0.00497
2076.65349,0.00499
2074.59332,0.00524
2072.53315,0.00557
2070.47298,0.00579
2068.41281,0.00567
2066.35263,0.00507
2064.29246,0.00430
2062.23229,0.00399
2060.17212,0.00444
2058.11194,0.00528
2056.05177,0.00575
2053.99160,0.00549
2051.93143,0.00476
2049.87126,0.00403
2047.81108,0.00342
2045.75091,0.00294
2043.69074,0.00266
2041.63057,0.00251
2039.57040,0.00226
2037.51022,0.00179
2035.45005,0.00112
2033.38988,0.00047
2031.32971,0.00016
2029.26954,0.00041
2027.20936,0.00126
2025.14919,0.00217
2023.08902,0.00236
2021.02885,0.00179
2018.96867,0.00128
2016.90850,0.00150
2014.84833,0.00231
2012.78816,0.00300
2010.72799,0.00297
2008.66781,0.00233
2006.60764,0.00174
2004.54747,0.00169
2002.48730,0.00182
2000.42713,0.00157
1998.36695,0.00098
1996.30678,0.00076
1994.24661,0.00145
1992.18644,0.00293
1990.12626,0.00456
1988.06609,0.00578
1986.00592,0.00627
1983.94575,0.00601
1981.88558,0.00510
1979.82540,0.00384
1977.76523,0.00272
1975.70506,0.00214
1973.64489,0.00194
1971.58472,0.00149
1969.52454,0.00068
1967.46437,0.00002
1965.40420,0.00000
1963.34403,0.00065
1961.28386,0.00169
1959.22368,0.00271
1957.16351,0.00338
1955.10334,0.00363
1953.04317,0.00365
1950.98299,0.00348
1948.92282,0.00311
1946.86265,0.00265
1944.80248,0.00228
1942.74231,0.00209
1940.68213,0.00198
1938.62196,0.00170
1936.56179,0.00123
1934.50162,0.00087
1932.44145,0.00090
1930.38127,0.00126
1928.32110,0.00170
1926.26093,0.00218
1924.20076,0.00275
1922.14059,0.00326
1920.08041,0.00344
1918.02024,0.00319
1915.96007,0.00271
1913.89990,0.00232
1911.83972,0.00221
1909.77955,0.00233
1907.71938,0.00253
1905.65921,0.00262
1903.59904,0.00244
1901.53886,0.00199
1899.47869,0.00139
1897.41852,0.00085
1895.35835,0.00054
1893.29818,0.00057
1891.23800,0.00087
1889.17783,0.00126
1887.11766,0.00166
1885.05749,0.00202
1882.99731,0.00228
1880.93714,0.00236
1878.87697,0.00231
1876.81680,0.00220
1874.75663,0.00204
1872.69645,0.00173
1870.63628,0.00132
1868.57611,0.00100
1866.51594,0.00095
1864.45577,0.00115
1862.39559,0.00145
1860.33542,0.00167
1858.27525,0.00167
1856.21508,0.00148
1854.15491,0.00120
1852.09473,0.00101
1850.03456,0.00103
1847.97439,0.00117
1845.91422,0.00123
1843.85404,0.00115
1841.79387,0.00103
1839.73370,0.00098
1837.67353,0.00102
1835.61336,0.00115
1833.55318,0.00131
1831.49301,0.00148
1829.43284,0.00164
1827.37267,0.00170
1825.31250,0.00154
1823.25232,0.00119
1821.19215,0.00081
1819.13198,0.00058
1817.07181,0.00060
1815.01163,0.00082
1812.95146,0.00110
1810.89129,0.00131
1808.83112,0.00140
1806.77095,0.00138
1804.71077,0.00129
1802.65060,0.00110
1800.59043,0.00084
1798.53026,0.00063
1796.47009,0.00064
1794.40991,0.00086
1792.34974,0.00109
1790.28957,0.00114
1788.22940,0.00106
1786.16923,0.00102
1784.10905,0.00114
1782.04888,0.00135
1779.98871,0.00153
1777.92854,0.00154
1775.86836,0.00140
1773.80819,0.00124
1771.74802,0.00116
1769.68785,0.00115
1767.62768,0.00122
1765.56750,0.00141
1763.50733,0.00177
1761.44716,0.00224
1759.38699,0.00267
1757.32682,0.00297
1755.26664,0.00320
1753.20647,0.00359
1751.14630,0.00424
1749.08613,0.00498
1747.02596,0.00552
1744.96578,0.00579
1742.90561,0.00591
1740.84544,0.00600
1738.78527,0.00605
1736.72509,0.00606
1734.66492,0.00612
1732.60475,0.00631
1730.54458,0.00656
1728.48441,0.00668
1726.42423,0.00660
1724.36406,0.00647
1722.30389,0.00640
1720.24372,0.00631
1718.18355,0.00600
1716.12337,0.00544
1714.06320,0.00484
1712.00303,0.00439
1709.94286,0.00413
1707.88268,0.00395
1705.82251,0.00379
1703.76234,0.00366
1701.70217,0.00364
1699.64200,0.00373
1697.58182,0.00381
1695.52165,0.00387
1693.46148,0.00392
1691.40131,0.00399
1689.34114,0.00415
1687.28096,0.00441
1685.22079,0.00471
1683.16062,0.00496
1681.10045,0.00513
1679.04028,0.00526
1676.98010,0.00541
1674.91993,0.00559
1672.85976,0.00580
1670.79959,0.00605
1668.73941,0.00640
1666.67924,0.00685
1664.61907,0.00735
1662.55890,0.00790
1660.49873,0.00841
1658.43855,0.00883
1656.37838,0.00921
1654.31821,0.00964
1652.25804,0.01008
1650.19787,0.01037
1648.13769,0.01060
1646.07752,0.01091
1644.01735,0.01127
1641.95718,0.01154
1639.89701,0.01172
1637.83683,0.01188
1635.77666,0.01210
1633.71649,0.01231
1631.65632,0.01241
1629.59614,0.01237
1627.53597,0.01231
1625.47580,0.01233
1623.41563,0.01245
1621.35546,0.01258
1619.29528,0.01269
1617.23511,0.01277
1615.17494,0.01281
1613.11477,0.01279
1611.05460,0.01266
1608.99442,0.01240
1606.93425,0.01200
1604.87408,0.01148
1602.81391,0.01085
1600.75373,0.01017
1598.69356,0.00949
1596.63339,0.00881
1594.57322,0.00814
1592.51305,0.00748
1590.45287,0.00681
1588.39270,0.00619
1586.33253,0.00566
1584.27236,0.00521
1582.21219,0.00477
1580.15201,0.00435
1578.09184,0.00398
1576.03167,0.00373
1573.97150,0.00354
1571.91133,0.00332
1569.85115,0.00303
1567.79098,0.00265
1565.73081,0.00225
1563.67064,0.00192
1561.61046,0.00176
1559.55029,0.00173
1557.49012,0.00166
1555.42995,0.00139
1553.36978,0.00100
1551.30960,0.00067
1549.24943,0.00053
1547.18926,0.00056
1545.12909,0.00065
1543.06892,0.00064
1541.00874,0.00048
1538.94857,0.00025
1536.88840,0.00005
1534.82823,0.00001
1532.76805,0.00016
1530.70788,0.00039
1528.64771,0.00055
1526.58754,0.00053
1524.52737,0.00037
1522.46719,0.00019
1520.40702,0.00006
1518.34685,0.00003
1516.28668,0.00009
1514.22651,0.00020
1512.16633,0.00028
1510.10616,0.00032
1508.04599,0.00038
1505.98582,0.00049
1503.92565,0.00057
1501.86547,0.00058
1499.80530,0.00052
1497.74513,0.00048
1495.68496,0.00049
1493.62478,0.00061
1491.56461,0.00082
1489.50444,0.00110
1487.44427,0.00137
1485.38410,0.00148
1483.32392,0.00144
1481.26375,0.00135
1479.20358,0.00136
1477.14341,0.00158
1475.08324,0.00205
1473.02306,0.00276
1470.96289,0.00356
1468.90272,0.00428
1466.84255,0.00483
1464.78238,0.00522
1462.72220,0.00550
1460.66203,0.00571
1458.60186,0.00588
1456.54169,0.00607
1454.48151,0.00633
1452.42134,0.00666
1450.36117,0.00699
1448.30100,0.00721
1446.24083,0.00733
1444.18065,0.00744
1442.12048,0.00762
1440.06031,0.00786
1438.00014,0.00816
1435.93997,0.00851
1433.87979,0.00888
1431.81962,0.00923
1429.75945,0.00959
1427.69928,0.00995
1425.63910,0.01029
1423.57893,0.01057
1421.51876,0.01074
1419.45859,0.01083
1417.39842,0.01090
1415.33824,0.01096
1413.27807,0.01099
1411.21790,0.01102
1409.15773,0.01103
1407.09756,0.01097
1405.03738,0.01077
1402.97721,0.01043
1400.91704,0.00995
1398.85687,0.00944
1396.79670,0.00902
1394.73652,0.00878
1392.67635,0.00875
1390.61618,0.00887
1388.55601,0.00910
1386.49583,0.00938
1384.43566,0.00967
1382.37549,0.00993
1380.31532,0.01016
1378.25515,0.01035
1376.19497,0.01051
1374.13480,0.01061
1372.07463,0.01066
1370.01446,0.01068
1367.95429,0.01062
1365.89411,0.01046
1363.83394,0.01021
1361.77377,0.00993
1359.71360,0.00970
1357.65343,0.00956
1355.59325,0.00950
1353.53308,0.00947
1351.47291,0.00938
1349.41274,0.00926
1347.35256,0.00915
1345.29239,0.00907
1343.23222,0.00901
1341.17205,0.00895
1339.11188,0.00887
1337.05170,0.00875
1334.99153,0.00860
1332.93136,0.00848
1330.87119,0.00844
1328.81102,0.00848
1326.75084,0.00853
1324.69067,0.00855
1322.63050,0.00858
1320.57033,0.00868
1318.51015,0.00882
1316.44998,0.00892
1314.38981,0.00889
1312.32964,0.00875
1310.26947,0.00857
1308.20929,0.00842
1306.14912,0.00833
1304.08895,0.00827
1302.02878,0.00820
1299.96861,0.00809
1297.90843,0.00795
1295.84826,0.00782
1293.78809,0.00768
1291.72792,0.00754
1289.66775,0.00744
1287.60757,0.00737
1285.54740,0.00730
1283.48723,0.00721
1281.42706,0.00716
1279.36688,0.00721
1277.30671,0.00734
1275.24654,0.00746
1273.18637,0.00756
1271.12620,0.00773
1269.06602,0.00802
1267.00585,0.00843
1264.94568,0.00889
1262.88551,0.00937
1260.82534,0.00978
1258.76516,0.01011
1256.70499,0.01037
1254.64482,0.01060
1252.58465,0.01079
1250.52447,0.01094
1248.46430,0.01101
1246.40413,0.01098
1244.34396,0.01082
1242.28379,0.01057
1240.22361,0.01025
1238.16344,0.00989
1236.10327,0.00954
1234.04310,0.00922
1231.98293,0.00898
1229.92275,0.00880
1227.86258,0.00862
1225.80241,0.00838
1223.74224,0.00807
1221.68207,0.00768
1219.62189,0.00726
1217.56172,0.00686
1215.50155,0.00648
1213.44138,0.00609
1211.38120,0.00567
1209.32103,0.00520
1207.26086,0.00460
1205.20069,0.00387
1203.14052,0.00309
1201.08034,0.00236
1199.02017,0.00177
1196.96000,0.00137
1194.89983,0.00104
1192.83966,0.00063
1190.77948,0.00021
1188.71931,0.00001
1186.65914,0.00007
1184.59897,0.00022
1182.53880,0.00041
1180.47862,0.00081
1178.41845,0.00147
1176.35828,0.00218
1174.29811,0.00271
1172.23793,0.00322
1170.17776,0.00398
1168.11759,0.00498
1166.05742,0.00602
1163.99725,0.00689
1161.93707,0.00748
1159.87690,0.00785
1157.81673,0.00825
1155.75656,0.00876
1153.69639,0.00932
1151.63621,0.00993
1149.57604,0.01046
1147.51587,0.01077
1145.45570,0.01096
1143.39552,0.01121
1141.33535,0.01151
1139.27518,0.01172
1137.21501,0.01188
1135.15484,0.01220
1133.09466,0.01273
1131.03449,0.01330
1128.97432,0.01380
1126.91415,0.01433
1124.85398,0.01494
1122.79380,0.01546
1120.73363,0.01580
1118.67346,0.01614
1116.61329,0.01659
1114.55312,0.01717
1112.49294,0.01776
1110.43277,0.01827
1108.37260,0.01872
1106.31243,0.01922
1104.25225,0.01994
1102.19208,0.02090
1100.13191,0.02185
1098.07174,0.02254
1096.01157,0.02306
1093.95139,0.02376
1091.89122,0.02476
1089.83105,0.02596
1087.77088,0.02714
1085.71071,0.02790
1083.65053,0.02829
1081.59036,0.02876
1079.53019,0.02953
1077.47002,0.03050
1075.40985,0.03143
1073.34967,0.03216
1071.28950,0.03269
1069.22933,0.03311
1067.16916,0.03353
1065.10898,0.03395
1063.04881,0.03440
1060.98864,0.03493
1058.92847,0.03541
1056.86830,0.03571
1054.80812,0.03594
1052.74795,0.03621
1050.68778,0.03648
1048.62761,0.03675
1046.56744,0.03710
1044.50726,0.03766
1042.44709,0.03843
1040.38692,0.03918
1038.32675,0.03968
1036.26657,0.03990
1034.20640,0.03998
1032.14623,0.04016
1030.08606,0.04060
1028.02589,0.04103
1025.96571,0.04125
1023.90554,0.04140
1021.84537,0.04163
1019.78520,0.04186
1017.72503,0.04195
1015.66485,0.04178
1013.60468,0.04140
1011.54451,0.04108
1009.48434,0.04112
1007.42417,0.04136
1005.36399,0.04137
1003.30382,0.04095
1001.24365,0.04035
999.18348,0.03973
997.12330,0.03910
995.06313,0.03854
993.00296,0.03807
990.94279,0.03766
988.88262,0.03738
986.82244,0.03718
984.76227,0.03685
982.70210,0.03641
980.64193,0.03607
978.58176,0.03577
976.52158,0.03522
974.46141,0.03446
972.40124,0.03394
970.34107,0.03383
968.28089,0.03381
966.22072,0.03354
964.16055,0.03305
962.10038,0.03245
960.04021,0.03183
957.98003,0.03132
955.91986,0.03087
953.85969,0.03028
951.79952,0.02955
949.73935,0.02890
947.67917,0.02840
945.61900,0.02788
943.55883,0.02712
941.49866,0.02606
939.43849,0.02477
937.37831,0.02325
935.31814,0.02162
933.25797,0.02007
931.19780,0.01849
929.13762,0.01679
927.07745,0.01532
925.01728,0.01428
922.95711,0.01353
920.89694,0.01287
918.83676,0.01222
916.77659,0.01155
914.71642,0.01085
912.65625,0.01003
910.59608,0.00923
908.53590,0.00890
906.47573,0.00901
904.41556,0.00899
902.35539,0.00874
900.29522,0.00850
898.23504,0.00827
896.17487,0.00804
894.11470,0.00783
892.05453,0.00756
889.99435,0.00728
887.93418,0.00709
885.87401,0.00687
883.81384,0.00650
881.75367,0.00609
879.69349,0.00577
877.63332,0.00542
875.57315,0.00499
873.51298,0.00462
871.45281,0.00445
869.39263,0.00442
867.33246,0.00449
865.27229,0.00467
863.21212,0.00481
861.15194,0.00465
859.09177,0.00430
857.03160,0.00407
854.97143,0.00387
852.91126,0.00349
850.85108,0.00292
848.79091,0.00238
846.73074,0.00222
844.67057,0.00242
842.61040,0.00259
840.55022,0.00245
838.49005,0.00180
836.42988,0.00099
834.36971,0.00070
832.30954,0.00073
830.24936,0.00062
828.18919,0.00068
826.12902,0.00121
824.06885,0.00197
822.00867,0.00268
819.94850,0.00307
817.88833,0.00303
815.82816,0.00282
813.76799,0.00275
811.70781,0.00301
809.64764,0.00349
807.58747,0.00374
805.52730,0.00361
803.46713,0.00313
801.40695,0.00219
799.34678,0.00117
797.28661,0.00090
795.22644,0.00138
793.16627,0.00177
791.10609,0.00168
789.04592,0.00140
786.98575,0.00144
784.92558,0.00202
782.86540,0.00271
780.80523,0.00294
778.74506,0.00270
776.68489,0.00245
774.62472,0.00251
772.56454,0.00268
770.50437,0.00266
768.44420,0.00233
766.38403,0.00187
764.32386,0.00168
762.26368,0.00195
760.20351,0.00253
758.14334,0.00322
756.08317,0.00361
754.02299,0.00358
751.96282,0.00331
749.90265,0.00296
747.84248,0.00295
745.78231,0.00339
743.72213,0.00364
741.66196,0.00332
739.60179,0.00288
737.54162,0.00271
735.48145,0.00253
733.42127,0.00228
731.36110,0.00237
729.30093,0.00266
727.24076,0.00273
725.18059,0.00291
723.12041,0.00341
721.06024,0.00393
719.00007,0.00423
716.93990,0.00433
714.87972,0.00436
712.81955,0.00444
710.75938,0.00464
708.69921,0.00495
706.63904,0.00528
704.57886,0.00551
702.51869,0.00561
700.45852,0.00564
698.39835,0.00568
696.33818,0.00575
694.27800,0.00582
692.21783,0.00595
690.15766,0.00630
688.09749,0.00681
686.03731,0.00713
683.97714,0.00696
681.91697,0.00654
679.85680,0.00629
677.79663,0.00632
675.73645,0.00661
673.67628,0.00718
671.61611,0.00787
669.55594,0.00858
667.49577,0.00922
665.43559,0.00927
663.37542,0.00836
661.31525,0.00686
659.25508,0.00556
657.19491,0.00492
655.13473,0.00482
653.07456,0.00482
651.01439,0.00454
648.95422,0.00388
646.89404,0.00321
644.83387,0.00298
642.77370,0.00315
640.71353,0.00344
638.65336,0.00379
636.59318,0.00456
634.53301,0.00607
632.47284,0.00814
630.41267,0.00989
628.35250,0.00992
626.29232,0.00753
624.23215,0.00487
622.17198,0.00472
620.11181,0.00661
618.05164,0.00810
615.99146,0.00916
613.93129,0.01120
611.87112,0.01325
609.81095,0.01335
607.75077,0.01094
605.69060,0.00657
603.63043,0.00221
601.57026,0.00000
599.51009,0.00000
