3996.73391,0.00002
3994.67373,0.00025
3992.61356,0.00062
3990.55339,0.00096
3988.49322,0.00105
3986.43305,0.00092
3984.37287,0.00088
3982.31270,0.00084
3980.25253,0.00055
3978.19236,0.00025
3976.13219,0.00008
3974.07201,0.00009
3972.01184,0.00027
3969.95167,0.00050
3967.89150,0.00062
3965.83133,0.00051
3963.77115,0.00021
3961.71098,0.00000
3959.65081,0.00006
3957.59064,0.00032
3955.53046,0.00068
3953.47029,0.00092
3951.41012,0.00067
3949.34995,0.00018
3947.28978,0.00007
3945.22960,0.00042
3943.16943,0.00081
3941.10926,0.00097
3939.04909,0.00089
3936.98892,0.00066
3934.92874,0.00055
3932.86857,0.00074
3930.80840,0.00102
3928.74823,0.00102
3926.68805,0.00092
3924.62788,0.00095
3922.56771,0.00097
3920.50754,0.00087
3918.44737,0.00077
3916.38719,0.00080
3914.32702,0.00090
3912.26685,0.00087
3910.20668,0.00077
3908.14651,0.00085
3906.08633,0.00114
3904.02616,0.00143
3901.96599,0.00155
3899.90582,0.00150
3897.84565,0.00135
3895.78547,0.00114
3893.72530,0.00091
3891.66513,0.00066
3889.60496,0.00044
3887.54478,0.00044
3885.48461,0.00079
3883.42444,0.00113
3881.36427,0.00113
3879.30410,0.00098
3877.24392,0.00071
3875.18375,0.00049
3873.12358,0.00050
3871.06341,0.00063
3869.00324,0.00065
3866.94306,0.00062
3864.88289,0.00059
3862.82272,0.00054
3860.76255,0.00051
3858.70237,0.00046
3856.64220,0.00030
3854.58203,0.00026
3852.52186,0.00061
3850.46169,0.00091
3848.40151,0.00082
3846.34134,0.00048
3844.28117,0.00020
3842.22100,0.00019
3840.16083,0.00053
3838.10065,0.00096
3836.04048,0.00098
3833.98031,0.00064
3831.92014,0.00030
3829.85997,0.00024
3827.79979,0.00044
3825.73962,0.00076
3823.67945,0.00107
3821.61928,0.00127
3819.55910,0.00114
3817.49893,0.00082
3815.43876,0.00071
3813.37859,0.00064
3811.31842,0.00039
3809.25824,0.00020
3807.19807,0.00034
3805.13790,0.00069
3803.07773,0.00089
3801.01756,0.00089
3798.95738,0.00081
3796.89721,0.00071
3794.83704,0.00057
3792.77687,0.00057
3790.71670,0.00072
3788.65652,0.00069
3786.59635,0.00046
3784.53618,0.00027
3782.47601,0.00016
3780.41583,0.00014
3778.35566,0.00032
3776.29549,0.00048
3774.23532,0.00044
3772.17515,0.00040
3770.11497,0.00057
3768.05480,0.00072
3765.99463,0.00063
3763.93446,0.00052
3761.87429,0.00051
3759.81411,0.00061
3757.75394,0.00080
3755.69377,0.00086
3753.63360,0.00084
3751.57342,0.00116
3749.51325,0.00155
3747.45308,0.00130
3745.39291,0.00085
3743.33274,0.00095
3741.27256,0.00114
3739.21239,0.00108
3737.15222,0.00101
3735.09205,0.00101
3733.03188,0.00097
3730.97170,0.00098
3728.91153,0.00095
3726.85136,0.00085
3724.79119,0.00094
3722.73102,0.00119
3720.67084,0.00131
3718.61067,0.00127
3716.55050,0.00122
3714.49033,0.00112
3712.43015,0.00110
3710.36998,0.00130
3708.30981,0.00145
3706.24964,0.00141
3704.18947,0.00120
3702.12929,0.00090
3700.06912,0.00074
3698.00895,0.00086
3695.94878,0.00113
3693.88861,0.00121
3691.82843,0.00105
3689.76826,0.00096
3687.70809,0.00120
3685.64792,0.00140
3683.58775,0.00137
3681.52757,0.00119
3679.46740,0.00095
3677.40723,0.00105
3675.34706,0.00189
3673.28688,0.00244
3671.22671,0.00224
3669.16654,0.00217
3667.10637,0.00222
3665.04620,0.00202
3662.98602,0.00183
3660.92585,0.00183
3658.86568,0.00191
3656.80551,0.00189
3654.74534,0.00175
3652.68516,0.00180
3650.62499,0.00258
3648.56482,0.00368
3646.50465,0.00379
3644.44447,0.00320
3642.38430,0.00282
3640.32413,0.00288
3638.26396,0.00332
3636.20379,0.00388
3634.14361,0.00433
3632.08344,0.00473
3630.02327,0.00520
3627.96310,0.00558
3625.90293,0.00558
3623.84275,0.00564
3621.78258,0.00597
3619.72241,0.00621
3617.66224,0.00629
3615.60207,0.00637
3613.54189,0.00641
3611.48172,0.00633
3609.42155,0.00649
3607.36138,0.00705
3605.30120,0.00759
3603.24103,0.00779
3601.18086,0.00763
3599.12069,0.00740
3597.06052,0.00739
3595.00034,0.00763
3592.94017,0.00796
3590.88000,0.00829
3588.81983,0.00855
3586.75966,0.00879
3584.69948,0.00913
3582.63931,0.00955
3580.57914,0.00979
3578.51897,0.00990
3576.45879,0.01011
3574.39862,0.01029
3572.33845,0.01034
3570.27828,0.01066
3568.21811,0.01138
3566.15793,0.01185
3564.09776,0.01168
3562.03759,0.01141
3559.97742,0.01154
3557.91725,0.01205
3555.85707,0.01264
3553.79690,0.01304
3551.73673,0.01322
3549.67656,0.01327
3547.61639,0.01341
3545.55621,0.01373
3543.49604,0.01410
3541.43587,0.01438
3539.37570,0.01465
3537.31552,0.01489
3535.25535,0.01500
3533.19518,0.01506
3531.13501,0.01528
3529.07484,0.01559
3527.01466,0.01582
3524.95449,0.01610
3522.89432,0.01658
3520.83415,0.01706
3518.77398,0.01726
3516.71380,0.01724
3514.65363,0.01727
3512.59346,0.01743
3510.53329,0.01766
3508.47312,0.01797
3506.41294,0.01835
3504.35277,0.01879
3502.29260,0.01913
3500.23243,0.01907
3498.17225,0.01879
3496.11208,0.01881
3494.05191,0.01921
3491.99174,0.01966
3489.93157,0.02006
3487.87139,0.02048
3485.81122,0.02076
3483.75105,0.02085
3481.69088,0.02089
3479.63071,0.02094
3477.57053,0.02107
3475.51036,0.02123
3473.45019,0.02122
3471.39002,0.02129
3469.32984,0.02166
3467.26967,0.02207
3465.20950,0.02232
3463.14933,0.02239
3461.08916,0.02237
3459.02898,0.02237
3456.96881,0.02246
3454.90864,0.02267
3452.84847,0.02304
3450.78830,0.02351
3448.72812,0.02389
3446.66795,0.02408
3444.60778,0.02410
3442.54761,0.02405
3440.48744,0.02403
3438.42726,0.02417
3436.36709,0.02448
3434.30692,0.02472
3432.24675,0.02485
3430.18657,0.02511
3428.12640,0.02540
3426.06623,0.02553
3424.00606,0.02556
3421.94589,0.02555
3419.88571,0.02560
3417.82554,0.02584
3415.76537,0.02620
3413.70520,0.02644
3411.64503,0.02641
3409.58485,0.02640
3407.52468,0.02670
3405.46451,0.02701
3403.40434,0.02708
3401.34416,0.02706
3399.28399,0.02716
3397.22382,0.02752
3395.16365,0.02805
3393.10348,0.02830
3391.04330,0.02805
3388.98313,0.02770
3386.92296,0.02780
3384.86279,0.02826
3382.80262,0.02868
3380.74244,0.02893
3378.68227,0.02898
3376.62210,0.02888
3374.56193,0.02883
3372.50176,0.02882
3370.44158,0.02878
3368.38141,0.02886
3366.32124,0.02919
3364.26107,0.02957
3362.20089,0.02970
3360.14072,0.02964
3358.08055,0.02956
3356.02038,0.02946
3353.96021,0.02934
3351.90003,0.02928
3349.83986,0.02932
3347.77969,0.02930
3345.71952,0.02916
3343.65935,0.02910
3341.59917,0.02928
3339.53900,0.02946
3337.47883,0.02944
3335.41866,0.02940
3333.35849,0.02945
3331.29831,0.02956
3329.23814,0.02984
3327.17797,0.03007
3325.11780,0.02995
3323.05762,0.02970
3320.99745,0.02952
3318.93728,0.02944
3316.87711,0.02948
3314.81694,0.02958
3312.75676,0.02974
3310.69659,0.02999
3308.63642,0.03008
3306.57625,0.02987
3304.51608,0.02970
3302.45590,0.02977
3300.39573,0.02984
3298.33556,0.02993
3296.27539,0.03015
3294.21521,0.03028
3292.15504,0.03011
3290.09487,0.02982
3288.03470,0.02980
3285.97453,0.02998
3283.91435,0.03009
3281.85418,0.03012
3279.79401,0.03017
3277.73384,0.03001
3275.67367,0.02954
3273.61349,0.02927
3271.55332,0.02940
3269.49315,0.02958
3267.43298,0.02966
3265.37281,0.02977
3263.31263,0.02991
3261.25246,0.02995
3259.19229,0.02989
3257.13212,0.02985
3255.07194,0.02981
3253.01177,0.02967
3250.95160,0.02946
3248.89143,0.02942
3246.83126,0.02963
3244.77108,0.02965
3242.71091,0.02934
3240.65074,0.02910
3238.59057,0.02903
3236.53040,0.02897
3234.47022,0.02892
3232.41005,0.02875
3230.34988,0.02844
3228.28971,0.02821
3226.22954,0.02808
3224.16936,0.02793
3222.10919,0.02790
3220.04902,0.02812
3217.98885,0.02826
3215.92867,0.02801
3213.86850,0.02761
3211.80833,0.02735
3209.74816,0.02718
3207.68799,0.02709
3205.62781,0.02698
3203.56764,0.02674
3201.50747,0.02634
3199.44730,0.02597
3197.38713,0.02582
3195.32695,0.02579
3193.26678,0.02570
3191.20661,0.02557
3189.14644,0.02548
3187.08626,0.02548
3185.02609,0.02545
3182.96592,0.02516
3180.90575,0.02477
3178.84558,0.02455
3176.78540,0.02449
3174.72523,0.02435
3172.66506,0.02397
3170.60489,0.02355
3168.54472,0.02328
3166.48454,0.02317
3164.42437,0.02316
3162.36420,0.02310
3160.30403,0.02286
3158.24386,0.02252
3156.18368,0.02226
3154.12351,0.02214
3152.06334,0.02197
3150.00317,0.02168
3147.94299,0.02136
3145.88282,0.02109
3143.82265,0.02095
3141.76248,0.02095
3139.70231,0.02087
3137.64213,0.02047
3135.58196,0.01997
3133.52179,0.01975
3131.46162,0.01959
3129.40145,0.01928
3127.34127,0.01907
3125.28110,0.01896
3123.22093,0.01884
3121.16076,0.01875
3119.10058,0.01867
3117.04041,0.01852
3114.98024,0.01826
3112.92007,0.01792
3110.85990,0.01756
3108.79972,0.01720
3106.73955,0.01687
3104.67938,0.01671
3102.61921,0.01662
3100.55904,0.01645
3098.49886,0.01636
3096.43869,0.01636
3094.37852,0.01613
3092.31835,0.01566
3090.25818,0.01527
3088.19800,0.01516
3086.13783,0.01515
3084.07766,0.01500
3082.01749,0.01482
3079.95731,0.01477
3077.89714,0.01465
3075.83697,0.01436
3073.77680,0.01415
3071.71663,0.01409
3069.65645,0.01407
3067.59628,0.01397
3065.53611,0.01378
3063.47594,0.01346
3061.41577,0.01308
3059.35559,0.01281
3057.29542,0.01265
3055.23525,0.01242
3053.17508,0.01223
3051.11491,0.01230
3049.05473,0.01244
3046.99456,0.01234
3044.93439,0.01198
3042.87422,0.01151
3040.81404,0.01114
3038.75387,0.01111
3036.69370,0.01123
3034.63353,0.01110
3032.57336,0.01078
3030.51318,0.01055
3028.45301,0.01050
3026.39284,0.01054
3024.33267,0.01055
3022.27250,0.01060
3020.21232,0.01068
3018.15215,0.01060
3016.09198,0.01033
3014.03181,0.01011
3011.97163,0.01007
3009.91146,0.01009
3007.85129,0.01009
3005.79112,0.01000
3003.73095,0.00982
3001.67077,0.00959
2999.61060,0.00921
2997.55043,0.00883
2995.49026,0.00879
2993.43009,0.00906
2991.36991,0.00951
2989.30974,0.00984
2987.24957,0.00987
2985.18940,0.00980
2983.12923,0.00981
2981.06905,0.00979
2979.00888,0.00979
2976.94871,0.00987
2974.88854,0.00996
2972.82836,0.01015
2970.76819,0.01043
2968.70802,0.01057
2966.64785,0.01059
2964.58768,0.01081
2962.52750,0.01110
2960.46733,0.01129
2958.40716,0.01152
2956.34699,0.01172
2954.28682,0.01189
2952.22664,0.01219
2950.16647,0.01262
2948.10630,0.01290
2946.04613,0.01306
2943.98596,0.01319
2941.92578,0.01325
2939.86561,0.01343
2937.80544,0.01374
2935.74527,0.01381
2933.68509,0.01366
2931.62492,0.01366
2929.56475,0.01391
2927.50458,0.01410
2925.44441,0.01401
2923.38423,0.01381
2921.32406,0.01365
2919.26389,0.01345
2917.20372,0.01321
2915.14355,0.01304
2913.08337,0.01290
2911.02320,0.01271
2908.96303,0.01250
2906.90286,0.01230
2904.84268,0.01224
2902.78251,0.01229
2900.72234,0.01213
2898.66217,0.01191
2896.60200,0.01191
2894.54182,0.01197
2892.48165,0.01189
2890.42148,0.01182
2888.36131,0.01182
2886.30114,0.01179
2884.24096,0.01168
2882.18079,0.01151
2880.12062,0.01132
2878.06045,0.01121
2876.00028,0.01124
2873.94010,0.01117
2871.87993,0.01084
2869.81976,0.01055
2867.75959,0.01041
2865.69941,0.01027
2863.63924,0.01017
2861.57907,0.01010
2859.51890,0.00995
2857.45873,0.00983
2855.39855,0.00968
2853.33838,0.00942
2851.27821,0.00919
2849.21804,0.00909
2847.15787,0.00907
2845.09769,0.00900
2843.03752,0.00883
2840.97735,0.00862
2838.91718,0.00848
2836.85700,0.00848
2834.79683,0.00842
2832.73666,0.00818
2830.67649,0.00798
2828.61632,0.00787
2826.55614,0.00785
2824.49597,0.00794
2822.43580,0.00793
2820.37563,0.00777
2818.31546,0.00769
2816.25528,0.00766
2814.19511,0.00756
2812.13494,0.00747
2810.07477,0.00748
2808.01460,0.00753
2805.95442,0.00752
2803.89425,0.00736
2801.83408,0.00717
2799.77391,0.00710
2797.71373,0.00706
2795.65356,0.00695
2793.59339,0.00692
2791.53322,0.00698
2789.47305,0.00697
2787.41287,0.00687
2785.35270,0.00684
2783.29253,0.00690
2781.23236,0.00689
2779.17219,0.00684
2777.11201,0.00686
2775.05184,0.00682
2772.99167,0.00668
2770.93150,0.00665
2768.87133,0.00657
2766.81115,0.00638
2764.75098,0.00629
2762.69081,0.00625
2760.63064,0.00622
2758.57046,0.00621
2756.51029,0.00614
2754.45012,0.00611
2752.38995,0.00621
2750.32978,0.00635
2748.26960,0.00647
2746.20943,0.00645
2744.14926,0.00633
2742.08909,0.00627
2740.02892,0.00628
2737.96874,0.00629
2735.90857,0.00622
2733.84840,0.00613
2731.78823,0.00614
2729.72805,0.00613
2727.66788,0.00611
2725.60771,0.00613
2723.54754,0.00611
2721.48737,0.00602
2719.42719,0.00596
2717.36702,0.00603
2715.30685,0.00614
2713.24668,0.00615
2711.18651,0.00600
2709.12633,0.00578
2707.06616,0.00566
2705.00599,0.00569
2702.94582,0.00581
2700.88565,0.00587
2698.82547,0.00577
2696.76530,0.00562
2694.70513,0.00554
2692.64496,0.00546
2690.58478,0.00538
2688.52461,0.00544
2686.46444,0.00557
2684.40427,0.00565
2682.34410,0.00566
2680.28392,0.00562
2678.22375,0.00555
2676.16358,0.00547
2674.10341,0.00548
2672.04324,0.00551
2669.98306,0.00546
2667.92289,0.00537
2665.86272,0.00534
2663.80255,0.00537
2661.74238,0.00543
2659.68220,0.00549
2657.62203,0.00550
2655.56186,0.00552
2653.50169,0.00549
2651.44151,0.00530
2649.38134,0.00510
2647.32117,0.00506
2645.26100,0.00510
2643.20083,0.00510
2641.14065,0.00502
2639.08048,0.00494
2637.02031,0.00494
2634.96014,0.00490
2632.89997,0.00477
2630.83979,0.00462
2628.77962,0.00452
2626.71945,0.00468
2624.65928,0.00489
2622.59910,0.00482
2620.53893,0.00451
2618.47876,0.00426
2616.41859,0.00420
2614.35842,0.00417
2612.29824,0.00415
2610.23807,0.00425
2608.17790,0.00431
2606.11773,0.00430
2604.05756,0.00438
2601.99738,0.00448
2599.93721,0.00440
2597.87704,0.00414
2595.81687,0.00397
2593.75670,0.00394
2591.69652,0.00389
2589.63635,0.00390
2587.57618,0.00399
2585.51601,0.00395
2583.45583,0.00381
2581.39566,0.00385
2579.33549,0.00401
2577.27532,0.00410
2575.21515,0.00410
2573.15497,0.00405
2571.09480,0.00400
2569.03463,0.00397
2566.97446,0.00402
2564.91429,0.00414
2562.85411,0.00411
2560.79394,0.00401
2558.73377,0.00403
2556.67360,0.00413
2554.61342,0.00414
2552.55325,0.00392
2550.49308,0.00360
2548.43291,0.00349
2546.37274,0.00364
2544.31256,0.00407
2542.25239,0.00458
2540.19222,0.00458
2538.13205,0.00415
2536.07188,0.00375
2534.01170,0.00352
2531.95153,0.00337
2529.89136,0.00331
2527.83119,0.00339
2525.77102,0.00365
2523.71084,0.00383
2521.65067,0.00368
2519.59050,0.00352
2517.53033,0.00346
2515.47015,0.00332
2513.40998,0.00315
2511.34981,0.00323
2509.28964,0.00366
2507.22947,0.00381
2505.16929,0.00340
2503.10912,0.00316
2501.04895,0.00339
2498.98878,0.00374
2496.92861,0.00388
2494.86843,0.00371
2492.80826,0.00366
2490.74809,0.00393
2488.68792,0.00405
2486.62775,0.00381
2484.56757,0.00350
2482.50740,0.00334
2480.44723,0.00331
2478.38706,0.00328
2476.32688,0.00318
2474.26671,0.00297
2472.20654,0.00301
2470.14637,0.00348
2468.08620,0.00386
2466.02602,0.00379
2463.96585,0.00358
2461.90568,0.00360
2459.84551,0.00374
2457.78534,0.00376
2455.72516,0.00368
2453.66499,0.00361
2451.60482,0.00368
2449.54465,0.00372
2447.48447,0.00349
2445.42430,0.00312
2443.36413,0.00294
2441.30396,0.00307
2439.24379,0.00327
2437.18361,0.00342
2435.12344,0.00363
2433.06327,0.00370
2431.00310,0.00358
2428.94293,0.00350
2426.88275,0.00354
2424.82258,0.00358
2422.76241,0.00363
2420.70224,0.00368
2418.64207,0.00362
2416.58189,0.00339
2414.52172,0.00299
2412.46155,0.00278
2410.40138,0.00290
2408.34120,0.00289
2406.28103,0.00276
2404.22086,0.00283
2402.16069,0.00298
2400.10052,0.00310
2398.04034,0.00318
2395.98017,0.00328
2393.92000,0.00333
2391.85983,0.00325
2389.79966,0.00323
2387.73948,0.00347
2385.67931,0.00372
2383.61914,0.00373
2381.55897,0.00363
2379.49880,0.00365
2377.43862,0.00392
2375.37845,0.00399
2373.31828,0.00356
2371.25811,0.00321
2369.19793,0.00318
2367.13776,0.00276
2365.07759,0.00187
2363.01742,0.00112
2360.95725,0.00131
2358.89707,0.00147
2356.83690,0.00196
2354.77673,0.00287
2352.71656,0.00387
2350.65639,0.00546
2348.59621,0.00637
2346.53604,0.00520
2344.47587,0.00498
2342.41570,0.00523
2340.35552,0.00536
2338.29535,0.00515
2336.23518,0.00415
2334.17501,0.00285
2332.11484,0.00196
2330.05466,0.00226
2327.99449,0.00331
2325.93432,0.00453
2323.87415,0.00489
2321.81398,0.00478
2319.75380,0.00437
2317.69363,0.00426
2315.63346,0.00424
2313.57329,0.00432
2311.51312,0.00448
2309.45294,0.00453
2307.39277,0.00439
2305.33260,0.00407
2303.27243,0.00363
2301.21225,0.00328
2299.15208,0.00345
2297.09191,0.00383
2295.03174,0.00402
2292.97157,0.00409
2290.91139,0.00408
2288.85122,0.00396
2286.79105,0.00385
2284.73088,0.00376
2282.67071,0.00356
2280.61053,0.00335
2278.55036,0.00327
2276.49019,0.00330
2274.43002,0.00330
2272.36984,0.00314
2270.30967,0.00299
2268.24950,0.00317
2266.18933,0.00355
2264.12916,0.00355
2262.06898,0.00318
2260.00881,0.00282
2257.94864,0.00260
2255.88847,0.00267
2253.82830,0.00295
2251.76812,0.00311
2249.70795,0.00314
2247.64778,0.00343
2245.58761,0.00388
2243.52744,0.00404
2241.46726,0.00420
2239.40709,0.00442
2237.34692,0.00400
2235.28675,0.00331
2233.22657,0.00347
2231.16640,0.00407
2229.10623,0.00380
2227.04606,0.00299
2224.98589,0.00286
2222.92571,0.00307
2220.86554,0.00251
2218.80537,0.00161
2216.74520,0.00133
2214.68503,0.00157
2212.62485,0.00204
2210.56468,0.00252
2208.50451,0.00254
2206.44434,0.00223
2204.38417,0.00224
2202.32399,0.00282
2200.26382,0.00332
2198.20365,0.00332
2196.14348,0.00355
2194.08330,0.00421
2192.02313,0.00433
2189.96296,0.00367
2187.90279,0.00295
2185.84262,0.00228
2183.78244,0.00165
2181.72227,0.00183
2179.66210,0.00233
2177.60193,0.00203
2175.54176,0.00139
2173.48158,0.00115
2171.42141,0.00154
2169.36124,0.00237
2167.30107,0.00331
2165.24089,0.00431
2163.18072,0.00456
2161.12055,0.00323
2159.06038,0.00169
2157.00021,0.00062
2154.94003,0.00004
2152.87986,0.00118
2150.81969,0.00287
2148.75952,0.00339
2146.69935,0.00350
2144.63917,0.00360
2142.57900,0.00326
2140.51883,0.00273
2138.45866,0.00246
2136.39849,0.00255
2134.33831,0.00257
2132.27814,0.00237
2130.21797,0.00259
2128.15780,0.00303
2126.09762,0.00306
2124.03745,0.00301
2121.97728,0.00328
2119.91711,0.00348
2117.85694,0.00314
2115.79676,0.00264
2113.73659,0.00280
2111.67642,0.00352
2109.61625,0.00393
2107.55608,0.00358
2105.49590,0.00308
2103.43573,0.00314
2101.37556,0.00366
2099.31539,0.00367
2097.25521,0.00317
2095.19504,0.00311
2093.13487,0.00339
2091.07470,0.00330
2089.01453,0.00305
2086.95435,0.00311
2084.89418,0.00331
2082.83401,0.00324
2080.77384,0.00295
2078.71367,0.00298
2076.65349,0.00346
2074.59332,0.00391
2072.53315,0.00393
2070.47298,0.00375
2068.41281,0.00368
2066.35263,0.00346
2064.29246,0.00298
2062.23229,0.00288
2060.17212,0.00336
2058.11194,0.00339
2056.05177,0.00252
2053.99160,0.00234
2051.93143,0.00337
2049.87126,0.00375
2047.81108,0.00296
2045.75091,0.00217
2043.69074,0.00176
2041.63057,0.00175
2039.57040,0.00187
2037.51022,0.00163
2035.45005,0.00113
2033.38988,0.00112
2031.32971,0.00168
2029.26954,0.00186
2027.20936,0.00191
2025.14919,0.00227
2023.08902,0.00248
2021.02885,0.00275
2018.96867,0.00273
2016.90850,0.00196
2014.84833,0.00127
2012.78816,0.00160
2010.72799,0.00310
2008.66781,0.00414
2006.60764,0.00332
2004.54747,0.00224
2002.48730,0.00184
2000.42713,0.00126
1998.36695,0.00049
1996.30678,0.00000
1994.24661,0.00000
1992.18644,0.00067
1990.12626,0.00135
1988.06609,0.00163
1986.00592,0.00195
1983.94575,0.00233
1981.88558,0.00260
1979.82540,0.00239
1977.76523,0.00180
1975.70506,0.00192
1973.64489,0.00262
1971.58472,0.00263
1969.52454,0.00184
1967.46437,0.00124
1965.40420,0.00146
1963.34403,0.00196
1961.28386,0.00213
1959.22368,0.00199
1957.16351,0.00151
1955.10334,0.00095
1953.04317,0.00094
1950.98299,0.00153
1948.92282,0.00230
1946.86265,0.00265
1944.80248,0.00253
1942.74231,0.00234
1940.68213,0.00210
1938.62196,0.00204
1936.56179,0.00267
1934.50162,0.00333
1932.44145,0.00301
1930.38127,0.00214
1928.32110,0.00158
1926.26093,0.00149
1924.20076,0.00187
1922.14059,0.00245
1920.08041,0.00247
1918.02024,0.00195
1915.96007,0.00165
1913.89990,0.00182
1911.83972,0.00212
1909.77955,0.00232
1907.71938,0.00236
1905.65921,0.00210
1903.59904,0.00168
1901.53886,0.00147
1899.47869,0.00158
1897.41852,0.00171
1895.35835,0.00164
1893.29818,0.00156
1891.23800,0.00153
1889.17783,0.00135
1887.11766,0.00124
1885.05749,0.00158
1882.99731,0.00196
1880.93714,0.00197
1878.87697,0.00186
1876.81680,0.00179
1874.75663,0.00175
1872.69645,0.00193
1870.63628,0.00225
1868.57611,0.00237
1866.51594,0.00218
1864.45577,0.00186
1862.39559,0.00171
1860.33542,0.00179
1858.27525,0.00189
1856.21508,0.00186
1854.15491,0.00173
1852.09473,0.00157
1850.03456,0.00152
1847.97439,0.00154
1845.91422,0.00147
1843.85404,0.00140
1841.79387,0.00150
1839.73370,0.00170
1837.67353,0.00186
1835.61336,0.00187
1833.55318,0.00180
1831.49301,0.00173
1829.43284,0.00155
1827.37267,0.00125
1825.31250,0.00113
1823.25232,0.00119
1821.19215,0.00123
1819.13198,0.00120
1817.07181,0.00117
1815.01163,0.00125
1812.95146,0.00155
1810.89129,0.00182
1808.83112,0.00175
1806.77095,0.00147
1804.71077,0.00130
1802.65060,0.00129
1800.59043,0.00129
1798.53026,0.00132
1796.47009,0.00136
1794.40991,0.00134
1792.34974,0.00136
1790.28957,0.00148
1788.22940,0.00157
1786.16923,0.00155
1784.10905,0.00147
1782.04888,0.00142
1779.98871,0.00150
1777.92854,0.00161
1775.86836,0.00163
1773.80819,0.00164
1771.74802,0.00172
1769.68785,0.00182
1767.62768,0.00190
1765.56750,0.00195
1763.50733,0.00204
1761.44716,0.00228
1759.38699,0.00263
1757.32682,0.00293
1755.26664,0.00318
1753.20647,0.00347
1751.14630,0.00395
1749.08613,0.00458
1747.02596,0.00513
1744.96578,0.00548
1742.90561,0.00571
1740.84544,0.00586
1738.78527,0.00596
1736.72509,0.00605
1734.66492,0.00616
1732.60475,0.00615
1730.54458,0.00596
1728.48441,0.00578
1726.42423,0.00566
1724.36406,0.00561
1722.30389,0.00559
1720.24372,0.00558
1718.18355,0.00559
1716.12337,0.00543
1714.06320,0.00507
1712.00303,0.00468
1709.94286,0.00435
1707.88268,0.00413
1705.82251,0.00407
1703.76234,0.00403
1701.70217,0.00395
1699.64200,0.00395
1697.58182,0.00400
1695.52165,0.00397
1693.46148,0.00399
1691.40131,0.00421
1689.34114,0.00451
1687.28096,0.00469
1685.22079,0.00489
1683.16062,0.00538
1681.10045,0.00587
1679.04028,0.00623
1676.98010,0.00658
1674.91993,0.00700
1672.85976,0.00747
1670.79959,0.00796
1668.73941,0.00839
1666.67924,0.00868
1664.61907,0.00898
1662.55890,0.00940
1660.49873,0.00989
1658.43855,0.01039
1656.37838,0.01087
1654.31821,0.01129
1652.25804,0.01171
1650.19787,0.01219
1648.13769,0.01269
1646.07752,0.01297
1644.01735,0.01301
1641.95718,0.01312
1639.89701,0.01330
1637.83683,0.01337
1635.77666,0.01327
1633.71649,0.01314
1631.65632,0.01308
1629.59614,0.01310
1627.53597,0.01321
1625.47580,0.01337
1623.41563,0.01349
1621.35546,0.01343
1619.29528,0.01322
1617.23511,0.01297
1615.17494,0.01283
1613.11477,0.01275
1611.05460,0.01258
1608.99442,0.01228
1606.93425,0.01196
1604.87408,0.01167
1602.81391,0.01134
1600.75373,0.01082
1598.69356,0.01013
1596.63339,0.00941
1594.57322,0.00870
1592.51305,0.00801
1590.45287,0.00741
1588.39270,0.00690
1586.33253,0.00637
1584.27236,0.00585
1582.21219,0.00537
1580.15201,0.00494
1578.09184,0.00464
1576.03167,0.00442
1573.97150,0.00409
1571.91133,0.00370
1569.85115,0.00341
1567.79098,0.00323
1565.73081,0.00303
1563.67064,0.00284
1561.61046,0.00278
1559.55029,0.00292
1557.49012,0.00303
1555.42995,0.00276
1553.36978,0.00224
1551.30960,0.00178
1549.24943,0.00156
1547.18926,0.00162
1545.12909,0.00182
1543.06892,0.00187
1541.00874,0.00169
1538.94857,0.00151
1536.88840,0.00141
1534.82823,0.00129
1532.76805,0.00113
1530.70788,0.00100
1528.64771,0.00096
1526.58754,0.00104
1524.52737,0.00122
1522.46719,0.00135
1520.40702,0.00138
1518.34685,0.00141
1516.28668,0.00144
1514.22651,0.00142
1512.16633,0.00151
1510.10616,0.00173
1508.04599,0.00182
1505.98582,0.00164
1503.92565,0.00147
1501.86547,0.00145
1499.80530,0.00146
1497.74513,0.00144
1495.68496,0.00136
1493.62478,0.00129
1491.56461,0.00135
1489.50444,0.00158
1487.44427,0.00175
1485.38410,0.00177
1483.32392,0.00183
1481.26375,0.00208
1479.20358,0.00248
1477.14341,0.00295
1475.08324,0.00339
1473.02306,0.00371
1470.96289,0.00395
1468.90272,0.00422
1466.84255,0.00458
1464.78238,0.00496
1462.72220,0.00526
1460.66203,0.00552
1458.60186,0.00584
1456.54169,0.00613
1454.48151,0.00624
1452.42134,0.00632
1450.36117,0.00649
1448.30100,0.00670
1446.24083,0.00687
1444.18065,0.00703
1442.12048,0.00727
1440.06031,0.00760
1438.00014,0.00797
1435.93997,0.00825
1433.87979,0.00836
1431.81962,0.00846
1429.75945,0.00867
1427.69928,0.00899
1425.63910,0.00934
1423.57893,0.00967
1421.51876,0.00992
1419.45859,0.01008
1417.39842,0.01016
1415.33824,0.01019
1413.27807,0.01021
1411.21790,0.01018
1409.15773,0.01010
1407.09756,0.00998
1405.03738,0.00976
1402.97721,0.00947
1400.91704,0.00920
1398.85687,0.00903
1396.79670,0.00896
1394.73652,0.00884
1392.67635,0.00865
1390.61618,0.00857
1388.55601,0.00864
1386.49583,0.00874
1384.43566,0.00882
1382.37549,0.00896
1380.31532,0.00918
1378.25515,0.00941
1376.19497,0.00960
1374.13480,0.00974
1372.07463,0.00981
1370.01446,0.00982
1367.95429,0.00973
1365.89411,0.00959
1363.83394,0.00953
1361.77377,0.00949
1359.71360,0.00932
1357.65343,0.00911
1355.59325,0.00902
1353.53308,0.00899
1351.47291,0.00886
1349.41274,0.00867
1347.35256,0.00843
1345.29239,0.00819
1343.23222,0.00815
1341.17205,0.00835
1339.11188,0.00843
1337.05170,0.00819
1334.99153,0.00792
1332.93136,0.00783
1330.87119,0.00785
1328.81102,0.00792
1326.75084,0.00796
1324.69067,0.00793
1322.63050,0.00798
1320.57033,0.00815
1318.51015,0.00824
1316.44998,0.00822
1314.38981,0.00831
1312.32964,0.00840
1310.26947,0.00832
1308.20929,0.00812
1306.14912,0.00794
1304.08895,0.00778
1302.02878,0.00761
1299.96861,0.00745
1297.90843,0.00725
1295.84826,0.00705
1293.78809,0.00687
1291.72792,0.00675
1289.66775,0.00673
1287.60757,0.00672
1285.54740,0.00668
1283.48723,0.00666
1281.42706,0.00664
1279.36688,0.00660
1277.30671,0.00661
1275.24654,0.00673
1273.18637,0.00690
1271.12620,0.00710
1269.06602,0.00744
1267.00585,0.00783
1264.94568,0.00814
1262.88551,0.00850
1260.82534,0.00895
1258.76516,0.00933
1256.70499,0.00954
1254.64482,0.00968
1252.58465,0.00990
1250.52447,0.01012
1248.46430,0.01018
1246.40413,0.01008
1244.34396,0.00993
1242.28379,0.00982
1240.22361,0.00970
1238.16344,0.00946
1236.10327,0.00919
1234.04310,0.00887
1231.98293,0.00849
1229.92275,0.00815
1227.86258,0.00784
1225.80241,0.00750
1223.74224,0.00714
1221.68207,0.00680
1219.62189,0.00649
1217.56172,0.00623
1215.50155,0.00591
1213.44138,0.00548
1211.38120,0.00498
1209.32103,0.00438
1207.26086,0.00361
1205.20069,0.00290
1203.14052,0.00244
1201.08034,0.00206
1199.02017,0.00158
1196.96000,0.00115
1194.89983,0.00082
1192.83966,0.00044
1190.77948,0.00008
1188.71931,0.00000
1186.65914,0.00013
1184.59897,0.00036
1182.53880,0.00063
1180.47862,0.00088
1178.41845,0.00119
1176.35828,0.00169
1174.29811,0.00234
1172.23793,0.00302
1170.17776,0.00367
1168.11759,0.00435
1166.05742,0.00512
1163.99725,0.00595
1161.93707,0.00668
1159.87690,0.00726
1157.81673,0.00787
1155.75656,0.00855
1153.69639,0.00907
1151.63621,0.00948
1149.57604,0.00993
1147.51587,0.01026
1145.45570,0.01045
1143.39552,0.01078
1141.33535,0.01114
1139.27518,0.01136
1137.21501,0.01160
1135.15484,0.01187
1133.09466,0.01209
1131.03449,0.01239
1128.97432,0.01278
1126.91415,0.01326
1124.85398,0.01399
1122.79380,0.01484
1120.73363,0.01552
1118.67346,0.01608
1116.61329,0.01663
1114.55312,0.01711
1112.49294,0.01753
1110.43277,0.01807
1108.37260,0.01876
1106.31243,0.01936
1104.25225,0.01987
1102.19208,0.02056
1100.13191,0.02150
1098.07174,0.02260
1096.01157,0.02366
1093.95139,0.02462
1091.89122,0.02547
1089.83105,0.02608
1087.77088,0.02655
1085.71071,0.02713
1083.65053,0.02786
1081.59036,0.02877
1079.53019,0.02974
1077.47002,0.03066
1075.40985,0.03147
1073.34967,0.03213
1071.28950,0.03272
1069.22933,0.03324
1067.16916,0.03372
1065.10898,0.03416
1063.04881,0.03439
1060.98864,0.03450
1058.92847,0.03480
1056.86830,0.03524
1054.80812,0.03562
1052.74795,0.03591
1050.68778,0.03631
1048.62761,0.03695
1046.56744,0.03759
1044.50726,0.03810
1042.44709,0.03865
1040.38692,0.03933
1038.32675,0.03994
1036.26657,0.04023
1034.20640,0.04020
1032.14623,0.04009
1030.08606,0.04014
1028.02589,0.04030
1025.96571,0.04028
1023.90554,0.04002
1021.84537,0.03994
1019.78520,0.04015
1017.72503,0.04023
1015.66485,0.04010
1013.60468,0.03999
1011.54451,0.03985
1009.48434,0.03956
1007.42417,0.03915
1005.36399,0.03870
1003.30382,0.03823
1001.24365,0.03759
999.18348,0.03676
997.12330,0.03601
995.06313,0.03541
993.00296,0.03484
990.94279,0.03426
988.88262,0.03380
986.82244,0.03346
984.76227,0.03306
982.70210,0.03266
980.64193,0.03242
978.58176,0.03209
976.52158,0.03144
974.46141,0.03084
972.40124,0.03029
970.34107,0.02970
968.28089,0.02920
966.22072,0.02883
964.16055,0.02844
962.10038,0.02780
960.04021,0.02707
957.98003,0.02649
955.91986,0.02578
953.85969,0.02488
951.79952,0.02403
949.73935,0.02323
947.67917,0.02251
945.61900,0.02166
943.55883,0.02043
941.49866,0.01898
939.43849,0.01740
937.37831,0.01563
935.31814,0.01385
933.25797,0.01230
931.19780,0.01102
929.13762,0.00983
927.07745,0.00873
925.01728,0.00790
922.95711,0.00736
920.89694,0.00691
918.83676,0.00638
916.77659,0.00579
914.71642,0.00528
912.65625,0.00485
910.59608,0.00445
908.53590,0.00404
906.47573,0.00372
904.41556,0.00368
902.35539,0.00391
900.29522,0.00402
898.23504,0.00392
896.17487,0.00399
894.11470,0.00425
892.05453,0.00427
889.99435,0.00399
887.93418,0.00358
885.87401,0.00333
883.81384,0.00327
881.75367,0.00318
879.69349,0.00305
877.63332,0.00283
875.57315,0.00251
873.51298,0.00212
871.45281,0.00185
869.39263,0.00184
867.33246,0.00193
865.27229,0.00193
863.21212,0.00197
861.15194,0.00202
859.09177,0.00187
857.03160,0.00178
854.97143,0.00186
852.91126,0.00177
850.85108,0.00141
848.79091,0.00128
846.73074,0.00154
844.67057,0.00164
842.61040,0.00130
840.55022,0.00088
838.49005,0.00065
836.42988,0.00055
834.36971,0.00058
832.30954,0.00066
830.24936,0.00054
828.18919,0.00023
826.12902,0.00000
824.06885,0.00006
822.00867,0.00038
819.94850,0.00046
817.88833,0.00045
815.82816,0.00072
813.76799,0.00099
811.70781,0.00128
809.64764,0.00181
807.58747,0.00208
805.52730,0.00176
803.46713,0.00136
801.40695,0.00112
799.34678,0.00081
797.28661,0.00050
795.22644,0.00024
793.16627,0.00016
791.10609,0.00030
789.04592,0.00044
786.98575,0.00050
784.92558,0.00042
782.86540,0.00018
780.80523,0.00006
778.74506,0.00033
776.68489,0.00055
774.62472,0.00044
772.56454,0.00040
770.50437,0.00055
768.44420,0.00053
766.38403,0.00010
764.32386,-0.00018
762.26368,0.00022
760.20351,0.00075
758.14334,0.00098
756.08317,0.00100
754.02299,0.00099
751.96282,0.00137
749.90265,0.00186
747.84248,0.00152
745.78231,0.00078
743.72213,0.00050
741.66196,0.00054
739.60179,0.00039
737.54162,0.00000
735.48145,-0.00019
733.42127,-0.00001
731.36110,0.00027
729.30093,0.00061
727.24076,0.00066
725.18059,0.00055
723.12041,0.00100
721.06024,0.00133
719.00007,0.00141
716.93990,0.00134
714.87972,0.00151
712.81955,0.00183
710.75938,0.00204
708.69921,0.00243
706.63904,0.00307
704.57886,0.00332
702.51869,0.00278
700.45852,0.00209
698.39835,0.00183
696.33818,0.00182
694.27800,0.00184
692.21783,0.00193
690.15766,0.00218
688.09749,0.00226
686.03731,0.00192
683.97714,0.00155
681.91697,0.00136
679.85680,0.00107
677.79663,0.00102
675.73645,0.00127
673.67628,0.00174
671.61611,0.00242
669.55594,0.00073
667.49577,-0.00105
665.43559,0.00207
663.37542,0.00191
661.31525,0.00109
659.25508,0.00157
657.19491,0.00248
655.13473,0.00241
653.07456,0.00199
651.01439,0.00233
648.95422,0.00249
646.89404,0.00139
644.83387,0.00000
642.77370,0.00038
640.71353,0.00207
638.65336,0.00254
636.59318,0.00168
634.53301,0.00123
632.47284,0.00133
630.41267,0.00132
628.35250,0.00068
626.29232,-0.00073
624.23215,-0.00148
622.17198,-0.00110
620.11181,-0.00135
618.05164,-0.00175
615.99146,-0.00047
613.93129,0.00135
611.87112,0.00199
609.81095,0.00132
607.75077,0.00064
605.69060,0.00055
603.63043,0.00005
601.57026,-0.00048
599.51009,0.00000
