3996.73391,0.00016
3994.67373,0.00025
3992.61356,0.00037
3990.55339,0.00047
3988.49322,0.00035
3986.43305,0.00024
3984.37287,0.00038
3982.31270,0.00044
3980.25253,0.00026
3978.19236,0.00011
3976.13219,0.00009
3974.07201,0.00012
3972.01184,0.00011
3969.95167,0.00004
3967.89150,0.00000
3965.83133,0.00002
3963.77115,0.00006
3961.71098,0.00012
3959.65081,0.00024
3957.59064,0.00040
3955.53046,0.00059
3953.47029,0.00073
3951.41012,0.00067
3949.34995,0.00048
3947.28978,0.00041
3945.22960,0.00037
3943.16943,0.00021
3941.10926,0.00012
3939.04909,0.00021
3936.98892,0.00035
3934.92874,0.00053
3932.86857,0.00070
3930.80840,0.00073
3928.74823,0.00069
3926.68805,0.00071
3924.62788,0.00066
3922.56771,0.00058
3920.50754,0.00055
3918.44737,0.00043
3916.38719,0.00025
3914.32702,0.00023
3912.26685,0.00032
3910.20668,0.00054
3908.14651,0.00100
3906.08633,0.00150
3904.02616,0.00166
3901.96599,0.00129
3899.90582,0.00076
3897.84565,0.00061
3895.78547,0.00086
3893.72530,0.00103
3891.66513,0.00082
3889.60496,0.00067
3887.54478,0.00082
3885.48461,0.00093
3883.42444,0.00100
3881.36427,0.00115
3879.30410,0.00120
3877.24392,0.00117
3875.18375,0.00114
3873.12358,0.00111
3871.06341,0.00095
3869.00324,0.00071
3866.94306,0.00079
3864.88289,0.00095
3862.82272,0.00070
3860.76255,0.00042
3858.70237,0.00042
3856.64220,0.00047
3854.58203,0.00042
3852.52186,0.00029
3850.46169,0.00025
3848.40151,0.00036
3846.34134,0.00043
3844.28117,0.00051
3842.22100,0.00079
3840.16083,0.00100
3838.10065,0.00084
3836.04048,0.00057
3833.98031,0.00048
3831.92014,0.00052
3829.85997,0.00067
3827.79979,0.00087
3825.73962,0.00103
3823.67945,0.00116
3821.61928,0.00113
3819.55910,0.00093
3817.49893,0.00084
3815.43876,0.00072
3813.37859,0.00060
3811.31842,0.00064
3809.25824,0.00071
3807.19807,0.00085
3805.13790,0.00119
3803.07773,0.00145
3801.01756,0.00136
3798.95738,0.00131
3796.89721,0.00130
3794.83704,0.00100
3792.77687,0.00084
3790.71670,0.00097
3788.65652,0.00101
3786.59635,0.00088
3784.53618,0.00087
3782.47601,0.00099
3780.41583,0.00096
3778.35566,0.00077
3776.29549,0.00070
3774.23532,0.00070
3772.17515,0.00065
3770.11497,0.00059
3768.05480,0.00061
3765.99463,0.00073
3763.93446,0.00099
3761.87429,0.00139
3759.81411,0.00166
3757.75394,0.00172
3755.69377,0.00186
3753.63360,0.00197
3751.57342,0.00175
3749.51325,0.00138
3747.45308,0.00120
3745.39291,0.00115
3743.33274,0.00119
3741.27256,0.00135
3739.21239,0.00150
3737.15222,0.00124
3735.09205,0.00052
3733.03188,0.00000
3730.97170,0.00016
3728.91153,0.00050
3726.85136,0.00079
3724.79119,0.00105
3722.73102,0.00107
3720.67084,0.00101
3718.61067,0.00109
3716.55050,0.00146
3714.49033,0.00181
3712.43015,0.00160
3710.36998,0.00116
3708.30981,0.00110
3706.24964,0.00149
3704.18947,0.00158
3702.12929,0.00111
3700.06912,0.00090
3698.00895,0.00136
3695.94878,0.00193
3693.88861,0.00212
3691.82843,0.00212
3689.76826,0.00206
3687.70809,0.00209
3685.64792,0.00219
3683.58775,0.00231
3681.52757,0.00234
3679.46740,0.00241
3677.40723,0.00256
3675.34706,0.00243
3673.28688,0.00193
3671.22671,0.00156
3669.16654,0.00168
3667.10637,0.00222
3665.04620,0.00278
3662.98602,0.00311
3660.92585,0.00328
3658.86568,0.00342
3656.80551,0.00345
3654.74534,0.00342
3652.68516,0.00367
3650.62499,0.00415
3648.56482,0.00442
3646.50465,0.00440
3644.44447,0.00440
3642.38430,0.00447
3640.32413,0.00446
3638.26396,0.00462
3636.20379,0.00525
3634.14361,0.00609
3632.08344,0.00680
3630.02327,0.00701
3627.96310,0.00656
3625.90293,0.00619
3623.84275,0.00672
3621.78258,0.00767
3619.72241,0.00820
3617.66224,0.00825
3615.60207,0.00838
3613.54189,0.00871
3611.48172,0.00888
3609.42155,0.00912
3607.36138,0.00950
3605.30120,0.00977
3603.24103,0.00994
3601.18086,0.00996
3599.12069,0.01016
3597.06052,0.01066
3595.00034,0.01115
3592.94017,0.01132
3590.88000,0.01151
3588.81983,0.01179
3586.75966,0.01214
3584.69948,0.01256
3582.63931,0.01306
3580.57914,0.01345
3578.51897,0.01374
3576.45879,0.01410
3574.39862,0.01442
3572.33845,0.01477
3570.27828,0.01536
3568.21811,0.01587
3566.15793,0.01590
3564.09776,0.01594
3562.03759,0.01634
3559.97742,0.01675
3557.91725,0.01709
3555.85707,0.01765
3553.79690,0.01833
3551.73673,0.01871
3549.67656,0.01872
3547.61639,0.01876
3545.55621,0.01901
3543.49604,0.01924
3541.43587,0.01955
3539.37570,0.02011
3537.31552,0.02061
3535.25535,0.02080
3533.19518,0.02106
3531.13501,0.02149
3529.07484,0.02173
3527.01466,0.02168
3524.95449,0.02179
3522.89432,0.02236
3520.83415,0.02296
3518.77398,0.02334
3516.71380,0.02374
3514.65363,0.02419
3512.59346,0.02448
3510.53329,0.02466
3508.47312,0.02491
3506.41294,0.02534
3504.35277,0.02591
3502.29260,0.02633
3500.23243,0.02647
3498.17225,0.02656
3496.11208,0.02676
3494.05191,0.02695
3491.99174,0.02711
3489.93157,0.02747
3487.87139,0.02795
3485.81122,0.02827
3483.75105,0.02843
3481.69088,0.02860
3479.63071,0.02886
3477.57053,0.02914
3475.51036,0.02933
3473.45019,0.02942
3471.39002,0.02957
3469.32984,0.02987
3467.26967,0.03032
3465.20950,0.03079
3463.14933,0.03124
3461.08916,0.03164
3459.02898,0.03186
3456.96881,0.03190
3454.90864,0.03194
3452.84847,0.03212
3450.78830,0.03244
3448.72812,0.03292
3446.66795,0.03337
3444.60778,0.03361
3442.54761,0.03365
3440.48744,0.03361
3438.42726,0.03377
3436.36709,0.03414
3434.30692,0.03430
3432.24675,0.03442
3430.18657,0.03483
3428.12640,0.03529
3426.06623,0.03557
3424.00606,0.03570
3421.94589,0.03564
3419.88571,0.03572
3417.82554,0.03624
3415.76537,0.03676
3413.70520,0.03677
3411.64503,0.03650
3409.58485,0.03663
3407.52468,0.03721
3405.46451,0.03764
3403.40434,0.03772
3401.34416,0.03771
3399.28399,0.03772
3397.22382,0.03768
3395.16365,0.03787
3393.10348,0.03836
3391.04330,0.03860
3388.98313,0.03849
3386.92296,0.03849
3384.86279,0.03882
3382.80262,0.03930
3380.74244,0.03961
3378.68227,0.03957
3376.62210,0.03929
3374.56193,0.03917
3372.50176,0.03941
3370.44158,0.03977
3368.38141,0.04005
3366.32124,0.04037
3364.26107,0.04074
3362.20089,0.04087
3360.14072,0.04073
3358.08055,0.04057
3356.02038,0.04046
3353.96021,0.04036
3351.90003,0.04030
3349.83986,0.04047
3347.77969,0.04082
3345.71952,0.04099
3343.65935,0.04086
3341.59917,0.04088
3339.53900,0.04108
3337.47883,0.04110
3335.41866,0.04096
3333.35849,0.04090
3331.29831,0.04101
3329.23814,0.04125
3327.17797,0.04151
3325.11780,0.04157
3323.05762,0.04137
3320.99745,0.04112
3318.93728,0.04103
3316.87711,0.04110
3314.81694,0.04119
3312.75676,0.04136
3310.69659,0.04163
3308.63642,0.04174
3306.57625,0.04163
3304.51608,0.04154
3302.45590,0.04153
3300.39573,0.04143
3298.33556,0.04131
3296.27539,0.04131
3294.21521,0.04137
3292.15504,0.04132
3290.09487,0.04127
3288.03470,0.04141
3285.97453,0.04157
3283.91435,0.04146
3281.85418,0.04129
3279.79401,0.04143
3277.73384,0.04161
3275.67367,0.04145
3273.61349,0.04130
3271.55332,0.04143
3269.49315,0.04151
3267.43298,0.04140
3265.37281,0.04123
3263.31263,0.04121
3261.25246,0.04143
3259.19229,0.04159
3257.13212,0.04146
3255.07194,0.04115
3253.01177,0.04084
3250.95160,0.04063
3248.89143,0.04054
3246.83126,0.04060
3244.77108,0.04058
3242.71091,0.04031
3240.65074,0.03996
3238.59057,0.03981
3236.53040,0.03990
3234.47022,0.04007
3232.41005,0.04000
3230.34988,0.03970
3228.28971,0.03945
3226.22954,0.03935
3224.16936,0.03921
3222.10919,0.03894
3220.04902,0.03863
3217.98885,0.03849
3215.92867,0.03839
3213.86850,0.03815
3211.80833,0.03788
3209.74816,0.03774
3207.68799,0.03767
3205.62781,0.03751
3203.56764,0.03724
3201.50747,0.03698
3199.44730,0.03673
3197.38713,0.03645
3195.32695,0.03612
3193.26678,0.03577
3191.20661,0.03542
3189.14644,0.03505
3187.08626,0.03477
3185.02609,0.03453
3182.96592,0.03427
3180.90575,0.03409
3178.84558,0.03396
3176.78540,0.03379
3174.72523,0.03357
3172.66506,0.03322
3170.60489,0.03273
3168.54472,0.03224
3166.48454,0.03196
3164.42437,0.03189
3162.36420,0.03178
3160.30403,0.03160
3158.24386,0.03128
3156.18368,0.03072
3154.12351,0.03026
3152.06334,0.02999
3150.00317,0.02965
3147.94299,0.02926
3145.88282,0.02894
3143.82265,0.02870
3141.76248,0.02855
3139.70231,0.02837
3137.64213,0.02802
3135.58196,0.02749
3133.52179,0.02699
3131.46162,0.02671
3129.40145,0.02656
3127.34127,0.02640
3125.28110,0.02608
3123.22093,0.02558
3121.16076,0.02522
3119.10058,0.02509
3117.04041,0.02493
3114.98024,0.02462
3112.92007,0.02423
3110.85990,0.02390
3108.79972,0.02363
3106.73955,0.02331
3104.67938,0.02310
3102.61921,0.02297
3100.55904,0.02269
3098.49886,0.02231
3096.43869,0.02201
3094.37852,0.02175
3092.31835,0.02135
3090.25818,0.02086
3088.19800,0.02056
3086.13783,0.02047
3084.07766,0.02030
3082.01749,0.01993
3079.95731,0.01959
3077.89714,0.01943
3075.83697,0.01930
3073.77680,0.01904
3071.71663,0.01872
3069.65645,0.01848
3067.59628,0.01833
3065.53611,0.01821
3063.47594,0.01810
3061.41577,0.01785
3059.35559,0.01742
3057.29542,0.01696
3055.23525,0.01659
3053.17508,0.01635
3051.11491,0.01623
3049.05473,0.01607
3046.99456,0.01587
3044.93439,0.01573
3042.87422,0.01557
3040.81404,0.01537
3038.75387,0.01529
3036.69370,0.01521
3034.63353,0.01495
3032.57336,0.01463
3030.51318,0.01438
3028.45301,0.01416
3026.39284,0.01403
3024.33267,0.01390
3022.27250,0.01371
3020.21232,0.01367
3018.15215,0.01377
3016.09198,0.01373
3014.03181,0.01348
3011.97163,0.01328
3009.91146,0.01312
3007.85129,0.01291
3005.79112,0.01271
3003.73095,0.01262
3001.67077,0.01260
2999.61060,0.01239
2997.55043,0.01204
2995.49026,0.01195
2993.43009,0.01212
2991.36991,0.01238
2989.30974,0.01261
2987.24957,0.01283
2985.18940,0.01302
2983.12923,0.01301
2981.06905,0.01285
2979.00888,0.01285
2976.94871,0.01306
2974.88854,0.01322
2972.82836,0.01335
2970.76819,0.01357
2968.70802,0.01373
2966.64785,0.01382
2964.58768,0.01411
2962.52750,0.01445
2960.46733,0.01473
2958.40716,0.01511
2956.34699,0.01544
2954.28682,0.01559
2952.22664,0.01585
2950.16647,0.01643
2948.10630,0.01702
2946.04613,0.01730
2943.98596,0.01741
2941.92578,0.01754
2939.86561,0.01765
2937.80544,0.01775
2935.74527,0.01792
2933.68509,0.01813
2931.62492,0.01833
2929.56475,0.01840
2927.50458,0.01827
2925.44441,0.01802
2923.38423,0.01781
2921.32406,0.01760
2919.26389,0.01727
2917.20372,0.01695
2915.14355,0.01676
2913.08337,0.01661
2911.02320,0.01645
2908.96303,0.01626
2906.90286,0.01604
2904.84268,0.01597
2902.78251,0.01603
2900.72234,0.01583
2898.66217,0.01544
2896.60200,0.01530
2894.54182,0.01536
2892.48165,0.01535
2890.42148,0.01525
2888.36131,0.01519
2886.30114,0.01500
2884.24096,0.01474
2882.18079,0.01467
2880.12062,0.01459
2878.06045,0.01435
2876.00028,0.01422
2873.94010,0.01422
2871.87993,0.01411
2869.81976,0.01384
2867.75959,0.01352
2865.69941,0.01321
2863.63924,0.01295
2861.57907,0.01279
2859.51890,0.01263
2857.45873,0.01236
2855.39855,0.01216
2853.33838,0.01205
2851.27821,0.01184
2849.21804,0.01151
2847.15787,0.01121
2845.09769,0.01098
2843.03752,0.01088
2840.97735,0.01083
2838.91718,0.01074
2836.85700,0.01059
2834.79683,0.01031
2832.73666,0.00997
2830.67649,0.00991
2828.61632,0.01001
2826.55614,0.00989
2824.49597,0.00974
2822.43580,0.00970
2820.37563,0.00964
2818.31546,0.00956
2816.25528,0.00954
2814.19511,0.00951
2812.13494,0.00941
2810.07477,0.00934
2808.01460,0.00928
2805.95442,0.00917
2803.89425,0.00900
2801.83408,0.00883
2799.77391,0.00877
2797.71373,0.00875
2795.65356,0.00861
2793.59339,0.00848
2791.53322,0.00846
2789.47305,0.00843
2787.41287,0.00831
2785.35270,0.00818
2783.29253,0.00823
2781.23236,0.00839
2779.17219,0.00848
2777.11201,0.00844
2775.05184,0.00831
2772.99167,0.00823
2770.93150,0.00824
2768.87133,0.00814
2766.81115,0.00797
2764.75098,0.00793
2762.69081,0.00786
2760.63064,0.00772
2758.57046,0.00762
2756.51029,0.00758
2754.45012,0.00757
2752.38995,0.00753
2750.32978,0.00751
2748.26960,0.00755
2746.20943,0.00759
2744.14926,0.00765
2742.08909,0.00766
2740.02892,0.00750
2737.96874,0.00738
2735.90857,0.00739
2733.84840,0.00739
2731.78823,0.00735
2729.72805,0.00730
2727.66788,0.00720
2725.60771,0.00707
2723.54754,0.00701
2721.48737,0.00697
2719.42719,0.00691
2717.36702,0.00694
2715.30685,0.00699
2713.24668,0.00690
2711.18651,0.00675
2709.12633,0.00666
2707.06616,0.00661
2705.00599,0.00654
2702.94582,0.00653
2700.88565,0.00656
2698.82547,0.00651
2696.76530,0.00641
2694.70513,0.00638
2692.64496,0.00638
2690.58478,0.00640
2688.52461,0.00647
2686.46444,0.00647
2684.40427,0.00642
2682.34410,0.00642
2680.28392,0.00644
2678.22375,0.00645
2676.16358,0.00641
2674.10341,0.00633
2672.04324,0.00624
2669.98306,0.00604
2667.92289,0.00586
2665.86272,0.00591
2663.80255,0.00607
2661.74238,0.00610
2659.68220,0.00602
2657.62203,0.00598
2655.56186,0.00609
2653.50169,0.00621
2651.44151,0.00615
2649.38134,0.00596
2647.32117,0.00591
2645.26100,0.00598
2643.20083,0.00586
2641.14065,0.00557
2639.08048,0.00546
2637.02031,0.00553
2634.96014,0.00556
2632.89997,0.00554
2630.83979,0.00548
2628.77962,0.00526
2626.71945,0.00511
2624.65928,0.00524
2622.59910,0.00532
2620.53893,0.00509
2618.47876,0.00484
2616.41859,0.00484
2614.35842,0.00489
2612.29824,0.00496
2610.23807,0.00515
2608.17790,0.00510
2606.11773,0.00484
2604.05756,0.00471
2601.99738,0.00470
2599.93721,0.00481
2597.87704,0.00485
2595.81687,0.00463
2593.75670,0.00444
2591.69652,0.00441
2589.63635,0.00451
2587.57618,0.00476
2585.51601,0.00477
2583.45583,0.00443
2581.39566,0.00425
2579.33549,0.00445
2577.27532,0.00469
2575.21515,0.00473
2573.15497,0.00445
2571.09480,0.00411
2569.03463,0.00406
2566.97446,0.00430
2564.91429,0.00450
2562.85411,0.00445
2560.79394,0.00437
2558.73377,0.00438
2556.67360,0.00435
2554.61342,0.00419
2552.55325,0.00397
2550.49308,0.00386
2548.43291,0.00394
2546.37274,0.00406
2544.31256,0.00415
2542.25239,0.00441
2540.19222,0.00463
2538.13205,0.00444
2536.07188,0.00418
2534.01170,0.00405
2531.95153,0.00380
2529.89136,0.00353
2527.83119,0.00344
2525.77102,0.00357
2523.71084,0.00378
2521.65067,0.00382
2519.59050,0.00375
2517.53033,0.00374
2515.47015,0.00369
2513.40998,0.00350
2511.34981,0.00347
2509.28964,0.00376
2507.22947,0.00383
2505.16929,0.00341
2503.10912,0.00309
2501.04895,0.00327
2498.98878,0.00368
2496.92861,0.00389
2494.86843,0.00384
2492.80826,0.00387
2490.74809,0.00400
2488.68792,0.00382
2486.62775,0.00355
2484.56757,0.00349
2482.50740,0.00347
2480.44723,0.00340
2478.38706,0.00343
2476.32688,0.00354
2474.26671,0.00366
2472.20654,0.00375
2470.14637,0.00376
2468.08620,0.00378
2466.02602,0.00373
2463.96585,0.00349
2461.90568,0.00344
2459.84551,0.00367
2457.78534,0.00371
2455.72516,0.00354
2453.66499,0.00349
2451.60482,0.00358
2449.54465,0.00348
2447.48447,0.00327
2445.42430,0.00312
2443.36413,0.00291
2441.30396,0.00284
2439.24379,0.00303
2437.18361,0.00317
2435.12344,0.00335
2433.06327,0.00367
2431.00310,0.00382
2428.94293,0.00362
2426.88275,0.00339
2424.82258,0.00332
2422.76241,0.00332
2420.70224,0.00341
2418.64207,0.00349
2416.58189,0.00339
2414.52172,0.00326
2412.46155,0.00324
2410.40138,0.00332
2408.34120,0.00322
2406.28103,0.00290
2404.22086,0.00281
2402.16069,0.00295
2400.10052,0.00293
2398.04034,0.00288
2395.98017,0.00296
2393.92000,0.00298
2391.85983,0.00294
2389.79966,0.00306
2387.73948,0.00337
2385.67931,0.00371
2383.61914,0.00376
2381.55897,0.00361
2379.49880,0.00373
2377.43862,0.00422
2375.37845,0.00420
2373.31828,0.00412
2371.25811,0.00418
2369.19793,0.00363
2367.13776,0.00267
2365.07759,0.00176
2363.01742,0.00000
2360.95725,0.00089
2358.89707,0.00114
2356.83690,0.00128
2354.77673,0.00146
2352.71656,0.00229
2350.65639,0.00668
2348.59621,0.00923
2346.53604,0.00352
2344.47587,0.00241
2342.41570,0.00368
2340.35552,0.00421
2338.29535,0.00412
2336.23518,0.00331
2334.17501,0.00273
2332.11484,0.00232
2330.05466,0.00283
2327.99449,0.00305
2325.93432,0.00411
2323.87415,0.00387
2321.81398,0.00353
2319.75380,0.00255
2317.69363,0.00299
2315.63346,0.00330
2313.57329,0.00332
2311.51312,0.00355
2309.45294,0.00362
2307.39277,0.00356
2305.33260,0.00345
2303.27243,0.00330
2301.21225,0.00301
2299.15208,0.00324
2297.09191,0.00362
2295.03174,0.00372
2292.97157,0.00379
2290.91139,0.00387
2288.85122,0.00389
2286.79105,0.00395
2284.73088,0.00401
2282.67071,0.00389
2280.61053,0.00379
2278.55036,0.00396
2276.49019,0.00409
2274.43002,0.00389
2272.36984,0.00343
2270.30967,0.00297
2268.24950,0.00275
2266.18933,0.00302
2264.12916,0.00345
2262.06898,0.00353
2260.00881,0.00320
2257.94864,0.00299
2255.88847,0.00289
2253.82830,0.00286
2251.76812,0.00293
2249.70795,0.00279
2247.64778,0.00251
2245.58761,0.00238
2243.52744,0.00235
2241.46726,0.00277
2239.40709,0.00330
2237.34692,0.00314
2235.28675,0.00288
2233.22657,0.00317
2231.16640,0.00350
2229.10623,0.00317
2227.04606,0.00259
2224.98589,0.00269
2222.92571,0.00327
2220.86554,0.00358
2218.80537,0.00318
2216.74520,0.00228
2214.68503,0.00166
2212.62485,0.00156
2210.56468,0.00184
2208.50451,0.00217
2206.44434,0.00232
2204.38417,0.00246
2202.32399,0.00248
2200.26382,0.00240
2198.20365,0.00269
2196.14348,0.00328
2194.08330,0.00366
2192.02313,0.00393
2189.96296,0.00429
2187.90279,0.00400
2185.84262,0.00302
2183.78244,0.00227
2181.72227,0.00245
2179.66210,0.00333
2177.60193,0.00372
2175.54176,0.00282
2173.48158,0.00110
2171.42141,0.00021
2169.36124,0.00093
2167.30107,0.00197
2165.24089,0.00234
2163.18072,0.00213
2161.12055,0.00158
2159.06038,0.00173
2157.00021,0.00219
2154.94003,0.00165
2152.87986,0.00154
2150.81969,0.00232
2148.75952,0.00257
2146.69935,0.00232
2144.63917,0.00260
2142.57900,0.00331
2140.51883,0.00342
2138.45866,0.00256
2136.39849,0.00181
2134.33831,0.00195
2132.27814,0.00218
2130.21797,0.00227
2128.15780,0.00260
2126.09762,0.00271
2124.03745,0.00240
2121.97728,0.00243
2119.91711,0.00286
2117.85694,0.00296
2115.79676,0.00281
2113.73659,0.00285
2111.67642,0.00300
2109.61625,0.00312
2107.55608,0.00321
2105.49590,0.00309
2103.43573,0.00309
2101.37556,0.00332
2099.31539,0.00291
2097.25521,0.00217
2095.19504,0.00222
2093.13487,0.00255
2091.07470,0.00249
2089.01453,0.00256
2086.95435,0.00284
2084.89418,0.00305
2082.83401,0.00297
2080.77384,0.00276
2078.71367,0.00314
2076.65349,0.00385
2074.59332,0.00388
2072.53315,0.00326
2070.47298,0.00281
2068.41281,0.00293
2066.35263,0.00341
2064.29246,0.00375
2062.23229,0.00393
2060.17212,0.00423
2058.11194,0.00415
2056.05177,0.00330
2053.99160,0.00304
2051.93143,0.00410
2049.87126,0.00459
2047.81108,0.00380
2045.75091,0.00287
2043.69074,0.00170
2041.63057,0.00081
2039.57040,0.00100
2037.51022,0.00122
2035.45005,0.00121
2033.38988,0.00187
2031.32971,0.00277
2029.26954,0.00296
2027.20936,0.00259
2025.14919,0.00234
2023.08902,0.00213
2021.02885,0.00164
2018.96867,0.00088
2016.90850,0.00049
2014.84833,0.00081
2012.78816,0.00127
2010.72799,0.00196
2008.66781,0.00266
2006.60764,0.00247
2004.54747,0.00178
2002.48730,0.00141
2000.42713,0.00125
1998.36695,0.00096
1996.30678,0.00036
1994.24661,0.00000
1992.18644,0.00076
1990.12626,0.00208
1988.06609,0.00261
1986.00592,0.00243
1983.94575,0.00218
1981.88558,0.00224
1979.82540,0.00227
1977.76523,0.00180
1975.70506,0.00167
1973.64489,0.00223
1971.58472,0.00254
1969.52454,0.00161
1967.46437,0.00022
1965.40420,0.00041
1963.34403,0.00177
1961.28386,0.00216
1959.22368,0.00125
1957.16351,0.00031
1955.10334,0.00000
1953.04317,-0.00004
1950.98299,0.00001
1948.92282,0.00040
1946.86265,0.00086
1944.80248,0.00089
1942.74231,0.00054
1940.68213,0.00018
1938.62196,0.00021
1936.56179,0.00094
1934.50162,0.00177
1932.44145,0.00208
1930.38127,0.00202
1928.32110,0.00157
1926.26093,0.00078
1924.20076,0.00025
1922.14059,0.00043
1920.08041,0.00090
1918.02024,0.00107
1915.96007,0.00094
1913.89990,0.00073
1911.83972,0.00060
1909.77955,0.00068
1907.71938,0.00101
1905.65921,0.00127
1903.59904,0.00111
1901.53886,0.00081
1899.47869,0.00076
1897.41852,0.00075
1895.35835,0.00068
1893.29818,0.00082
1891.23800,0.00100
1889.17783,0.00089
1887.11766,0.00072
1885.05749,0.00080
1882.99731,0.00086
1880.93714,0.00074
1878.87697,0.00065
1876.81680,0.00063
1874.75663,0.00073
1872.69645,0.00101
1870.63628,0.00128
1868.57611,0.00137
1866.51594,0.00130
1864.45577,0.00112
1862.39559,0.00096
1860.33542,0.00095
1858.27525,0.00102
1856.21508,0.00093
1854.15491,0.00069
1852.09473,0.00052
1850.03456,0.00058
1847.97439,0.00070
1845.91422,0.00065
1843.85404,0.00048
1841.79387,0.00040
1839.73370,0.00057
1837.67353,0.00079
1835.61336,0.00080
1833.55318,0.00077
1831.49301,0.00087
1829.43284,0.00089
1827.37267,0.00069
1825.31250,0.00036
1823.25232,0.00007
1821.19215,0.00001
1819.13198,0.00013
1817.07181,0.00025
1815.01163,0.00026
1812.95146,0.00029
1810.89129,0.00048
1808.83112,0.00058
1806.77095,0.00039
1804.71077,0.00017
1802.65060,0.00014
1800.59043,0.00014
1798.53026,0.00006
1796.47009,0.00008
1794.40991,0.00025
1792.34974,0.00039
1790.28957,0.00035
1788.22940,0.00024
1786.16923,0.00020
1784.10905,0.00020
1782.04888,0.00020
1779.98871,0.00026
1777.92854,0.00032
1775.86836,0.00032
1773.80819,0.00028
1771.74802,0.00031
1769.68785,0.00054
1767.62768,0.00082
1765.56750,0.00098
1763.50733,0.00112
1761.44716,0.00138
1759.38699,0.00183
1757.32682,0.00237
1755.26664,0.00275
1753.20647,0.00306
1751.14630,0.00360
1749.08613,0.00429
1747.02596,0.00481
1744.96578,0.00524
1742.90561,0.00567
1740.84544,0.00597
1738.78527,0.00611
1736.72509,0.00617
1734.66492,0.00621
1732.60475,0.00627
1730.54458,0.00633
1728.48441,0.00632
1726.42423,0.00630
1724.36406,0.00631
1722.30389,0.00629
1720.24372,0.00615
1718.18355,0.00579
1716.12337,0.00528
1714.06320,0.00489
1712.00303,0.00467
1709.94286,0.00445
1707.88268,0.00413
1705.82251,0.00378
1703.76234,0.00348
1701.70217,0.00327
1699.64200,0.00328
1697.58182,0.00351
1695.52165,0.00371
1693.46148,0.00389
1691.40131,0.00414
1689.34114,0.00440
1687.28096,0.00455
1685.22079,0.00474
1683.16062,0.00534
1681.10045,0.00619
1679.04028,0.00686
1676.98010,0.00734
1674.91993,0.00781
1672.85976,0.00846
1670.79959,0.00936
1668.73941,0.01023
1666.67924,0.01073
1664.61907,0.01111
1662.55890,0.01170
1660.49873,0.01237
1658.43855,0.01294
1656.37838,0.01347
1654.31821,0.01402
1652.25804,0.01465
1650.19787,0.01534
1648.13769,0.01606
1646.07752,0.01646
1644.01735,0.01650
1641.95718,0.01655
1639.89701,0.01669
1637.83683,0.01683
1635.77666,0.01690
1633.71649,0.01689
1631.65632,0.01687
1629.59614,0.01690
1627.53597,0.01701
1625.47580,0.01713
1623.41563,0.01723
1621.35546,0.01722
1619.29528,0.01704
1617.23511,0.01676
1615.17494,0.01659
1613.11477,0.01654
1611.05460,0.01636
1608.99442,0.01590
1606.93425,0.01532
1604.87408,0.01475
1602.81391,0.01412
1600.75373,0.01336
1598.69356,0.01251
1596.63339,0.01166
1594.57322,0.01076
1592.51305,0.00979
1590.45287,0.00887
1588.39270,0.00802
1586.33253,0.00721
1584.27236,0.00643
1582.21219,0.00580
1580.15201,0.00539
1578.09184,0.00508
1576.03167,0.00460
1573.97150,0.00402
1571.91133,0.00369
1569.85115,0.00352
1567.79098,0.00329
1565.73081,0.00298
1563.67064,0.00280
1561.61046,0.00278
1559.55029,0.00265
1557.49012,0.00223
1555.42995,0.00187
1553.36978,0.00156
1551.30960,0.00125
1549.24943,0.00108
1547.18926,0.00110
1545.12909,0.00117
1543.06892,0.00099
1541.00874,0.00045
1538.94857,0.00000
1536.88840,0.00010
1534.82823,0.00037
1532.76805,0.00044
1530.70788,0.00043
1528.64771,0.00043
1526.58754,0.00035
1524.52737,0.00033
1522.46719,0.00044
1520.40702,0.00050
1518.34685,0.00048
1516.28668,0.00043
1514.22651,0.00043
1512.16633,0.00057
1510.10616,0.00074
1508.04599,0.00066
1505.98582,0.00036
1503.92565,0.00034
1501.86547,0.00058
1499.80530,0.00080
1497.74513,0.00084
1495.68496,0.00078
1493.62478,0.00084
1491.56461,0.00103
1489.50444,0.00122
1487.44427,0.00128
1485.38410,0.00126
1483.32392,0.00137
1481.26375,0.00166
1479.20358,0.00206
1477.14341,0.00255
1475.08324,0.00316
1473.02306,0.00381
1470.96289,0.00434
1468.90272,0.00480
1466.84255,0.00530
1464.78238,0.00577
1462.72220,0.00609
1460.66203,0.00632
1458.60186,0.00664
1456.54169,0.00708
1454.48151,0.00744
1452.42134,0.00767
1450.36117,0.00781
1448.30100,0.00794
1446.24083,0.00818
1444.18065,0.00851
1442.12048,0.00887
1440.06031,0.00924
1438.00014,0.00967
1435.93997,0.01009
1433.87979,0.01038
1431.81962,0.01062
1429.75945,0.01092
1427.69928,0.01127
1425.63910,0.01162
1423.57893,0.01194
1421.51876,0.01222
1419.45859,0.01253
1417.39842,0.01282
1415.33824,0.01298
1413.27807,0.01307
1411.21790,0.01313
1409.15773,0.01310
1407.09756,0.01288
1405.03738,0.01244
1402.97721,0.01187
1400.91704,0.01137
1398.85687,0.01104
1396.79670,0.01088
1394.73652,0.01079
1392.67635,0.01067
1390.61618,0.01060
1388.55601,0.01068
1386.49583,0.01086
1384.43566,0.01106
1382.37549,0.01131
1380.31532,0.01159
1378.25515,0.01184
1376.19497,0.01207
1374.13480,0.01229
1372.07463,0.01245
1370.01446,0.01254
1367.95429,0.01248
1365.89411,0.01228
1363.83394,0.01208
1361.77377,0.01188
1359.71360,0.01164
1357.65343,0.01142
1355.59325,0.01126
1353.53308,0.01110
1351.47291,0.01095
1349.41274,0.01081
1347.35256,0.01058
1345.29239,0.01029
1343.23222,0.01014
1341.17205,0.01019
1339.11188,0.01023
1337.05170,0.01012
1334.99153,0.00994
1332.93136,0.00983
1330.87119,0.00980
1328.81102,0.00983
1326.75084,0.00987
1324.69067,0.00992
1322.63050,0.01009
1320.57033,0.01034
1318.51015,0.01048
1316.44998,0.01048
1314.38981,0.01051
1312.32964,0.01054
1310.26947,0.01038
1308.20929,0.01011
1306.14912,0.00993
1304.08895,0.00985
1302.02878,0.00966
1299.96861,0.00940
1297.90843,0.00925
1295.84826,0.00918
1293.78809,0.00912
1291.72792,0.00901
1289.66775,0.00886
1287.60757,0.00870
1285.54740,0.00855
1283.48723,0.00842
1281.42706,0.00839
1279.36688,0.00845
1277.30671,0.00847
1275.24654,0.00852
1273.18637,0.00872
1271.12620,0.00910
1269.06602,0.00962
1267.00585,0.01009
1264.94568,0.01050
1262.88551,0.01104
1260.82534,0.01164
1258.76516,0.01213
1256.70499,0.01244
1254.64482,0.01259
1252.58465,0.01273
1250.52447,0.01300
1248.46430,0.01324
1246.40413,0.01324
1244.34396,0.01310
1242.28379,0.01301
1240.22361,0.01285
1238.16344,0.01245
1236.10327,0.01189
1234.04310,0.01138
1231.98293,0.01102
1229.92275,0.01067
1227.86258,0.01021
1225.80241,0.00965
1223.74224,0.00914
1221.68207,0.00881
1219.62189,0.00854
1217.56172,0.00819
1215.50155,0.00784
1213.44138,0.00735
1211.38120,0.00666
1209.32103,0.00586
1207.26086,0.00491
1205.20069,0.00398
1203.14052,0.00327
1201.08034,0.00267
1199.02017,0.00199
1196.96000,0.00129
1194.89983,0.00073
1192.83966,0.00028
1190.77948,0.00000
1188.71931,-0.00006
1186.65914,0.00003
1184.59897,0.00019
1182.53880,0.00048
1180.47862,0.00086
1178.41845,0.00137
1176.35828,0.00208
1174.29811,0.00288
1172.23793,0.00372
1170.17776,0.00456
1168.11759,0.00545
1166.05742,0.00644
1163.99725,0.00748
1161.93707,0.00846
1159.87690,0.00933
1157.81673,0.01013
1155.75656,0.01090
1153.69639,0.01157
1151.63621,0.01214
1149.57604,0.01268
1147.51587,0.01316
1145.45570,0.01356
1143.39552,0.01395
1141.33535,0.01429
1139.27518,0.01452
1137.21501,0.01476
1135.15484,0.01506
1133.09466,0.01544
1131.03449,0.01603
1128.97432,0.01667
1126.91415,0.01734
1124.85398,0.01822
1122.79380,0.01918
1120.73363,0.01999
1118.67346,0.02064
1116.61329,0.02121
1114.55312,0.02179
1112.49294,0.02249
1110.43277,0.02330
1108.37260,0.02399
1106.31243,0.02455
1104.25225,0.02526
1102.19208,0.02631
1100.13191,0.02765
1098.07174,0.02906
1096.01157,0.03022
1093.95139,0.03124
1091.89122,0.03238
1089.83105,0.03335
1087.77088,0.03403
1085.71071,0.03474
1083.65053,0.03558
1081.59036,0.03653
1079.53019,0.03763
1077.47002,0.03889
1075.40985,0.04014
1073.34967,0.04123
1071.28950,0.04205
1069.22933,0.04268
1067.16916,0.04322
1065.10898,0.04356
1063.04881,0.04374
1060.98864,0.04408
1058.92847,0.04464
1056.86830,0.04521
1054.80812,0.04567
1052.74795,0.04607
1050.68778,0.04650
1048.62761,0.04714
1046.56744,0.04791
1044.50726,0.04860
1042.44709,0.04932
1040.38692,0.05012
1038.32675,0.05078
1036.26657,0.05122
1034.20640,0.05145
1032.14623,0.05141
1030.08606,0.05123
1028.02589,0.05123
1025.96571,0.05136
1023.90554,0.05130
1021.84537,0.05113
1019.78520,0.05116
1017.72503,0.05120
1015.66485,0.05111
1013.60468,0.05114
1011.54451,0.05131
1009.48434,0.05120
1007.42417,0.05063
1005.36399,0.04993
1003.30382,0.04931
1001.24365,0.04865
999.18348,0.04778
997.12330,0.04667
995.06313,0.04557
993.00296,0.04485
990.94279,0.04442
988.88262,0.04393
986.82244,0.04337
984.76227,0.04277
982.70210,0.04206
980.64193,0.04149
978.58176,0.04111
976.52158,0.04060
974.46141,0.03995
972.40124,0.03926
970.34107,0.03859
968.28089,0.03788
966.22072,0.03713
964.16055,0.03647
962.10038,0.03582
960.04021,0.03513
957.98003,0.03445
955.91986,0.03367
953.85969,0.03292
951.79952,0.03216
949.73935,0.03108
947.67917,0.02971
945.61900,0.02817
943.55883,0.02650
941.49866,0.02478
939.43849,0.02292
937.37831,0.02087
935.31814,0.01869
933.25797,0.01662
931.19780,0.01484
929.13762,0.01319
927.07745,0.01167
925.01728,0.01055
922.95711,0.00982
920.89694,0.00928
918.83676,0.00865
916.77659,0.00775
914.71642,0.00679
912.65625,0.00613
910.59608,0.00575
908.53590,0.00539
906.47573,0.00500
904.41556,0.00477
902.35539,0.00496
900.29522,0.00524
898.23504,0.00525
896.17487,0.00526
894.11470,0.00520
892.05453,0.00486
889.99435,0.00461
887.93418,0.00445
885.87401,0.00423
883.81384,0.00400
881.75367,0.00371
879.69349,0.00330
877.63332,0.00289
875.57315,0.00273
873.51298,0.00267
871.45281,0.00246
869.39263,0.00244
867.33246,0.00251
865.27229,0.00222
863.21212,0.00178
861.15194,0.00172
859.09177,0.00202
857.03160,0.00226
854.97143,0.00216
852.91126,0.00185
850.85108,0.00171
848.79091,0.00180
846.73074,0.00179
844.67057,0.00164
842.61040,0.00137
840.55022,0.00085
838.49005,0.00029
836.42988,0.00000
834.36971,-0.00009
832.30954,-0.00021
830.24936,-0.00044
828.18919,-0.00057
826.12902,-0.00049
824.06885,-0.00023
822.00867,-0.00008
819.94850,-0.00029
817.88833,-0.00037
815.82816,0.00008
813.76799,0.00066
811.70781,0.00108
809.64764,0.00145
807.58747,0.00178
805.52730,0.00188
803.46713,0.00162
801.40695,0.00123
799.34678,0.00090
797.28661,0.00062
795.22644,0.00032
793.16627,0.00000
791.10609,-0.00016
789.04592,0.00010
786.98575,0.00049
784.92558,0.00036
782.86540,-0.00020
780.80523,-0.00046
778.74506,-0.00018
776.68489,0.00030
774.62472,0.00061
772.56454,0.00067
770.50437,0.00062
768.44420,0.00040
766.38403,-0.00007
764.32386,-0.00023
762.26368,0.00025
760.20351,0.00065
758.14334,0.00058
756.08317,0.00061
754.02299,0.00084
751.96282,0.00093
749.90265,0.00070
747.84248,0.00029
745.78231,0.00000
743.72213,-0.00025
741.66196,-0.00008
739.60179,0.00047
737.54162,0.00042
735.48145,-0.00002
733.42127,0.00006
731.36110,0.00043
729.30093,0.00061
727.24076,0.00073
725.18059,0.00108
723.12041,0.00172
721.06024,0.00125
719.00007,0.00147
716.93990,0.00161
714.87972,0.00162
712.81955,0.00188
710.75938,0.00221
708.69921,0.00282
706.63904,0.00382
704.57886,0.00468
702.51869,0.00469
700.45852,0.00421
698.39835,0.00419
696.33818,0.00461
694.27800,0.00497
692.21783,0.00510
690.15766,0.00504
688.09749,0.00509
686.03731,0.00556
683.97714,0.00638
681.91697,0.00685
679.85680,0.00641
677.79663,0.00572
675.73645,0.00552
673.67628,0.00714
671.61611,0.01108
669.55594,0.00722
667.49577,0.00000
665.43559,0.00967
663.37542,0.00689
661.31525,0.00369
659.25508,0.00430
657.19491,0.00516
655.13473,0.00444
653.07456,0.00361
651.01439,0.00381
648.95422,0.00393
646.89404,0.00325
644.83387,0.00164
642.77370,0.00143
640.71353,0.00297
638.65336,0.00372
636.59318,0.00257
634.53301,0.00174
632.47284,0.00223
630.41267,0.00237
628.35250,0.00148
626.29232,0.00052
624.23215,-0.00013
622.17198,-0.00067
620.11181,-0.00103
618.05164,0.00042
615.99146,0.00298
613.93129,0.00402
611.87112,0.00365
609.81095,0.00245
607.75077,0.00119
605.69060,0.00026
603.63043,-0.00079
601.57026,-0.00108
599.51009,0.00000
