3996.73391,0.00028
3994.67373,0.00051
3992.61356,0.00057
3990.55339,0.00049
3988.49322,0.00026
3986.43305,0.00003
3984.37287,0.00000
3982.31270,0.00018
3980.25253,0.00046
3978.19236,0.00054
3976.13219,0.00030
3974.07201,0.00012
3972.01184,0.00028
3969.95167,0.00050
3967.89150,0.00056
3965.83133,0.00051
3963.77115,0.00048
3961.71098,0.00050
3959.65081,0.00053
3957.59064,0.00056
3955.53046,0.00065
3953.47029,0.00071
3951.41012,0.00064
3949.34995,0.00053
3947.28978,0.00056
3945.22960,0.00061
3943.16943,0.00050
3941.10926,0.00031
3939.04909,0.00018
3936.98892,0.00020
3934.92874,0.00044
3932.86857,0.00075
3930.80840,0.00088
3928.74823,0.00076
3926.68805,0.00063
3924.62788,0.00061
3922.56771,0.00054
3920.50754,0.00043
3918.44737,0.00053
3916.38719,0.00091
3914.32702,0.00124
3912.26685,0.00132
3910.20668,0.00122
3908.14651,0.00096
3906.08633,0.00062
3904.02616,0.00059
3901.96599,0.00099
3899.90582,0.00130
3897.84565,0.00130
3895.78547,0.00102
3893.72530,0.00045
3891.66513,0.00000
3889.60496,0.00017
3887.54478,0.00067
3885.48461,0.00108
3883.42444,0.00126
3881.36427,0.00114
3879.30410,0.00082
3877.24392,0.00056
3875.18375,0.00056
3873.12358,0.00072
3871.06341,0.00079
3869.00324,0.00081
3866.94306,0.00082
3864.88289,0.00086
3862.82272,0.00089
3860.76255,0.00086
3858.70237,0.00091
3856.64220,0.00097
3854.58203,0.00117
3852.52186,0.00173
3850.46169,0.00198
3848.40151,0.00191
3846.34134,0.00192
3844.28117,0.00184
3842.22100,0.00142
3840.16083,0.00085
3838.10065,0.00036
3836.04048,0.00010
3833.98031,0.00020
3831.92014,0.00047
3829.85997,0.00073
3827.79979,0.00104
3825.73962,0.00124
3823.67945,0.00110
3821.61928,0.00082
3819.55910,0.00064
3817.49893,0.00063
3815.43876,0.00100
3813.37859,0.00129
3811.31842,0.00108
3809.25824,0.00080
3807.19807,0.00091
3805.13790,0.00107
3803.07773,0.00104
3801.01756,0.00112
3798.95738,0.00125
3796.89721,0.00136
3794.83704,0.00145
3792.77687,0.00130
3790.71670,0.00102
3788.65652,0.00084
3786.59635,0.00076
3784.53618,0.00073
3782.47601,0.00075
3780.41583,0.00087
3778.35566,0.00096
3776.29549,0.00088
3774.23532,0.00085
3772.17515,0.00091
3770.11497,0.00095
3768.05480,0.00104
3765.99463,0.00114
3763.93446,0.00115
3761.87429,0.00103
3759.81411,0.00092
3757.75394,0.00087
3755.69377,0.00066
3753.63360,0.00027
3751.57342,0.00017
3749.51325,0.00061
3747.45308,0.00088
3745.39291,0.00068
3743.33274,0.00067
3741.27256,0.00100
3739.21239,0.00127
3737.15222,0.00127
3735.09205,0.00106
3733.03188,0.00114
3730.97170,0.00154
3728.91153,0.00176
3726.85136,0.00166
3724.79119,0.00157
3722.73102,0.00168
3720.67084,0.00174
3718.61067,0.00155
3716.55050,0.00118
3714.49033,0.00090
3712.43015,0.00075
3710.36998,0.00072
3708.30981,0.00110
3706.24964,0.00141
3704.18947,0.00139
3702.12929,0.00125
3700.06912,0.00127
3698.00895,0.00165
3695.94878,0.00214
3693.88861,0.00222
3691.82843,0.00186
3689.76826,0.00165
3687.70809,0.00180
3685.64792,0.00202
3683.58775,0.00208
3681.52757,0.00203
3679.46740,0.00177
3677.40723,0.00146
3675.34706,0.00170
3673.28688,0.00230
3671.22671,0.00247
3669.16654,0.00249
3667.10637,0.00275
3665.04620,0.00289
3662.98602,0.00280
3660.92585,0.00287
3658.86568,0.00323
3656.80551,0.00356
3654.74534,0.00365
3652.68516,0.00372
3650.62499,0.00410
3648.56482,0.00474
3646.50465,0.00501
3644.44447,0.00494
3642.38430,0.00506
3640.32413,0.00559
3638.26396,0.00618
3636.20379,0.00644
3634.14361,0.00619
3632.08344,0.00570
3630.02327,0.00578
3627.96310,0.00667
3625.90293,0.00743
3623.84275,0.00746
3621.78258,0.00724
3619.72241,0.00734
3617.66224,0.00777
3615.60207,0.00800
3613.54189,0.00817
3611.48172,0.00891
3609.42155,0.00998
3607.36138,0.01087
3605.30120,0.01130
3603.24103,0.01134
3601.18086,0.01143
3599.12069,0.01166
3597.06052,0.01189
3595.00034,0.01212
3592.94017,0.01264
3590.88000,0.01326
3588.81983,0.01356
3586.75966,0.01358
3584.69948,0.01380
3582.63931,0.01424
3580.57914,0.01467
3578.51897,0.01513
3576.45879,0.01572
3574.39862,0.01613
3572.33845,0.01609
3570.27828,0.01588
3568.21811,0.01609
3566.15793,0.01687
3564.09776,0.01757
3562.03759,0.01789
3559.97742,0.01824
3557.91725,0.01890
3555.85707,0.01964
3553.79690,0.02016
3551.73673,0.02043
3549.67656,0.02059
3547.61639,0.02070
3545.55621,0.02091
3543.49604,0.02129
3541.43587,0.02178
3539.37570,0.02223
3537.31552,0.02258
3535.25535,0.02292
3533.19518,0.02330
3531.13501,0.02370
3529.07484,0.02408
3527.01466,0.02442
3524.95449,0.02478
3522.89432,0.02512
3520.83415,0.02536
3518.77398,0.02566
3516.71380,0.02616
3514.65363,0.02669
3512.59346,0.02707
3510.53329,0.02729
3508.47312,0.02744
3506.41294,0.02773
3504.35277,0.02825
3502.29260,0.02870
3500.23243,0.02893
3498.17225,0.02918
3496.11208,0.02958
3494.05191,0.02996
3491.99174,0.03024
3489.93157,0.03053
3487.87139,0.03078
3485.81122,0.03091
3483.75105,0.03108
3481.69088,0.03160
3479.63071,0.03234
3477.57053,0.03281
3475.51036,0.03300
3473.45019,0.03330
3471.39002,0.03372
3469.32984,0.03404
3467.26967,0.03414
3465.20950,0.03420
3463.14933,0.03450
3461.08916,0.03493
3459.02898,0.03531
3456.96881,0.03567
3454.90864,0.03606
3452.84847,0.03650
3450.78830,0.03684
3448.72812,0.03701
3446.66795,0.03702
3444.60778,0.03699
3442.54761,0.03711
3440.48744,0.03736
3438.42726,0.03773
3436.36709,0.03834
3434.30692,0.03901
3432.24675,0.03937
3430.18657,0.03932
3428.12640,0.03925
3426.06623,0.03940
3424.00606,0.03948
3421.94589,0.03943
3419.88571,0.03959
3417.82554,0.03999
3415.76537,0.04033
3413.70520,0.04064
3411.64503,0.04086
3409.58485,0.04086
3407.52468,0.04096
3405.46451,0.04141
3403.40434,0.04195
3401.34416,0.04229
3399.28399,0.04249
3397.22382,0.04265
3395.16365,0.04278
3393.10348,0.04295
3391.04330,0.04323
3388.98313,0.04355
3386.92296,0.04373
3384.86279,0.04358
3382.80262,0.04327
3380.74244,0.04332
3378.68227,0.04375
3376.62210,0.04413
3374.56193,0.04439
3372.50176,0.04465
3370.44158,0.04482
3368.38141,0.04489
3366.32124,0.04493
3364.26107,0.04487
3362.20089,0.04481
3360.14072,0.04501
3358.08055,0.04542
3356.02038,0.04566
3353.96021,0.04558
3351.90003,0.04550
3349.83986,0.04558
3347.77969,0.04569
3345.71952,0.04568
3343.65935,0.04560
3341.59917,0.04553
3339.53900,0.04560
3337.47883,0.04585
3335.41866,0.04598
3333.35849,0.04594
3331.29831,0.04600
3329.23814,0.04623
3327.17797,0.04650
3325.11780,0.04664
3323.05762,0.04668
3320.99745,0.04660
3318.93728,0.04651
3316.87711,0.04647
3314.81694,0.04643
3312.75676,0.04637
3310.69659,0.04629
3308.63642,0.04631
3306.57625,0.04640
3304.51608,0.04645
3302.45590,0.04653
3300.39573,0.04667
3298.33556,0.04664
3296.27539,0.04633
3294.21521,0.04612
3292.15504,0.04631
3290.09487,0.04666
3288.03470,0.04672
3285.97453,0.04651
3283.91435,0.04630
3281.85418,0.04620
3279.79401,0.04616
3277.73384,0.04621
3275.67367,0.04630
3273.61349,0.04640
3271.55332,0.04655
3269.49315,0.04660
3267.43298,0.04642
3265.37281,0.04610
3263.31263,0.04578
3261.25246,0.04557
3259.19229,0.04558
3257.13212,0.04566
3255.07194,0.04559
3253.01177,0.04547
3250.95160,0.04537
3248.89143,0.04524
3246.83126,0.04522
3244.77108,0.04538
3242.71091,0.04538
3240.65074,0.04515
3238.59057,0.04495
3236.53040,0.04473
3234.47022,0.04448
3232.41005,0.04441
3230.34988,0.04439
3228.28971,0.04414
3226.22954,0.04374
3224.16936,0.04348
3222.10919,0.04345
3220.04902,0.04344
3217.98885,0.04328
3215.92867,0.04310
3213.86850,0.04301
3211.80833,0.04296
3209.74816,0.04276
3207.68799,0.04236
3205.62781,0.04198
3203.56764,0.04172
3201.50747,0.04156
3199.44730,0.04150
3197.38713,0.04124
3195.32695,0.04072
3193.26678,0.04030
3191.20661,0.04010
3189.14644,0.03996
3187.08626,0.03973
3185.02609,0.03946
3182.96592,0.03928
3180.90575,0.03908
3178.84558,0.03883
3176.78540,0.03860
3174.72523,0.03830
3172.66506,0.03792
3170.60489,0.03758
3168.54472,0.03728
3166.48454,0.03707
3164.42437,0.03685
3162.36420,0.03644
3160.30403,0.03602
3158.24386,0.03560
3156.18368,0.03513
3154.12351,0.03483
3152.06334,0.03478
3150.00317,0.03471
3147.94299,0.03443
3145.88282,0.03400
3143.82265,0.03350
3141.76248,0.03301
3139.70231,0.03269
3137.64213,0.03242
3135.58196,0.03200
3133.52179,0.03151
3131.46162,0.03113
3129.40145,0.03081
3127.34127,0.03045
3125.28110,0.03005
3123.22093,0.02956
3121.16076,0.02914
3119.10058,0.02899
3117.04041,0.02885
3114.98024,0.02858
3112.92007,0.02832
3110.85990,0.02799
3108.79972,0.02752
3106.73955,0.02727
3104.67938,0.02726
3102.61921,0.02710
3100.55904,0.02663
3098.49886,0.02602
3096.43869,0.02556
3094.37852,0.02527
3092.31835,0.02498
3090.25818,0.02467
3088.19800,0.02439
3086.13783,0.02414
3084.07766,0.02389
3082.01749,0.02365
3079.95731,0.02339
3077.89714,0.02303
3075.83697,0.02264
3073.77680,0.02232
3071.71663,0.02216
3069.65645,0.02209
3067.59628,0.02190
3065.53611,0.02160
3063.47594,0.02134
3061.41577,0.02112
3059.35559,0.02089
3057.29542,0.02054
3055.23525,0.02011
3053.17508,0.01980
3051.11491,0.01956
3049.05473,0.01924
3046.99456,0.01893
3044.93439,0.01865
3042.87422,0.01829
3040.81404,0.01800
3038.75387,0.01783
3036.69370,0.01774
3034.63353,0.01773
3032.57336,0.01763
3030.51318,0.01738
3028.45301,0.01697
3026.39284,0.01651
3024.33267,0.01630
3022.27250,0.01633
3020.21232,0.01633
3018.15215,0.01616
3016.09198,0.01589
3014.03181,0.01571
3011.97163,0.01564
3009.91146,0.01557
3007.85129,0.01552
3005.79112,0.01551
3003.73095,0.01546
3001.67077,0.01534
2999.61060,0.01518
2997.55043,0.01504
2995.49026,0.01503
2993.43009,0.01519
2991.36991,0.01546
2989.30974,0.01565
2987.24957,0.01563
2985.18940,0.01545
2983.12923,0.01532
2981.06905,0.01534
2979.00888,0.01546
2976.94871,0.01572
2974.88854,0.01607
2972.82836,0.01637
2970.76819,0.01661
2968.70802,0.01683
2966.64785,0.01704
2964.58768,0.01727
2962.52750,0.01753
2960.46733,0.01789
2958.40716,0.01832
2956.34699,0.01858
2954.28682,0.01874
2952.22664,0.01904
2950.16647,0.01945
2948.10630,0.01983
2946.04613,0.02015
2943.98596,0.02058
2941.92578,0.02113
2939.86561,0.02142
2937.80544,0.02136
2935.74527,0.02137
2933.68509,0.02148
2931.62492,0.02154
2929.56475,0.02147
2927.50458,0.02126
2925.44441,0.02111
2923.38423,0.02109
2921.32406,0.02100
2919.26389,0.02072
2917.20372,0.02043
2915.14355,0.02038
2913.08337,0.02044
2911.02320,0.02043
2908.96303,0.02030
2906.90286,0.01995
2904.84268,0.01950
2902.78251,0.01923
2900.72234,0.01922
2898.66217,0.01931
2896.60200,0.01929
2894.54182,0.01924
2892.48165,0.01929
2890.42148,0.01925
2888.36131,0.01901
2886.30114,0.01883
2884.24096,0.01870
2882.18079,0.01843
2880.12062,0.01824
2878.06045,0.01819
2876.00028,0.01804
2873.94010,0.01784
2871.87993,0.01759
2869.81976,0.01713
2867.75959,0.01671
2865.69941,0.01646
2863.63924,0.01614
2861.57907,0.01580
2859.51890,0.01565
2857.45873,0.01552
2855.39855,0.01527
2853.33838,0.01496
2851.27821,0.01475
2849.21804,0.01459
2847.15787,0.01438
2845.09769,0.01409
2843.03752,0.01382
2840.97735,0.01371
2838.91718,0.01364
2836.85700,0.01346
2834.79683,0.01314
2832.73666,0.01280
2830.67649,0.01263
2828.61632,0.01254
2826.55614,0.01243
2824.49597,0.01227
2822.43580,0.01207
2820.37563,0.01183
2818.31546,0.01164
2816.25528,0.01160
2814.19511,0.01166
2812.13494,0.01161
2810.07477,0.01145
2808.01460,0.01128
2805.95442,0.01112
2803.89425,0.01103
2801.83408,0.01107
2799.77391,0.01107
2797.71373,0.01089
2795.65356,0.01070
2793.59339,0.01066
2791.53322,0.01069
2789.47305,0.01060
2787.41287,0.01032
2785.35270,0.01003
2783.29253,0.00989
2781.23236,0.00987
2779.17219,0.00992
2777.11201,0.01005
2775.05184,0.01010
2772.99167,0.00995
2770.93150,0.00970
2768.87133,0.00954
2766.81115,0.00953
2764.75098,0.00964
2762.69081,0.00961
2760.63064,0.00942
2758.57046,0.00945
2756.51029,0.00962
2754.45012,0.00961
2752.38995,0.00949
2750.32978,0.00937
2748.26960,0.00924
2746.20943,0.00913
2744.14926,0.00904
2742.08909,0.00894
2740.02892,0.00889
2737.96874,0.00896
2735.90857,0.00900
2733.84840,0.00894
2731.78823,0.00886
2729.72805,0.00878
2727.66788,0.00867
2725.60771,0.00863
2723.54754,0.00866
2721.48737,0.00873
2719.42719,0.00874
2717.36702,0.00864
2715.30685,0.00851
2713.24668,0.00844
2711.18651,0.00842
2709.12633,0.00845
2707.06616,0.00850
2705.00599,0.00844
2702.94582,0.00832
2700.88565,0.00826
2698.82547,0.00833
2696.76530,0.00852
2694.70513,0.00857
2692.64496,0.00838
2690.58478,0.00820
2688.52461,0.00810
2686.46444,0.00805
2684.40427,0.00809
2682.34410,0.00820
2680.28392,0.00830
2678.22375,0.00834
2676.16358,0.00808
2674.10341,0.00763
2672.04324,0.00735
2669.98306,0.00738
2667.92289,0.00759
2665.86272,0.00773
2663.80255,0.00768
2661.74238,0.00751
2659.68220,0.00730
2657.62203,0.00715
2655.56186,0.00707
2653.50169,0.00706
2651.44151,0.00718
2649.38134,0.00727
2647.32117,0.00714
2645.26100,0.00700
2643.20083,0.00699
2641.14065,0.00701
2639.08048,0.00691
2637.02031,0.00665
2634.96014,0.00632
2632.89997,0.00612
2630.83979,0.00612
2628.77962,0.00619
2626.71945,0.00613
2624.65928,0.00604
2622.59910,0.00613
2620.53893,0.00619
2618.47876,0.00612
2616.41859,0.00617
2614.35842,0.00617
2612.29824,0.00590
2610.23807,0.00563
2608.17790,0.00549
2606.11773,0.00544
2604.05756,0.00550
2601.99738,0.00539
2599.93721,0.00496
2597.87704,0.00462
2595.81687,0.00456
2593.75670,0.00464
2591.69652,0.00477
2589.63635,0.00491
2587.57618,0.00498
2585.51601,0.00481
2583.45583,0.00469
2581.39566,0.00488
2579.33549,0.00491
2577.27532,0.00474
2575.21515,0.00469
2573.15497,0.00468
2571.09480,0.00459
2569.03463,0.00461
2566.97446,0.00485
2564.91429,0.00508
2562.85411,0.00509
2560.79394,0.00491
2558.73377,0.00465
2556.67360,0.00452
2554.61342,0.00461
2552.55325,0.00473
2550.49308,0.00472
2548.43291,0.00460
2546.37274,0.00447
2544.31256,0.00444
2542.25239,0.00441
2540.19222,0.00424
2538.13205,0.00399
2536.07188,0.00385
2534.01170,0.00404
2531.95153,0.00439
2529.89136,0.00439
2527.83119,0.00407
2525.77102,0.00392
2523.71084,0.00400
2521.65067,0.00411
2519.59050,0.00415
2517.53033,0.00390
2515.47015,0.00343
2513.40998,0.00334
2511.34981,0.00370
2509.28964,0.00387
2507.22947,0.00366
2505.16929,0.00341
2503.10912,0.00334
2501.04895,0.00352
2498.98878,0.00383
2496.92861,0.00399
2494.86843,0.00396
2492.80826,0.00378
2490.74809,0.00370
2488.68792,0.00379
2486.62775,0.00369
2484.56757,0.00354
2482.50740,0.00365
2480.44723,0.00369
2478.38706,0.00366
2476.32688,0.00396
2474.26671,0.00425
2472.20654,0.00408
2470.14637,0.00382
2468.08620,0.00371
2466.02602,0.00345
2463.96585,0.00324
2461.90568,0.00341
2459.84551,0.00351
2457.78534,0.00324
2455.72516,0.00311
2453.66499,0.00322
2451.60482,0.00337
2449.54465,0.00347
2447.48447,0.00357
2445.42430,0.00376
2443.36413,0.00394
2441.30396,0.00392
2439.24379,0.00370
2437.18361,0.00348
2435.12344,0.00338
2433.06327,0.00335
2431.00310,0.00324
2428.94293,0.00301
2426.88275,0.00286
2424.82258,0.00296
2422.76241,0.00314
2420.70224,0.00317
2418.64207,0.00319
2416.58189,0.00325
2414.52172,0.00329
2412.46155,0.00336
2410.40138,0.00333
2408.34120,0.00322
2406.28103,0.00310
2404.22086,0.00303
2402.16069,0.00316
2400.10052,0.00328
2398.04034,0.00309
2395.98017,0.00281
2393.92000,0.00259
2391.85983,0.00243
2389.79966,0.00239
2387.73948,0.00253
2385.67931,0.00272
2383.61914,0.00291
2381.55897,0.00316
2379.49880,0.00337
2377.43862,0.00330
2375.37845,0.00344
2373.31828,0.00355
2371.25811,0.00326
2369.19793,0.00318
2367.13776,0.00292
2365.07759,0.00213
2363.01742,0.00218
2360.95725,0.00154
2358.89707,0.00249
2356.83690,0.00400
2354.77673,0.00462
2352.71656,0.00401
2350.65639,0.00126
2348.59621,0.00014
2346.53604,0.00401
2344.47587,0.00457
2342.41570,0.00330
2340.35552,0.00259
2338.29535,0.00246
2336.23518,0.00289
2334.17501,0.00288
2332.11484,0.00289
2330.05466,0.00284
2327.99449,0.00307
2325.93432,0.00310
2323.87415,0.00403
2321.81398,0.00451
2319.75380,0.00453
2317.69363,0.00364
2315.63346,0.00341
2313.57329,0.00369
2311.51312,0.00375
2309.45294,0.00373
2307.39277,0.00360
2305.33260,0.00323
2303.27243,0.00303
2301.21225,0.00350
2299.15208,0.00392
2297.09191,0.00392
2295.03174,0.00377
2292.97157,0.00372
2290.91139,0.00390
2288.85122,0.00413
2286.79105,0.00414
2284.73088,0.00399
2282.67071,0.00380
2280.61053,0.00349
2278.55036,0.00323
2276.49019,0.00329
2274.43002,0.00341
2272.36984,0.00336
2270.30967,0.00320
2268.24950,0.00309
2266.18933,0.00287
2264.12916,0.00251
2262.06898,0.00236
2260.00881,0.00238
2257.94864,0.00240
2255.88847,0.00277
2253.82830,0.00325
2251.76812,0.00325
2249.70795,0.00289
2247.64778,0.00278
2245.58761,0.00275
2243.52744,0.00222
2241.46726,0.00183
2239.40709,0.00212
2237.34692,0.00258
2235.28675,0.00266
2233.22657,0.00249
2231.16640,0.00250
2229.10623,0.00286
2227.04606,0.00324
2224.98589,0.00307
2222.92571,0.00255
2220.86554,0.00206
2218.80537,0.00197
2216.74520,0.00246
2214.68503,0.00268
2212.62485,0.00225
2210.56468,0.00183
2208.50451,0.00166
2206.44434,0.00168
2204.38417,0.00214
2202.32399,0.00271
2200.26382,0.00289
2198.20365,0.00313
2196.14348,0.00360
2194.08330,0.00352
2192.02313,0.00316
2189.96296,0.00329
2187.90279,0.00368
2185.84262,0.00353
2183.78244,0.00239
2181.72227,0.00160
2179.66210,0.00202
2177.60193,0.00263
2175.54176,0.00287
2173.48158,0.00285
2171.42141,0.00265
2169.36124,0.00224
2167.30107,0.00230
2165.24089,0.00324
2163.18072,0.00357
2161.12055,0.00216
2159.06038,0.00063
2157.00021,0.00064
2154.94003,0.00105
2152.87986,0.00132
2150.81969,0.00161
2148.75952,0.00179
2146.69935,0.00195
2144.63917,0.00178
2142.57900,0.00149
2140.51883,0.00181
2138.45866,0.00237
2136.39849,0.00208
2134.33831,0.00133
2132.27814,0.00145
2130.21797,0.00226
2128.15780,0.00267
2126.09762,0.00271
2124.03745,0.00278
2121.97728,0.00289
2119.91711,0.00319
2117.85694,0.00357
2115.79676,0.00364
2113.73659,0.00354
2111.67642,0.00378
2109.61625,0.00422
2107.55608,0.00423
2105.49590,0.00365
2103.43573,0.00334
2101.37556,0.00392
2099.31539,0.00439
2097.25521,0.00401
2095.19504,0.00338
2093.13487,0.00290
2091.07470,0.00232
2089.01453,0.00212
2086.95435,0.00288
2084.89418,0.00364
2082.83401,0.00350
2080.77384,0.00290
2078.71367,0.00258
2076.65349,0.00260
2074.59332,0.00275
2072.53315,0.00297
2070.47298,0.00317
2068.41281,0.00332
2066.35263,0.00337
2064.29246,0.00316
2062.23229,0.00295
2060.17212,0.00272
2058.11194,0.00232
2056.05177,0.00215
2053.99160,0.00249
2051.93143,0.00278
2049.87126,0.00233
2047.81108,0.00177
2045.75091,0.00184
2043.69074,0.00214
2041.63057,0.00239
2039.57040,0.00214
2037.51022,0.00125
2035.45005,0.00091
2033.38988,0.00143
2031.32971,0.00145
2029.26954,0.00115
2027.20936,0.00165
2025.14919,0.00244
2023.08902,0.00244
2021.02885,0.00169
2018.96867,0.00122
2016.90850,0.00140
2014.84833,0.00162
2012.78816,0.00130
2010.72799,0.00111
2008.66781,0.00148
2006.60764,0.00161
2004.54747,0.00126
2002.48730,0.00065
2000.42713,0.00059
1998.36695,0.00174
1996.30678,0.00296
1994.24661,0.00321
1992.18644,0.00273
1990.12626,0.00226
1988.06609,0.00237
1986.00592,0.00274
1983.94575,0.00281
1981.88558,0.00239
1979.82540,0.00181
1977.76523,0.00124
1975.70506,0.00039
1973.64489,0.00000
1971.58472,0.00039
1969.52454,0.00072
1967.46437,0.00089
1965.40420,0.00133
1963.34403,0.00194
1961.28386,0.00222
1959.22368,0.00174
1957.16351,0.00092
1955.10334,0.00080
1953.04317,0.00138
1950.98299,0.00169
1948.92282,0.00130
1946.86265,0.00070
1944.80248,0.00059
1942.74231,0.00090
1940.68213,0.00140
1938.62196,0.00189
1936.56179,0.00194
1934.50162,0.00177
1932.44145,0.00182
1930.38127,0.00172
1928.32110,0.00143
1926.26093,0.00126
1924.20076,0.00112
1922.14059,0.00123
1920.08041,0.00172
1918.02024,0.00208
1915.96007,0.00183
1913.89990,0.00123
1911.83972,0.00089
1909.77955,0.00088
1907.71938,0.00085
1905.65921,0.00080
1903.59904,0.00084
1901.53886,0.00083
1899.47869,0.00067
1897.41852,0.00056
1895.35835,0.00073
1893.29818,0.00093
1891.23800,0.00089
1889.17783,0.00085
1887.11766,0.00097
1885.05749,0.00097
1882.99731,0.00087
1880.93714,0.00097
1878.87697,0.00119
1876.81680,0.00125
1874.75663,0.00100
1872.69645,0.00057
1870.63628,0.00018
1868.57611,0.00000
1866.51594,0.00011
1864.45577,0.00036
1862.39559,0.00068
1860.33542,0.00096
1858.27525,0.00094
1856.21508,0.00076
1854.15491,0.00075
1852.09473,0.00080
1850.03456,0.00071
1847.97439,0.00054
1845.91422,0.00040
1843.85404,0.00035
1841.79387,0.00041
1839.73370,0.00053
1837.67353,0.00061
1835.61336,0.00074
1833.55318,0.00091
1831.49301,0.00091
1829.43284,0.00066
1827.37267,0.00043
1825.31250,0.00039
1823.25232,0.00039
1821.19215,0.00038
1819.13198,0.00036
1817.07181,0.00034
1815.01163,0.00030
1812.95146,0.00037
1810.89129,0.00058
1808.83112,0.00071
1806.77095,0.00065
1804.71077,0.00049
1802.65060,0.00036
1800.59043,0.00035
1798.53026,0.00048
1796.47009,0.00058
1794.40991,0.00055
1792.34974,0.00053
1790.28957,0.00063
1788.22940,0.00071
1786.16923,0.00067
1784.10905,0.00056
1782.04888,0.00052
1779.98871,0.00066
1777.92854,0.00088
1775.86836,0.00091
1773.80819,0.00072
1771.74802,0.00064
1769.68785,0.00094
1767.62768,0.00146
1765.56750,0.00190
1763.50733,0.00234
1761.44716,0.00303
1759.38699,0.00391
1757.32682,0.00479
1755.26664,0.00559
1753.20647,0.00626
1751.14630,0.00690
1749.08613,0.00765
1747.02596,0.00837
1744.96578,0.00890
1742.90561,0.00938
1740.84544,0.00994
1738.78527,0.01047
1736.72509,0.01080
1734.66492,0.01102
1732.60475,0.01122
1730.54458,0.01137
1728.48441,0.01150
1726.42423,0.01146
1724.36406,0.01119
1722.30389,0.01079
1720.24372,0.01023
1718.18355,0.00954
1716.12337,0.00902
1714.06320,0.00864
1712.00303,0.00815
1709.94286,0.00755
1707.88268,0.00693
1705.82251,0.00630
1703.76234,0.00565
1701.70217,0.00510
1699.64200,0.00476
1697.58182,0.00481
1695.52165,0.00521
1693.46148,0.00558
1691.40131,0.00569
1689.34114,0.00570
1687.28096,0.00570
1685.22079,0.00584
1683.16062,0.00649
1681.10045,0.00733
1679.04028,0.00795
1676.98010,0.00845
1674.91993,0.00893
1672.85976,0.00938
1670.79959,0.00995
1668.73941,0.01082
1666.67924,0.01169
1664.61907,0.01240
1662.55890,0.01316
1660.49873,0.01397
1658.43855,0.01454
1656.37838,0.01475
1654.31821,0.01500
1652.25804,0.01577
1650.19787,0.01649
1648.13769,0.01705
1646.07752,0.01776
1644.01735,0.01835
1641.95718,0.01861
1639.89701,0.01871
1637.83683,0.01887
1635.77666,0.01925
1633.71649,0.01974
1631.65632,0.02017
1629.59614,0.02048
1627.53597,0.02072
1625.47580,0.02094
1623.41563,0.02122
1621.35546,0.02149
1619.29528,0.02153
1617.23511,0.02142
1615.17494,0.02152
1613.11477,0.02169
1611.05460,0.02158
1608.99442,0.02122
1606.93425,0.02078
1604.87408,0.02021
1602.81391,0.01949
1600.75373,0.01867
1598.69356,0.01782
1596.63339,0.01688
1594.57322,0.01580
1592.51305,0.01465
1590.45287,0.01357
1588.39270,0.01257
1586.33253,0.01161
1584.27236,0.01062
1582.21219,0.00963
1580.15201,0.00867
1578.09184,0.00772
1576.03167,0.00680
1573.97150,0.00609
1571.91133,0.00550
1569.85115,0.00499
1567.79098,0.00471
1565.73081,0.00451
1563.67064,0.00413
1561.61046,0.00351
1559.55029,0.00282
1557.49012,0.00252
1555.42995,0.00256
1553.36978,0.00264
1551.30960,0.00259
1549.24943,0.00233
1547.18926,0.00193
1545.12909,0.00144
1543.06892,0.00096
1541.00874,0.00069
1538.94857,0.00093
1536.88840,0.00130
1534.82823,0.00139
1532.76805,0.00126
1530.70788,0.00111
1528.64771,0.00095
1526.58754,0.00081
1524.52737,0.00064
1522.46719,0.00044
1520.40702,0.00039
1518.34685,0.00047
1516.28668,0.00060
1514.22651,0.00073
1512.16633,0.00067
1510.10616,0.00028
1508.04599,0.00000
1505.98582,0.00045
1503.92565,0.00104
1501.86547,0.00119
1499.80530,0.00117
1497.74513,0.00125
1495.68496,0.00146
1493.62478,0.00167
1491.56461,0.00181
1489.50444,0.00199
1487.44427,0.00234
1485.38410,0.00273
1483.32392,0.00304
1481.26375,0.00329
1479.20358,0.00352
1477.14341,0.00371
1475.08324,0.00403
1473.02306,0.00485
1470.96289,0.00593
1468.90272,0.00659
1466.84255,0.00697
1464.78238,0.00752
1462.72220,0.00814
1460.66203,0.00850
1458.60186,0.00879
1456.54169,0.00933
1454.48151,0.00992
1452.42134,0.01035
1450.36117,0.01069
1448.30100,0.01107
1446.24083,0.01154
1444.18065,0.01197
1442.12048,0.01228
1440.06031,0.01253
1438.00014,0.01282
1435.93997,0.01328
1433.87979,0.01380
1431.81962,0.01429
1429.75945,0.01484
1427.69928,0.01539
1425.63910,0.01582
1423.57893,0.01616
1421.51876,0.01651
1419.45859,0.01699
1417.39842,0.01747
1415.33824,0.01769
1413.27807,0.01774
1411.21790,0.01779
1409.15773,0.01775
1407.09756,0.01749
1405.03738,0.01705
1402.97721,0.01660
1400.91704,0.01612
1398.85687,0.01557
1396.79670,0.01501
1394.73652,0.01460
1392.67635,0.01444
1390.61618,0.01442
1388.55601,0.01444
1386.49583,0.01461
1384.43566,0.01494
1382.37549,0.01536
1380.31532,0.01583
1378.25515,0.01627
1376.19497,0.01662
1374.13480,0.01690
1372.07463,0.01712
1370.01446,0.01716
1367.95429,0.01698
1365.89411,0.01659
1363.83394,0.01613
1361.77377,0.01575
1359.71360,0.01558
1357.65343,0.01548
1355.59325,0.01531
1353.53308,0.01508
1351.47291,0.01485
1349.41274,0.01455
1347.35256,0.01423
1345.29239,0.01403
1343.23222,0.01390
1341.17205,0.01377
1339.11188,0.01367
1337.05170,0.01363
1334.99153,0.01360
1332.93136,0.01354
1330.87119,0.01343
1328.81102,0.01338
1326.75084,0.01342
1324.69067,0.01345
1322.63050,0.01344
1320.57033,0.01347
1318.51015,0.01353
1316.44998,0.01352
1314.38981,0.01340
1312.32964,0.01318
1310.26947,0.01296
1308.20929,0.01278
1306.14912,0.01254
1304.08895,0.01217
1302.02878,0.01178
1299.96861,0.01148
1297.90843,0.01124
1295.84826,0.01107
1293.78809,0.01098
1291.72792,0.01101
1289.66775,0.01109
1287.60757,0.01104
1285.54740,0.01089
1283.48723,0.01087
1281.42706,0.01097
1279.36688,0.01106
1277.30671,0.01115
1275.24654,0.01135
1273.18637,0.01171
1271.12620,0.01215
1269.06602,0.01265
1267.00585,0.01321
1264.94568,0.01388
1262.88551,0.01468
1260.82534,0.01558
1258.76516,0.01639
1256.70499,0.01704
1254.64482,0.01758
1252.58465,0.01806
1250.52447,0.01839
1248.46430,0.01850
1246.40413,0.01853
1244.34396,0.01855
1242.28379,0.01839
1240.22361,0.01805
1238.16344,0.01763
1236.10327,0.01718
1234.04310,0.01669
1231.98293,0.01606
1229.92275,0.01530
1227.86258,0.01451
1225.80241,0.01375
1223.74224,0.01307
1221.68207,0.01236
1219.62189,0.01152
1217.56172,0.01063
1215.50155,0.00975
1213.44138,0.00883
1211.38120,0.00780
1209.32103,0.00666
1207.26086,0.00555
1205.20069,0.00454
1203.14052,0.00363
1201.08034,0.00275
1199.02017,0.00185
1196.96000,0.00110
1194.89983,0.00061
1192.83966,0.00022
1190.77948,0.00000
1188.71931,-0.00001
1186.65914,0.00008
1184.59897,0.00018
1182.53880,0.00041
1180.47862,0.00083
1178.41845,0.00153
1176.35828,0.00248
1174.29811,0.00363
1172.23793,0.00490
1170.17776,0.00619
1168.11759,0.00758
1166.05742,0.00904
1163.99725,0.01029
1161.93707,0.01126
1159.87690,0.01219
1157.81673,0.01314
1155.75656,0.01410
1153.69639,0.01510
1151.63621,0.01600
1149.57604,0.01672
1147.51587,0.01731
1145.45570,0.01782
1143.39552,0.01813
1141.33535,0.01823
1139.27518,0.01829
1137.21501,0.01837
1135.15484,0.01845
1133.09466,0.01868
1131.03449,0.01923
1128.97432,0.02006
1126.91415,0.02092
1124.85398,0.02162
1122.79380,0.02217
1120.73363,0.02263
1118.67346,0.02324
1116.61329,0.02406
1114.55312,0.02483
1112.49294,0.02540
1110.43277,0.02591
1108.37260,0.02643
1106.31243,0.02698
1104.25225,0.02783
1102.19208,0.02901
1100.13191,0.03027
1098.07174,0.03166
1096.01157,0.03317
1093.95139,0.03464
1091.89122,0.03608
1089.83105,0.03731
1087.77088,0.03823
1085.71071,0.03917
1083.65053,0.04017
1081.59036,0.04105
1079.53019,0.04200
1077.47002,0.04316
1075.40985,0.04444
1073.34967,0.04562
1071.28950,0.04656
1069.22933,0.04737
1067.16916,0.04810
1065.10898,0.04879
1063.04881,0.04933
1060.98864,0.04971
1058.92847,0.05025
1056.86830,0.05102
1054.80812,0.05171
1052.74795,0.05228
1050.68778,0.05288
1048.62761,0.05364
1046.56744,0.05457
1044.50726,0.05542
1042.44709,0.05627
1040.38692,0.05712
1038.32675,0.05788
1036.26657,0.05848
1034.20640,0.05869
1032.14623,0.05867
1030.08606,0.05868
1028.02589,0.05862
1025.96571,0.05842
1023.90554,0.05816
1021.84537,0.05797
1019.78520,0.05781
1017.72503,0.05765
1015.66485,0.05773
1013.60468,0.05801
1011.54451,0.05812
1009.48434,0.05791
1007.42417,0.05753
1005.36399,0.05706
1003.30382,0.05631
1001.24365,0.05520
999.18348,0.05403
997.12330,0.05292
995.06313,0.05191
993.00296,0.05107
990.94279,0.05026
988.88262,0.04954
986.82244,0.04891
984.76227,0.04813
982.70210,0.04738
980.64193,0.04696
978.58176,0.04671
976.52158,0.04635
974.46141,0.04574
972.40124,0.04492
970.34107,0.04403
968.28089,0.04326
966.22072,0.04249
964.16055,0.04147
962.10038,0.04041
960.04021,0.03958
957.98003,0.03893
955.91986,0.03822
953.85969,0.03723
951.79952,0.03614
949.73935,0.03526
947.67917,0.03436
945.61900,0.03309
943.55883,0.03154
941.49866,0.02985
939.43849,0.02772
937.37831,0.02517
935.31814,0.02271
933.25797,0.02065
931.19780,0.01895
929.13762,0.01752
927.07745,0.01613
925.01728,0.01484
922.95711,0.01388
920.89694,0.01308
918.83676,0.01213
916.77659,0.01115
914.71642,0.01011
912.65625,0.00905
910.59608,0.00830
908.53590,0.00792
906.47573,0.00782
904.41556,0.00785
902.35539,0.00778
900.29522,0.00798
898.23504,0.00867
896.17487,0.00927
894.11470,0.00956
892.05453,0.00968
889.99435,0.00949
887.93418,0.00900
885.87401,0.00833
883.81384,0.00754
881.75367,0.00670
879.69349,0.00576
877.63332,0.00492
875.57315,0.00427
873.51298,0.00377
871.45281,0.00336
869.39263,0.00303
867.33246,0.00291
865.27229,0.00268
863.21212,0.00214
861.15194,0.00173
859.09177,0.00150
857.03160,0.00121
854.97143,0.00097
852.91126,0.00086
850.85108,0.00085
848.79091,0.00070
846.73074,0.00027
844.67057,0.00000
842.61040,-0.00006
840.55022,-0.00014
838.49005,-0.00021
836.42988,-0.00034
834.36971,-0.00057
832.30954,-0.00081
830.24936,-0.00103
828.18919,-0.00102
826.12902,-0.00076
824.06885,-0.00040
822.00867,-0.00005
819.94850,0.00028
817.88833,0.00058
815.82816,0.00089
813.76799,0.00123
811.70781,0.00168
809.64764,0.00221
807.58747,0.00231
805.52730,0.00194
803.46713,0.00183
801.40695,0.00202
799.34678,0.00209
797.28661,0.00175
795.22644,0.00119
793.16627,0.00074
791.10609,0.00029
789.04592,0.00000
786.98575,0.00013
784.92558,0.00044
782.86540,0.00085
780.80523,0.00136
778.74506,0.00155
776.68489,0.00145
774.62472,0.00132
772.56454,0.00125
770.50437,0.00126
768.44420,0.00110
766.38403,0.00062
764.32386,0.00047
762.26368,0.00101
760.20351,0.00138
758.14334,0.00135
756.08317,0.00161
754.02299,0.00177
751.96282,0.00116
749.90265,0.00024
747.84248,0.00000
745.78231,0.00065
743.72213,0.00135
741.66196,0.00142
739.60179,0.00117
737.54162,0.00107
735.48145,0.00097
733.42127,0.00083
731.36110,0.00085
729.30093,0.00084
727.24076,0.00062
725.18059,0.00047
723.12041,0.00056
721.06024,0.00132
719.00007,0.00138
716.93990,0.00157
714.87972,0.00228
712.81955,0.00305
710.75938,0.00395
708.69921,0.00472
706.63904,0.00526
704.57886,0.00596
702.51869,0.00649
700.45852,0.00623
698.39835,0.00559
696.33818,0.00514
694.27800,0.00462
692.21783,0.00387
690.15766,0.00314
688.09749,0.00269
686.03731,0.00232
683.97714,0.00165
681.91697,0.00112
679.85680,0.00138
677.79663,0.00216
675.73645,0.00289
673.67628,0.00226
671.61611,0.00000
669.55594,0.00328
667.49577,0.00823
665.43559,0.00159
663.37542,0.00277
661.31525,0.00429
659.25508,0.00371
657.19491,0.00262
655.13473,0.00165
653.07456,0.00119
651.01439,0.00106
648.95422,0.00068
646.89404,0.00000
644.83387,-0.00015
642.77370,0.00010
640.71353,0.00044
638.65336,0.00084
636.59318,0.00143
634.53301,0.00168
632.47284,0.00099
630.41267,0.00023
628.35250,0.00040
626.29232,0.00108
624.23215,0.00179
622.17198,0.00234
620.11181,0.00284
618.05164,0.00275
615.99146,-0.00002
613.93129,-0.00303
611.87112,-0.00241
609.81095,-0.00045
607.75077,-0.00067
605.69060,-0.00206
603.63043,-0.00246
601.57026,-0.00146
599.51009,0.00000
