3996.73391,0.00019
3994.67373,0.00044
3992.61356,0.00063
3990.55339,0.00072
3988.49322,0.00073
3986.43305,0.00073
3984.37287,0.00073
3982.31270,0.00071
3980.25253,0.00067
3978.19236,0.00063
3976.13219,0.00063
3974.07201,0.00066
3972.01184,0.00069
3969.95167,0.00065
3967.89150,0.00050
3965.83133,0.00028
3963.77115,0.00009
3961.71098,0.00000
3959.65081,0.00002
3957.59064,0.00011
3955.53046,0.00024
3953.47029,0.00040
3951.41012,0.00055
3949.34995,0.00062
3947.28978,0.00055
3945.22960,0.00037
3943.16943,0.00016
3941.10926,0.00002
3939.04909,0.00001
3936.98892,0.00009
3934.92874,0.00020
3932.86857,0.00025
3930.80840,0.00027
3928.74823,0.00032
3926.68805,0.00045
3924.62788,0.00060
3922.56771,0.00070
3920.50754,0.00068
3918.44737,0.00056
3916.38719,0.00046
3914.32702,0.00046
3912.26685,0.00055
3910.20668,0.00063
3908.14651,0.00065
3906.08633,0.00067
3904.02616,0.00073
3901.96599,0.00082
3899.90582,0.00092
3897.84565,0.00098
3895.78547,0.00093
3893.72530,0.00081
3891.66513,0.00061
3889.60496,0.00041
3887.54478,0.00031
3885.48461,0.00034
3883.42444,0.00040
3881.36427,0.00042
3879.30410,0.00042
3877.24392,0.00051
3875.18375,0.00072
3873.12358,0.00094
3871.06341,0.00108
3869.00324,0.00113
3866.94306,0.00114
3864.88289,0.00115
3862.82272,0.00113
3860.76255,0.00107
3858.70237,0.00100
3856.64220,0.00096
3854.58203,0.00096
3852.52186,0.00104
3850.46169,0.00111
3848.40151,0.00103
3846.34134,0.00081
3844.28117,0.00059
3842.22100,0.00047
3840.16083,0.00048
3838.10065,0.00059
3836.04048,0.00079
3833.98031,0.00108
3831.92014,0.00133
3829.85997,0.00144
3827.79979,0.00141
3825.73962,0.00135
3823.67945,0.00129
3821.61928,0.00120
3819.55910,0.00098
3817.49893,0.00064
3815.43876,0.00037
3813.37859,0.00028
3811.31842,0.00038
3809.25824,0.00051
3807.19807,0.00052
3805.13790,0.00035
3803.07773,0.00013
3801.01756,0.00004
3798.95738,0.00023
3796.89721,0.00059
3794.83704,0.00093
3792.77687,0.00114
3790.71670,0.00117
3788.65652,0.00105
3786.59635,0.00084
3784.53618,0.00071
3782.47601,0.00078
3780.41583,0.00096
3778.35566,0.00106
3776.29549,0.00100
3774.23532,0.00082
3772.17515,0.00064
3770.11497,0.00049
3768.05480,0.00037
3765.99463,0.00021
3763.93446,0.00004
3761.87429,0.00000
3759.81411,0.00016
3757.75394,0.00049
3755.69377,0.00093
3753.63360,0.00141
3751.57342,0.00174
3749.51325,0.00174
3747.45308,0.00141
3745.39291,0.00093
3743.33274,0.00055
3741.27256,0.00047
3739.21239,0.00067
3737.15222,0.00087
3735.09205,0.00087
3733.03188,0.00071
3730.97170,0.00059
3728.91153,0.00059
3726.85136,0.00067
3724.79119,0.00075
3722.73102,0.00090
3720.67084,0.00116
3718.61067,0.00144
3716.55050,0.00161
3714.49033,0.00162
3712.43015,0.00149
3710.36998,0.00124
3708.30981,0.00101
3706.24964,0.00097
3704.18947,0.00115
3702.12929,0.00142
3700.06912,0.00159
3698.00895,0.00159
3695.94878,0.00149
3693.88861,0.00142
3691.82843,0.00144
3689.76826,0.00147
3687.70809,0.00140
3685.64792,0.00120
3683.58775,0.00094
3681.52757,0.00073
3679.46740,0.00067
3677.40723,0.00077
3675.34706,0.00088
3673.28688,0.00089
3671.22671,0.00086
3669.16654,0.00090
3667.10637,0.00104
3665.04620,0.00133
3662.98602,0.00173
3660.92585,0.00212
3658.86568,0.00232
3656.80551,0.00227
3654.74534,0.00211
3652.68516,0.00205
3650.62499,0.00216
3648.56482,0.00235
3646.50465,0.00254
3644.44447,0.00277
3642.38430,0.00314
3640.32413,0.00354
3638.26396,0.00385
3636.20379,0.00412
3634.14361,0.00446
3632.08344,0.00483
3630.02327,0.00505
3627.96310,0.00497
3625.90293,0.00476
3623.84275,0.00464
3621.78258,0.00462
3619.72241,0.00462
3617.66224,0.00465
3615.60207,0.00486
3613.54189,0.00531
3611.48172,0.00595
3609.42155,0.00665
3607.36138,0.00725
3605.30120,0.00766
3603.24103,0.00795
3601.18086,0.00823
3599.12069,0.00853
3597.06052,0.00875
3595.00034,0.00886
3592.94017,0.00895
3590.88000,0.00920
3588.81983,0.00968
3586.75966,0.01019
3584.69948,0.01051
3582.63931,0.01071
3580.57914,0.01090
3578.51897,0.01108
3576.45879,0.01125
3574.39862,0.01146
3572.33845,0.01173
3570.27828,0.01202
3568.21811,0.01223
3566.15793,0.01236
3564.09776,0.01253
3562.03759,0.01278
3559.97742,0.01305
3557.91725,0.01331
3555.85707,0.01352
3553.79690,0.01366
3551.73673,0.01378
3549.67656,0.01395
3547.61639,0.01421
3545.55621,0.01453
3543.49604,0.01480
3541.43587,0.01493
3539.37570,0.01499
3537.31552,0.01514
3535.25535,0.01546
3533.19518,0.01591
3531.13501,0.01638
3529.07484,0.01677
3527.01466,0.01706
3524.95449,0.01731
3522.89432,0.01764
3520.83415,0.01800
3518.77398,0.01831
3516.71380,0.01854
3514.65363,0.01870
3512.59346,0.01888
3510.53329,0.01918
3508.47312,0.01962
3506.41294,0.02011
3504.35277,0.02050
3502.29260,0.02070
3500.23243,0.02073
3498.17225,0.02069
3496.11208,0.02073
3494.05191,0.02096
3491.99174,0.02133
3489.93157,0.02168
3487.87139,0.02191
3485.81122,0.02208
3483.75105,0.02228
3481.69088,0.02254
3479.63071,0.02281
3477.57053,0.02309
3475.51036,0.02343
3473.45019,0.02381
3471.39002,0.02414
3469.32984,0.02435
3467.26967,0.02449
3465.20950,0.02468
3463.14933,0.02491
3461.08916,0.02513
3459.02898,0.02530
3456.96881,0.02541
3454.90864,0.02548
3452.84847,0.02555
3450.78830,0.02572
3448.72812,0.02600
3446.66795,0.02633
3444.60778,0.02658
3442.54761,0.02669
3440.48744,0.02677
3438.42726,0.02695
3436.36709,0.02731
3434.30692,0.02775
3432.24675,0.02819
3430.18657,0.02855
3428.12640,0.02880
3426.06623,0.02896
3424.00606,0.02907
3421.94589,0.02916
3419.88571,0.02921
3417.82554,0.02923
3415.76537,0.02926
3413.70520,0.02930
3411.64503,0.02938
3409.58485,0.02953
3407.52468,0.02972
3405.46451,0.02991
3403.40434,0.03011
3401.34416,0.03032
3399.28399,0.03060
3397.22382,0.03091
3395.16365,0.03118
3393.10348,0.03135
3391.04330,0.03145
3388.98313,0.03156
3386.92296,0.03169
3384.86279,0.03178
3382.80262,0.03183
3380.74244,0.03186
3378.68227,0.03197
3376.62210,0.03213
3374.56193,0.03226
3372.50176,0.03232
3370.44158,0.03237
3368.38141,0.03251
3366.32124,0.03276
3364.26107,0.03307
3362.20089,0.03336
3360.14072,0.03360
3358.08055,0.03375
3356.02038,0.03382
3353.96021,0.03382
3351.90003,0.03375
3349.83986,0.03362
3347.77969,0.03349
3345.71952,0.03350
3343.65935,0.03366
3341.59917,0.03383
3339.53900,0.03382
3337.47883,0.03363
3335.41866,0.03344
3333.35849,0.03339
3331.29831,0.03350
3329.23814,0.03362
3327.17797,0.03366
3325.11780,0.03365
3323.05762,0.03372
3320.99745,0.03392
3318.93728,0.03417
3316.87711,0.03439
3314.81694,0.03453
3312.75676,0.03458
3310.69659,0.03457
3308.63642,0.03454
3306.57625,0.03448
3304.51608,0.03450
3302.45590,0.03469
3300.39573,0.03497
3298.33556,0.03509
3296.27539,0.03493
3294.21521,0.03464
3292.15504,0.03444
3290.09487,0.03439
3288.03470,0.03442
3285.97453,0.03439
3283.91435,0.03430
3281.85418,0.03420
3279.79401,0.03419
3277.73384,0.03433
3275.67367,0.03459
3273.61349,0.03485
3271.55332,0.03496
3269.49315,0.03486
3267.43298,0.03461
3265.37281,0.03438
3263.31263,0.03424
3261.25246,0.03419
3259.19229,0.03421
3257.13212,0.03431
3255.07194,0.03447
3253.01177,0.03460
3250.95160,0.03460
3248.89143,0.03445
3246.83126,0.03425
3244.77108,0.03409
3242.71091,0.03396
3240.65074,0.03382
3238.59057,0.03370
3236.53040,0.03362
3234.47022,0.03357
3232.41005,0.03348
3230.34988,0.03331
3228.28971,0.03310
3226.22954,0.03292
3224.16936,0.03279
3222.10919,0.03267
3220.04902,0.03256
3217.98885,0.03246
3215.92867,0.03242
3213.86850,0.03239
3211.80833,0.03229
3209.74816,0.03208
3207.68799,0.03178
3205.62781,0.03145
3203.56764,0.03115
3201.50747,0.03095
3199.44730,0.03090
3197.38713,0.03094
3195.32695,0.03098
3193.26678,0.03093
3191.20661,0.03073
3189.14644,0.03037
3187.08626,0.02989
3185.02609,0.02936
3182.96592,0.02891
3180.90575,0.02866
3178.84558,0.02863
3176.78540,0.02871
3174.72523,0.02868
3172.66506,0.02844
3170.60489,0.02807
3168.54472,0.02766
3166.48454,0.02730
3164.42437,0.02701
3162.36420,0.02681
3160.30403,0.02668
3158.24386,0.02658
3156.18368,0.02648
3154.12351,0.02633
3152.06334,0.02610
3150.00317,0.02580
3147.94299,0.02547
3145.88282,0.02519
3143.82265,0.02499
3141.76248,0.02478
3139.70231,0.02454
3137.64213,0.02428
3135.58196,0.02403
3133.52179,0.02380
3131.46162,0.02357
3129.40145,0.02336
3127.34127,0.02316
3125.28110,0.02295
3123.22093,0.02269
3121.16076,0.02244
3119.10058,0.02230
3117.04041,0.02222
3114.98024,0.02206
3112.92007,0.02170
3110.85990,0.02124
3108.79972,0.02084
3106.73955,0.02060
3104.67938,0.02051
3102.61921,0.02040
3100.55904,0.02016
3098.49886,0.01980
3096.43869,0.01940
3094.37852,0.01905
3092.31835,0.01875
3090.25818,0.01845
3088.19800,0.01811
3086.13783,0.01779
3084.07766,0.01755
3082.01749,0.01738
3079.95731,0.01728
3077.89714,0.01723
3075.83697,0.01719
3073.77680,0.01711
3071.71663,0.01697
3069.65645,0.01678
3067.59628,0.01656
3065.53611,0.01633
3063.47594,0.01613
3061.41577,0.01597
3059.35559,0.01579
3057.29542,0.01554
3055.23525,0.01526
3053.17508,0.01502
3051.11491,0.01489
3049.05473,0.01480
3046.99456,0.01470
3044.93439,0.01453
3042.87422,0.01431
3040.81404,0.01406
3038.75387,0.01386
3036.69370,0.01375
3034.63353,0.01368
3032.57336,0.01355
3030.51318,0.01337
3028.45301,0.01318
3026.39284,0.01301
3024.33267,0.01288
3022.27250,0.01280
3020.21232,0.01276
3018.15215,0.01277
3016.09198,0.01279
3014.03181,0.01275
3011.97163,0.01257
3009.91146,0.01226
3007.85129,0.01189
3005.79112,0.01158
3003.73095,0.01142
3001.67077,0.01143
2999.61060,0.01155
2997.55043,0.01173
2995.49026,0.01190
2993.43009,0.01203
2991.36991,0.01210
2989.30974,0.01197
2987.24957,0.01168
2985.18940,0.01151
2983.12923,0.01166
2981.06905,0.01193
2979.00888,0.01199
2976.94871,0.01186
2974.88854,0.01187
2972.82836,0.01218
2970.76819,0.01273
2968.70802,0.01329
2966.64785,0.01362
2964.58768,0.01368
2962.52750,0.01360
2960.46733,0.01364
2958.40716,0.01396
2956.34699,0.01452
2954.28682,0.01512
2952.22664,0.01570
2950.16647,0.01613
2948.10630,0.01628
2946.04613,0.01635
2943.98596,0.01651
2941.92578,0.01671
2939.86561,0.01674
2937.80544,0.01668
2935.74527,0.01672
2933.68509,0.01686
2931.62492,0.01703
2929.56475,0.01717
2927.50458,0.01721
2925.44441,0.01715
2923.38423,0.01699
2921.32406,0.01672
2919.26389,0.01649
2917.20372,0.01644
2915.14355,0.01650
2913.08337,0.01651
2911.02320,0.01635
2908.96303,0.01594
2906.90286,0.01542
2904.84268,0.01509
2902.78251,0.01508
2900.72234,0.01523
2898.66217,0.01522
2896.60200,0.01502
2894.54182,0.01486
2892.48165,0.01481
2890.42148,0.01482
2888.36131,0.01488
2886.30114,0.01503
2884.24096,0.01521
2882.18079,0.01530
2880.12062,0.01517
2878.06045,0.01489
2876.00028,0.01457
2873.94010,0.01421
2871.87993,0.01386
2869.81976,0.01365
2867.75959,0.01354
2865.69941,0.01346
2863.63924,0.01333
2861.57907,0.01307
2859.51890,0.01267
2857.45873,0.01227
2855.39855,0.01203
2853.33838,0.01184
2851.27821,0.01156
2849.21804,0.01133
2847.15787,0.01125
2845.09769,0.01129
2843.03752,0.01140
2840.97735,0.01146
2838.91718,0.01131
2836.85700,0.01105
2834.79683,0.01091
2832.73666,0.01081
2830.67649,0.01061
2828.61632,0.01037
2826.55614,0.01017
2824.49597,0.01002
2822.43580,0.00988
2820.37563,0.00978
2818.31546,0.00974
2816.25528,0.00974
2814.19511,0.00976
2812.13494,0.00978
2810.07477,0.00977
2808.01460,0.00966
2805.95442,0.00940
2803.89425,0.00918
2801.83408,0.00918
2799.77391,0.00927
2797.71373,0.00924
2795.65356,0.00912
2793.59339,0.00904
2791.53322,0.00899
2789.47305,0.00899
2787.41287,0.00897
2785.35270,0.00890
2783.29253,0.00885
2781.23236,0.00881
2779.17219,0.00875
2777.11201,0.00867
2775.05184,0.00862
2772.99167,0.00865
2770.93150,0.00869
2768.87133,0.00863
2766.81115,0.00844
2764.75098,0.00820
2762.69081,0.00804
2760.63064,0.00804
2758.57046,0.00813
2756.51029,0.00819
2754.45012,0.00819
2752.38995,0.00819
2750.32978,0.00821
2748.26960,0.00821
2746.20943,0.00820
2744.14926,0.00818
2742.08909,0.00821
2740.02892,0.00826
2737.96874,0.00825
2735.90857,0.00821
2733.84840,0.00819
2731.78823,0.00823
2729.72805,0.00822
2727.66788,0.00808
2725.60771,0.00787
2723.54754,0.00763
2721.48737,0.00744
2719.42719,0.00733
2717.36702,0.00734
2715.30685,0.00752
2713.24668,0.00777
2711.18651,0.00792
2709.12633,0.00797
2707.06616,0.00797
2705.00599,0.00786
2702.94582,0.00770
2700.88565,0.00766
2698.82547,0.00766
2696.76530,0.00757
2694.70513,0.00743
2692.64496,0.00737
2690.58478,0.00742
2688.52461,0.00743
2686.46444,0.00732
2684.40427,0.00723
2682.34410,0.00730
2680.28392,0.00744
2678.22375,0.00743
2676.16358,0.00720
2674.10341,0.00697
2672.04324,0.00695
2669.98306,0.00708
2667.92289,0.00721
2665.86272,0.00728
2663.80255,0.00740
2661.74238,0.00750
2659.68220,0.00741
2657.62203,0.00722
2655.56186,0.00722
2653.50169,0.00733
2651.44151,0.00729
2649.38134,0.00704
2647.32117,0.00678
2645.26100,0.00673
2643.20083,0.00684
2641.14065,0.00688
2639.08048,0.00677
2637.02031,0.00651
2634.96014,0.00624
2632.89997,0.00617
2630.83979,0.00623
2628.77962,0.00620
2626.71945,0.00616
2624.65928,0.00627
2622.59910,0.00638
2620.53893,0.00633
2618.47876,0.00622
2616.41859,0.00615
2614.35842,0.00600
2612.29824,0.00569
2610.23807,0.00541
2608.17790,0.00543
2606.11773,0.00579
2604.05756,0.00621
2601.99738,0.00631
2599.93721,0.00604
2597.87704,0.00562
2595.81687,0.00527
2593.75670,0.00507
2591.69652,0.00500
2589.63635,0.00507
2587.57618,0.00527
2585.51601,0.00548
2583.45583,0.00562
2581.39566,0.00563
2579.33549,0.00553
2577.27532,0.00539
2575.21515,0.00519
2573.15497,0.00495
2571.09480,0.00483
2569.03463,0.00488
2566.97446,0.00504
2564.91429,0.00511
2562.85411,0.00503
2560.79394,0.00502
2558.73377,0.00531
2556.67360,0.00560
2554.61342,0.00548
2552.55325,0.00508
2550.49308,0.00488
2548.43291,0.00509
2546.37274,0.00541
2544.31256,0.00546
2542.25239,0.00522
2540.19222,0.00493
2538.13205,0.00481
2536.07188,0.00495
2534.01170,0.00507
2531.95153,0.00487
2529.89136,0.00461
2527.83119,0.00472
2525.77102,0.00520
2523.71084,0.00550
2521.65067,0.00522
2519.59050,0.00460
2517.53033,0.00413
2515.47015,0.00404
2513.40998,0.00426
2511.34981,0.00449
2509.28964,0.00458
2507.22947,0.00466
2505.16929,0.00476
2503.10912,0.00478
2501.04895,0.00472
2498.98878,0.00465
2496.92861,0.00460
2494.86843,0.00458
2492.80826,0.00465
2490.74809,0.00484
2488.68792,0.00506
2486.62775,0.00526
2484.56757,0.00540
2482.50740,0.00520
2480.44723,0.00461
2478.38706,0.00405
2476.32688,0.00398
2474.26671,0.00432
2472.20654,0.00464
2470.14637,0.00474
2468.08620,0.00475
2466.02602,0.00465
2463.96585,0.00428
2461.90568,0.00387
2459.84551,0.00391
2457.78534,0.00437
2455.72516,0.00479
2453.66499,0.00487
2451.60482,0.00477
2449.54465,0.00473
2447.48447,0.00474
2445.42430,0.00464
2443.36413,0.00456
2441.30396,0.00480
2439.24379,0.00525
2437.18361,0.00549
2435.12344,0.00538
2433.06327,0.00520
2431.00310,0.00503
2428.94293,0.00475
2426.88275,0.00451
2424.82258,0.00438
2422.76241,0.00420
2420.70224,0.00407
2418.64207,0.00428
2416.58189,0.00464
2414.52172,0.00479
2412.46155,0.00471
2410.40138,0.00469
2408.34120,0.00475
2406.28103,0.00470
2404.22086,0.00452
2402.16069,0.00432
2400.10052,0.00416
2398.04034,0.00394
2395.98017,0.00367
2393.92000,0.00344
2391.85983,0.00333
2389.79966,0.00328
2387.73948,0.00327
2385.67931,0.00338
2383.61914,0.00372
2381.55897,0.00420
2379.49880,0.00458
2377.43862,0.00461
2375.37845,0.00421
2373.31828,0.00363
2371.25811,0.00319
2369.19793,0.00299
2367.13776,0.00273
2365.07759,0.00214
2363.01742,0.00128
2360.95725,0.00071
2358.89707,0.00098
2356.83690,0.00191
2354.77673,0.00287
2352.71656,0.00343
2350.65639,0.00368
2348.59621,0.00387
2346.53604,0.00410
2344.47587,0.00433
2342.41570,0.00456
2340.35552,0.00489
2338.29535,0.00527
2336.23518,0.00550
2334.17501,0.00551
2332.11484,0.00547
2330.05466,0.00552
2327.99449,0.00563
2325.93432,0.00565
2323.87415,0.00546
2321.81398,0.00507
2319.75380,0.00462
2317.69363,0.00429
2315.63346,0.00416
2313.57329,0.00423
2311.51312,0.00450
2309.45294,0.00491
2307.39277,0.00525
2305.33260,0.00531
2303.27243,0.00503
2301.21225,0.00451
2299.15208,0.00395
2297.09191,0.00358
2295.03174,0.00353
2292.97157,0.00375
2290.91139,0.00412
2288.85122,0.00446
2286.79105,0.00461
2284.73088,0.00446
2282.67071,0.00416
2280.61053,0.00393
2278.55036,0.00387
2276.49019,0.00393
2274.43002,0.00405
2272.36984,0.00414
2270.30967,0.00422
2268.24950,0.00441
2266.18933,0.00459
2264.12916,0.00456
2262.06898,0.00429
2260.00881,0.00400
2257.94864,0.00388
2255.88847,0.00406
2253.82830,0.00444
2251.76812,0.00479
2249.70795,0.00490
2247.64778,0.00471
2245.58761,0.00443
2243.52744,0.00426
2241.46726,0.00391
2239.40709,0.00306
2237.34692,0.00247
2235.28675,0.00283
2233.22657,0.00363
2231.16640,0.00427
2229.10623,0.00453
2227.04606,0.00424
2224.98589,0.00356
2222.92571,0.00271
2220.86554,0.00171
2218.80537,0.00105
2216.74520,0.00158
2214.68503,0.00305
2212.62485,0.00430
2210.56468,0.00513
2208.50451,0.00604
2206.44434,0.00685
2204.38417,0.00679
2202.32399,0.00553
2200.26382,0.00401
2198.20365,0.00316
2196.14348,0.00252
2194.08330,0.00157
2192.02313,0.00117
2189.96296,0.00209
2187.90279,0.00365
2185.84262,0.00475
2183.78244,0.00510
2181.72227,0.00515
2179.66210,0.00518
2177.60193,0.00507
2175.54176,0.00481
2173.48158,0.00452
2171.42141,0.00428
2169.36124,0.00416
2167.30107,0.00418
2165.24089,0.00435
2163.18072,0.00459
2161.12055,0.00462
2159.06038,0.00365
2157.00021,0.00183
2154.94003,0.00046
2152.87986,0.00001
2150.81969,0.00000
2148.75952,0.00044
2146.69935,0.00138
2144.63917,0.00216
2142.57900,0.00245
2140.51883,0.00266
2138.45866,0.00280
2136.39849,0.00261
2134.33831,0.00237
2132.27814,0.00222
2130.21797,0.00209
2128.15780,0.00213
2126.09762,0.00237
2124.03745,0.00297
2121.97728,0.00407
2119.91711,0.00496
2117.85694,0.00485
2115.79676,0.00419
2113.73659,0.00388
2111.67642,0.00407
2109.61625,0.00446
2107.55608,0.00472
2105.49590,0.00477
2103.43573,0.00469
2101.37556,0.00442
2099.31539,0.00408
2097.25521,0.00396
2095.19504,0.00416
2093.13487,0.00440
2091.07470,0.00437
2089.01453,0.00403
2086.95435,0.00353
2084.89418,0.00310
2082.83401,0.00286
2080.77384,0.00286
2078.71367,0.00300
2076.65349,0.00300
2074.59332,0.00272
2072.53315,0.00236
2070.47298,0.00230
2068.41281,0.00265
2066.35263,0.00323
2064.29246,0.00380
2062.23229,0.00416
2060.17212,0.00422
2058.11194,0.00397
2056.05177,0.00347
2053.99160,0.00291
2051.93143,0.00260
2049.87126,0.00270
2047.81108,0.00312
2045.75091,0.00368
2043.69074,0.00433
2041.63057,0.00492
2039.57040,0.00505
2037.51022,0.00455
2035.45005,0.00376
2033.38988,0.00319
2031.32971,0.00304
2029.26954,0.00319
2027.20936,0.00357
2025.14919,0.00415
2023.08902,0.00466
2021.02885,0.00474
2018.96867,0.00438
2016.90850,0.00395
2014.84833,0.00384
2012.78816,0.00404
2010.72799,0.00427
2008.66781,0.00433
2006.60764,0.00412
2004.54747,0.00364
2002.48730,0.00307
2000.42713,0.00262
1998.36695,0.00224
1996.30678,0.00186
1994.24661,0.00155
1992.18644,0.00143
1990.12626,0.00153
1988.06609,0.00175
1986.00592,0.00199
1983.94575,0.00215
1981.88558,0.00205
1979.82540,0.00153
1977.76523,0.00085
1975.70506,0.00033
1973.64489,0.00006
1971.58472,0.00000
1969.52454,0.00015
1967.46437,0.00041
1965.40420,0.00069
1963.34403,0.00104
1961.28386,0.00140
1959.22368,0.00169
1957.16351,0.00195
1955.10334,0.00220
1953.04317,0.00238
1950.98299,0.00240
1948.92282,0.00223
1946.86265,0.00187
1944.80248,0.00136
1942.74231,0.00088
1940.68213,0.00075
1938.62196,0.00112
1936.56179,0.00173
1934.50162,0.00213
1932.44145,0.00213
1930.38127,0.00181
1928.32110,0.00143
1926.26093,0.00123
1924.20076,0.00145
1922.14059,0.00216
1920.08041,0.00306
1918.02024,0.00366
1915.96007,0.00368
1913.89990,0.00321
1911.83972,0.00255
1909.77955,0.00198
1907.71938,0.00164
1905.65921,0.00150
1903.59904,0.00150
1901.53886,0.00151
1899.47869,0.00145
1897.41852,0.00137
1895.35835,0.00128
1893.29818,0.00122
1891.23800,0.00124
1889.17783,0.00134
1887.11766,0.00144
1885.05749,0.00150
1882.99731,0.00149
1880.93714,0.00139
1878.87697,0.00126
1876.81680,0.00116
1874.75663,0.00105
1872.69645,0.00087
1870.63628,0.00073
1868.57611,0.00073
1866.51594,0.00088
1864.45577,0.00102
1862.39559,0.00106
1860.33542,0.00102
1858.27525,0.00098
1856.21508,0.00100
1854.15491,0.00113
1852.09473,0.00141
1850.03456,0.00170
1847.97439,0.00184
1845.91422,0.00175
1843.85404,0.00151
1841.79387,0.00131
1839.73370,0.00129
1837.67353,0.00140
1835.61336,0.00150
1833.55318,0.00150
1831.49301,0.00144
1829.43284,0.00135
1827.37267,0.00126
1825.31250,0.00118
1823.25232,0.00100
1821.19215,0.00065
1819.13198,0.00029
1817.07181,0.00014
1815.01163,0.00028
1812.95146,0.00061
1810.89129,0.00091
1808.83112,0.00107
1806.77095,0.00104
1804.71077,0.00088
1802.65060,0.00072
1800.59043,0.00065
1798.53026,0.00066
1796.47009,0.00079
1794.40991,0.00100
1792.34974,0.00121
1790.28957,0.00131
1788.22940,0.00129
1786.16923,0.00121
1784.10905,0.00107
1782.04888,0.00091
1779.98871,0.00077
1777.92854,0.00069
1775.86836,0.00071
1773.80819,0.00081
1771.74802,0.00094
1769.68785,0.00105
1767.62768,0.00112
1765.56750,0.00123
1763.50733,0.00142
1761.44716,0.00169
1759.38699,0.00205
1757.32682,0.00251
1755.26664,0.00303
1753.20647,0.00360
1751.14630,0.00414
1749.08613,0.00457
1747.02596,0.00489
1744.96578,0.00516
1742.90561,0.00547
1740.84544,0.00579
1738.78527,0.00602
1736.72509,0.00614
1734.66492,0.00620
1732.60475,0.00629
1730.54458,0.00646
1728.48441,0.00658
1726.42423,0.00658
1724.36406,0.00644
1722.30389,0.00627
1720.24372,0.00610
1718.18355,0.00589
1716.12337,0.00553
1714.06320,0.00507
1712.00303,0.00461
1709.94286,0.00424
1707.88268,0.00399
1705.82251,0.00379
1703.76234,0.00357
1701.70217,0.00333
1699.64200,0.00313
1697.58182,0.00305
1695.52165,0.00308
1693.46148,0.00315
1691.40131,0.00326
1689.34114,0.00343
1687.28096,0.00368
1685.22079,0.00399
1683.16062,0.00431
1681.10045,0.00463
1679.04028,0.00503
1676.98010,0.00557
1674.91993,0.00622
1672.85976,0.00690
1670.79959,0.00755
1668.73941,0.00811
1666.67924,0.00853
1664.61907,0.00885
1662.55890,0.00916
1660.49873,0.00952
1658.43855,0.00997
1656.37838,0.01052
1654.31821,0.01113
1652.25804,0.01169
1650.19787,0.01217
1648.13769,0.01254
1646.07752,0.01267
1644.01735,0.01256
1641.95718,0.01242
1639.89701,0.01244
1637.83683,0.01267
1635.77666,0.01302
1633.71649,0.01340
1631.65632,0.01374
1629.59614,0.01404
1627.53597,0.01429
1625.47580,0.01449
1623.41563,0.01462
1621.35546,0.01469
1619.29528,0.01471
1617.23511,0.01469
1615.17494,0.01457
1613.11477,0.01435
1611.05460,0.01403
1608.99442,0.01358
1606.93425,0.01303
1604.87408,0.01240
1602.81391,0.01172
1600.75373,0.01102
1598.69356,0.01031
1596.63339,0.00960
1594.57322,0.00886
1592.51305,0.00812
1590.45287,0.00739
1588.39270,0.00672
1586.33253,0.00611
1584.27236,0.00555
1582.21219,0.00503
1580.15201,0.00456
1578.09184,0.00415
1576.03167,0.00371
1573.97150,0.00323
1571.91133,0.00278
1569.85115,0.00244
1567.79098,0.00218
1565.73081,0.00203
1563.67064,0.00200
1561.61046,0.00210
1559.55029,0.00214
1557.49012,0.00195
1555.42995,0.00156
1553.36978,0.00120
1551.30960,0.00101
1549.24943,0.00100
1547.18926,0.00112
1545.12909,0.00130
1543.06892,0.00139
1541.00874,0.00130
1538.94857,0.00108
1536.88840,0.00082
1534.82823,0.00062
1532.76805,0.00047
1530.70788,0.00037
1528.64771,0.00030
1526.58754,0.00026
1524.52737,0.00026
1522.46719,0.00030
1520.40702,0.00033
1518.34685,0.00027
1516.28668,0.00013
1514.22651,0.00000
1512.16633,-0.00001
1510.10616,0.00011
1508.04599,0.00032
1505.98582,0.00048
1503.92565,0.00048
1501.86547,0.00037
1499.80530,0.00026
1497.74513,0.00023
1495.68496,0.00026
1493.62478,0.00039
1491.56461,0.00060
1489.50444,0.00080
1487.44427,0.00093
1485.38410,0.00102
1483.32392,0.00120
1481.26375,0.00150
1479.20358,0.00186
1477.14341,0.00224
1475.08324,0.00264
1473.02306,0.00309
1470.96289,0.00358
1468.90272,0.00407
1466.84255,0.00453
1464.78238,0.00495
1462.72220,0.00534
1460.66203,0.00570
1458.60186,0.00605
1456.54169,0.00636
1454.48151,0.00662
1452.42134,0.00686
1450.36117,0.00711
1448.30100,0.00737
1446.24083,0.00760
1444.18065,0.00779
1442.12048,0.00803
1440.06031,0.00839
1438.00014,0.00882
1435.93997,0.00924
1433.87979,0.00959
1431.81962,0.00994
1429.75945,0.01034
1427.69928,0.01074
1425.63910,0.01110
1423.57893,0.01141
1421.51876,0.01167
1419.45859,0.01185
1417.39842,0.01191
1415.33824,0.01184
1413.27807,0.01173
1411.21790,0.01162
1409.15773,0.01149
1407.09756,0.01135
1405.03738,0.01123
1402.97721,0.01114
1400.91704,0.01104
1398.85687,0.01088
1396.79670,0.01063
1394.73652,0.01031
1392.67635,0.01001
1390.61618,0.00983
1388.55601,0.00980
1386.49583,0.00990
1384.43566,0.01007
1382.37549,0.01028
1380.31532,0.01053
1378.25515,0.01080
1376.19497,0.01108
1374.13480,0.01135
1372.07463,0.01153
1370.01446,0.01153
1367.95429,0.01137
1365.89411,0.01114
1363.83394,0.01095
1361.77377,0.01079
1359.71360,0.01064
1357.65343,0.01047
1355.59325,0.01031
1353.53308,0.01013
1351.47291,0.00993
1349.41274,0.00974
1347.35256,0.00960
1345.29239,0.00949
1343.23222,0.00937
1341.17205,0.00924
1339.11188,0.00912
1337.05170,0.00901
1334.99153,0.00891
1332.93136,0.00886
1330.87119,0.00888
1328.81102,0.00897
1326.75084,0.00911
1324.69067,0.00924
1322.63050,0.00936
1320.57033,0.00950
1318.51015,0.00963
1316.44998,0.00969
1314.38981,0.00965
1312.32964,0.00952
1310.26947,0.00935
1308.20929,0.00915
1306.14912,0.00888
1304.08895,0.00856
1302.02878,0.00829
1299.96861,0.00816
1297.90843,0.00812
1295.84826,0.00806
1293.78809,0.00794
1291.72792,0.00777
1289.66775,0.00763
1287.60757,0.00757
1285.54740,0.00758
1283.48723,0.00759
1281.42706,0.00758
1279.36688,0.00760
1277.30671,0.00769
1275.24654,0.00787
1273.18637,0.00811
1271.12620,0.00841
1269.06602,0.00876
1267.00585,0.00913
1264.94568,0.00948
1262.88551,0.00985
1260.82534,0.01031
1258.76516,0.01083
1256.70499,0.01130
1254.64482,0.01160
1252.58465,0.01169
1250.52447,0.01165
1248.46430,0.01158
1246.40413,0.01153
1244.34396,0.01148
1242.28379,0.01141
1240.22361,0.01129
1238.16344,0.01112
1236.10327,0.01085
1234.04310,0.01045
1231.98293,0.00993
1229.92275,0.00941
1227.86258,0.00899
1225.80241,0.00868
1223.74224,0.00842
1221.68207,0.00811
1219.62189,0.00771
1217.56172,0.00726
1215.50155,0.00682
1213.44138,0.00636
1211.38120,0.00580
1209.32103,0.00514
1207.26086,0.00447
1205.20069,0.00386
1203.14052,0.00331
1201.08034,0.00272
1199.02017,0.00198
1196.96000,0.00111
1194.89983,0.00043
1192.83966,0.00011
1190.77948,0.00000
1188.71931,-0.00006
1186.65914,-0.00003
1184.59897,0.00008
1182.53880,0.00027
1180.47862,0.00064
1178.41845,0.00114
1176.35828,0.00170
1174.29811,0.00234
1172.23793,0.00316
1170.17776,0.00413
1168.11759,0.00512
1166.05742,0.00605
1163.99725,0.00684
1161.93707,0.00750
1159.87690,0.00809
1157.81673,0.00866
1155.75656,0.00927
1153.69639,0.00996
1151.63621,0.01068
1149.57604,0.01134
1147.51587,0.01177
1145.45570,0.01194
1143.39552,0.01202
1141.33535,0.01219
1139.27518,0.01244
1137.21501,0.01280
1135.15484,0.01324
1133.09466,0.01365
1131.03449,0.01404
1128.97432,0.01455
1126.91415,0.01511
1124.85398,0.01572
1122.79380,0.01640
1120.73363,0.01706
1118.67346,0.01765
1116.61329,0.01836
1114.55312,0.01924
1112.49294,0.01996
1110.43277,0.02034
1108.37260,0.02068
1106.31243,0.02126
1104.25225,0.02197
1102.19208,0.02268
1100.13191,0.02346
1098.07174,0.02440
1096.01157,0.02548
1093.95139,0.02665
1091.89122,0.02783
1089.83105,0.02881
1087.77088,0.02947
1085.71071,0.02996
1083.65053,0.03059
1081.59036,0.03144
1079.53019,0.03241
1077.47002,0.03339
1075.40985,0.03431
1073.34967,0.03508
1071.28950,0.03568
1069.22933,0.03612
1067.16916,0.03648
1065.10898,0.03692
1063.04881,0.03748
1060.98864,0.03805
1058.92847,0.03859
1056.86830,0.03910
1054.80812,0.03957
1052.74795,0.04000
1050.68778,0.04045
1048.62761,0.04099
1046.56744,0.04157
1044.50726,0.04210
1042.44709,0.04259
1040.38692,0.04309
1038.32675,0.04357
1036.26657,0.04391
1034.20640,0.04417
1032.14623,0.04437
1030.08606,0.04452
1028.02589,0.04465
1025.96571,0.04471
1023.90554,0.04468
1021.84537,0.04473
1019.78520,0.04491
1017.72503,0.04507
1015.66485,0.04513
1013.60468,0.04510
1011.54451,0.04507
1009.48434,0.04507
1007.42417,0.04489
1005.36399,0.04433
1003.30382,0.04365
1001.24365,0.04313
999.18348,0.04273
997.12330,0.04234
995.06313,0.04199
993.00296,0.04156
990.94279,0.04097
988.88262,0.04037
986.82244,0.03984
984.76227,0.03934
982.70210,0.03891
980.64193,0.03864
978.58176,0.03838
976.52158,0.03796
974.46141,0.03733
972.40124,0.03661
970.34107,0.03594
968.28089,0.03540
966.22072,0.03509
964.16055,0.03484
962.10038,0.03442
960.04021,0.03395
957.98003,0.03359
955.91986,0.03322
953.85969,0.03284
951.79952,0.03238
949.73935,0.03163
947.67917,0.03053
945.61900,0.02923
943.55883,0.02800
941.49866,0.02684
939.43849,0.02552
937.37831,0.02383
935.31814,0.02194
933.25797,0.02017
931.19780,0.01857
929.13762,0.01721
927.07745,0.01615
925.01728,0.01510
922.95711,0.01381
920.89694,0.01248
918.83676,0.01149
916.77659,0.01092
914.71642,0.01045
912.65625,0.00986
910.59608,0.00923
908.53590,0.00862
906.47573,0.00809
904.41556,0.00774
902.35539,0.00756
900.29522,0.00747
898.23504,0.00754
896.17487,0.00783
894.11470,0.00818
892.05453,0.00837
889.99435,0.00826
887.93418,0.00775
885.87401,0.00696
883.81384,0.00606
881.75367,0.00509
879.69349,0.00424
877.63332,0.00379
875.57315,0.00369
873.51298,0.00372
871.45281,0.00370
869.39263,0.00342
867.33246,0.00296
865.27229,0.00259
863.21212,0.00249
861.15194,0.00266
859.09177,0.00298
857.03160,0.00310
854.97143,0.00292
852.91126,0.00266
850.85108,0.00251
848.79091,0.00251
846.73074,0.00252
844.67057,0.00235
842.61040,0.00200
840.55022,0.00162
838.49005,0.00131
836.42988,0.00106
834.36971,0.00084
832.30954,0.00053
830.24936,0.00021
828.18919,0.00024
826.12902,0.00058
824.06885,0.00069
822.00867,0.00047
819.94850,0.00049
817.88833,0.00093
815.82816,0.00134
813.76799,0.00152
811.70781,0.00172
809.64764,0.00204
807.58747,0.00236
805.52730,0.00277
803.46713,0.00318
801.40695,0.00304
799.34678,0.00224
797.28661,0.00153
795.22644,0.00143
793.16627,0.00150
791.10609,0.00120
789.04592,0.00068
786.98575,0.00052
784.92558,0.00079
782.86540,0.00106
780.80523,0.00120
778.74506,0.00122
776.68489,0.00116
774.62472,0.00122
772.56454,0.00155
770.50437,0.00198
768.44420,0.00232
766.38403,0.00252
764.32386,0.00252
762.26368,0.00227
760.20351,0.00188
758.14334,0.00148
756.08317,0.00097
754.02299,0.00036
751.96282,0.00000
749.90265,0.00009
747.84248,0.00061
745.78231,0.00078
743.72213,0.00035
741.66196,-0.00010
739.60179,-0.00029
737.54162,-0.00046
735.48145,-0.00053
733.42127,-0.00030
731.36110,0.00020
729.30093,0.00075
727.24076,0.00093
725.18059,0.00064
723.12041,0.00048
721.06024,0.00062
719.00007,0.00090
716.93990,0.00113
714.87972,0.00127
712.81955,0.00140
710.75938,0.00146
708.69921,0.00139
706.63904,0.00124
704.57886,0.00118
702.51869,0.00126
700.45852,0.00153
698.39835,0.00206
696.33818,0.00272
694.27800,0.00319
692.21783,0.00320
690.15766,0.00278
688.09749,0.00217
686.03731,0.00172
683.97714,0.00159
681.91697,0.00179
679.85680,0.00225
677.79663,0.00273
675.73645,0.00288
673.67628,0.00255
671.61611,0.00191
669.55594,0.00127
667.49577,0.00076
665.43559,0.00042
663.37542,0.00036
661.31525,0.00048
659.25508,0.00050
657.19491,0.00044
655.13473,0.00065
653.07456,0.00132
651.01439,0.00221
648.95422,0.00285
646.89404,0.00294
644.83387,0.00237
642.77370,0.00129
640.71353,0.00027
638.65336,0.00000
636.59318,0.00043
634.53301,0.00137
632.47284,0.00213
630.41267,0.00228
628.35250,0.00199
626.29232,0.00216
624.23215,0.00356
622.17198,0.00428
620.11181,0.00276
618.05164,0.00019
615.99146,-0.00138
613.93129,-0.00115
611.87112,-0.00012
609.81095,-0.00011
607.75077,-0.00214
605.69060,-0.00461
603.63043,-0.00458
601.57026,-0.00219
599.51009,0.00000
