3996.73391,0.00043
3994.67373,0.00064
3992.61356,0.00073
3990.55339,0.00061
3988.49322,0.00031
3986.43305,0.00002
3984.37287,-0.00012
3982.31270,-0.00011
3980.25253,-0.00009
3978.19236,-0.00012
3976.13219,-0.00013
3974.07201,-0.00006
3972.01184,0.00013
3969.95167,0.00033
3967.89150,0.00041
3965.83133,0.00029
3963.77115,0.00009
3961.71098,0.00000
3959.65081,0.00009
3957.59064,0.00026
3955.53046,0.00038
3953.47029,0.00037
3951.41012,0.00030
3949.34995,0.00026
3947.28978,0.00025
3945.22960,0.00022
3943.16943,0.00015
3941.10926,0.00006
3939.04909,0.00006
3936.98892,0.00020
3934.92874,0.00043
3932.86857,0.00059
3930.80840,0.00054
3928.74823,0.00034
3926.68805,0.00011
3924.62788,0.00000
3922.56771,0.00008
3920.50754,0.00037
3918.44737,0.00078
3916.38719,0.00117
3914.32702,0.00133
3912.26685,0.00118
3910.20668,0.00085
3908.14651,0.00056
3906.08633,0.00042
3904.02616,0.00047
3901.96599,0.00067
3899.90582,0.00095
3897.84565,0.00112
3895.78547,0.00108
3893.72530,0.00091
3891.66513,0.00071
3889.60496,0.00051
3887.54478,0.00036
3885.48461,0.00032
3883.42444,0.00042
3881.36427,0.00060
3879.30410,0.00075
3877.24392,0.00074
3875.18375,0.00067
3873.12358,0.00066
3871.06341,0.00076
3869.00324,0.00093
3866.94306,0.00115
3864.88289,0.00142
3862.82272,0.00159
3860.76255,0.00152
3858.70237,0.00124
3856.64220,0.00093
3854.58203,0.00074
3852.52186,0.00078
3850.46169,0.00092
3848.40151,0.00091
3846.34134,0.00070
3844.28117,0.00042
3842.22100,0.00025
3840.16083,0.00028
3838.10065,0.00043
3836.04048,0.00059
3833.98031,0.00072
3831.92014,0.00088
3829.85997,0.00104
3827.79979,0.00109
3825.73962,0.00100
3823.67945,0.00088
3821.61928,0.00085
3819.55910,0.00091
3817.49893,0.00097
3815.43876,0.00098
3813.37859,0.00095
3811.31842,0.00095
3809.25824,0.00103
3807.19807,0.00118
3805.13790,0.00128
3803.07773,0.00128
3801.01756,0.00118
3798.95738,0.00105
3796.89721,0.00093
3794.83704,0.00079
3792.77687,0.00067
3790.71670,0.00062
3788.65652,0.00065
3786.59635,0.00076
3784.53618,0.00091
3782.47601,0.00101
3780.41583,0.00105
3778.35566,0.00108
3776.29549,0.00109
3774.23532,0.00103
3772.17515,0.00099
3770.11497,0.00104
3768.05480,0.00117
3765.99463,0.00122
3763.93446,0.00111
3761.87429,0.00088
3759.81411,0.00063
3757.75394,0.00045
3755.69377,0.00043
3753.63360,0.00059
3751.57342,0.00087
3749.51325,0.00108
3747.45308,0.00113
3745.39291,0.00106
3743.33274,0.00094
3741.27256,0.00078
3739.21239,0.00069
3737.15222,0.00070
3735.09205,0.00078
3733.03188,0.00083
3730.97170,0.00082
3728.91153,0.00072
3726.85136,0.00062
3724.79119,0.00061
3722.73102,0.00070
3720.67084,0.00078
3718.61067,0.00076
3716.55050,0.00063
3714.49033,0.00053
3712.43015,0.00060
3710.36998,0.00081
3708.30981,0.00108
3706.24964,0.00138
3704.18947,0.00167
3702.12929,0.00182
3700.06912,0.00172
3698.00895,0.00140
3695.94878,0.00116
3693.88861,0.00125
3691.82843,0.00162
3689.76826,0.00197
3687.70809,0.00203
3685.64792,0.00180
3683.58775,0.00140
3681.52757,0.00096
3679.46740,0.00065
3677.40723,0.00061
3675.34706,0.00089
3673.28688,0.00136
3671.22671,0.00178
3669.16654,0.00193
3667.10637,0.00181
3665.04620,0.00166
3662.98602,0.00170
3660.92585,0.00193
3658.86568,0.00217
3656.80551,0.00218
3654.74534,0.00181
3652.68516,0.00122
3650.62499,0.00081
3648.56482,0.00090
3646.50465,0.00140
3644.44447,0.00197
3642.38430,0.00237
3640.32413,0.00256
3638.26396,0.00258
3636.20379,0.00253
3634.14361,0.00252
3632.08344,0.00261
3630.02327,0.00279
3627.96310,0.00298
3625.90293,0.00310
3623.84275,0.00305
3621.78258,0.00280
3619.72241,0.00254
3617.66224,0.00256
3615.60207,0.00294
3613.54189,0.00347
3611.48172,0.00396
3609.42155,0.00437
3607.36138,0.00472
3605.30120,0.00495
3603.24103,0.00510
3601.18086,0.00521
3599.12069,0.00534
3597.06052,0.00548
3595.00034,0.00553
3592.94017,0.00552
3590.88000,0.00557
3588.81983,0.00580
3586.75966,0.00613
3584.69948,0.00640
3582.63931,0.00654
3580.57914,0.00655
3578.51897,0.00651
3576.45879,0.00647
3574.39862,0.00648
3572.33845,0.00654
3570.27828,0.00670
3568.21811,0.00695
3566.15793,0.00723
3564.09776,0.00751
3562.03759,0.00782
3559.97742,0.00816
3557.91725,0.00847
3555.85707,0.00863
3553.79690,0.00860
3551.73673,0.00847
3549.67656,0.00839
3547.61639,0.00851
3545.55621,0.00882
3543.49604,0.00916
3541.43587,0.00936
3539.37570,0.00939
3537.31552,0.00933
3535.25535,0.00925
3533.19518,0.00927
3531.13501,0.00949
3529.07484,0.00991
3527.01466,0.01033
3524.95449,0.01063
3522.89432,0.01083
3520.83415,0.01098
3518.77398,0.01108
3516.71380,0.01111
3514.65363,0.01110
3512.59346,0.01118
3510.53329,0.01148
3508.47312,0.01194
3506.41294,0.01235
3504.35277,0.01257
3502.29260,0.01265
3500.23243,0.01271
3498.17225,0.01278
3496.11208,0.01284
3494.05191,0.01289
3491.99174,0.01297
3489.93157,0.01311
3487.87139,0.01330
3485.81122,0.01349
3483.75105,0.01362
3481.69088,0.01371
3479.63071,0.01380
3477.57053,0.01395
3475.51036,0.01416
3473.45019,0.01438
3471.39002,0.01452
3469.32984,0.01456
3467.26967,0.01457
3465.20950,0.01467
3463.14933,0.01487
3461.08916,0.01511
3459.02898,0.01532
3456.96881,0.01547
3454.90864,0.01551
3452.84847,0.01552
3450.78830,0.01557
3448.72812,0.01562
3446.66795,0.01559
3444.60778,0.01550
3442.54761,0.01544
3440.48744,0.01551
3438.42726,0.01573
3436.36709,0.01601
3434.30692,0.01622
3432.24675,0.01637
3430.18657,0.01655
3428.12640,0.01680
3426.06623,0.01707
3424.00606,0.01728
3421.94589,0.01738
3419.88571,0.01737
3417.82554,0.01732
3415.76537,0.01733
3413.70520,0.01740
3411.64503,0.01745
3409.58485,0.01750
3407.52468,0.01760
3405.46451,0.01776
3403.40434,0.01798
3401.34416,0.01819
3399.28399,0.01833
3397.22382,0.01835
3395.16365,0.01832
3393.10348,0.01830
3391.04330,0.01833
3388.98313,0.01845
3386.92296,0.01867
3384.86279,0.01894
3382.80262,0.01911
3380.74244,0.01912
3378.68227,0.01905
3376.62210,0.01905
3374.56193,0.01915
3372.50176,0.01928
3370.44158,0.01935
3368.38141,0.01932
3366.32124,0.01929
3364.26107,0.01935
3362.20089,0.01954
3360.14072,0.01977
3358.08055,0.01993
3356.02038,0.01995
3353.96021,0.01988
3351.90003,0.01980
3349.83986,0.01974
3347.77969,0.01973
3345.71952,0.01984
3343.65935,0.02006
3341.59917,0.02021
3339.53900,0.02015
3337.47883,0.01990
3335.41866,0.01965
3333.35849,0.01958
3331.29831,0.01972
3329.23814,0.01997
3327.17797,0.02015
3325.11780,0.02015
3323.05762,0.02005
3320.99745,0.01996
3318.93728,0.01998
3316.87711,0.02011
3314.81694,0.02033
3312.75676,0.02059
3310.69659,0.02079
3308.63642,0.02083
3306.57625,0.02070
3304.51608,0.02053
3302.45590,0.02042
3300.39573,0.02042
3298.33556,0.02047
3296.27539,0.02048
3294.21521,0.02042
3292.15504,0.02031
3290.09487,0.02020
3288.03470,0.02008
3285.97453,0.01997
3283.91435,0.01989
3281.85418,0.01988
3279.79401,0.01999
3277.73384,0.02020
3275.67367,0.02045
3273.61349,0.02067
3271.55332,0.02082
3269.49315,0.02084
3267.43298,0.02077
3265.37281,0.02064
3263.31263,0.02049
3261.25246,0.02035
3259.19229,0.02028
3257.13212,0.02033
3255.07194,0.02045
3253.01177,0.02055
3250.95160,0.02054
3248.89143,0.02041
3246.83126,0.02021
3244.77108,0.02002
3242.71091,0.01994
3240.65074,0.02000
3238.59057,0.02015
3236.53040,0.02029
3234.47022,0.02033
3232.41005,0.02024
3230.34988,0.02007
3228.28971,0.01985
3226.22954,0.01964
3224.16936,0.01945
3222.10919,0.01932
3220.04902,0.01926
3217.98885,0.01930
3215.92867,0.01940
3213.86850,0.01951
3211.80833,0.01951
3209.74816,0.01935
3207.68799,0.01909
3205.62781,0.01887
3203.56764,0.01875
3201.50747,0.01870
3199.44730,0.01863
3197.38713,0.01851
3195.32695,0.01838
3193.26678,0.01827
3191.20661,0.01820
3189.14644,0.01813
3187.08626,0.01794
3185.02609,0.01766
3182.96592,0.01745
3180.90575,0.01747
3178.84558,0.01768
3176.78540,0.01791
3174.72523,0.01793
3172.66506,0.01766
3170.60489,0.01717
3168.54472,0.01668
3166.48454,0.01635
3164.42437,0.01624
3162.36420,0.01621
3160.30403,0.01616
3158.24386,0.01607
3156.18368,0.01597
3154.12351,0.01585
3152.06334,0.01568
3150.00317,0.01548
3147.94299,0.01528
3145.88282,0.01514
3143.82265,0.01508
3141.76248,0.01507
3139.70231,0.01507
3137.64213,0.01503
3135.58196,0.01495
3133.52179,0.01482
3131.46162,0.01464
3129.40145,0.01442
3127.34127,0.01424
3125.28110,0.01413
3123.22093,0.01403
3121.16076,0.01385
3119.10058,0.01365
3117.04041,0.01346
3114.98024,0.01329
3112.92007,0.01309
3110.85990,0.01289
3108.79972,0.01274
3106.73955,0.01263
3104.67938,0.01252
3102.61921,0.01236
3100.55904,0.01217
3098.49886,0.01199
3096.43869,0.01183
3094.37852,0.01167
3092.31835,0.01150
3090.25818,0.01130
3088.19800,0.01112
3086.13783,0.01098
3084.07766,0.01089
3082.01749,0.01081
3079.95731,0.01076
3077.89714,0.01074
3075.83697,0.01072
3073.77680,0.01068
3071.71663,0.01067
3069.65645,0.01066
3067.59628,0.01064
3065.53611,0.01059
3063.47594,0.01054
3061.41577,0.01047
3059.35559,0.01031
3057.29542,0.01002
3055.23525,0.00966
3053.17508,0.00932
3051.11491,0.00909
3049.05473,0.00895
3046.99456,0.00888
3044.93439,0.00886
3042.87422,0.00885
3040.81404,0.00885
3038.75387,0.00883
3036.69370,0.00881
3034.63353,0.00879
3032.57336,0.00871
3030.51318,0.00857
3028.45301,0.00843
3026.39284,0.00835
3024.33267,0.00835
3022.27250,0.00838
3020.21232,0.00842
3018.15215,0.00844
3016.09198,0.00836
3014.03181,0.00818
3011.97163,0.00793
3009.91146,0.00765
3007.85129,0.00739
3005.79112,0.00720
3003.73095,0.00715
3001.67077,0.00722
2999.61060,0.00738
2997.55043,0.00757
2995.49026,0.00777
2993.43009,0.00791
2991.36991,0.00795
2989.30974,0.00790
2987.24957,0.00783
2985.18940,0.00778
2983.12923,0.00781
2981.06905,0.00787
2979.00888,0.00784
2976.94871,0.00771
2974.88854,0.00763
2972.82836,0.00781
2970.76819,0.00831
2968.70802,0.00882
2966.64785,0.00899
2964.58768,0.00886
2962.52750,0.00872
2960.46733,0.00877
2958.40716,0.00901
2956.34699,0.00932
2954.28682,0.00964
2952.22664,0.01001
2950.16647,0.01036
2948.10630,0.01050
2946.04613,0.01050
2943.98596,0.01051
2941.92578,0.01059
2939.86561,0.01067
2937.80544,0.01073
2935.74527,0.01068
2933.68509,0.01060
2931.62492,0.01071
2929.56475,0.01100
2927.50458,0.01121
2925.44441,0.01118
2923.38423,0.01086
2921.32406,0.01039
2919.26389,0.01005
2917.20372,0.01003
2915.14355,0.01015
2913.08337,0.01014
2911.02320,0.00995
2908.96303,0.00971
2906.90286,0.00961
2904.84268,0.00971
2902.78251,0.00987
2900.72234,0.00992
2898.66217,0.00976
2896.60200,0.00955
2894.54182,0.00946
2892.48165,0.00944
2890.42148,0.00942
2888.36131,0.00943
2886.30114,0.00943
2884.24096,0.00934
2882.18079,0.00926
2880.12062,0.00925
2878.06045,0.00922
2876.00028,0.00909
2873.94010,0.00886
2871.87993,0.00866
2869.81976,0.00864
2867.75959,0.00872
2865.69941,0.00878
2863.63924,0.00876
2861.57907,0.00860
2859.51890,0.00836
2857.45873,0.00817
2855.39855,0.00803
2853.33838,0.00788
2851.27821,0.00775
2849.21804,0.00775
2847.15787,0.00780
2845.09769,0.00773
2843.03752,0.00765
2840.97735,0.00766
2838.91718,0.00764
2836.85700,0.00748
2834.79683,0.00733
2832.73666,0.00724
2830.67649,0.00708
2828.61632,0.00689
2826.55614,0.00687
2824.49597,0.00696
2822.43580,0.00699
2820.37563,0.00691
2818.31546,0.00676
2816.25528,0.00655
2814.19511,0.00639
2812.13494,0.00638
2810.07477,0.00640
2808.01460,0.00642
2805.95442,0.00643
2803.89425,0.00640
2801.83408,0.00636
2799.77391,0.00638
2797.71373,0.00637
2795.65356,0.00626
2793.59339,0.00611
2791.53322,0.00602
2789.47305,0.00609
2787.41287,0.00626
2785.35270,0.00631
2783.29253,0.00622
2781.23236,0.00606
2779.17219,0.00594
2777.11201,0.00583
2775.05184,0.00572
2772.99167,0.00568
2770.93150,0.00576
2768.87133,0.00583
2766.81115,0.00578
2764.75098,0.00559
2762.69081,0.00533
2760.63064,0.00524
2758.57046,0.00539
2756.51029,0.00559
2754.45012,0.00566
2752.38995,0.00562
2750.32978,0.00562
2748.26960,0.00571
2746.20943,0.00576
2744.14926,0.00576
2742.08909,0.00578
2740.02892,0.00589
2737.96874,0.00599
2735.90857,0.00606
2733.84840,0.00609
2731.78823,0.00602
2729.72805,0.00583
2727.66788,0.00562
2725.60771,0.00554
2723.54754,0.00558
2721.48737,0.00556
2719.42719,0.00538
2717.36702,0.00525
2715.30685,0.00538
2713.24668,0.00565
2711.18651,0.00575
2709.12633,0.00565
2707.06616,0.00551
2705.00599,0.00540
2702.94582,0.00543
2700.88565,0.00559
2698.82547,0.00564
2696.76530,0.00547
2694.70513,0.00529
2692.64496,0.00530
2690.58478,0.00543
2688.52461,0.00546
2686.46444,0.00534
2684.40427,0.00519
2682.34410,0.00512
2680.28392,0.00512
2678.22375,0.00517
2676.16358,0.00520
2674.10341,0.00522
2672.04324,0.00531
2669.98306,0.00546
2667.92289,0.00556
2665.86272,0.00560
2663.80255,0.00568
2661.74238,0.00572
2659.68220,0.00556
2657.62203,0.00533
2655.56186,0.00535
2653.50169,0.00560
2651.44151,0.00572
2649.38134,0.00556
2647.32117,0.00528
2645.26100,0.00512
2643.20083,0.00515
2641.14065,0.00525
2639.08048,0.00525
2637.02031,0.00507
2634.96014,0.00480
2632.89997,0.00454
2630.83979,0.00437
2628.77962,0.00440
2626.71945,0.00465
2624.65928,0.00493
2622.59910,0.00508
2620.53893,0.00513
2618.47876,0.00511
2616.41859,0.00495
2614.35842,0.00466
2612.29824,0.00440
2610.23807,0.00436
2608.17790,0.00449
2606.11773,0.00463
2604.05756,0.00464
2601.99738,0.00451
2599.93721,0.00432
2597.87704,0.00418
2595.81687,0.00417
2593.75670,0.00415
2591.69652,0.00404
2589.63635,0.00403
2587.57618,0.00430
2585.51601,0.00464
2583.45583,0.00470
2581.39566,0.00446
2579.33549,0.00424
2577.27532,0.00411
2575.21515,0.00391
2573.15497,0.00360
2571.09480,0.00337
2569.03463,0.00344
2566.97446,0.00371
2564.91429,0.00384
2562.85411,0.00373
2560.79394,0.00378
2558.73377,0.00413
2556.67360,0.00437
2554.61342,0.00420
2552.55325,0.00396
2550.49308,0.00407
2548.43291,0.00439
2546.37274,0.00464
2544.31256,0.00473
2542.25239,0.00457
2540.19222,0.00423
2538.13205,0.00409
2536.07188,0.00428
2534.01170,0.00445
2531.95153,0.00425
2529.89136,0.00403
2527.83119,0.00412
2525.77102,0.00425
2523.71084,0.00405
2521.65067,0.00363
2519.59050,0.00339
2517.53033,0.00344
2515.47015,0.00352
2513.40998,0.00354
2511.34981,0.00356
2509.28964,0.00357
2507.22947,0.00360
2505.16929,0.00376
2503.10912,0.00393
2501.04895,0.00399
2498.98878,0.00386
2496.92861,0.00358
2494.86843,0.00347
2492.80826,0.00372
2490.74809,0.00406
2488.68792,0.00425
2486.62775,0.00443
2484.56757,0.00455
2482.50740,0.00432
2480.44723,0.00379
2478.38706,0.00335
2476.32688,0.00324
2474.26671,0.00354
2472.20654,0.00408
2470.14637,0.00448
2468.08620,0.00450
2466.02602,0.00430
2463.96585,0.00413
2461.90568,0.00408
2459.84551,0.00405
2457.78534,0.00396
2455.72516,0.00388
2453.66499,0.00383
2451.60482,0.00380
2449.54465,0.00390
2447.48447,0.00412
2445.42430,0.00435
2443.36413,0.00461
2441.30396,0.00496
2439.24379,0.00519
2437.18361,0.00512
2435.12344,0.00492
2433.06327,0.00474
2431.00310,0.00448
2428.94293,0.00408
2426.88275,0.00379
2424.82258,0.00372
2422.76241,0.00357
2420.70224,0.00330
2418.64207,0.00340
2416.58189,0.00393
2414.52172,0.00435
2412.46155,0.00442
2410.40138,0.00443
2408.34120,0.00461
2406.28103,0.00470
2404.22086,0.00456
2402.16069,0.00430
2400.10052,0.00406
2398.04034,0.00390
2395.98017,0.00381
2393.92000,0.00377
2391.85983,0.00373
2389.79966,0.00363
2387.73948,0.00352
2385.67931,0.00348
2383.61914,0.00353
2381.55897,0.00353
2379.49880,0.00333
2377.43862,0.00286
2375.37845,0.00226
2373.31828,0.00180
2371.25811,0.00166
2369.19793,0.00161
2367.13776,0.00135
2365.07759,0.00110
2363.01742,0.00140
2360.95725,0.00242
2358.89707,0.00363
2356.83690,0.00437
2354.77673,0.00449
2352.71656,0.00417
2350.65639,0.00373
2348.59621,0.00345
2346.53604,0.00349
2344.47587,0.00387
2342.41570,0.00440
2340.35552,0.00491
2338.29535,0.00530
2336.23518,0.00546
2334.17501,0.00531
2332.11484,0.00492
2330.05466,0.00449
2327.99449,0.00410
2325.93432,0.00387
2323.87415,0.00392
2321.81398,0.00414
2319.75380,0.00426
2317.69363,0.00411
2315.63346,0.00377
2313.57329,0.00341
2311.51312,0.00325
2309.45294,0.00340
2307.39277,0.00381
2305.33260,0.00422
2303.27243,0.00433
2301.21225,0.00409
2299.15208,0.00372
2297.09191,0.00357
2295.03174,0.00372
2292.97157,0.00405
2290.91139,0.00441
2288.85122,0.00472
2286.79105,0.00488
2284.73088,0.00481
2282.67071,0.00466
2280.61053,0.00453
2278.55036,0.00441
2276.49019,0.00427
2274.43002,0.00419
2272.36984,0.00418
2270.30967,0.00428
2268.24950,0.00449
2266.18933,0.00467
2264.12916,0.00465
2262.06898,0.00442
2260.00881,0.00414
2257.94864,0.00400
2255.88847,0.00415
2253.82830,0.00451
2251.76812,0.00485
2249.70795,0.00503
2247.64778,0.00493
2245.58761,0.00447
2243.52744,0.00391
2241.46726,0.00354
2239.40709,0.00313
2237.34692,0.00277
2235.28675,0.00268
2233.22657,0.00265
2231.16640,0.00248
2229.10623,0.00229
2227.04606,0.00223
2224.98589,0.00240
2222.92571,0.00272
2220.86554,0.00299
2218.80537,0.00342
2216.74520,0.00425
2214.68503,0.00492
2212.62485,0.00495
2210.56468,0.00502
2208.50451,0.00559
2206.44434,0.00586
2204.38417,0.00505
2202.32399,0.00330
2200.26382,0.00173
2198.20365,0.00166
2196.14348,0.00281
2194.08330,0.00375
2192.02313,0.00408
2189.96296,0.00430
2187.90279,0.00451
2185.84262,0.00444
2183.78244,0.00419
2181.72227,0.00421
2179.66210,0.00457
2177.60193,0.00497
2175.54176,0.00514
2173.48158,0.00504
2171.42141,0.00483
2169.36124,0.00455
2167.30107,0.00423
2165.24089,0.00437
2163.18072,0.00518
2161.12055,0.00553
2159.06038,0.00425
2157.00021,0.00218
2154.94003,0.00073
2152.87986,0.00003
2150.81969,0.00000
2148.75952,0.00062
2146.69935,0.00137
2144.63917,0.00183
2142.57900,0.00195
2140.51883,0.00214
2138.45866,0.00276
2136.39849,0.00323
2134.33831,0.00299
2132.27814,0.00235
2130.21797,0.00188
2128.15780,0.00203
2126.09762,0.00283
2124.03745,0.00412
2121.97728,0.00543
2119.91711,0.00599
2117.85694,0.00554
2115.79676,0.00481
2113.73659,0.00455
2111.67642,0.00457
2109.61625,0.00443
2107.55608,0.00436
2105.49590,0.00481
2103.43573,0.00538
2101.37556,0.00539
2099.31539,0.00488
2097.25521,0.00433
2095.19504,0.00409
2093.13487,0.00413
2091.07470,0.00417
2089.01453,0.00397
2086.95435,0.00353
2084.89418,0.00308
2082.83401,0.00281
2080.77384,0.00283
2078.71367,0.00315
2076.65349,0.00361
2074.59332,0.00395
2072.53315,0.00403
2070.47298,0.00389
2068.41281,0.00370
2066.35263,0.00355
2064.29246,0.00343
2062.23229,0.00341
2060.17212,0.00358
2058.11194,0.00399
2056.05177,0.00453
2053.99160,0.00493
2051.93143,0.00501
2049.87126,0.00479
2047.81108,0.00447
2045.75091,0.00432
2043.69074,0.00457
2041.63057,0.00510
2039.57040,0.00540
2037.51022,0.00513
2035.45005,0.00456
2033.38988,0.00424
2031.32971,0.00437
2029.26954,0.00467
2027.20936,0.00485
2025.14919,0.00498
2023.08902,0.00525
2021.02885,0.00557
2018.96867,0.00570
2016.90850,0.00555
2014.84833,0.00520
2012.78816,0.00470
2010.72799,0.00402
2008.66781,0.00322
2006.60764,0.00248
2004.54747,0.00195
2002.48730,0.00181
2000.42713,0.00208
1998.36695,0.00254
1996.30678,0.00289
1994.24661,0.00307
1992.18644,0.00339
1990.12626,0.00405
1988.06609,0.00490
1986.00592,0.00550
1983.94575,0.00553
1981.88558,0.00488
1979.82540,0.00358
1977.76523,0.00196
1975.70506,0.00063
1973.64489,0.00000
1971.58472,0.00007
1969.52454,0.00062
1967.46437,0.00128
1965.40420,0.00183
1963.34403,0.00222
1961.28386,0.00239
1959.22368,0.00236
1957.16351,0.00237
1955.10334,0.00259
1953.04317,0.00295
1950.98299,0.00334
1948.92282,0.00362
1946.86265,0.00363
1944.80248,0.00327
1942.74231,0.00265
1940.68213,0.00215
1938.62196,0.00210
1936.56179,0.00247
1934.50162,0.00300
1932.44145,0.00342
1930.38127,0.00362
1928.32110,0.00364
1926.26093,0.00359
1924.20076,0.00358
1922.14059,0.00364
1920.08041,0.00368
1918.02024,0.00361
1915.96007,0.00348
1913.89990,0.00339
1911.83972,0.00332
1909.77955,0.00326
1907.71938,0.00324
1905.65921,0.00334
1903.59904,0.00350
1901.53886,0.00354
1899.47869,0.00330
1897.41852,0.00284
1895.35835,0.00238
1893.29818,0.00214
1891.23800,0.00219
1889.17783,0.00245
1887.11766,0.00270
1885.05749,0.00286
1882.99731,0.00293
1880.93714,0.00296
1878.87697,0.00291
1876.81680,0.00275
1874.75663,0.00247
1872.69645,0.00216
1870.63628,0.00194
1868.57611,0.00191
1866.51594,0.00203
1864.45577,0.00221
1862.39559,0.00238
1860.33542,0.00247
1858.27525,0.00250
1856.21508,0.00252
1854.15491,0.00261
1852.09473,0.00286
1850.03456,0.00320
1847.97439,0.00341
1845.91422,0.00329
1843.85404,0.00287
1841.79387,0.00243
1839.73370,0.00226
1837.67353,0.00238
1835.61336,0.00258
1833.55318,0.00264
1831.49301,0.00253
1829.43284,0.00234
1827.37267,0.00218
1825.31250,0.00211
1823.25232,0.00208
1821.19215,0.00200
1819.13198,0.00187
1817.07181,0.00179
1815.01163,0.00183
1812.95146,0.00200
1810.89129,0.00217
1808.83112,0.00220
1806.77095,0.00207
1804.71077,0.00187
1802.65060,0.00174
1800.59043,0.00178
1798.53026,0.00193
1796.47009,0.00214
1794.40991,0.00233
1792.34974,0.00248
1790.28957,0.00256
1788.22940,0.00259
1786.16923,0.00257
1784.10905,0.00249
1782.04888,0.00231
1779.98871,0.00210
1777.92854,0.00196
1775.86836,0.00196
1773.80819,0.00212
1771.74802,0.00238
1769.68785,0.00258
1767.62768,0.00264
1765.56750,0.00261
1763.50733,0.00260
1761.44716,0.00268
1759.38699,0.00285
1757.32682,0.00307
1755.26664,0.00332
1753.20647,0.00358
1751.14630,0.00383
1749.08613,0.00404
1747.02596,0.00418
1744.96578,0.00427
1742.90561,0.00433
1740.84544,0.00441
1738.78527,0.00455
1736.72509,0.00471
1734.66492,0.00486
1732.60475,0.00502
1730.54458,0.00520
1728.48441,0.00533
1726.42423,0.00533
1724.36406,0.00520
1722.30389,0.00505
1720.24372,0.00497
1718.18355,0.00493
1716.12337,0.00480
1714.06320,0.00449
1712.00303,0.00403
1709.94286,0.00357
1707.88268,0.00327
1705.82251,0.00317
1703.76234,0.00317
1701.70217,0.00317
1699.64200,0.00311
1697.58182,0.00303
1695.52165,0.00295
1693.46148,0.00291
1691.40131,0.00294
1689.34114,0.00303
1687.28096,0.00320
1685.22079,0.00344
1683.16062,0.00371
1681.10045,0.00399
1679.04028,0.00428
1676.98010,0.00460
1674.91993,0.00493
1672.85976,0.00524
1670.79959,0.00551
1668.73941,0.00570
1666.67924,0.00584
1664.61907,0.00598
1662.55890,0.00617
1660.49873,0.00639
1658.43855,0.00667
1656.37838,0.00707
1654.31821,0.00755
1652.25804,0.00797
1650.19787,0.00822
1648.13769,0.00827
1646.07752,0.00818
1644.01735,0.00809
1641.95718,0.00813
1639.89701,0.00829
1637.83683,0.00848
1635.77666,0.00865
1633.71649,0.00883
1631.65632,0.00904
1629.59614,0.00924
1627.53597,0.00939
1625.47580,0.00949
1623.41563,0.00955
1621.35546,0.00954
1619.29528,0.00944
1617.23511,0.00925
1615.17494,0.00903
1613.11477,0.00885
1611.05460,0.00873
1608.99442,0.00861
1606.93425,0.00844
1604.87408,0.00816
1602.81391,0.00776
1600.75373,0.00727
1598.69356,0.00675
1596.63339,0.00625
1594.57322,0.00582
1592.51305,0.00548
1590.45287,0.00519
1588.39270,0.00489
1586.33253,0.00459
1584.27236,0.00428
1582.21219,0.00398
1580.15201,0.00369
1578.09184,0.00340
1576.03167,0.00311
1573.97150,0.00284
1571.91133,0.00266
1569.85115,0.00252
1567.79098,0.00236
1565.73081,0.00218
1563.67064,0.00207
1561.61046,0.00209
1559.55029,0.00219
1557.49012,0.00219
1555.42995,0.00206
1553.36978,0.00191
1551.30960,0.00181
1549.24943,0.00176
1547.18926,0.00168
1545.12909,0.00158
1543.06892,0.00149
1541.00874,0.00146
1538.94857,0.00146
1536.88840,0.00142
1534.82823,0.00133
1532.76805,0.00123
1530.70788,0.00113
1528.64771,0.00105
1526.58754,0.00100
1524.52737,0.00103
1522.46719,0.00118
1520.40702,0.00139
1518.34685,0.00150
1516.28668,0.00140
1514.22651,0.00117
1512.16633,0.00098
1510.10616,0.00096
1508.04599,0.00111
1505.98582,0.00133
1503.92565,0.00143
1501.86547,0.00140
1499.80530,0.00132
1497.74513,0.00120
1495.68496,0.00110
1493.62478,0.00107
1491.56461,0.00114
1489.50444,0.00130
1487.44427,0.00149
1485.38410,0.00166
1483.32392,0.00180
1481.26375,0.00192
1479.20358,0.00200
1477.14341,0.00206
1475.08324,0.00215
1473.02306,0.00235
1470.96289,0.00265
1468.90272,0.00302
1466.84255,0.00337
1464.78238,0.00363
1462.72220,0.00382
1460.66203,0.00397
1458.60186,0.00418
1456.54169,0.00441
1454.48151,0.00460
1452.42134,0.00475
1450.36117,0.00486
1448.30100,0.00496
1446.24083,0.00504
1444.18065,0.00511
1442.12048,0.00519
1440.06031,0.00530
1438.00014,0.00544
1435.93997,0.00561
1433.87979,0.00580
1431.81962,0.00602
1429.75945,0.00624
1427.69928,0.00646
1425.63910,0.00668
1423.57893,0.00690
1421.51876,0.00709
1419.45859,0.00723
1417.39842,0.00725
1415.33824,0.00718
1413.27807,0.00710
1411.21790,0.00705
1409.15773,0.00701
1407.09756,0.00697
1405.03738,0.00691
1402.97721,0.00682
1400.91704,0.00673
1398.85687,0.00660
1396.79670,0.00640
1394.73652,0.00616
1392.67635,0.00596
1390.61618,0.00589
1388.55601,0.00595
1386.49583,0.00608
1384.43566,0.00621
1382.37549,0.00634
1380.31532,0.00646
1378.25515,0.00657
1376.19497,0.00670
1374.13480,0.00685
1372.07463,0.00700
1370.01446,0.00709
1367.95429,0.00711
1365.89411,0.00704
1363.83394,0.00689
1361.77377,0.00667
1359.71360,0.00647
1357.65343,0.00631
1355.59325,0.00620
1353.53308,0.00610
1351.47291,0.00597
1349.41274,0.00583
1347.35256,0.00567
1345.29239,0.00549
1343.23222,0.00532
1341.17205,0.00521
1339.11188,0.00517
1337.05170,0.00521
1334.99153,0.00531
1332.93136,0.00543
1330.87119,0.00553
1328.81102,0.00557
1326.75084,0.00557
1324.69067,0.00554
1322.63050,0.00554
1320.57033,0.00560
1318.51015,0.00573
1316.44998,0.00586
1314.38981,0.00588
1312.32964,0.00577
1310.26947,0.00559
1308.20929,0.00540
1306.14912,0.00522
1304.08895,0.00502
1302.02878,0.00484
1299.96861,0.00473
1297.90843,0.00469
1295.84826,0.00466
1293.78809,0.00462
1291.72792,0.00460
1289.66775,0.00461
1287.60757,0.00465
1285.54740,0.00467
1283.48723,0.00466
1281.42706,0.00461
1279.36688,0.00456
1277.30671,0.00455
1275.24654,0.00459
1273.18637,0.00469
1271.12620,0.00486
1269.06602,0.00508
1267.00585,0.00529
1264.94568,0.00546
1262.88551,0.00563
1260.82534,0.00583
1258.76516,0.00605
1256.70499,0.00622
1254.64482,0.00630
1252.58465,0.00631
1250.52447,0.00630
1248.46430,0.00629
1246.40413,0.00628
1244.34396,0.00626
1242.28379,0.00626
1240.22361,0.00628
1238.16344,0.00626
1236.10327,0.00615
1234.04310,0.00589
1231.98293,0.00555
1229.92275,0.00523
1227.86258,0.00497
1225.80241,0.00479
1223.74224,0.00464
1221.68207,0.00444
1219.62189,0.00420
1217.56172,0.00394
1215.50155,0.00370
1213.44138,0.00347
1211.38120,0.00318
1209.32103,0.00282
1207.26086,0.00244
1205.20069,0.00214
1203.14052,0.00195
1201.08034,0.00179
1199.02017,0.00153
1196.96000,0.00111
1194.89983,0.00074
1192.83966,0.00049
1190.77948,0.00027
1188.71931,0.00008
1186.65914,0.00000
1184.59897,0.00008
1182.53880,0.00040
1180.47862,0.00082
1178.41845,0.00110
1176.35828,0.00117
1174.29811,0.00121
1172.23793,0.00147
1170.17776,0.00200
1168.11759,0.00263
1166.05742,0.00323
1163.99725,0.00368
1161.93707,0.00394
1159.87690,0.00417
1157.81673,0.00449
1155.75656,0.00488
1153.69639,0.00531
1151.63621,0.00577
1149.57604,0.00616
1147.51587,0.00636
1145.45570,0.00641
1143.39552,0.00645
1141.33535,0.00645
1139.27518,0.00638
1137.21501,0.00643
1135.15484,0.00667
1133.09466,0.00696
1131.03449,0.00725
1128.97432,0.00757
1126.91415,0.00792
1124.85398,0.00829
1122.79380,0.00862
1120.73363,0.00886
1118.67346,0.00904
1116.61329,0.00929
1114.55312,0.00973
1112.49294,0.01027
1110.43277,0.01068
1108.37260,0.01094
1106.31243,0.01116
1104.25225,0.01135
1102.19208,0.01156
1100.13191,0.01198
1098.07174,0.01255
1096.01157,0.01303
1093.95139,0.01337
1091.89122,0.01380
1089.83105,0.01441
1087.77088,0.01491
1085.71071,0.01527
1083.65053,0.01577
1081.59036,0.01645
1079.53019,0.01708
1077.47002,0.01754
1075.40985,0.01784
1073.34967,0.01799
1071.28950,0.01817
1069.22933,0.01849
1067.16916,0.01881
1065.10898,0.01896
1063.04881,0.01904
1060.98864,0.01920
1058.92847,0.01950
1056.86830,0.01987
1054.80812,0.02009
1052.74795,0.02012
1050.68778,0.02022
1048.62761,0.02055
1046.56744,0.02094
1044.50726,0.02121
1042.44709,0.02143
1040.38692,0.02172
1038.32675,0.02202
1036.26657,0.02220
1034.20640,0.02225
1032.14623,0.02225
1030.08606,0.02231
1028.02589,0.02239
1025.96571,0.02243
1023.90554,0.02260
1021.84537,0.02295
1019.78520,0.02325
1017.72503,0.02334
1015.66485,0.02328
1013.60468,0.02314
1011.54451,0.02294
1009.48434,0.02278
1007.42417,0.02268
1005.36399,0.02254
1003.30382,0.02225
1001.24365,0.02178
999.18348,0.02123
997.12330,0.02085
995.06313,0.02076
993.00296,0.02079
990.94279,0.02068
988.88262,0.02050
986.82244,0.02044
984.76227,0.02036
982.70210,0.02007
980.64193,0.01960
978.58176,0.01911
976.52158,0.01874
974.46141,0.01854
972.40124,0.01844
970.34107,0.01827
968.28089,0.01798
966.22072,0.01768
964.16055,0.01751
962.10038,0.01740
960.04021,0.01727
957.98003,0.01711
955.91986,0.01693
953.85969,0.01675
951.79952,0.01654
949.73935,0.01615
947.67917,0.01553
945.61900,0.01492
943.55883,0.01452
941.49866,0.01418
939.43849,0.01353
937.37831,0.01242
935.31814,0.01122
933.25797,0.01044
931.19780,0.00994
929.13762,0.00930
927.07745,0.00861
925.01728,0.00813
922.95711,0.00773
920.89694,0.00713
918.83676,0.00638
916.77659,0.00581
914.71642,0.00551
912.65625,0.00527
910.59608,0.00499
908.53590,0.00467
906.47573,0.00434
904.41556,0.00402
902.35539,0.00378
900.29522,0.00375
898.23504,0.00402
896.17487,0.00437
894.11470,0.00441
892.05453,0.00413
889.99435,0.00385
887.93418,0.00362
885.87401,0.00320
883.81384,0.00260
881.75367,0.00215
879.69349,0.00205
877.63332,0.00217
875.57315,0.00229
873.51298,0.00246
871.45281,0.00263
869.39263,0.00257
867.33246,0.00233
865.27229,0.00219
863.21212,0.00224
861.15194,0.00242
859.09177,0.00262
857.03160,0.00265
854.97143,0.00236
852.91126,0.00182
850.85108,0.00139
848.79091,0.00134
846.73074,0.00141
844.67057,0.00118
842.61040,0.00067
840.55022,0.00019
838.49005,0.00000
836.42988,0.00007
834.36971,0.00014
832.30954,0.00011
830.24936,0.00009
828.18919,0.00019
826.12902,0.00027
824.06885,0.00023
822.00867,0.00008
819.94850,0.00008
817.88833,0.00043
815.82816,0.00079
813.76799,0.00088
811.70781,0.00106
809.64764,0.00155
807.58747,0.00194
805.52730,0.00201
803.46713,0.00198
801.40695,0.00199
799.34678,0.00191
797.28661,0.00168
795.22644,0.00153
793.16627,0.00133
791.10609,0.00082
789.04592,0.00023
786.98575,0.00010
784.92558,0.00037
782.86540,0.00060
780.80523,0.00080
778.74506,0.00110
776.68489,0.00132
774.62472,0.00133
772.56454,0.00129
770.50437,0.00132
768.44420,0.00145
766.38403,0.00186
764.32386,0.00248
762.26368,0.00286
760.20351,0.00270
758.14334,0.00197
756.08317,0.00099
754.02299,0.00023
751.96282,0.00000
749.90265,0.00031
747.84248,0.00094
745.78231,0.00124
743.72213,0.00101
741.66196,0.00058
739.60179,0.00025
737.54162,0.00015
735.48145,0.00040
733.42127,0.00086
731.36110,0.00117
729.30093,0.00125
727.24076,0.00123
725.18059,0.00130
723.12041,0.00162
721.06024,0.00208
719.00007,0.00249
716.93990,0.00267
714.87972,0.00256
712.81955,0.00220
710.75938,0.00167
708.69921,0.00118
706.63904,0.00103
704.57886,0.00140
702.51869,0.00211
700.45852,0.00287
698.39835,0.00347
696.33818,0.00378
694.27800,0.00373
692.21783,0.00349
690.15766,0.00339
688.09749,0.00354
686.03731,0.00384
683.97714,0.00407
681.91697,0.00411
679.85680,0.00411
677.79663,0.00414
675.73645,0.00397
673.67628,0.00335
671.61611,0.00236
669.55594,0.00153
667.49577,0.00139
665.43559,0.00190
663.37542,0.00243
661.31525,0.00243
659.25508,0.00182
657.19491,0.00112
655.13473,0.00089
653.07456,0.00122
651.01439,0.00182
648.95422,0.00236
646.89404,0.00265
644.83387,0.00272
642.77370,0.00260
640.71353,0.00245
638.65336,0.00261
636.59318,0.00318
634.53301,0.00370
632.47284,0.00376
630.41267,0.00332
628.35250,0.00270
626.29232,0.00269
624.23215,0.00406
622.17198,0.00536
620.11181,0.00483
618.05164,0.00330
615.99146,0.00263
613.93129,0.00245
611.87112,0.00152
609.81095,0.00037
607.75077,0.00000
605.69060,-0.00143
603.63043,-0.00195
601.57026,-0.00137
599.51009,0.00000
