3996.73391,0.00071
3994.67373,0.00081
3992.61356,0.00103
3990.55339,0.00085
3988.49322,0.00025
3986.43305,0.00000
3984.37287,0.00030
3982.31270,0.00062
3980.25253,0.00064
3978.19236,0.00045
3976.13219,0.00036
3974.07201,0.00055
3972.01184,0.00081
3969.95167,0.00098
3967.89150,0.00116
3965.83133,0.00139
3963.77115,0.00146
3961.71098,0.00132
3959.65081,0.00120
3957.59064,0.00130
3955.53046,0.00154
3953.47029,0.00156
3951.41012,0.00116
3949.34995,0.00076
3947.28978,0.00098
3945.22960,0.00155
3943.16943,0.00173
3941.10926,0.00149
3939.04909,0.00137
3936.98892,0.00138
3934.92874,0.00140
3932.86857,0.00158
3930.80840,0.00180
3928.74823,0.00180
3926.68805,0.00176
3924.62788,0.00159
3922.56771,0.00101
3920.50754,0.00057
3918.44737,0.00101
3916.38719,0.00203
3914.32702,0.00247
3912.26685,0.00194
3910.20668,0.00140
3908.14651,0.00153
3906.08633,0.00201
3904.02616,0.00249
3901.96599,0.00305
3899.90582,0.00332
3897.84565,0.00301
3895.78547,0.00258
3893.72530,0.00241
3891.66513,0.00225
3889.60496,0.00201
3887.54478,0.00189
3885.48461,0.00170
3883.42444,0.00134
3881.36427,0.00122
3879.30410,0.00155
3877.24392,0.00200
3875.18375,0.00208
3873.12358,0.00166
3871.06341,0.00112
3869.00324,0.00092
3866.94306,0.00124
3864.88289,0.00182
3862.82272,0.00223
3860.76255,0.00226
3858.70237,0.00215
3856.64220,0.00210
3854.58203,0.00201
3852.52186,0.00197
3850.46169,0.00220
3848.40151,0.00243
3846.34134,0.00270
3844.28117,0.00309
3842.22100,0.00335
3840.16083,0.00350
3838.10065,0.00342
3836.04048,0.00263
3833.98031,0.00175
3831.92014,0.00178
3829.85997,0.00253
3827.79979,0.00305
3825.73962,0.00291
3823.67945,0.00251
3821.61928,0.00231
3819.55910,0.00249
3817.49893,0.00312
3815.43876,0.00371
3813.37859,0.00365
3811.31842,0.00335
3809.25824,0.00309
3807.19807,0.00234
3805.13790,0.00097
3803.07773,0.00000
3801.01756,0.00053
3798.95738,0.00209
3796.89721,0.00299
3794.83704,0.00290
3792.77687,0.00244
3790.71670,0.00213
3788.65652,0.00213
3786.59635,0.00225
3784.53618,0.00229
3782.47601,0.00225
3780.41583,0.00233
3778.35566,0.00269
3776.29549,0.00301
3774.23532,0.00289
3772.17515,0.00237
3770.11497,0.00190
3768.05480,0.00181
3765.99463,0.00203
3763.93446,0.00237
3761.87429,0.00282
3759.81411,0.00320
3757.75394,0.00315
3755.69377,0.00275
3753.63360,0.00241
3751.57342,0.00206
3749.51325,0.00165
3747.45308,0.00165
3745.39291,0.00205
3743.33274,0.00249
3741.27256,0.00264
3739.21239,0.00242
3737.15222,0.00196
3735.09205,0.00183
3733.03188,0.00238
3730.97170,0.00289
3728.91153,0.00264
3726.85136,0.00179
3724.79119,0.00112
3722.73102,0.00119
3720.67084,0.00184
3718.61067,0.00252
3716.55050,0.00285
3714.49033,0.00275
3712.43015,0.00245
3710.36998,0.00225
3708.30981,0.00230
3706.24964,0.00250
3704.18947,0.00258
3702.12929,0.00244
3700.06912,0.00221
3698.00895,0.00186
3695.94878,0.00147
3693.88861,0.00126
3691.82843,0.00131
3689.76826,0.00148
3687.70809,0.00140
3685.64792,0.00108
3683.58775,0.00108
3681.52757,0.00160
3679.46740,0.00227
3677.40723,0.00251
3675.34706,0.00205
3673.28688,0.00138
3671.22671,0.00127
3669.16654,0.00152
3667.10637,0.00167
3665.04620,0.00189
3662.98602,0.00217
3660.92585,0.00200
3658.86568,0.00152
3656.80551,0.00131
3654.74534,0.00124
3652.68516,0.00093
3650.62499,0.00098
3648.56482,0.00203
3646.50465,0.00275
3644.44447,0.00231
3642.38430,0.00197
3640.32413,0.00225
3638.26396,0.00222
3636.20379,0.00193
3634.14361,0.00243
3632.08344,0.00358
3630.02327,0.00433
3627.96310,0.00412
3625.90293,0.00332
3623.84275,0.00265
3621.78258,0.00264
3619.72241,0.00348
3617.66224,0.00450
3615.60207,0.00484
3613.54189,0.00464
3611.48172,0.00449
3609.42155,0.00477
3607.36138,0.00532
3605.30120,0.00577
3603.24103,0.00592
3601.18086,0.00585
3599.12069,0.00573
3597.06052,0.00585
3595.00034,0.00617
3592.94017,0.00631
3590.88000,0.00641
3588.81983,0.00690
3586.75966,0.00763
3584.69948,0.00794
3582.63931,0.00791
3580.57914,0.00789
3578.51897,0.00790
3576.45879,0.00806
3574.39862,0.00862
3572.33845,0.00963
3570.27828,0.01069
3568.21811,0.01111
3566.15793,0.01074
3564.09776,0.01027
3562.03759,0.01024
3559.97742,0.01067
3557.91725,0.01162
3555.85707,0.01287
3553.79690,0.01356
3551.73673,0.01334
3549.67656,0.01295
3547.61639,0.01320
3545.55621,0.01400
3543.49604,0.01462
3541.43587,0.01505
3539.37570,0.01573
3537.31552,0.01640
3535.25535,0.01656
3533.19518,0.01629
3531.13501,0.01612
3529.07484,0.01631
3527.01466,0.01666
3524.95449,0.01696
3522.89432,0.01736
3520.83415,0.01801
3518.77398,0.01871
3516.71380,0.01926
3514.65363,0.01968
3512.59346,0.02015
3510.53329,0.02070
3508.47312,0.02113
3506.41294,0.02126
3504.35277,0.02132
3502.29260,0.02168
3500.23243,0.02241
3498.17225,0.02319
3496.11208,0.02399
3494.05191,0.02490
3491.99174,0.02543
3489.93157,0.02523
3487.87139,0.02491
3485.81122,0.02501
3483.75105,0.02545
3481.69088,0.02618
3479.63071,0.02707
3477.57053,0.02768
3475.51036,0.02789
3473.45019,0.02784
3471.39002,0.02789
3469.32984,0.02829
3467.26967,0.02909
3465.20950,0.03002
3463.14933,0.03036
3461.08916,0.03017
3459.02898,0.03026
3456.96881,0.03096
3454.90864,0.03189
3452.84847,0.03236
3450.78830,0.03260
3448.72812,0.03328
3446.66795,0.03387
3444.60778,0.03393
3442.54761,0.03397
3440.48744,0.03425
3438.42726,0.03468
3436.36709,0.03521
3434.30692,0.03587
3432.24675,0.03649
3430.18657,0.03682
3428.12640,0.03701
3426.06623,0.03730
3424.00606,0.03776
3421.94589,0.03845
3419.88571,0.03891
3417.82554,0.03886
3415.76537,0.03888
3413.70520,0.03917
3411.64503,0.03961
3409.58485,0.04022
3407.52468,0.04060
3405.46451,0.04055
3403.40434,0.04049
3401.34416,0.04063
3399.28399,0.04072
3397.22382,0.04102
3395.16365,0.04156
3393.10348,0.04197
3391.04330,0.04229
3388.98313,0.04282
3386.92296,0.04325
3384.86279,0.04316
3382.80262,0.04316
3380.74244,0.04371
3378.68227,0.04419
3376.62210,0.04438
3374.56193,0.04455
3372.50176,0.04478
3370.44158,0.04523
3368.38141,0.04575
3366.32124,0.04582
3364.26107,0.04545
3362.20089,0.04533
3360.14072,0.04581
3358.08055,0.04628
3356.02038,0.04629
3353.96021,0.04614
3351.90003,0.04601
3349.83986,0.04591
3347.77969,0.04606
3345.71952,0.04648
3343.65935,0.04695
3341.59917,0.04738
3339.53900,0.04779
3337.47883,0.04784
3335.41866,0.04754
3333.35849,0.04751
3331.29831,0.04804
3329.23814,0.04861
3327.17797,0.04859
3325.11780,0.04822
3323.05762,0.04809
3320.99745,0.04809
3318.93728,0.04822
3316.87711,0.04850
3314.81694,0.04861
3312.75676,0.04855
3310.69659,0.04859
3308.63642,0.04872
3306.57625,0.04878
3304.51608,0.04881
3302.45590,0.04875
3300.39573,0.04850
3298.33556,0.04828
3296.27539,0.04840
3294.21521,0.04884
3292.15504,0.04930
3290.09487,0.04969
3288.03470,0.04988
3285.97453,0.04975
3283.91435,0.04949
3281.85418,0.04947
3279.79401,0.04981
3277.73384,0.05008
3275.67367,0.05001
3273.61349,0.04992
3271.55332,0.04982
3269.49315,0.04955
3267.43298,0.04924
3265.37281,0.04904
3263.31263,0.04899
3261.25246,0.04911
3259.19229,0.04934
3257.13212,0.04940
3255.07194,0.04923
3253.01177,0.04909
3250.95160,0.04891
3248.89143,0.04865
3246.83126,0.04847
3244.77108,0.04820
3242.71091,0.04788
3240.65074,0.04774
3238.59057,0.04757
3236.53040,0.04733
3234.47022,0.04767
3232.41005,0.04839
3230.34988,0.04855
3228.28971,0.04817
3226.22954,0.04795
3224.16936,0.04798
3222.10919,0.04792
3220.04902,0.04767
3217.98885,0.04730
3215.92867,0.04702
3213.86850,0.04693
3211.80833,0.04698
3209.74816,0.04705
3207.68799,0.04691
3205.62781,0.04662
3203.56764,0.04634
3201.50747,0.04609
3199.44730,0.04598
3197.38713,0.04614
3195.32695,0.04635
3193.26678,0.04625
3191.20661,0.04581
3189.14644,0.04513
3187.08626,0.04436
3185.02609,0.04384
3182.96592,0.04373
3180.90575,0.04364
3178.84558,0.04357
3176.78540,0.04361
3174.72523,0.04343
3172.66506,0.04309
3170.60489,0.04269
3168.54472,0.04229
3166.48454,0.04210
3164.42437,0.04207
3162.36420,0.04217
3160.30403,0.04233
3158.24386,0.04223
3156.18368,0.04175
3154.12351,0.04117
3152.06334,0.04067
3150.00317,0.04011
3147.94299,0.03944
3145.88282,0.03900
3143.82265,0.03898
3141.76248,0.03916
3139.70231,0.03908
3137.64213,0.03855
3135.58196,0.03797
3133.52179,0.03757
3131.46162,0.03731
3129.40145,0.03729
3127.34127,0.03742
3125.28110,0.03751
3123.22093,0.03750
3121.16076,0.03729
3119.10058,0.03677
3117.04041,0.03622
3114.98024,0.03592
3112.92007,0.03573
3110.85990,0.03553
3108.79972,0.03541
3106.73955,0.03532
3104.67938,0.03491
3102.61921,0.03431
3100.55904,0.03412
3098.49886,0.03431
3096.43869,0.03415
3094.37852,0.03361
3092.31835,0.03338
3090.25818,0.03338
3088.19800,0.03325
3086.13783,0.03318
3084.07766,0.03313
3082.01749,0.03283
3079.95731,0.03236
3077.89714,0.03195
3075.83697,0.03171
3073.77680,0.03173
3071.71663,0.03177
3069.65645,0.03147
3067.59628,0.03080
3065.53611,0.02989
3063.47594,0.02915
3061.41577,0.02905
3059.35559,0.02937
3057.29542,0.02948
3055.23525,0.02922
3053.17508,0.02904
3051.11491,0.02905
3049.05473,0.02869
3046.99456,0.02790
3044.93439,0.02741
3042.87422,0.02729
3040.81404,0.02692
3038.75387,0.02654
3036.69370,0.02666
3034.63353,0.02682
3032.57336,0.02654
3030.51318,0.02613
3028.45301,0.02584
3026.39284,0.02555
3024.33267,0.02542
3022.27250,0.02546
3020.21232,0.02523
3018.15215,0.02493
3016.09198,0.02509
3014.03181,0.02532
3011.97163,0.02499
3009.91146,0.02444
3007.85129,0.02410
3005.79112,0.02389
3003.73095,0.02368
3001.67077,0.02336
2999.61060,0.02301
2997.55043,0.02263
2995.49026,0.02226
2993.43009,0.02227
2991.36991,0.02266
2989.30974,0.02294
2987.24957,0.02293
2985.18940,0.02279
2983.12923,0.02277
2981.06905,0.02298
2979.00888,0.02324
2976.94871,0.02349
2974.88854,0.02375
2972.82836,0.02422
2970.76819,0.02506
2968.70802,0.02600
2966.64785,0.02695
2964.58768,0.02794
2962.52750,0.02888
2960.46733,0.02995
2958.40716,0.03119
2956.34699,0.03265
2954.28682,0.03446
2952.22664,0.03636
2950.16647,0.03826
2948.10630,0.04029
2946.04613,0.04225
2943.98596,0.04392
2941.92578,0.04569
2939.86561,0.04805
2937.80544,0.05075
2935.74527,0.05319
2933.68509,0.05529
2931.62492,0.05736
2929.56475,0.05933
2927.50458,0.06102
2925.44441,0.06240
2923.38423,0.06350
2921.32406,0.06445
2919.26389,0.06530
2917.20372,0.06537
2915.14355,0.06397
2913.08337,0.06163
2911.02320,0.05941
2908.96303,0.05743
2906.90286,0.05529
2904.84268,0.05328
2902.78251,0.05164
2900.72234,0.05024
2898.66217,0.04896
2896.60200,0.04770
2894.54182,0.04672
2892.48165,0.04609
2890.42148,0.04532
2888.36131,0.04433
2886.30114,0.04340
2884.24096,0.04251
2882.18079,0.04165
2880.12062,0.04114
2878.06045,0.04094
2876.00028,0.04076
2873.94010,0.04089
2871.87993,0.04141
2869.81976,0.04196
2867.75959,0.04256
2865.69941,0.04329
2863.63924,0.04436
2861.57907,0.04573
2859.51890,0.04725
2857.45873,0.04908
2855.39855,0.05092
2853.33838,0.05224
2851.27821,0.05280
2849.21804,0.05226
2847.15787,0.05045
2845.09769,0.04784
2843.03752,0.04501
2840.97735,0.04216
2838.91718,0.03954
2836.85700,0.03773
2834.79683,0.03662
2832.73666,0.03551
2830.67649,0.03433
2828.61632,0.03335
2826.55614,0.03277
2824.49597,0.03259
2822.43580,0.03219
2820.37563,0.03136
2818.31546,0.03059
2816.25528,0.03009
2814.19511,0.02977
2812.13494,0.02944
2810.07477,0.02883
2808.01460,0.02810
2805.95442,0.02782
2803.89425,0.02797
2801.83408,0.02791
2799.77391,0.02755
2797.71373,0.02714
2795.65356,0.02672
2793.59339,0.02654
2791.53322,0.02658
2789.47305,0.02622
2787.41287,0.02565
2785.35270,0.02570
2783.29253,0.02590
2781.23236,0.02552
2779.17219,0.02496
2777.11201,0.02450
2775.05184,0.02412
2772.99167,0.02392
2770.93150,0.02399
2768.87133,0.02423
2766.81115,0.02423
2764.75098,0.02391
2762.69081,0.02365
2760.63064,0.02354
2758.57046,0.02343
2756.51029,0.02345
2754.45012,0.02362
2752.38995,0.02367
2750.32978,0.02351
2748.26960,0.02331
2746.20943,0.02328
2744.14926,0.02346
2742.08909,0.02367
2740.02892,0.02358
2737.96874,0.02324
2735.90857,0.02295
2733.84840,0.02267
2731.78823,0.02236
2729.72805,0.02228
2727.66788,0.02246
2725.60771,0.02259
2723.54754,0.02254
2721.48737,0.02239
2719.42719,0.02230
2717.36702,0.02232
2715.30685,0.02206
2713.24668,0.02158
2711.18651,0.02140
2709.12633,0.02154
2707.06616,0.02176
2705.00599,0.02200
2702.94582,0.02219
2700.88565,0.02227
2698.82547,0.02214
2696.76530,0.02186
2694.70513,0.02173
2692.64496,0.02188
2690.58478,0.02192
2688.52461,0.02164
2686.46444,0.02133
2684.40427,0.02111
2682.34410,0.02096
2680.28392,0.02096
2678.22375,0.02118
2676.16358,0.02143
2674.10341,0.02146
2672.04324,0.02122
2669.98306,0.02101
2667.92289,0.02094
2665.86272,0.02084
2663.80255,0.02072
2661.74238,0.02069
2659.68220,0.02060
2657.62203,0.02040
2655.56186,0.02022
2653.50169,0.02019
2651.44151,0.02038
2649.38134,0.02042
2647.32117,0.02011
2645.26100,0.01988
2643.20083,0.01986
2641.14065,0.02004
2639.08048,0.02019
2637.02031,0.02005
2634.96014,0.01989
2632.89997,0.01969
2630.83979,0.01929
2628.77962,0.01903
2626.71945,0.01891
2624.65928,0.01876
2622.59910,0.01880
2620.53893,0.01881
2618.47876,0.01846
2616.41859,0.01817
2614.35842,0.01833
2612.29824,0.01847
2610.23807,0.01820
2608.17790,0.01798
2606.11773,0.01797
2604.05756,0.01778
2601.99738,0.01766
2599.93721,0.01770
2597.87704,0.01735
2595.81687,0.01712
2593.75670,0.01744
2591.69652,0.01761
2589.63635,0.01754
2587.57618,0.01714
2585.51601,0.01652
2583.45583,0.01633
2581.39566,0.01628
2579.33549,0.01603
2577.27532,0.01619
2575.21515,0.01667
2573.15497,0.01653
2571.09480,0.01588
2569.03463,0.01549
2566.97446,0.01558
2564.91429,0.01600
2562.85411,0.01617
2560.79394,0.01578
2558.73377,0.01547
2556.67360,0.01569
2554.61342,0.01600
2552.55325,0.01581
2550.49308,0.01513
2548.43291,0.01457
2546.37274,0.01457
2544.31256,0.01456
2542.25239,0.01440
2540.19222,0.01455
2538.13205,0.01483
2536.07188,0.01492
2534.01170,0.01472
2531.95153,0.01437
2529.89136,0.01440
2527.83119,0.01502
2525.77102,0.01560
2523.71084,0.01582
2521.65067,0.01580
2519.59050,0.01566
2517.53033,0.01570
2515.47015,0.01584
2513.40998,0.01572
2511.34981,0.01512
2509.28964,0.01437
2507.22947,0.01400
2505.16929,0.01413
2503.10912,0.01441
2501.04895,0.01434
2498.98878,0.01406
2496.92861,0.01410
2494.86843,0.01457
2492.80826,0.01485
2490.74809,0.01451
2488.68792,0.01408
2486.62775,0.01403
2484.56757,0.01390
2482.50740,0.01354
2480.44723,0.01337
2478.38706,0.01364
2476.32688,0.01378
2474.26671,0.01336
2472.20654,0.01301
2470.14637,0.01312
2468.08620,0.01340
2466.02602,0.01369
2463.96585,0.01378
2461.90568,0.01341
2459.84551,0.01301
2457.78534,0.01290
2455.72516,0.01285
2453.66499,0.01266
2451.60482,0.01258
2449.54465,0.01291
2447.48447,0.01300
2445.42430,0.01254
2443.36413,0.01228
2441.30396,0.01281
2439.24379,0.01371
2437.18361,0.01396
2435.12344,0.01336
2433.06327,0.01288
2431.00310,0.01297
2428.94293,0.01296
2426.88275,0.01242
2424.82258,0.01185
2422.76241,0.01185
2420.70224,0.01199
2418.64207,0.01185
2416.58189,0.01157
2414.52172,0.01133
2412.46155,0.01152
2410.40138,0.01180
2408.34120,0.01154
2406.28103,0.01134
2404.22086,0.01167
2402.16069,0.01185
2400.10052,0.01157
2398.04034,0.01158
2395.98017,0.01190
2393.92000,0.01205
2391.85983,0.01193
2389.79966,0.01171
2387.73948,0.01168
2385.67931,0.01192
2383.61914,0.01201
2381.55897,0.01167
2379.49880,0.01125
2377.43862,0.01114
2375.37845,0.01117
2373.31828,0.01108
2371.25811,0.01050
2369.19793,0.00934
2367.13776,0.00898
2365.07759,0.01074
2363.01742,0.01396
2360.95725,0.01725
2358.89707,0.01764
2356.83690,0.01534
2354.77673,0.01297
2352.71656,0.01148
2350.65639,0.01160
2348.59621,0.01232
2346.53604,0.01196
2344.47587,0.01283
2342.41570,0.01342
2340.35552,0.01254
2338.29535,0.01145
2336.23518,0.01114
2334.17501,0.01207
2332.11484,0.01257
2330.05466,0.01143
2327.99449,0.01000
2325.93432,0.00981
2323.87415,0.01007
2321.81398,0.01088
2319.75380,0.01158
2317.69363,0.01168
2315.63346,0.01096
2313.57329,0.00994
2311.51312,0.00960
2309.45294,0.01046
2307.39277,0.01156
2305.33260,0.01170
2303.27243,0.01113
2301.21225,0.01053
2299.15208,0.01022
2297.09191,0.01023
2295.03174,0.01058
2292.97157,0.01087
2290.91139,0.01077
2288.85122,0.01078
2286.79105,0.01106
2284.73088,0.01082
2282.67071,0.00998
2280.61053,0.00945
2278.55036,0.00970
2276.49019,0.01033
2274.43002,0.01082
2272.36984,0.01065
2270.30967,0.00970
2268.24950,0.00866
2266.18933,0.00838
2264.12916,0.00877
2262.06898,0.00891
2260.00881,0.00856
2257.94864,0.00846
2255.88847,0.00865
2253.82830,0.00864
2251.76812,0.00872
2249.70795,0.00904
2247.64778,0.00913
2245.58761,0.00910
2243.52744,0.00933
2241.46726,0.00942
2239.40709,0.00884
2237.34692,0.00768
2235.28675,0.00651
2233.22657,0.00619
2231.16640,0.00728
2229.10623,0.00865
2227.04606,0.00881
2224.98589,0.00842
2222.92571,0.00828
2220.86554,0.00804
2218.80537,0.00758
2216.74520,0.00689
2214.68503,0.00568
2212.62485,0.00465
2210.56468,0.00522
2208.50451,0.00710
2206.44434,0.00838
2204.38417,0.00825
2202.32399,0.00777
2200.26382,0.00751
2198.20365,0.00726
2196.14348,0.00721
2194.08330,0.00750
2192.02313,0.00840
2189.96296,0.00906
2187.90279,0.00804
2185.84262,0.00709
2183.78244,0.00804
2181.72227,0.00914
2179.66210,0.00823
2177.60193,0.00662
2175.54176,0.00634
2173.48158,0.00557
2171.42141,0.00374
2169.36124,0.00352
2167.30107,0.00468
2165.24089,0.00554
2163.18072,0.00644
2161.12055,0.00607
2159.06038,0.00329
2157.00021,0.00147
2154.94003,0.00270
2152.87986,0.00456
2150.81969,0.00507
2148.75952,0.00427
2146.69935,0.00278
2144.63917,0.00272
2142.57900,0.00392
2140.51883,0.00415
2138.45866,0.00388
2136.39849,0.00424
2134.33831,0.00490
2132.27814,0.00520
2130.21797,0.00554
2128.15780,0.00653
2126.09762,0.00758
2124.03745,0.00811
2121.97728,0.00796
2119.91711,0.00735
2117.85694,0.00661
2115.79676,0.00531
2113.73659,0.00401
2111.67642,0.00380
2109.61625,0.00404
2107.55608,0.00435
2105.49590,0.00529
2103.43573,0.00606
2101.37556,0.00568
2099.31539,0.00532
2097.25521,0.00566
2095.19504,0.00570
2093.13487,0.00544
2091.07470,0.00577
2089.01453,0.00644
2086.95435,0.00657
2084.89418,0.00609
2082.83401,0.00596
2080.77384,0.00606
2078.71367,0.00546
2076.65349,0.00525
2074.59332,0.00617
2072.53315,0.00701
2070.47298,0.00722
2068.41281,0.00694
2066.35263,0.00606
2064.29246,0.00525
2062.23229,0.00547
2060.17212,0.00635
2058.11194,0.00660
2056.05177,0.00578
2053.99160,0.00463
2051.93143,0.00393
2049.87126,0.00414
2047.81108,0.00478
2045.75091,0.00477
2043.69074,0.00361
2041.63057,0.00268
2039.57040,0.00385
2037.51022,0.00507
2035.45005,0.00482
2033.38988,0.00487
2031.32971,0.00538
2029.26954,0.00606
2027.20936,0.00609
2025.14919,0.00519
2023.08902,0.00422
2021.02885,0.00251
2018.96867,0.00108
2016.90850,0.00070
2014.84833,0.00098
2012.78816,0.00215
2010.72799,0.00255
2008.66781,0.00195
2006.60764,0.00183
2004.54747,0.00205
2002.48730,0.00236
2000.42713,0.00270
1998.36695,0.00283
1996.30678,0.00303
1994.24661,0.00239
1992.18644,0.00048
1990.12626,0.00000
1988.06609,0.00211
1986.00592,0.00392
1983.94575,0.00388
1981.88558,0.00309
1979.82540,0.00252
1977.76523,0.00304
1975.70506,0.00408
1973.64489,0.00418
1971.58472,0.00365
1969.52454,0.00331
1967.46437,0.00353
1965.40420,0.00457
1963.34403,0.00525
1961.28386,0.00415
1959.22368,0.00291
1957.16351,0.00345
1955.10334,0.00439
1953.04317,0.00427
1950.98299,0.00410
1948.92282,0.00484
1946.86265,0.00541
1944.80248,0.00442
1942.74231,0.00266
1940.68213,0.00188
1938.62196,0.00219
1936.56179,0.00306
1934.50162,0.00356
1932.44145,0.00309
1930.38127,0.00309
1928.32110,0.00422
1926.26093,0.00487
1924.20076,0.00419
1922.14059,0.00330
1920.08041,0.00336
1918.02024,0.00402
1915.96007,0.00430
1913.89990,0.00387
1911.83972,0.00338
1909.77955,0.00348
1907.71938,0.00410
1905.65921,0.00450
1903.59904,0.00418
1901.53886,0.00368
1899.47869,0.00352
1897.41852,0.00308
1895.35835,0.00253
1893.29818,0.00268
1891.23800,0.00307
1889.17783,0.00308
1887.11766,0.00313
1885.05749,0.00315
1882.99731,0.00270
1880.93714,0.00247
1878.87697,0.00296
1876.81680,0.00336
1874.75663,0.00319
1872.69645,0.00285
1870.63628,0.00259
1868.57611,0.00230
1866.51594,0.00216
1864.45577,0.00239
1862.39559,0.00273
1860.33542,0.00274
1858.27525,0.00248
1856.21508,0.00212
1854.15491,0.00176
1852.09473,0.00164
1850.03456,0.00173
1847.97439,0.00174
1845.91422,0.00181
1843.85404,0.00218
1841.79387,0.00258
1839.73370,0.00278
1837.67353,0.00282
1835.61336,0.00279
1833.55318,0.00269
1831.49301,0.00225
1829.43284,0.00160
1827.37267,0.00140
1825.31250,0.00179
1823.25232,0.00210
1821.19215,0.00178
1819.13198,0.00113
1817.07181,0.00061
1815.01163,0.00040
1812.95146,0.00047
1810.89129,0.00073
1808.83112,0.00104
1806.77095,0.00134
1804.71077,0.00153
1802.65060,0.00146
1800.59043,0.00117
1798.53026,0.00088
1796.47009,0.00072
1794.40991,0.00051
1792.34974,0.00022
1790.28957,0.00019
1788.22940,0.00034
1786.16923,0.00038
1784.10905,0.00032
1782.04888,0.00016
1779.98871,0.00000
1777.92854,-0.00002
1775.86836,0.00012
1773.80819,0.00030
1771.74802,0.00044
1769.68785,0.00048
1767.62768,0.00042
1765.56750,0.00044
1763.50733,0.00070
1761.44716,0.00129
1759.38699,0.00230
1757.32682,0.00353
1755.26664,0.00452
1753.20647,0.00548
1751.14630,0.00702
1749.08613,0.00874
1747.02596,0.00974
1744.96578,0.01022
1742.90561,0.01079
1740.84544,0.01166
1738.78527,0.01258
1736.72509,0.01331
1734.66492,0.01396
1732.60475,0.01447
1730.54458,0.01462
1728.48441,0.01462
1726.42423,0.01463
1724.36406,0.01460
1722.30389,0.01465
1720.24372,0.01513
1718.18355,0.01590
1716.12337,0.01643
1714.06320,0.01653
1712.00303,0.01649
1709.94286,0.01644
1707.88268,0.01623
1705.82251,0.01579
1703.76234,0.01544
1701.70217,0.01559
1699.64200,0.01604
1697.58182,0.01634
1695.52165,0.01660
1693.46148,0.01690
1691.40131,0.01736
1689.34114,0.01831
1687.28096,0.01985
1685.22079,0.02209
1683.16062,0.02488
1681.10045,0.02722
1679.04028,0.02901
1676.98010,0.03053
1674.91993,0.03172
1672.85976,0.03242
1670.79959,0.03266
1668.73941,0.03250
1666.67924,0.03189
1664.61907,0.03100
1662.55890,0.03001
1660.49873,0.02918
1658.43855,0.02872
1656.37838,0.02862
1654.31821,0.02846
1652.25804,0.02791
1650.19787,0.02759
1648.13769,0.02751
1646.07752,0.02741
1644.01735,0.02755
1641.95718,0.02791
1639.89701,0.02831
1637.83683,0.02895
1635.77666,0.03004
1633.71649,0.03119
1631.65632,0.03188
1629.59614,0.03222
1627.53597,0.03253
1625.47580,0.03292
1623.41563,0.03318
1621.35546,0.03333
1619.29528,0.03370
1617.23511,0.03434
1615.17494,0.03498
1613.11477,0.03570
1611.05460,0.03683
1608.99442,0.03842
1606.93425,0.04000
1604.87408,0.04086
1602.81391,0.04071
1600.75373,0.03975
1598.69356,0.03839
1596.63339,0.03704
1594.57322,0.03574
1592.51305,0.03447
1590.45287,0.03339
1588.39270,0.03251
1586.33253,0.03166
1584.27236,0.03081
1582.21219,0.03004
1580.15201,0.02944
1578.09184,0.02892
1576.03167,0.02826
1573.97150,0.02755
1571.91133,0.02690
1569.85115,0.02608
1567.79098,0.02499
1565.73081,0.02386
1563.67064,0.02289
1561.61046,0.02204
1559.55029,0.02075
1557.49012,0.01921
1555.42995,0.01847
1553.36978,0.01807
1551.30960,0.01754
1549.24943,0.01686
1547.18926,0.01598
1545.12909,0.01481
1543.06892,0.01355
1541.00874,0.01250
1538.94857,0.01183
1536.88840,0.01159
1534.82823,0.01142
1532.76805,0.01088
1530.70788,0.01006
1528.64771,0.00929
1526.58754,0.00879
1524.52737,0.00886
1522.46719,0.00962
1520.40702,0.01109
1518.34685,0.01279
1516.28668,0.01406
1514.22651,0.01450
1512.16633,0.01419
1510.10616,0.01330
1508.04599,0.01171
1505.98582,0.00968
1503.92565,0.00818
1501.86547,0.00720
1499.80530,0.00633
1497.74513,0.00528
1495.68496,0.00405
1493.62478,0.00307
1491.56461,0.00245
1489.50444,0.00203
1487.44427,0.00172
1485.38410,0.00150
1483.32392,0.00139
1481.26375,0.00161
1479.20358,0.00220
1477.14341,0.00305
1475.08324,0.00427
1473.02306,0.00612
1470.96289,0.00835
1468.90272,0.01030
1466.84255,0.01219
1464.78238,0.01417
1462.72220,0.01562
1460.66203,0.01636
1458.60186,0.01710
1456.54169,0.01813
1454.48151,0.01888
1452.42134,0.01961
1450.36117,0.02070
1448.30100,0.02188
1446.24083,0.02287
1444.18065,0.02384
1442.12048,0.02494
1440.06031,0.02598
1438.00014,0.02681
1435.93997,0.02752
1433.87979,0.02810
1431.81962,0.02845
1429.75945,0.02869
1427.69928,0.02889
1425.63910,0.02908
1423.57893,0.02926
1421.51876,0.02933
1419.45859,0.02939
1417.39842,0.02959
1415.33824,0.02981
1413.27807,0.02976
1411.21790,0.02935
1409.15773,0.02877
1407.09756,0.02809
1405.03738,0.02720
1402.97721,0.02629
1400.91704,0.02552
1398.85687,0.02462
1396.79670,0.02347
1394.73652,0.02241
1392.67635,0.02187
1390.61618,0.02189
1388.55601,0.02231
1386.49583,0.02306
1384.43566,0.02392
1382.37549,0.02461
1380.31532,0.02513
1378.25515,0.02565
1376.19497,0.02615
1374.13480,0.02655
1372.07463,0.02690
1370.01446,0.02705
1367.95429,0.02686
1365.89411,0.02642
1363.83394,0.02599
1361.77377,0.02565
1359.71360,0.02539
1357.65343,0.02527
1355.59325,0.02526
1353.53308,0.02521
1351.47291,0.02502
1349.41274,0.02477
1347.35256,0.02464
1345.29239,0.02466
1343.23222,0.02472
1341.17205,0.02465
1339.11188,0.02438
1337.05170,0.02430
1334.99153,0.02454
1332.93136,0.02467
1330.87119,0.02442
1328.81102,0.02419
1326.75084,0.02438
1324.69067,0.02471
1322.63050,0.02466
1320.57033,0.02429
1318.51015,0.02402
1316.44998,0.02390
1314.38981,0.02375
1312.32964,0.02367
1310.26947,0.02360
1308.20929,0.02331
1306.14912,0.02282
1304.08895,0.02225
1302.02878,0.02148
1299.96861,0.02048
1297.90843,0.01970
1295.84826,0.01948
1293.78809,0.01964
1291.72792,0.02000
1289.66775,0.02029
1287.60757,0.02023
1285.54740,0.02009
1283.48723,0.02018
1281.42706,0.02042
1279.36688,0.02077
1277.30671,0.02121
1275.24654,0.02162
1273.18637,0.02193
1271.12620,0.02201
1269.06602,0.02205
1267.00585,0.02255
1264.94568,0.02361
1262.88551,0.02479
1260.82534,0.02574
1258.76516,0.02640
1256.70499,0.02689
1254.64482,0.02742
1252.58465,0.02803
1250.52447,0.02863
1248.46430,0.02914
1246.40413,0.02944
1244.34396,0.02948
1242.28379,0.02955
1240.22361,0.02985
1238.16344,0.03007
1236.10327,0.02987
1234.04310,0.02938
1231.98293,0.02877
1229.92275,0.02790
1227.86258,0.02661
1225.80241,0.02518
1223.74224,0.02406
1221.68207,0.02306
1219.62189,0.02185
1217.56172,0.02048
1215.50155,0.01887
1213.44138,0.01707
1211.38120,0.01563
1209.32103,0.01470
1207.26086,0.01378
1205.20069,0.01237
1203.14052,0.01050
1201.08034,0.00850
1199.02017,0.00663
1196.96000,0.00509
1194.89983,0.00374
1192.83966,0.00247
1190.77948,0.00149
1188.71931,0.00087
1186.65914,0.00038
1184.59897,0.00000
1182.53880,-0.00018
1180.47862,0.00006
1178.41845,0.00068
1176.35828,0.00173
1174.29811,0.00349
1172.23793,0.00597
1170.17776,0.00865
1168.11759,0.01077
1166.05742,0.01190
1163.99725,0.01236
1161.93707,0.01270
1159.87690,0.01324
1157.81673,0.01388
1155.75656,0.01457
1153.69639,0.01552
1151.63621,0.01680
1149.57604,0.01818
1147.51587,0.01931
1145.45570,0.02015
1143.39552,0.02089
1141.33535,0.02175
1139.27518,0.02274
1137.21501,0.02369
1135.15484,0.02446
1133.09466,0.02509
1131.03449,0.02576
1128.97432,0.02662
1126.91415,0.02769
1124.85398,0.02912
1122.79380,0.03096
1120.73363,0.03268
1118.67346,0.03397
1116.61329,0.03508
1114.55312,0.03627
1112.49294,0.03780
1110.43277,0.03941
1108.37260,0.04037
1106.31243,0.04107
1104.25225,0.04239
1102.19208,0.04405
1100.13191,0.04560
1098.07174,0.04737
1096.01157,0.04967
1093.95139,0.05228
1091.89122,0.05469
1089.83105,0.05667
1087.77088,0.05837
1085.71071,0.06028
1083.65053,0.06273
1081.59036,0.06520
1079.53019,0.06738
1077.47002,0.06979
1075.40985,0.07259
1073.34967,0.07526
1071.28950,0.07744
1069.22933,0.07929
1067.16916,0.08123
1065.10898,0.08326
1063.04881,0.08513
1060.98864,0.08674
1058.92847,0.08818
1056.86830,0.08973
1054.80812,0.09152
1052.74795,0.09364
1050.68778,0.09629
1048.62761,0.09923
1046.56744,0.10223
1044.50726,0.10521
1042.44709,0.10807
1040.38692,0.11100
1038.32675,0.11373
1036.26657,0.11569
1034.20640,0.11699
1032.14623,0.11790
1030.08606,0.11827
1028.02589,0.11821
1025.96571,0.11809
1023.90554,0.11750
1021.84537,0.11622
1019.78520,0.11545
1017.72503,0.11568
1015.66485,0.11608
1013.60468,0.11626
1011.54451,0.11637
1009.48434,0.11651
1007.42417,0.11682
1005.36399,0.11701
1003.30382,0.11665
1001.24365,0.11569
999.18348,0.11426
997.12330,0.11265
995.06313,0.11081
993.00296,0.10865
990.94279,0.10658
988.88262,0.10473
986.82244,0.10301
984.76227,0.10150
982.70210,0.10020
980.64193,0.09896
978.58176,0.09753
976.52158,0.09585
974.46141,0.09412
972.40124,0.09227
970.34107,0.09006
968.28089,0.08770
966.22072,0.08565
964.16055,0.08393
962.10038,0.08205
960.04021,0.08005
957.98003,0.07834
955.91986,0.07689
953.85969,0.07546
951.79952,0.07413
949.73935,0.07282
947.67917,0.07120
945.61900,0.06924
943.55883,0.06711
941.49866,0.06461
939.43849,0.06156
937.37831,0.05820
935.31814,0.05486
933.25797,0.05145
931.19780,0.04778
929.13762,0.04417
927.07745,0.04103
925.01728,0.03849
922.95711,0.03652
920.89694,0.03481
918.83676,0.03292
916.77659,0.03090
914.71642,0.02903
912.65625,0.02746
910.59608,0.02592
908.53590,0.02418
906.47573,0.02277
904.41556,0.02209
902.35539,0.02178
900.29522,0.02138
898.23504,0.02080
896.17487,0.02062
894.11470,0.02108
892.05453,0.02133
889.99435,0.02091
887.93418,0.02025
885.87401,0.01957
883.81384,0.01866
881.75367,0.01726
879.69349,0.01540
877.63332,0.01384
875.57315,0.01317
873.51298,0.01296
871.45281,0.01256
869.39263,0.01186
867.33246,0.01104
865.27229,0.01008
863.21212,0.00887
861.15194,0.00810
859.09177,0.00858
857.03160,0.00970
854.97143,0.01023
852.91126,0.00973
850.85108,0.00900
848.79091,0.00889
846.73074,0.00907
844.67057,0.00851
842.61040,0.00721
840.55022,0.00659
838.49005,0.00716
836.42988,0.00768
834.36971,0.00764
832.30954,0.00720
830.24936,0.00636
828.18919,0.00545
826.12902,0.00493
824.06885,0.00511
822.00867,0.00535
819.94850,0.00500
817.88833,0.00470
815.82816,0.00492
813.76799,0.00510
811.70781,0.00469
809.64764,0.00417
807.58747,0.00390
805.52730,0.00367
803.46713,0.00383
801.40695,0.00381
799.34678,0.00298
797.28661,0.00214
795.22644,0.00164
793.16627,0.00086
791.10609,0.00041
789.04592,0.00111
786.98575,0.00187
784.92558,0.00184
782.86540,0.00167
780.80523,0.00173
778.74506,0.00180
776.68489,0.00193
774.62472,0.00198
772.56454,0.00169
770.50437,0.00164
768.44420,0.00210
766.38403,0.00277
764.32386,0.00326
762.26368,0.00285
760.20351,0.00144
758.14334,0.00022
756.08317,0.00016
754.02299,0.00049
751.96282,0.00024
749.90265,0.00000
747.84248,-0.00014
745.78231,-0.00016
743.72213,-0.00012
741.66196,-0.00018
739.60179,-0.00109
737.54162,-0.00225
735.48145,-0.00162
733.42127,0.00051
731.36110,0.00136
729.30093,0.00038
727.24076,-0.00067
725.18059,-0.00068
723.12041,0.00036
721.06024,0.00084
719.00007,0.00062
716.93990,0.00056
714.87972,0.00125
712.81955,0.00250
710.75938,0.00391
708.69921,0.00540
706.63904,0.00668
704.57886,0.00697
702.51869,0.00642
700.45852,0.00575
698.39835,0.00514
696.33818,0.00470
694.27800,0.00444
692.21783,0.00451
690.15766,0.00468
688.09749,0.00402
686.03731,0.00275
683.97714,0.00214
681.91697,0.00233
679.85680,0.00243
677.79663,0.00209
675.73645,0.00149
673.67628,0.00140
671.61611,0.00182
669.55594,-0.00024
667.49577,-0.00240
665.43559,0.00055
663.37542,0.00188
661.31525,0.00326
659.25508,0.00427
657.19491,0.00414
655.13473,0.00289
653.07456,0.00078
651.01439,-0.00009
648.95422,0.00120
646.89404,0.00328
644.83387,0.00584
642.77370,0.00822
640.71353,0.00765
638.65336,0.00450
636.59318,0.00374
634.53301,0.00700
632.47284,0.00918
630.41267,0.00756
628.35250,0.00500
626.29232,0.00445
624.23215,0.00588
622.17198,0.00671
620.11181,0.00683
618.05164,0.00637
615.99146,0.00353
613.93129,0.00097
611.87112,0.00201
609.81095,0.00701
607.75077,0.01374
605.69060,0.01618
603.63043,0.01056
601.57026,0.00333
599.51009,0.00000
