3996.73391,-0.00011
3994.67373,-0.00010
3992.61356,0.00025
3990.55339,0.00040
3988.49322,0.00007
3986.43305,-0.00033
3984.37287,-0.00037
3982.31270,-0.00017
3980.25253,-0.00003
3978.19236,-0.00013
3976.13219,-0.00025
3974.07201,-0.00009
3972.01184,0.00026
3969.95167,0.00053
3967.89150,0.00070
3965.83133,0.00085
3963.77115,0.00080
3961.71098,0.00040
3959.65081,-0.00000
3957.59064,0.00000
3955.53046,0.00029
3953.47029,0.00048
3951.41012,0.00054
3949.34995,0.00075
3947.28978,0.00119
3945.22960,0.00148
3943.16943,0.00130
3941.10926,0.00100
3939.04909,0.00093
3936.98892,0.00090
3934.92874,0.00071
3932.86857,0.00051
3930.80840,0.00045
3928.74823,0.00060
3926.68805,0.00093
3924.62788,0.00095
3922.56771,0.00037
3920.50754,0.00000
3918.44737,0.00047
3916.38719,0.00138
3914.32702,0.00174
3912.26685,0.00128
3910.20668,0.00091
3908.14651,0.00125
3906.08633,0.00176
3904.02616,0.00189
3901.96599,0.00194
3899.90582,0.00204
3897.84565,0.00178
3895.78547,0.00143
3893.72530,0.00146
3891.66513,0.00168
3889.60496,0.00175
3887.54478,0.00158
3885.48461,0.00105
3883.42444,0.00049
3881.36427,0.00052
3879.30410,0.00109
3877.24392,0.00154
3875.18375,0.00148
3873.12358,0.00110
3871.06341,0.00074
3869.00324,0.00059
3866.94306,0.00086
3864.88289,0.00139
3862.82272,0.00156
3860.76255,0.00132
3858.70237,0.00123
3856.64220,0.00136
3854.58203,0.00125
3852.52186,0.00098
3850.46169,0.00114
3848.40151,0.00136
3846.34134,0.00156
3844.28117,0.00203
3842.22100,0.00277
3840.16083,0.00342
3838.10065,0.00348
3836.04048,0.00265
3833.98031,0.00162
3831.92014,0.00128
3829.85997,0.00154
3827.79979,0.00184
3825.73962,0.00194
3823.67945,0.00191
3821.61928,0.00192
3819.55910,0.00223
3817.49893,0.00303
3815.43876,0.00376
3813.37859,0.00360
3811.31842,0.00295
3809.25824,0.00241
3807.19807,0.00179
3805.13790,0.00085
3803.07773,0.00000
3801.01756,0.00008
3798.95738,0.00116
3796.89721,0.00202
3794.83704,0.00206
3792.77687,0.00171
3790.71670,0.00156
3788.65652,0.00177
3786.59635,0.00208
3784.53618,0.00204
3782.47601,0.00172
3780.41583,0.00160
3778.35566,0.00164
3776.29549,0.00152
3774.23532,0.00124
3772.17515,0.00115
3770.11497,0.00144
3768.05480,0.00173
3765.99463,0.00176
3763.93446,0.00173
3761.87429,0.00190
3759.81411,0.00228
3757.75394,0.00234
3755.69377,0.00201
3753.63360,0.00189
3751.57342,0.00188
3749.51325,0.00158
3747.45308,0.00143
3745.39291,0.00152
3743.33274,0.00170
3741.27256,0.00204
3739.21239,0.00219
3737.15222,0.00175
3735.09205,0.00121
3733.03188,0.00123
3730.97170,0.00145
3728.91153,0.00146
3726.85136,0.00129
3724.79119,0.00109
3722.73102,0.00093
3720.67084,0.00107
3718.61067,0.00138
3716.55050,0.00171
3714.49033,0.00177
3712.43015,0.00141
3710.36998,0.00127
3708.30981,0.00151
3706.24964,0.00186
3704.18947,0.00182
3702.12929,0.00151
3700.06912,0.00137
3698.00895,0.00113
3695.94878,0.00062
3693.88861,0.00018
3691.82843,0.00037
3689.76826,0.00101
3687.70809,0.00135
3685.64792,0.00125
3683.58775,0.00141
3681.52757,0.00186
3679.46740,0.00218
3677.40723,0.00193
3675.34706,0.00123
3673.28688,0.00071
3671.22671,0.00070
3669.16654,0.00078
3667.10637,0.00071
3665.04620,0.00097
3662.98602,0.00147
3660.92585,0.00157
3658.86568,0.00129
3656.80551,0.00106
3654.74534,0.00092
3652.68516,0.00080
3650.62499,0.00105
3648.56482,0.00172
3646.50465,0.00215
3644.44447,0.00200
3642.38430,0.00199
3640.32413,0.00218
3638.26396,0.00189
3636.20379,0.00161
3634.14361,0.00226
3632.08344,0.00326
3630.02327,0.00354
3627.96310,0.00312
3625.90293,0.00253
3623.84275,0.00218
3621.78258,0.00221
3619.72241,0.00283
3617.66224,0.00377
3615.60207,0.00410
3613.54189,0.00392
3611.48172,0.00391
3609.42155,0.00442
3607.36138,0.00498
3605.30120,0.00518
3603.24103,0.00528
3601.18086,0.00529
3599.12069,0.00520
3597.06052,0.00518
3595.00034,0.00537
3592.94017,0.00548
3590.88000,0.00574
3588.81983,0.00636
3586.75966,0.00705
3584.69948,0.00721
3582.63931,0.00710
3580.57914,0.00713
3578.51897,0.00711
3576.45879,0.00706
3574.39862,0.00755
3572.33845,0.00876
3570.27828,0.01010
3568.21811,0.01082
3566.15793,0.01052
3564.09776,0.00962
3562.03759,0.00907
3559.97742,0.00941
3557.91725,0.01046
3555.85707,0.01163
3553.79690,0.01223
3551.73673,0.01214
3549.67656,0.01199
3547.61639,0.01232
3545.55621,0.01310
3543.49604,0.01392
3541.43587,0.01472
3539.37570,0.01546
3537.31552,0.01584
3535.25535,0.01585
3533.19518,0.01576
3531.13501,0.01581
3529.07484,0.01613
3527.01466,0.01658
3524.95449,0.01689
3522.89432,0.01713
3520.83415,0.01757
3518.77398,0.01814
3516.71380,0.01867
3514.65363,0.01908
3512.59346,0.01942
3510.53329,0.01995
3508.47312,0.02058
3506.41294,0.02086
3504.35277,0.02073
3502.29260,0.02080
3500.23243,0.02155
3498.17225,0.02267
3496.11208,0.02354
3494.05191,0.02392
3491.99174,0.02394
3489.93157,0.02382
3487.87139,0.02401
3485.81122,0.02457
3483.75105,0.02506
3481.69088,0.02554
3479.63071,0.02615
3477.57053,0.02676
3475.51036,0.02717
3473.45019,0.02721
3471.39002,0.02735
3469.32984,0.02805
3467.26967,0.02905
3465.20950,0.02974
3463.14933,0.02974
3461.08916,0.02949
3459.02898,0.02977
3456.96881,0.03056
3454.90864,0.03136
3452.84847,0.03167
3450.78830,0.03178
3448.72812,0.03231
3446.66795,0.03296
3444.60778,0.03329
3442.54761,0.03347
3440.48744,0.03359
3438.42726,0.03379
3436.36709,0.03419
3434.30692,0.03474
3432.24675,0.03540
3430.18657,0.03590
3428.12640,0.03613
3426.06623,0.03645
3424.00606,0.03715
3421.94589,0.03813
3419.88571,0.03861
3417.82554,0.03839
3415.76537,0.03843
3413.70520,0.03890
3411.64503,0.03936
3409.58485,0.03979
3407.52468,0.04000
3405.46451,0.03991
3403.40434,0.03986
3401.34416,0.04016
3399.28399,0.04052
3397.22382,0.04086
3395.16365,0.04112
3393.10348,0.04121
3391.04330,0.04135
3388.98313,0.04191
3386.92296,0.04259
3384.86279,0.04280
3382.80262,0.04283
3380.74244,0.04306
3378.68227,0.04332
3376.62210,0.04340
3374.56193,0.04347
3372.50176,0.04384
3370.44158,0.04440
3368.38141,0.04477
3366.32124,0.04494
3364.26107,0.04499
3362.20089,0.04507
3360.14072,0.04549
3358.08055,0.04593
3356.02038,0.04588
3353.96021,0.04559
3351.90003,0.04536
3349.83986,0.04536
3347.77969,0.04564
3345.71952,0.04604
3343.65935,0.04650
3341.59917,0.04711
3339.53900,0.04768
3337.47883,0.04758
3335.41866,0.04689
3333.35849,0.04657
3331.29831,0.04688
3329.23814,0.04731
3327.17797,0.04763
3325.11780,0.04793
3323.05762,0.04807
3320.99745,0.04781
3318.93728,0.04760
3316.87711,0.04794
3314.81694,0.04854
3312.75676,0.04886
3310.69659,0.04883
3308.63642,0.04860
3306.57625,0.04840
3304.51608,0.04848
3302.45590,0.04865
3300.39573,0.04860
3298.33556,0.04854
3296.27539,0.04878
3294.21521,0.04920
3292.15504,0.04954
3290.09487,0.04968
3288.03470,0.04964
3285.97453,0.04940
3283.91435,0.04901
3281.85418,0.04879
3279.79401,0.04908
3277.73384,0.04954
3275.67367,0.04967
3273.61349,0.04956
3271.55332,0.04931
3269.49315,0.04886
3267.43298,0.04850
3265.37281,0.04851
3263.31263,0.04864
3261.25246,0.04871
3259.19229,0.04888
3257.13212,0.04900
3255.07194,0.04892
3253.01177,0.04876
3250.95160,0.04849
3248.89143,0.04824
3246.83126,0.04827
3244.77108,0.04837
3242.71091,0.04808
3240.65074,0.04758
3238.59057,0.04717
3236.53040,0.04689
3234.47022,0.04715
3232.41005,0.04776
3230.34988,0.04798
3228.28971,0.04773
3226.22954,0.04739
3224.16936,0.04738
3222.10919,0.04767
3220.04902,0.04769
3217.98885,0.04724
3215.92867,0.04678
3213.86850,0.04655
3211.80833,0.04666
3209.74816,0.04692
3207.68799,0.04686
3205.62781,0.04646
3203.56764,0.04597
3201.50747,0.04573
3199.44730,0.04585
3197.38713,0.04600
3195.32695,0.04582
3193.26678,0.04534
3191.20661,0.04480
3189.14644,0.04424
3187.08626,0.04360
3185.02609,0.04309
3182.96592,0.04286
3180.90575,0.04277
3178.84558,0.04288
3176.78540,0.04298
3174.72523,0.04267
3172.66506,0.04223
3170.60489,0.04199
3168.54472,0.04196
3166.48454,0.04189
3164.42437,0.04172
3162.36420,0.04171
3160.30403,0.04172
3158.24386,0.04137
3156.18368,0.04075
3154.12351,0.04036
3152.06334,0.04029
3150.00317,0.03999
3147.94299,0.03933
3145.88282,0.03887
3143.82265,0.03881
3141.76248,0.03876
3139.70231,0.03846
3137.64213,0.03805
3135.58196,0.03770
3133.52179,0.03747
3131.46162,0.03735
3129.40145,0.03728
3127.34127,0.03717
3125.28110,0.03697
3123.22093,0.03673
3121.16076,0.03640
3119.10058,0.03584
3117.04041,0.03537
3114.98024,0.03530
3112.92007,0.03528
3110.85990,0.03507
3108.79972,0.03489
3106.73955,0.03476
3104.67938,0.03447
3102.61921,0.03413
3100.55904,0.03404
3098.49886,0.03413
3096.43869,0.03391
3094.37852,0.03334
3092.31835,0.03312
3090.25818,0.03330
3088.19800,0.03331
3086.13783,0.03305
3084.07766,0.03281
3082.01749,0.03261
3079.95731,0.03216
3077.89714,0.03160
3075.83697,0.03136
3073.77680,0.03150
3071.71663,0.03149
3069.65645,0.03099
3067.59628,0.03023
3065.53611,0.02938
3063.47594,0.02879
3061.41577,0.02876
3059.35559,0.02891
3057.29542,0.02875
3055.23525,0.02843
3053.17508,0.02831
3051.11491,0.02827
3049.05473,0.02789
3046.99456,0.02734
3044.93439,0.02712
3042.87422,0.02702
3040.81404,0.02648
3038.75387,0.02600
3036.69370,0.02612
3034.63353,0.02625
3032.57336,0.02591
3030.51318,0.02542
3028.45301,0.02516
3026.39284,0.02504
3024.33267,0.02494
3022.27250,0.02479
3020.21232,0.02445
3018.15215,0.02430
3016.09198,0.02469
3014.03181,0.02488
3011.97163,0.02429
3009.91146,0.02364
3007.85129,0.02355
3005.79112,0.02362
3003.73095,0.02341
3001.67077,0.02298
2999.61060,0.02266
2997.55043,0.02251
2995.49026,0.02232
2993.43009,0.02223
2991.36991,0.02238
2989.30974,0.02248
2987.24957,0.02241
2985.18940,0.02245
2983.12923,0.02259
2981.06905,0.02266
2979.00888,0.02282
2976.94871,0.02304
2974.88854,0.02321
2972.82836,0.02364
2970.76819,0.02458
2968.70802,0.02571
2966.64785,0.02676
2964.58768,0.02780
2962.52750,0.02885
2960.46733,0.02995
2958.40716,0.03119
2956.34699,0.03272
2954.28682,0.03458
2952.22664,0.03646
2950.16647,0.03825
2948.10630,0.04019
2946.04613,0.04209
2943.98596,0.04376
2941.92578,0.04554
2939.86561,0.04787
2937.80544,0.05060
2935.74527,0.05312
2933.68509,0.05533
2931.62492,0.05750
2929.56475,0.05940
2927.50458,0.06108
2925.44441,0.06266
2923.38423,0.06388
2921.32406,0.06465
2919.26389,0.06507
2917.20372,0.06486
2915.14355,0.06354
2913.08337,0.06130
2911.02320,0.05887
2908.96303,0.05665
2906.90286,0.05458
2904.84268,0.05280
2902.78251,0.05132
2900.72234,0.05015
2898.66217,0.04903
2896.60200,0.04757
2894.54182,0.04628
2892.48165,0.04555
2890.42148,0.04479
2888.36131,0.04373
2886.30114,0.04278
2884.24096,0.04208
2882.18079,0.04135
2880.12062,0.04072
2878.06045,0.04057
2876.00028,0.04080
2873.94010,0.04118
2871.87993,0.04155
2869.81976,0.04192
2867.75959,0.04245
2865.69941,0.04327
2863.63924,0.04444
2861.57907,0.04564
2859.51890,0.04680
2857.45873,0.04845
2855.39855,0.05035
2853.33838,0.05173
2851.27821,0.05238
2849.21804,0.05200
2847.15787,0.05026
2845.09769,0.04765
2843.03752,0.04500
2840.97735,0.04236
2838.91718,0.03972
2836.85700,0.03772
2834.79683,0.03634
2832.73666,0.03512
2830.67649,0.03406
2828.61632,0.03321
2826.55614,0.03258
2824.49597,0.03229
2822.43580,0.03198
2820.37563,0.03131
2818.31546,0.03056
2816.25528,0.02981
2814.19511,0.02909
2812.13494,0.02860
2810.07477,0.02823
2808.01460,0.02796
2805.95442,0.02800
2803.89425,0.02812
2801.83408,0.02791
2799.77391,0.02749
2797.71373,0.02717
2795.65356,0.02689
2793.59339,0.02660
2791.53322,0.02635
2789.47305,0.02593
2787.41287,0.02543
2785.35270,0.02532
2783.29253,0.02534
2781.23236,0.02499
2779.17219,0.02448
2777.11201,0.02416
2775.05184,0.02405
2772.99167,0.02403
2770.93150,0.02400
2768.87133,0.02399
2766.81115,0.02392
2764.75098,0.02366
2762.69081,0.02343
2760.63064,0.02340
2758.57046,0.02339
2756.51029,0.02339
2754.45012,0.02347
2752.38995,0.02351
2750.32978,0.02352
2748.26960,0.02343
2746.20943,0.02328
2744.14926,0.02324
2742.08909,0.02328
2740.02892,0.02319
2737.96874,0.02294
2735.90857,0.02261
2733.84840,0.02231
2731.78823,0.02211
2729.72805,0.02209
2727.66788,0.02219
2725.60771,0.02222
2723.54754,0.02217
2721.48737,0.02213
2719.42719,0.02205
2717.36702,0.02198
2715.30685,0.02173
2713.24668,0.02137
2711.18651,0.02135
2709.12633,0.02147
2707.06616,0.02156
2705.00599,0.02175
2702.94582,0.02188
2700.88565,0.02185
2698.82547,0.02177
2696.76530,0.02158
2694.70513,0.02143
2692.64496,0.02162
2690.58478,0.02175
2688.52461,0.02149
2686.46444,0.02112
2684.40427,0.02092
2682.34410,0.02091
2680.28392,0.02102
2678.22375,0.02117
2676.16358,0.02128
2674.10341,0.02111
2672.04324,0.02070
2669.98306,0.02048
2667.92289,0.02051
2665.86272,0.02051
2663.80255,0.02045
2661.74238,0.02035
2659.68220,0.02021
2657.62203,0.02024
2655.56186,0.02035
2653.50169,0.02034
2651.44151,0.02034
2649.38134,0.02029
2647.32117,0.01995
2645.26100,0.01959
2643.20083,0.01962
2641.14065,0.01989
2639.08048,0.01987
2637.02031,0.01958
2634.96014,0.01938
2632.89997,0.01902
2630.83979,0.01861
2628.77962,0.01853
2626.71945,0.01865
2624.65928,0.01886
2622.59910,0.01923
2620.53893,0.01927
2618.47876,0.01868
2616.41859,0.01813
2614.35842,0.01807
2612.29824,0.01802
2610.23807,0.01767
2608.17790,0.01754
2606.11773,0.01783
2604.05756,0.01782
2601.99738,0.01760
2599.93721,0.01764
2597.87704,0.01747
2595.81687,0.01717
2593.75670,0.01717
2591.69652,0.01720
2589.63635,0.01720
2587.57618,0.01690
2585.51601,0.01624
2583.45583,0.01609
2581.39566,0.01636
2579.33549,0.01638
2577.27532,0.01654
2575.21515,0.01687
2573.15497,0.01662
2571.09480,0.01606
2569.03463,0.01572
2566.97446,0.01571
2564.91429,0.01613
2562.85411,0.01633
2560.79394,0.01579
2558.73377,0.01522
2556.67360,0.01532
2554.61342,0.01573
2552.55325,0.01569
2550.49308,0.01519
2548.43291,0.01477
2546.37274,0.01466
2544.31256,0.01442
2542.25239,0.01419
2540.19222,0.01427
2538.13205,0.01431
2536.07188,0.01421
2534.01170,0.01407
2531.95153,0.01399
2529.89136,0.01421
2527.83119,0.01484
2525.77102,0.01540
2523.71084,0.01556
2521.65067,0.01531
2519.59050,0.01489
2517.53033,0.01489
2515.47015,0.01523
2513.40998,0.01540
2511.34981,0.01498
2509.28964,0.01397
2507.22947,0.01329
2505.16929,0.01371
2503.10912,0.01436
2501.04895,0.01406
2498.98878,0.01332
2496.92861,0.01313
2494.86843,0.01363
2492.80826,0.01409
2490.74809,0.01413
2488.68792,0.01415
2486.62775,0.01419
2484.56757,0.01394
2482.50740,0.01367
2480.44723,0.01367
2478.38706,0.01378
2476.32688,0.01352
2474.26671,0.01286
2472.20654,0.01260
2470.14637,0.01297
2468.08620,0.01341
2466.02602,0.01369
2463.96585,0.01383
2461.90568,0.01357
2459.84551,0.01298
2457.78534,0.01253
2455.72516,0.01242
2453.66499,0.01238
2451.60482,0.01248
2449.54465,0.01302
2447.48447,0.01319
2445.42430,0.01250
2443.36413,0.01197
2441.30396,0.01245
2439.24379,0.01342
2437.18361,0.01377
2435.12344,0.01321
2433.06327,0.01259
2431.00310,0.01241
2428.94293,0.01224
2426.88275,0.01168
2424.82258,0.01122
2422.76241,0.01143
2420.70224,0.01168
2418.64207,0.01163
2416.58189,0.01157
2414.52172,0.01154
2412.46155,0.01172
2410.40138,0.01184
2408.34120,0.01148
2406.28103,0.01127
2404.22086,0.01156
2402.16069,0.01157
2400.10052,0.01125
2398.04034,0.01126
2395.98017,0.01159
2393.92000,0.01189
2391.85983,0.01199
2389.79966,0.01191
2387.73948,0.01188
2385.67931,0.01213
2383.61914,0.01220
2381.55897,0.01182
2379.49880,0.01139
2377.43862,0.01116
2375.37845,0.01065
2373.31828,0.01115
2371.25811,0.01236
2369.19793,0.01173
2367.13776,0.01002
2365.07759,0.00935
2363.01742,0.00943
2360.95725,0.01370
2358.89707,0.01501
2356.83690,0.01331
2354.77673,0.01113
2352.71656,0.01016
2350.65639,0.01469
2348.59621,0.01750
2346.53604,0.01034
2344.47587,0.00951
2342.41570,0.01198
2340.35552,0.01298
2338.29535,0.01291
2336.23518,0.01233
2334.17501,0.01270
2332.11484,0.01235
2330.05466,0.01135
2327.99449,0.01019
2325.93432,0.01106
2323.87415,0.01062
2321.81398,0.01041
2319.75380,0.01007
2317.69363,0.01135
2315.63346,0.01182
2313.57329,0.01130
2311.51312,0.01104
2309.45294,0.01139
2307.39277,0.01186
2305.33260,0.01175
2303.27243,0.01144
2301.21225,0.01102
2299.15208,0.01099
2297.09191,0.01103
2295.03174,0.01089
2292.97157,0.01077
2290.91139,0.01055
2288.85122,0.01042
2286.79105,0.01055
2284.73088,0.01068
2282.67071,0.01052
2280.61053,0.01014
2278.55036,0.00992
2276.49019,0.00993
2274.43002,0.00985
2272.36984,0.00911
2270.30967,0.00800
2268.24950,0.00752
2266.18933,0.00812
2264.12916,0.00883
2262.06898,0.00867
2260.00881,0.00807
2257.94864,0.00820
2255.88847,0.00888
2253.82830,0.00914
2251.76812,0.00868
2249.70795,0.00793
2247.64778,0.00753
2245.58761,0.00792
2243.52744,0.00869
2241.46726,0.00884
2239.40709,0.00805
2237.34692,0.00695
2235.28675,0.00614
2233.22657,0.00631
2231.16640,0.00794
2229.10623,0.00936
2227.04606,0.00918
2224.98589,0.00866
2222.92571,0.00830
2220.86554,0.00755
2218.80537,0.00718
2216.74520,0.00779
2214.68503,0.00810
2212.62485,0.00772
2210.56468,0.00765
2208.50451,0.00811
2206.44434,0.00855
2204.38417,0.00861
2202.32399,0.00820
2200.26382,0.00740
2198.20365,0.00691
2196.14348,0.00672
2194.08330,0.00626
2192.02313,0.00650
2189.96296,0.00714
2187.90279,0.00675
2185.84262,0.00647
2183.78244,0.00780
2181.72227,0.00928
2179.66210,0.00827
2177.60193,0.00548
2175.54176,0.00412
2173.48158,0.00383
2171.42141,0.00321
2169.36124,0.00392
2167.30107,0.00539
2165.24089,0.00592
2163.18072,0.00670
2161.12055,0.00640
2159.06038,0.00324
2157.00021,0.00110
2154.94003,0.00222
2152.87986,0.00370
2150.81969,0.00373
2148.75952,0.00258
2146.69935,0.00112
2144.63917,0.00128
2142.57900,0.00261
2140.51883,0.00370
2138.45866,0.00451
2136.39849,0.00477
2134.33831,0.00470
2132.27814,0.00462
2130.21797,0.00494
2128.15780,0.00629
2126.09762,0.00782
2124.03745,0.00830
2121.97728,0.00774
2119.91711,0.00682
2117.85694,0.00586
2115.79676,0.00496
2113.73659,0.00457
2111.67642,0.00456
2109.61625,0.00398
2107.55608,0.00346
2105.49590,0.00448
2103.43573,0.00605
2101.37556,0.00614
2099.31539,0.00597
2097.25521,0.00641
2095.19504,0.00642
2093.13487,0.00653
2091.07470,0.00713
2089.01453,0.00727
2086.95435,0.00714
2084.89418,0.00694
2082.83401,0.00643
2080.77384,0.00575
2078.71367,0.00512
2076.65349,0.00509
2074.59332,0.00564
2072.53315,0.00627
2070.47298,0.00665
2068.41281,0.00664
2066.35263,0.00629
2064.29246,0.00597
2062.23229,0.00621
2060.17212,0.00659
2058.11194,0.00619
2056.05177,0.00506
2053.99160,0.00413
2051.93143,0.00414
2049.87126,0.00504
2047.81108,0.00557
2045.75091,0.00464
2043.69074,0.00296
2041.63057,0.00229
2039.57040,0.00344
2037.51022,0.00500
2035.45005,0.00571
2033.38988,0.00537
2031.32971,0.00477
2029.26954,0.00594
2027.20936,0.00747
2025.14919,0.00663
2023.08902,0.00419
2021.02885,0.00174
2018.96867,0.00108
2016.90850,0.00219
2014.84833,0.00342
2012.78816,0.00474
2010.72799,0.00496
2008.66781,0.00360
2006.60764,0.00264
2004.54747,0.00226
2002.48730,0.00158
2000.42713,0.00089
1998.36695,0.00140
1996.30678,0.00317
1994.24661,0.00379
1992.18644,0.00226
1990.12626,0.00136
1988.06609,0.00271
1986.00592,0.00407
1983.94575,0.00424
1981.88558,0.00411
1979.82540,0.00372
1977.76523,0.00363
1975.70506,0.00401
1973.64489,0.00371
1971.58472,0.00284
1969.52454,0.00227
1967.46437,0.00218
1965.40420,0.00315
1963.34403,0.00444
1961.28386,0.00393
1959.22368,0.00312
1957.16351,0.00384
1955.10334,0.00420
1953.04317,0.00373
1950.98299,0.00385
1948.92282,0.00465
1946.86265,0.00492
1944.80248,0.00392
1942.74231,0.00257
1940.68213,0.00198
1938.62196,0.00228
1936.56179,0.00334
1934.50162,0.00417
1932.44145,0.00400
1930.38127,0.00373
1928.32110,0.00401
1926.26093,0.00406
1924.20076,0.00362
1922.14059,0.00333
1920.08041,0.00354
1918.02024,0.00400
1915.96007,0.00434
1913.89990,0.00431
1911.83972,0.00411
1909.77955,0.00402
1907.71938,0.00408
1905.65921,0.00419
1903.59904,0.00395
1901.53886,0.00342
1899.47869,0.00293
1897.41852,0.00234
1895.35835,0.00197
1893.29818,0.00247
1891.23800,0.00330
1889.17783,0.00364
1887.11766,0.00364
1885.05749,0.00352
1882.99731,0.00319
1880.93714,0.00295
1878.87697,0.00300
1876.81680,0.00305
1874.75663,0.00297
1872.69645,0.00289
1870.63628,0.00276
1868.57611,0.00247
1866.51594,0.00238
1864.45577,0.00270
1862.39559,0.00307
1860.33542,0.00300
1858.27525,0.00262
1856.21508,0.00224
1854.15491,0.00190
1852.09473,0.00166
1850.03456,0.00155
1847.97439,0.00151
1845.91422,0.00168
1843.85404,0.00218
1841.79387,0.00277
1839.73370,0.00312
1837.67353,0.00306
1835.61336,0.00281
1833.55318,0.00264
1831.49301,0.00244
1829.43284,0.00208
1827.37267,0.00194
1825.31250,0.00218
1823.25232,0.00239
1821.19215,0.00213
1819.13198,0.00147
1817.07181,0.00095
1815.01163,0.00077
1812.95146,0.00076
1810.89129,0.00101
1808.83112,0.00160
1806.77095,0.00212
1804.71077,0.00217
1802.65060,0.00186
1800.59043,0.00153
1798.53026,0.00131
1796.47009,0.00118
1794.40991,0.00105
1792.34974,0.00094
1790.28957,0.00097
1788.22940,0.00096
1786.16923,0.00077
1784.10905,0.00047
1782.04888,0.00014
1779.98871,0.00000
1777.92854,0.00017
1775.86836,0.00050
1773.80819,0.00071
1771.74802,0.00073
1769.68785,0.00062
1767.62768,0.00049
1765.56750,0.00060
1763.50733,0.00115
1761.44716,0.00209
1759.38699,0.00308
1757.32682,0.00402
1755.26664,0.00490
1753.20647,0.00592
1751.14630,0.00746
1749.08613,0.00908
1747.02596,0.01004
1744.96578,0.01061
1742.90561,0.01131
1740.84544,0.01226
1738.78527,0.01321
1736.72509,0.01398
1734.66492,0.01478
1732.60475,0.01534
1730.54458,0.01532
1728.48441,0.01514
1726.42423,0.01505
1724.36406,0.01498
1722.30389,0.01504
1720.24372,0.01544
1718.18355,0.01609
1716.12337,0.01668
1714.06320,0.01693
1712.00303,0.01688
1709.94286,0.01682
1707.88268,0.01681
1705.82251,0.01663
1703.76234,0.01627
1701.70217,0.01610
1699.64200,0.01627
1697.58182,0.01660
1695.52165,0.01700
1693.46148,0.01733
1691.40131,0.01769
1689.34114,0.01864
1687.28096,0.02050
1685.22079,0.02318
1683.16062,0.02593
1681.10045,0.02784
1679.04028,0.02935
1676.98010,0.03077
1674.91993,0.03197
1672.85976,0.03284
1670.79959,0.03334
1668.73941,0.03327
1666.67924,0.03266
1664.61907,0.03183
1662.55890,0.03077
1660.49873,0.02962
1658.43855,0.02891
1656.37838,0.02872
1654.31821,0.02860
1652.25804,0.02825
1650.19787,0.02799
1648.13769,0.02778
1646.07752,0.02759
1644.01735,0.02774
1641.95718,0.02808
1639.89701,0.02843
1637.83683,0.02900
1635.77666,0.03006
1633.71649,0.03135
1631.65632,0.03224
1629.59614,0.03271
1627.53597,0.03300
1625.47580,0.03328
1623.41563,0.03360
1621.35546,0.03394
1619.29528,0.03429
1617.23511,0.03477
1615.17494,0.03546
1613.11477,0.03634
1611.05460,0.03764
1608.99442,0.03936
1606.93425,0.04091
1604.87408,0.04157
1602.81391,0.04119
1600.75373,0.04008
1598.69356,0.03871
1596.63339,0.03742
1594.57322,0.03624
1592.51305,0.03505
1590.45287,0.03390
1588.39270,0.03288
1586.33253,0.03198
1584.27236,0.03115
1582.21219,0.03035
1580.15201,0.02962
1578.09184,0.02893
1576.03167,0.02819
1573.97150,0.02758
1571.91133,0.02704
1569.85115,0.02627
1567.79098,0.02526
1565.73081,0.02421
1563.67064,0.02328
1561.61046,0.02238
1559.55029,0.02106
1557.49012,0.01964
1555.42995,0.01899
1553.36978,0.01847
1551.30960,0.01774
1549.24943,0.01693
1547.18926,0.01614
1545.12909,0.01540
1543.06892,0.01476
1541.00874,0.01402
1538.94857,0.01294
1536.88840,0.01218
1534.82823,0.01182
1532.76805,0.01129
1530.70788,0.01052
1528.64771,0.00979
1526.58754,0.00925
1524.52737,0.00930
1522.46719,0.01026
1520.40702,0.01188
1518.34685,0.01351
1516.28668,0.01471
1514.22651,0.01512
1512.16633,0.01486
1510.10616,0.01413
1508.04599,0.01246
1505.98582,0.00994
1503.92565,0.00813
1501.86547,0.00719
1499.80530,0.00641
1497.74513,0.00535
1495.68496,0.00412
1493.62478,0.00329
1491.56461,0.00298
1489.50444,0.00272
1487.44427,0.00229
1485.38410,0.00187
1483.32392,0.00160
1481.26375,0.00173
1479.20358,0.00235
1477.14341,0.00324
1475.08324,0.00445
1473.02306,0.00629
1470.96289,0.00854
1468.90272,0.01065
1466.84255,0.01267
1464.78238,0.01453
1462.72220,0.01577
1460.66203,0.01648
1458.60186,0.01736
1456.54169,0.01855
1454.48151,0.01936
1452.42134,0.02001
1450.36117,0.02097
1448.30100,0.02209
1446.24083,0.02307
1444.18065,0.02395
1442.12048,0.02502
1440.06031,0.02620
1438.00014,0.02720
1435.93997,0.02792
1433.87979,0.02845
1431.81962,0.02889
1429.75945,0.02928
1427.69928,0.02958
1425.63910,0.02978
1423.57893,0.02979
1421.51876,0.02958
1419.45859,0.02942
1417.39842,0.02959
1415.33824,0.02980
1413.27807,0.02971
1411.21790,0.02936
1409.15773,0.02890
1407.09756,0.02828
1405.03738,0.02734
1402.97721,0.02637
1400.91704,0.02568
1398.85687,0.02494
1396.79670,0.02382
1394.73652,0.02264
1392.67635,0.02203
1390.61618,0.02212
1388.55601,0.02261
1386.49583,0.02328
1384.43566,0.02395
1382.37549,0.02458
1380.31532,0.02525
1378.25515,0.02592
1376.19497,0.02650
1374.13480,0.02697
1372.07463,0.02722
1370.01446,0.02714
1367.95429,0.02682
1365.89411,0.02642
1363.83394,0.02593
1361.77377,0.02547
1359.71360,0.02529
1357.65343,0.02537
1355.59325,0.02554
1353.53308,0.02558
1351.47291,0.02535
1349.41274,0.02504
1347.35256,0.02485
1345.29239,0.02480
1343.23222,0.02486
1341.17205,0.02491
1339.11188,0.02476
1337.05170,0.02466
1334.99153,0.02482
1332.93136,0.02489
1330.87119,0.02464
1328.81102,0.02444
1326.75084,0.02460
1324.69067,0.02488
1322.63050,0.02479
1320.57033,0.02445
1318.51015,0.02430
1316.44998,0.02430
1314.38981,0.02420
1312.32964,0.02406
1310.26947,0.02393
1308.20929,0.02367
1306.14912,0.02320
1304.08895,0.02256
1302.02878,0.02172
1299.96861,0.02067
1297.90843,0.01971
1295.84826,0.01931
1293.78809,0.01952
1291.72792,0.01996
1289.66775,0.02020
1287.60757,0.02023
1285.54740,0.02036
1283.48723,0.02063
1281.42706,0.02094
1279.36688,0.02125
1277.30671,0.02150
1275.24654,0.02166
1273.18637,0.02171
1271.12620,0.02169
1269.06602,0.02187
1267.00585,0.02264
1264.94568,0.02389
1262.88551,0.02509
1260.82534,0.02591
1258.76516,0.02639
1256.70499,0.02679
1254.64482,0.02732
1252.58465,0.02795
1250.52447,0.02855
1248.46430,0.02898
1246.40413,0.02923
1244.34396,0.02933
1242.28379,0.02946
1240.22361,0.02980
1238.16344,0.03008
1236.10327,0.03007
1234.04310,0.02969
1231.98293,0.02895
1229.92275,0.02803
1227.86258,0.02691
1225.80241,0.02561
1223.74224,0.02438
1221.68207,0.02330
1219.62189,0.02217
1217.56172,0.02082
1215.50155,0.01913
1213.44138,0.01728
1211.38120,0.01577
1209.32103,0.01470
1207.26086,0.01360
1205.20069,0.01209
1203.14052,0.01034
1201.08034,0.00851
1199.02017,0.00672
1196.96000,0.00528
1194.89983,0.00404
1192.83966,0.00275
1190.77948,0.00168
1188.71931,0.00100
1186.65914,0.00052
1184.59897,0.00014
1182.53880,0.00000
1180.47862,0.00030
1178.41845,0.00106
1176.35828,0.00206
1174.29811,0.00366
1172.23793,0.00608
1170.17776,0.00887
1168.11759,0.01112
1166.05742,0.01226
1163.99725,0.01266
1161.93707,0.01292
1159.87690,0.01337
1157.81673,0.01402
1155.75656,0.01468
1153.69639,0.01544
1151.63621,0.01649
1149.57604,0.01782
1147.51587,0.01917
1145.45570,0.02030
1143.39552,0.02120
1141.33535,0.02200
1139.27518,0.02283
1137.21501,0.02378
1135.15484,0.02464
1133.09466,0.02531
1131.03449,0.02607
1128.97432,0.02706
1126.91415,0.02834
1124.85398,0.02990
1122.79380,0.03155
1120.73363,0.03320
1118.67346,0.03468
1116.61329,0.03576
1114.55312,0.03668
1112.49294,0.03793
1110.43277,0.03946
1108.37260,0.04059
1106.31243,0.04147
1104.25225,0.04282
1102.19208,0.04439
1100.13191,0.04592
1098.07174,0.04777
1096.01157,0.04997
1093.95139,0.05228
1091.89122,0.05458
1089.83105,0.05680
1087.77088,0.05882
1085.71071,0.06092
1083.65053,0.06346
1081.59036,0.06595
1079.53019,0.06811
1077.47002,0.07052
1075.40985,0.07345
1073.34967,0.07616
1071.28950,0.07821
1069.22933,0.07999
1067.16916,0.08181
1065.10898,0.08365
1063.04881,0.08542
1060.98864,0.08731
1058.92847,0.08924
1056.86830,0.09086
1054.80812,0.09231
1052.74795,0.09417
1050.68778,0.09665
1048.62761,0.09939
1046.56744,0.10248
1044.50726,0.10583
1042.44709,0.10893
1040.38692,0.11182
1038.32675,0.11447
1036.26657,0.11636
1034.20640,0.11741
1032.14623,0.11808
1030.08606,0.11872
1028.02589,0.11902
1025.96571,0.11877
1023.90554,0.11823
1021.84537,0.11745
1019.78520,0.11694
1017.72503,0.11706
1015.66485,0.11733
1013.60468,0.11741
1011.54451,0.11736
1009.48434,0.11725
1007.42417,0.11721
1005.36399,0.11734
1003.30382,0.11731
1001.24365,0.11666
999.18348,0.11533
997.12330,0.11362
995.06313,0.11154
993.00296,0.10921
990.94279,0.10724
988.88262,0.10558
986.82244,0.10374
984.76227,0.10193
982.70210,0.10060
980.64193,0.09952
978.58176,0.09822
976.52158,0.09653
974.46141,0.09468
972.40124,0.09284
970.34107,0.09085
968.28089,0.08873
966.22072,0.08668
964.16055,0.08468
962.10038,0.08256
960.04021,0.08060
957.98003,0.07911
955.91986,0.07781
953.85969,0.07665
951.79952,0.07564
949.73935,0.07402
947.67917,0.07170
945.61900,0.06968
943.55883,0.06800
941.49866,0.06566
939.43849,0.06263
937.37831,0.05925
935.31814,0.05556
933.25797,0.05175
931.19780,0.04792
929.13762,0.04423
927.07745,0.04120
925.01728,0.03901
922.95711,0.03732
920.89694,0.03587
918.83676,0.03429
916.77659,0.03222
914.71642,0.02976
912.65625,0.02741
910.59608,0.02553
908.53590,0.02407
906.47573,0.02303
904.41556,0.02223
902.35539,0.02146
900.29522,0.02081
898.23504,0.02038
896.17487,0.02044
894.11470,0.02115
892.05453,0.02185
889.99435,0.02176
887.93418,0.02104
885.87401,0.02007
883.81384,0.01885
881.75367,0.01752
879.69349,0.01608
877.63332,0.01473
875.57315,0.01370
873.51298,0.01270
871.45281,0.01189
869.39263,0.01165
867.33246,0.01123
865.27229,0.01014
863.21212,0.00902
861.15194,0.00848
859.09177,0.00870
857.03160,0.00916
854.97143,0.00938
852.91126,0.00956
850.85108,0.00974
848.79091,0.00979
846.73074,0.00970
844.67057,0.00912
842.61040,0.00814
840.55022,0.00763
838.49005,0.00788
836.42988,0.00805
834.36971,0.00782
832.30954,0.00720
830.24936,0.00616
828.18919,0.00536
826.12902,0.00513
824.06885,0.00515
822.00867,0.00501
819.94850,0.00454
817.88833,0.00416
815.82816,0.00432
813.76799,0.00479
811.70781,0.00448
809.64764,0.00349
807.58747,0.00294
805.52730,0.00293
803.46713,0.00315
801.40695,0.00309
799.34678,0.00258
797.28661,0.00217
795.22644,0.00185
793.16627,0.00088
791.10609,0.00000
789.04592,0.00038
786.98575,0.00097
784.92558,0.00097
782.86540,0.00117
780.80523,0.00150
778.74506,0.00151
776.68489,0.00185
774.62472,0.00257
772.56454,0.00241
770.50437,0.00150
768.44420,0.00116
766.38403,0.00168
764.32386,0.00220
762.26368,0.00197
760.20351,0.00130
758.14334,0.00061
756.08317,0.00025
754.02299,0.00024
751.96282,0.00000
749.90265,-0.00032
747.84248,-0.00020
745.78231,-0.00013
743.72213,-0.00013
741.66196,-0.00029
739.60179,-0.00095
737.54162,-0.00154
735.48145,-0.00110
733.42127,0.00011
731.36110,0.00030
729.30093,-0.00052
727.24076,-0.00032
725.18059,0.00121
723.12041,0.00324
721.06024,0.00331
719.00007,0.00362
716.93990,0.00410
714.87972,0.00452
712.81955,0.00528
710.75938,0.00660
708.69921,0.00848
706.63904,0.01007
704.57886,0.01039
702.51869,0.00972
700.45852,0.00928
698.39835,0.00926
696.33818,0.00924
694.27800,0.00964
692.21783,0.01087
690.15766,0.01204
688.09749,0.01247
686.03731,0.01234
683.97714,0.01181
681.91697,0.01134
679.85680,0.01116
677.79663,0.01077
675.73645,0.01024
673.67628,0.01156
671.61611,0.01502
669.55594,0.00816
667.49577,0.00000
665.43559,0.01351
663.37542,0.01229
661.31525,0.00979
659.25508,0.00970
657.19491,0.00959
655.13473,0.00903
653.07456,0.00839
651.01439,0.00858
648.95422,0.00874
646.89404,0.00783
644.83387,0.00615
642.77370,0.00601
640.71353,0.00607
638.65336,0.00522
636.59318,0.00586
634.53301,0.00881
632.47284,0.01048
630.41267,0.00898
628.35250,0.00569
626.29232,0.00225
624.23215,0.00055
622.17198,0.00131
620.11181,0.00303
618.05164,0.00401
615.99146,0.00212
613.93129,0.00055
611.87112,0.00256
609.81095,0.00386
607.75077,0.00309
605.69060,0.00335
603.63043,0.00417
601.57026,0.00389
599.51009,0.00000
