3996.73391,0.00051
3994.67373,0.00039
3992.61356,0.00047
3990.55339,0.00046
3988.49322,0.00030
3986.43305,0.00009
3984.37287,0.00000
3982.31270,0.00023
3980.25253,0.00046
3978.19236,0.00037
3976.13219,0.00028
3974.07201,0.00058
3972.01184,0.00105
3969.95167,0.00129
3967.89150,0.00133
3965.83133,0.00129
3963.77115,0.00109
3961.71098,0.00086
3959.65081,0.00088
3957.59064,0.00098
3955.53046,0.00091
3953.47029,0.00079
3951.41012,0.00079
3949.34995,0.00097
3947.28978,0.00141
3945.22960,0.00188
3943.16943,0.00187
3941.10926,0.00142
3939.04909,0.00095
3936.98892,0.00064
3934.92874,0.00045
3932.86857,0.00037
3930.80840,0.00045
3928.74823,0.00069
3926.68805,0.00104
3924.62788,0.00104
3922.56771,0.00040
3920.50754,0.00000
3918.44737,0.00054
3916.38719,0.00160
3914.32702,0.00199
3912.26685,0.00135
3910.20668,0.00076
3908.14651,0.00099
3906.08633,0.00148
3904.02616,0.00159
3901.96599,0.00156
3899.90582,0.00152
3897.84565,0.00128
3895.78547,0.00117
3893.72530,0.00141
3891.66513,0.00163
3889.60496,0.00160
3887.54478,0.00146
3885.48461,0.00110
3883.42444,0.00061
3881.36427,0.00047
3879.30410,0.00079
3877.24392,0.00125
3875.18375,0.00134
3873.12358,0.00099
3871.06341,0.00068
3869.00324,0.00077
3866.94306,0.00126
3864.88289,0.00186
3862.82272,0.00212
3860.76255,0.00201
3858.70237,0.00168
3856.64220,0.00120
3854.58203,0.00049
3852.52186,0.00000
3850.46169,0.00042
3848.40151,0.00112
3846.34134,0.00170
3844.28117,0.00219
3842.22100,0.00239
3840.16083,0.00231
3838.10065,0.00211
3836.04048,0.00132
3833.98031,0.00032
3831.92014,0.00024
3829.85997,0.00110
3827.79979,0.00186
3825.73962,0.00196
3823.67945,0.00165
3821.61928,0.00130
3819.55910,0.00122
3817.49893,0.00155
3815.43876,0.00198
3813.37859,0.00206
3811.31842,0.00193
3809.25824,0.00179
3807.19807,0.00137
3805.13790,0.00053
3803.07773,0.00000
3801.01756,0.00052
3798.95738,0.00154
3796.89721,0.00191
3794.83704,0.00162
3792.77687,0.00127
3790.71670,0.00114
3788.65652,0.00121
3786.59635,0.00140
3784.53618,0.00143
3782.47601,0.00127
3780.41583,0.00135
3778.35566,0.00166
3776.29549,0.00177
3774.23532,0.00156
3772.17515,0.00134
3770.11497,0.00138
3768.05480,0.00147
3765.99463,0.00134
3763.93446,0.00118
3761.87429,0.00123
3759.81411,0.00153
3757.75394,0.00168
3755.69377,0.00146
3753.63360,0.00114
3751.57342,0.00075
3749.51325,0.00029
3747.45308,0.00017
3745.39291,0.00035
3743.33274,0.00081
3741.27256,0.00129
3739.21239,0.00115
3737.15222,0.00045
3735.09205,0.00039
3733.03188,0.00131
3730.97170,0.00203
3728.91153,0.00210
3726.85136,0.00187
3724.79119,0.00174
3722.73102,0.00180
3720.67084,0.00199
3718.61067,0.00202
3716.55050,0.00180
3714.49033,0.00146
3712.43015,0.00107
3710.36998,0.00102
3708.30981,0.00140
3706.24964,0.00175
3704.18947,0.00174
3702.12929,0.00159
3700.06912,0.00154
3698.00895,0.00129
3695.94878,0.00082
3693.88861,0.00058
3691.82843,0.00072
3689.76826,0.00090
3687.70809,0.00097
3685.64792,0.00104
3683.58775,0.00127
3681.52757,0.00170
3679.46740,0.00206
3677.40723,0.00187
3675.34706,0.00122
3673.28688,0.00085
3671.22671,0.00085
3669.16654,0.00079
3667.10637,0.00071
3665.04620,0.00098
3662.98602,0.00149
3660.92585,0.00174
3658.86568,0.00152
3656.80551,0.00101
3654.74534,0.00043
3652.68516,0.00000
3650.62499,0.00028
3648.56482,0.00159
3646.50465,0.00269
3644.44447,0.00279
3642.38430,0.00271
3640.32413,0.00279
3638.26396,0.00259
3636.20379,0.00233
3634.14361,0.00273
3632.08344,0.00370
3630.02327,0.00417
3627.96310,0.00346
3625.90293,0.00253
3623.84275,0.00226
3621.78258,0.00257
3619.72241,0.00332
3617.66224,0.00399
3615.60207,0.00401
3613.54189,0.00397
3611.48172,0.00423
3609.42155,0.00443
3607.36138,0.00440
3605.30120,0.00445
3603.24103,0.00479
3601.18086,0.00521
3599.12069,0.00538
3597.06052,0.00523
3595.00034,0.00516
3592.94017,0.00512
3590.88000,0.00512
3588.81983,0.00568
3586.75966,0.00690
3584.69948,0.00773
3582.63931,0.00791
3580.57914,0.00797
3578.51897,0.00801
3576.45879,0.00812
3574.39862,0.00861
3572.33845,0.00948
3570.27828,0.01016
3568.21811,0.01003
3566.15793,0.00928
3564.09776,0.00886
3562.03759,0.00916
3559.97742,0.01001
3557.91725,0.01112
3555.85707,0.01216
3553.79690,0.01272
3551.73673,0.01272
3549.67656,0.01263
3547.61639,0.01287
3545.55621,0.01335
3543.49604,0.01384
3541.43587,0.01451
3539.37570,0.01538
3537.31552,0.01600
3535.25535,0.01616
3533.19518,0.01605
3531.13501,0.01593
3529.07484,0.01603
3527.01466,0.01634
3524.95449,0.01664
3522.89432,0.01687
3520.83415,0.01725
3518.77398,0.01782
3516.71380,0.01843
3514.65363,0.01897
3512.59346,0.01954
3510.53329,0.02038
3508.47312,0.02127
3506.41294,0.02177
3504.35277,0.02177
3502.29260,0.02163
3500.23243,0.02200
3498.17225,0.02306
3496.11208,0.02423
3494.05191,0.02500
3491.99174,0.02519
3489.93157,0.02485
3487.87139,0.02444
3485.81122,0.02439
3483.75105,0.02474
3481.69088,0.02552
3479.63071,0.02650
3477.57053,0.02718
3475.51036,0.02748
3473.45019,0.02753
3471.39002,0.02767
3469.32984,0.02813
3467.26967,0.02883
3465.20950,0.02939
3463.14933,0.02942
3461.08916,0.02926
3459.02898,0.02971
3456.96881,0.03083
3454.90864,0.03187
3452.84847,0.03212
3450.78830,0.03220
3448.72812,0.03267
3446.66795,0.03299
3444.60778,0.03318
3442.54761,0.03353
3440.48744,0.03369
3438.42726,0.03393
3436.36709,0.03456
3434.30692,0.03516
3432.24675,0.03553
3430.18657,0.03582
3428.12640,0.03614
3426.06623,0.03660
3424.00606,0.03742
3421.94589,0.03846
3419.88571,0.03898
3417.82554,0.03869
3415.76537,0.03850
3413.70520,0.03887
3411.64503,0.03949
3409.58485,0.03998
3407.52468,0.04001
3405.46451,0.03992
3403.40434,0.04001
3401.34416,0.04008
3399.28399,0.04014
3397.22382,0.04046
3395.16365,0.04096
3393.10348,0.04147
3391.04330,0.04186
3388.98313,0.04224
3386.92296,0.04267
3384.86279,0.04271
3382.80262,0.04248
3380.74244,0.04270
3378.68227,0.04327
3376.62210,0.04362
3374.56193,0.04373
3372.50176,0.04404
3370.44158,0.04462
3368.38141,0.04508
3366.32124,0.04520
3364.26107,0.04503
3362.20089,0.04485
3360.14072,0.04506
3358.08055,0.04540
3356.02038,0.04542
3353.96021,0.04531
3351.90003,0.04534
3349.83986,0.04562
3347.77969,0.04600
3345.71952,0.04616
3343.65935,0.04626
3341.59917,0.04647
3339.53900,0.04669
3337.47883,0.04675
3335.41866,0.04668
3333.35849,0.04702
3331.29831,0.04776
3329.23814,0.04820
3327.17797,0.04811
3325.11780,0.04779
3323.05762,0.04746
3320.99745,0.04713
3318.93728,0.04712
3316.87711,0.04764
3314.81694,0.04820
3312.75676,0.04839
3310.69659,0.04838
3308.63642,0.04835
3306.57625,0.04835
3304.51608,0.04835
3302.45590,0.04827
3300.39573,0.04835
3298.33556,0.04859
3296.27539,0.04872
3294.21521,0.04866
3292.15504,0.04865
3290.09487,0.04904
3288.03470,0.04947
3285.97453,0.04931
3283.91435,0.04880
3281.85418,0.04859
3279.79401,0.04888
3277.73384,0.04934
3275.67367,0.04948
3273.61349,0.04922
3271.55332,0.04882
3269.49315,0.04855
3267.43298,0.04849
3265.37281,0.04856
3263.31263,0.04857
3261.25246,0.04856
3259.19229,0.04873
3257.13212,0.04887
3255.07194,0.04880
3253.01177,0.04871
3250.95160,0.04859
3248.89143,0.04856
3246.83126,0.04872
3244.77108,0.04855
3242.71091,0.04796
3240.65074,0.04752
3238.59057,0.04712
3236.53040,0.04675
3234.47022,0.04714
3232.41005,0.04801
3230.34988,0.04826
3228.28971,0.04781
3226.22954,0.04731
3224.16936,0.04709
3222.10919,0.04713
3220.04902,0.04723
3217.98885,0.04709
3215.92867,0.04672
3213.86850,0.04621
3211.80833,0.04593
3209.74816,0.04610
3207.68799,0.04615
3205.62781,0.04597
3203.56764,0.04594
3201.50747,0.04593
3199.44730,0.04573
3197.38713,0.04564
3195.32695,0.04578
3193.26678,0.04578
3191.20661,0.04533
3189.14644,0.04455
3187.08626,0.04371
3185.02609,0.04311
3182.96592,0.04287
3180.90575,0.04293
3178.84558,0.04323
3176.78540,0.04315
3174.72523,0.04245
3172.66506,0.04196
3170.60489,0.04196
3168.54472,0.04197
3166.48454,0.04181
3164.42437,0.04161
3162.36420,0.04166
3160.30403,0.04180
3158.24386,0.04163
3156.18368,0.04118
3154.12351,0.04074
3152.06334,0.04041
3150.00317,0.03994
3147.94299,0.03936
3145.88282,0.03903
3143.82265,0.03888
3141.76248,0.03866
3139.70231,0.03833
3137.64213,0.03787
3135.58196,0.03739
3133.52179,0.03714
3131.46162,0.03713
3129.40145,0.03724
3127.34127,0.03735
3125.28110,0.03721
3123.22093,0.03681
3121.16076,0.03650
3119.10058,0.03623
3117.04041,0.03585
3114.98024,0.03546
3112.92007,0.03519
3110.85990,0.03512
3108.79972,0.03520
3106.73955,0.03501
3104.67938,0.03437
3102.61921,0.03378
3100.55904,0.03379
3098.49886,0.03408
3096.43869,0.03384
3094.37852,0.03313
3092.31835,0.03279
3090.25818,0.03292
3088.19800,0.03300
3086.13783,0.03288
3084.07766,0.03270
3082.01749,0.03245
3079.95731,0.03203
3077.89714,0.03157
3075.83697,0.03133
3073.77680,0.03135
3071.71663,0.03126
3069.65645,0.03081
3067.59628,0.03012
3065.53611,0.02931
3063.47594,0.02866
3061.41577,0.02854
3059.35559,0.02881
3057.29542,0.02894
3055.23525,0.02871
3053.17508,0.02846
3051.11491,0.02827
3049.05473,0.02781
3046.99456,0.02726
3044.93439,0.02722
3042.87422,0.02741
3040.81404,0.02700
3038.75387,0.02631
3036.69370,0.02624
3034.63353,0.02650
3032.57336,0.02628
3030.51318,0.02570
3028.45301,0.02545
3026.39284,0.02554
3024.33267,0.02548
3022.27250,0.02515
3020.21232,0.02471
3018.15215,0.02447
3016.09198,0.02473
3014.03181,0.02496
3011.97163,0.02453
3009.91146,0.02393
3007.85129,0.02361
3005.79112,0.02336
3003.73095,0.02304
3001.67077,0.02258
2999.61060,0.02214
2997.55043,0.02195
2995.49026,0.02206
2993.43009,0.02232
2991.36991,0.02249
2989.30974,0.02248
2987.24957,0.02252
2985.18940,0.02270
2983.12923,0.02276
2981.06905,0.02261
2979.00888,0.02246
2976.94871,0.02259
2974.88854,0.02303
2972.82836,0.02388
2970.76819,0.02488
2968.70802,0.02575
2966.64785,0.02676
2964.58768,0.02793
2962.52750,0.02891
2960.46733,0.02988
2958.40716,0.03107
2956.34699,0.03253
2954.28682,0.03426
2952.22664,0.03603
2950.16647,0.03786
2948.10630,0.03982
2946.04613,0.04174
2943.98596,0.04353
2941.92578,0.04529
2939.86561,0.04753
2937.80544,0.05039
2935.74527,0.05296
2933.68509,0.05496
2931.62492,0.05697
2929.56475,0.05886
2927.50458,0.06033
2925.44441,0.06153
2923.38423,0.06264
2921.32406,0.06366
2919.26389,0.06450
2917.20372,0.06451
2915.14355,0.06309
2913.08337,0.06087
2911.02320,0.05866
2908.96303,0.05651
2906.90286,0.05444
2904.84268,0.05271
2902.78251,0.05114
2900.72234,0.04972
2898.66217,0.04859
2896.60200,0.04746
2894.54182,0.04633
2892.48165,0.04542
2890.42148,0.04447
2888.36131,0.04347
2886.30114,0.04272
2884.24096,0.04209
2882.18079,0.04139
2880.12062,0.04078
2878.06045,0.04050
2876.00028,0.04037
2873.94010,0.04037
2871.87993,0.04066
2869.81976,0.04122
2867.75959,0.04204
2865.69941,0.04288
2863.63924,0.04386
2861.57907,0.04519
2859.51890,0.04661
2857.45873,0.04818
2855.39855,0.05010
2853.33838,0.05183
2851.27821,0.05249
2849.21804,0.05168
2847.15787,0.04977
2845.09769,0.04738
2843.03752,0.04479
2840.97735,0.04202
2838.91718,0.03940
2836.85700,0.03747
2834.79683,0.03614
2832.73666,0.03488
2830.67649,0.03357
2828.61632,0.03258
2826.55614,0.03217
2824.49597,0.03208
2822.43580,0.03175
2820.37563,0.03110
2818.31546,0.03055
2816.25528,0.03007
2814.19511,0.02946
2812.13494,0.02885
2810.07477,0.02829
2808.01460,0.02792
2805.95442,0.02786
2803.89425,0.02788
2801.83408,0.02772
2799.77391,0.02724
2797.71373,0.02663
2795.65356,0.02616
2793.59339,0.02607
2791.53322,0.02611
2789.47305,0.02575
2787.41287,0.02527
2785.35270,0.02528
2783.29253,0.02533
2781.23236,0.02486
2779.17219,0.02431
2777.11201,0.02399
2775.05184,0.02384
2772.99167,0.02384
2770.93150,0.02385
2768.87133,0.02383
2766.81115,0.02381
2764.75098,0.02367
2762.69081,0.02346
2760.63064,0.02327
2758.57046,0.02297
2756.51029,0.02281
2754.45012,0.02306
2752.38995,0.02341
2750.32978,0.02352
2748.26960,0.02336
2746.20943,0.02314
2744.14926,0.02298
2742.08909,0.02291
2740.02892,0.02289
2737.96874,0.02287
2735.90857,0.02260
2733.84840,0.02209
2731.78823,0.02169
2729.72805,0.02171
2727.66788,0.02209
2725.60771,0.02228
2723.54754,0.02208
2721.48737,0.02178
2719.42719,0.02160
2717.36702,0.02163
2715.30685,0.02151
2713.24668,0.02115
2711.18651,0.02107
2709.12633,0.02127
2707.06616,0.02144
2705.00599,0.02147
2702.94582,0.02141
2700.88565,0.02133
2698.82547,0.02123
2696.76530,0.02112
2694.70513,0.02115
2692.64496,0.02125
2690.58478,0.02114
2688.52461,0.02097
2686.46444,0.02091
2684.40427,0.02074
2682.34410,0.02055
2680.28392,0.02064
2678.22375,0.02100
2676.16358,0.02126
2674.10341,0.02116
2672.04324,0.02079
2669.98306,0.02051
2667.92289,0.02042
2665.86272,0.02030
2663.80255,0.02016
2661.74238,0.02004
2659.68220,0.01990
2657.62203,0.01979
2655.56186,0.01974
2653.50169,0.01979
2651.44151,0.02001
2649.38134,0.02008
2647.32117,0.01987
2645.26100,0.01976
2643.20083,0.01989
2641.14065,0.01998
2639.08048,0.01974
2637.02031,0.01939
2634.96014,0.01928
2632.89997,0.01914
2630.83979,0.01884
2628.77962,0.01871
2626.71945,0.01851
2624.65928,0.01820
2622.59910,0.01828
2620.53893,0.01837
2618.47876,0.01816
2616.41859,0.01811
2614.35842,0.01833
2612.29824,0.01825
2610.23807,0.01773
2608.17790,0.01738
2606.11773,0.01737
2604.05756,0.01736
2601.99738,0.01750
2599.93721,0.01764
2597.87704,0.01731
2595.81687,0.01696
2593.75670,0.01686
2591.69652,0.01679
2589.63635,0.01682
2587.57618,0.01654
2585.51601,0.01608
2583.45583,0.01621
2581.39566,0.01653
2579.33549,0.01629
2577.27532,0.01590
2575.21515,0.01590
2573.15497,0.01592
2571.09480,0.01576
2569.03463,0.01552
2566.97446,0.01529
2564.91429,0.01539
2562.85411,0.01559
2560.79394,0.01530
2558.73377,0.01489
2556.67360,0.01503
2554.61342,0.01529
2552.55325,0.01507
2550.49308,0.01447
2548.43291,0.01403
2546.37274,0.01413
2544.31256,0.01431
2542.25239,0.01414
2540.19222,0.01397
2538.13205,0.01404
2536.07188,0.01417
2534.01170,0.01412
2531.95153,0.01404
2529.89136,0.01412
2527.83119,0.01441
2525.77102,0.01459
2523.71084,0.01456
2521.65067,0.01448
2519.59050,0.01432
2517.53033,0.01424
2515.47015,0.01421
2513.40998,0.01421
2511.34981,0.01414
2509.28964,0.01381
2507.22947,0.01346
2505.16929,0.01360
2503.10912,0.01385
2501.04895,0.01350
2498.98878,0.01299
2496.92861,0.01313
2494.86843,0.01392
2492.80826,0.01465
2490.74809,0.01459
2488.68792,0.01410
2486.62775,0.01361
2484.56757,0.01302
2482.50740,0.01275
2480.44723,0.01309
2478.38706,0.01356
2476.32688,0.01336
2474.26671,0.01255
2472.20654,0.01218
2470.14637,0.01248
2468.08620,0.01282
2466.02602,0.01309
2463.96585,0.01307
2461.90568,0.01248
2459.84551,0.01191
2457.78534,0.01181
2455.72516,0.01207
2453.66499,0.01234
2451.60482,0.01261
2449.54465,0.01305
2447.48447,0.01306
2445.42430,0.01244
2443.36413,0.01197
2441.30396,0.01216
2439.24379,0.01282
2437.18361,0.01313
2435.12344,0.01251
2433.06327,0.01186
2431.00310,0.01202
2428.94293,0.01229
2426.88275,0.01191
2424.82258,0.01150
2422.76241,0.01169
2420.70224,0.01180
2418.64207,0.01159
2416.58189,0.01143
2414.52172,0.01139
2412.46155,0.01150
2410.40138,0.01139
2408.34120,0.01101
2406.28103,0.01091
2404.22086,0.01110
2402.16069,0.01119
2400.10052,0.01120
2398.04034,0.01135
2395.98017,0.01145
2393.92000,0.01145
2391.85983,0.01142
2389.79966,0.01135
2387.73948,0.01133
2385.67931,0.01146
2383.61914,0.01150
2381.55897,0.01140
2379.49880,0.01136
2377.43862,0.01148
2375.37845,0.01152
2373.31828,0.01178
2371.25811,0.01189
2369.19793,0.01093
2367.13776,0.00989
2365.07759,0.01034
2363.01742,0.01152
2360.95725,0.01390
2358.89707,0.01456
2356.83690,0.01326
2354.77673,0.01158
2352.71656,0.01071
2350.65639,0.01239
2348.59621,0.01401
2346.53604,0.01227
2344.47587,0.01266
2342.41570,0.01338
2340.35552,0.01345
2338.29535,0.01353
2336.23518,0.01348
2334.17501,0.01393
2332.11484,0.01332
2330.05466,0.01117
2327.99449,0.00955
2325.93432,0.01014
2323.87415,0.01040
2321.81398,0.01037
2319.75380,0.01019
2317.69363,0.01082
2315.63346,0.01140
2313.57329,0.01134
2311.51312,0.01091
2309.45294,0.01082
2307.39277,0.01110
2305.33260,0.01109
2303.27243,0.01069
2301.21225,0.01014
2299.15208,0.01003
2297.09191,0.01022
2295.03174,0.01041
2292.97157,0.01050
2290.91139,0.01039
2288.85122,0.01037
2286.79105,0.01053
2284.73088,0.01044
2282.67071,0.00990
2280.61053,0.00928
2278.55036,0.00927
2276.49019,0.00993
2274.43002,0.01054
2272.36984,0.01019
2270.30967,0.00893
2268.24950,0.00777
2266.18933,0.00761
2264.12916,0.00824
2262.06898,0.00837
2260.00881,0.00767
2257.94864,0.00762
2255.88847,0.00845
2253.82830,0.00880
2251.76812,0.00841
2249.70795,0.00803
2247.64778,0.00784
2245.58761,0.00795
2243.52744,0.00814
2241.46726,0.00792
2239.40709,0.00731
2237.34692,0.00643
2235.28675,0.00578
2233.22657,0.00601
2231.16640,0.00747
2229.10623,0.00889
2227.04606,0.00884
2224.98589,0.00841
2222.92571,0.00835
2220.86554,0.00788
2218.80537,0.00747
2216.74520,0.00803
2214.68503,0.00844
2212.62485,0.00763
2210.56468,0.00679
2208.50451,0.00699
2206.44434,0.00769
2204.38417,0.00837
2202.32399,0.00880
2200.26382,0.00840
2198.20365,0.00798
2196.14348,0.00812
2194.08330,0.00789
2192.02313,0.00749
2189.96296,0.00702
2187.90279,0.00597
2185.84262,0.00536
2183.78244,0.00644
2181.72227,0.00803
2179.66210,0.00756
2177.60193,0.00558
2175.54176,0.00495
2173.48158,0.00443
2171.42141,0.00234
2169.36124,0.00165
2167.30107,0.00345
2165.24089,0.00542
2163.18072,0.00693
2161.12055,0.00734
2159.06038,0.00544
2157.00021,0.00292
2154.94003,0.00207
2152.87986,0.00248
2150.81969,0.00357
2148.75952,0.00426
2146.69935,0.00365
2144.63917,0.00371
2142.57900,0.00431
2140.51883,0.00393
2138.45866,0.00317
2136.39849,0.00287
2134.33831,0.00337
2132.27814,0.00399
2130.21797,0.00457
2128.15780,0.00572
2126.09762,0.00688
2124.03745,0.00737
2121.97728,0.00746
2119.91711,0.00704
2117.85694,0.00598
2115.79676,0.00487
2113.73659,0.00403
2111.67642,0.00331
2109.61625,0.00314
2107.55608,0.00366
2105.49590,0.00432
2103.43573,0.00479
2101.37556,0.00466
2099.31539,0.00455
2097.25521,0.00513
2095.19504,0.00587
2093.13487,0.00644
2091.07470,0.00654
2089.01453,0.00572
2086.95435,0.00488
2084.89418,0.00501
2082.83401,0.00577
2080.77384,0.00588
2078.71367,0.00506
2076.65349,0.00514
2074.59332,0.00621
2072.53315,0.00634
2070.47298,0.00586
2068.41281,0.00608
2066.35263,0.00636
2064.29246,0.00614
2062.23229,0.00610
2060.17212,0.00629
2058.11194,0.00583
2056.05177,0.00480
2053.99160,0.00381
2051.93143,0.00333
2049.87126,0.00412
2047.81108,0.00546
2045.75091,0.00538
2043.69074,0.00335
2041.63057,0.00147
2039.57040,0.00212
2037.51022,0.00394
2035.45005,0.00477
2033.38988,0.00428
2031.32971,0.00323
2029.26954,0.00366
2027.20936,0.00536
2025.14919,0.00660
2023.08902,0.00612
2021.02885,0.00314
2018.96867,0.00087
2016.90850,0.00150
2014.84833,0.00309
2012.78816,0.00419
2010.72799,0.00385
2008.66781,0.00287
2006.60764,0.00242
2004.54747,0.00199
2002.48730,0.00168
2000.42713,0.00136
1998.36695,0.00133
1996.30678,0.00249
1994.24661,0.00323
1992.18644,0.00225
1990.12626,0.00179
1988.06609,0.00337
1986.00592,0.00496
1983.94575,0.00484
1981.88558,0.00360
1979.82540,0.00254
1977.76523,0.00245
1975.70506,0.00269
1973.64489,0.00305
1971.58472,0.00425
1969.52454,0.00546
1967.46437,0.00524
1965.40420,0.00466
1963.34403,0.00474
1961.28386,0.00405
1959.22368,0.00327
1957.16351,0.00374
1955.10334,0.00400
1953.04317,0.00350
1950.98299,0.00347
1948.92282,0.00409
1946.86265,0.00449
1944.80248,0.00371
1942.74231,0.00206
1940.68213,0.00116
1938.62196,0.00136
1936.56179,0.00209
1934.50162,0.00273
1932.44145,0.00273
1930.38127,0.00284
1928.32110,0.00368
1926.26093,0.00433
1924.20076,0.00386
1922.14059,0.00283
1920.08041,0.00266
1918.02024,0.00337
1915.96007,0.00375
1913.89990,0.00352
1911.83972,0.00324
1909.77955,0.00319
1907.71938,0.00335
1905.65921,0.00356
1903.59904,0.00344
1901.53886,0.00306
1899.47869,0.00289
1897.41852,0.00272
1895.35835,0.00254
1893.29818,0.00291
1891.23800,0.00345
1889.17783,0.00324
1887.11766,0.00255
1885.05749,0.00203
1882.99731,0.00172
1880.93714,0.00177
1878.87697,0.00236
1876.81680,0.00295
1874.75663,0.00295
1872.69645,0.00246
1870.63628,0.00201
1868.57611,0.00203
1866.51594,0.00244
1864.45577,0.00277
1862.39559,0.00276
1860.33542,0.00252
1858.27525,0.00229
1856.21508,0.00196
1854.15491,0.00145
1852.09473,0.00115
1850.03456,0.00111
1847.97439,0.00116
1845.91422,0.00138
1843.85404,0.00193
1841.79387,0.00258
1839.73370,0.00300
1837.67353,0.00311
1835.61336,0.00301
1833.55318,0.00266
1831.49301,0.00185
1829.43284,0.00103
1827.37267,0.00104
1825.31250,0.00171
1823.25232,0.00217
1821.19215,0.00191
1819.13198,0.00120
1817.07181,0.00066
1815.01163,0.00065
1812.95146,0.00096
1810.89129,0.00116
1808.83112,0.00126
1806.77095,0.00134
1804.71077,0.00119
1802.65060,0.00088
1800.59043,0.00075
1798.53026,0.00085
1796.47009,0.00088
1794.40991,0.00071
1792.34974,0.00056
1790.28957,0.00071
1788.22940,0.00089
1786.16923,0.00083
1784.10905,0.00050
1782.04888,0.00011
1779.98871,0.00000
1777.92854,0.00012
1775.86836,0.00019
1773.80819,0.00003
1771.74802,-0.00009
1769.68785,-0.00010
1767.62768,-0.00011
1765.56750,0.00012
1763.50733,0.00076
1761.44716,0.00159
1759.38699,0.00238
1757.32682,0.00324
1755.26664,0.00411
1753.20647,0.00503
1751.14630,0.00644
1749.08613,0.00809
1747.02596,0.00917
1744.96578,0.00984
1742.90561,0.01051
1740.84544,0.01134
1738.78527,0.01220
1736.72509,0.01286
1734.66492,0.01352
1732.60475,0.01409
1730.54458,0.01422
1728.48441,0.01416
1726.42423,0.01422
1724.36406,0.01439
1722.30389,0.01462
1720.24372,0.01499
1718.18355,0.01554
1716.12337,0.01611
1714.06320,0.01635
1712.00303,0.01623
1709.94286,0.01602
1707.88268,0.01585
1705.82251,0.01558
1703.76234,0.01537
1701.70217,0.01562
1699.64200,0.01622
1697.58182,0.01670
1695.52165,0.01696
1693.46148,0.01710
1691.40131,0.01734
1689.34114,0.01805
1687.28096,0.01954
1685.22079,0.02204
1683.16062,0.02509
1681.10045,0.02724
1679.04028,0.02859
1676.98010,0.02973
1674.91993,0.03081
1672.85976,0.03169
1670.79959,0.03218
1668.73941,0.03214
1666.67924,0.03165
1664.61907,0.03094
1662.55890,0.03005
1660.49873,0.02919
1658.43855,0.02865
1656.37838,0.02840
1654.31821,0.02816
1652.25804,0.02773
1650.19787,0.02732
1648.13769,0.02705
1646.07752,0.02708
1644.01735,0.02746
1641.95718,0.02777
1639.89701,0.02801
1637.83683,0.02856
1635.77666,0.02960
1633.71649,0.03082
1631.65632,0.03169
1629.59614,0.03212
1627.53597,0.03231
1625.47580,0.03246
1623.41563,0.03278
1621.35546,0.03332
1619.29528,0.03387
1617.23511,0.03429
1615.17494,0.03475
1613.11477,0.03548
1611.05460,0.03665
1608.99442,0.03827
1606.93425,0.03992
1604.87408,0.04080
1602.81391,0.04054
1600.75373,0.03948
1598.69356,0.03821
1596.63339,0.03707
1594.57322,0.03589
1592.51305,0.03449
1590.45287,0.03312
1588.39270,0.03211
1586.33253,0.03144
1584.27236,0.03082
1582.21219,0.03000
1580.15201,0.02912
1578.09184,0.02835
1576.03167,0.02769
1573.97150,0.02725
1571.91133,0.02679
1569.85115,0.02592
1567.79098,0.02479
1565.73081,0.02380
1563.67064,0.02293
1561.61046,0.02199
1559.55029,0.02058
1557.49012,0.01914
1555.42995,0.01863
1553.36978,0.01831
1551.30960,0.01770
1549.24943,0.01692
1547.18926,0.01602
1545.12909,0.01491
1543.06892,0.01367
1541.00874,0.01247
1538.94857,0.01156
1536.88840,0.01135
1534.82823,0.01139
1532.76805,0.01106
1530.70788,0.01035
1528.64771,0.00949
1526.58754,0.00870
1524.52737,0.00855
1522.46719,0.00944
1520.40702,0.01111
1518.34685,0.01281
1516.28668,0.01402
1514.22651,0.01446
1512.16633,0.01412
1510.10616,0.01304
1508.04599,0.01117
1505.98582,0.00907
1503.92565,0.00777
1501.86547,0.00699
1499.80530,0.00616
1497.74513,0.00511
1495.68496,0.00397
1493.62478,0.00301
1491.56461,0.00219
1489.50444,0.00163
1487.44427,0.00151
1485.38410,0.00153
1483.32392,0.00152
1481.26375,0.00169
1479.20358,0.00213
1477.14341,0.00273
1475.08324,0.00374
1473.02306,0.00566
1470.96289,0.00818
1468.90272,0.01041
1466.84255,0.01235
1464.78238,0.01412
1462.72220,0.01526
1460.66203,0.01584
1458.60186,0.01665
1456.54169,0.01785
1454.48151,0.01868
1452.42134,0.01934
1450.36117,0.02032
1448.30100,0.02149
1446.24083,0.02254
1444.18065,0.02352
1442.12048,0.02459
1440.06031,0.02559
1438.00014,0.02637
1435.93997,0.02711
1433.87979,0.02774
1431.81962,0.02812
1429.75945,0.02845
1427.69928,0.02883
1425.63910,0.02909
1423.57893,0.02918
1421.51876,0.02914
1419.45859,0.02909
1417.39842,0.02920
1415.33824,0.02930
1413.27807,0.02915
1411.21790,0.02878
1409.15773,0.02834
1407.09756,0.02781
1405.03738,0.02702
1402.97721,0.02615
1400.91704,0.02543
1398.85687,0.02453
1396.79670,0.02335
1394.73652,0.02233
1392.67635,0.02175
1390.61618,0.02165
1388.55601,0.02202
1386.49583,0.02285
1384.43566,0.02382
1382.37549,0.02453
1380.31532,0.02490
1378.25515,0.02521
1376.19497,0.02566
1374.13480,0.02619
1372.07463,0.02660
1370.01446,0.02670
1367.95429,0.02645
1365.89411,0.02603
1363.83394,0.02554
1361.77377,0.02511
1359.71360,0.02487
1357.65343,0.02477
1355.59325,0.02475
1353.53308,0.02482
1351.47291,0.02476
1349.41274,0.02457
1347.35256,0.02443
1345.29239,0.02442
1343.23222,0.02447
1341.17205,0.02435
1339.11188,0.02394
1337.05170,0.02375
1334.99153,0.02409
1332.93136,0.02443
1330.87119,0.02427
1328.81102,0.02404
1326.75084,0.02422
1324.69067,0.02452
1322.63050,0.02442
1320.57033,0.02409
1318.51015,0.02396
1316.44998,0.02392
1314.38981,0.02381
1312.32964,0.02373
1310.26947,0.02363
1308.20929,0.02333
1306.14912,0.02282
1304.08895,0.02214
1302.02878,0.02130
1299.96861,0.02031
1297.90843,0.01954
1295.84826,0.01931
1293.78809,0.01936
1291.72792,0.01952
1289.66775,0.01978
1287.60757,0.02001
1285.54740,0.02016
1283.48723,0.02027
1281.42706,0.02049
1279.36688,0.02089
1277.30671,0.02126
1275.24654,0.02140
1273.18637,0.02140
1271.12620,0.02140
1269.06602,0.02157
1267.00585,0.02228
1264.94568,0.02353
1262.88551,0.02480
1260.82534,0.02570
1258.76516,0.02619
1256.70499,0.02657
1254.64482,0.02715
1252.58465,0.02788
1250.52447,0.02849
1248.46430,0.02892
1246.40413,0.02914
1244.34396,0.02916
1242.28379,0.02917
1240.22361,0.02937
1238.16344,0.02963
1236.10327,0.02973
1234.04310,0.02948
1231.98293,0.02882
1229.92275,0.02783
1227.86258,0.02656
1225.80241,0.02526
1223.74224,0.02417
1221.68207,0.02320
1219.62189,0.02207
1217.56172,0.02064
1215.50155,0.01888
1213.44138,0.01716
1211.38120,0.01588
1209.32103,0.01483
1207.26086,0.01358
1205.20069,0.01203
1203.14052,0.01020
1201.08034,0.00815
1199.02017,0.00628
1196.96000,0.00487
1194.89983,0.00363
1192.83966,0.00230
1190.77948,0.00124
1188.71931,0.00069
1186.65914,0.00034
1184.59897,0.00000
1182.53880,-0.00020
1180.47862,0.00007
1178.41845,0.00078
1176.35828,0.00186
1174.29811,0.00348
1172.23793,0.00579
1170.17776,0.00846
1168.11759,0.01059
1166.05742,0.01171
1163.99725,0.01219
1161.93707,0.01253
1159.87690,0.01288
1157.81673,0.01322
1155.75656,0.01380
1153.69639,0.01483
1151.63621,0.01612
1149.57604,0.01748
1147.51587,0.01872
1145.45570,0.01970
1143.39552,0.02053
1141.33535,0.02144
1139.27518,0.02243
1137.21501,0.02335
1135.15484,0.02410
1133.09466,0.02458
1131.03449,0.02520
1128.97432,0.02631
1126.91415,0.02763
1124.85398,0.02910
1122.79380,0.03084
1120.73363,0.03268
1118.67346,0.03411
1116.61329,0.03501
1114.55312,0.03593
1112.49294,0.03722
1110.43277,0.03855
1108.37260,0.03944
1106.31243,0.04033
1104.25225,0.04182
1102.19208,0.04344
1100.13191,0.04488
1098.07174,0.04670
1096.01157,0.04914
1093.95139,0.05176
1091.89122,0.05409
1089.83105,0.05610
1087.77088,0.05782
1085.71071,0.05958
1083.65053,0.06205
1081.59036,0.06489
1079.53019,0.06733
1077.47002,0.06963
1075.40985,0.07216
1073.34967,0.07463
1071.28950,0.07681
1069.22933,0.07861
1067.16916,0.08033
1065.10898,0.08223
1063.04881,0.08403
1060.98864,0.08563
1058.92847,0.08722
1056.86830,0.08884
1054.80812,0.09051
1052.74795,0.09255
1050.68778,0.09531
1048.62761,0.09847
1046.56744,0.10157
1044.50726,0.10460
1042.44709,0.10773
1040.38692,0.11074
1038.32675,0.11317
1036.26657,0.11479
1034.20640,0.11574
1032.14623,0.11632
1030.08606,0.11672
1028.02589,0.11693
1025.96571,0.11703
1023.90554,0.11666
1021.84537,0.11562
1019.78520,0.11486
1017.72503,0.11495
1015.66485,0.11534
1013.60468,0.11547
1011.54451,0.11551
1009.48434,0.11565
1007.42417,0.11560
1005.36399,0.11524
1003.30382,0.11469
1001.24365,0.11401
999.18348,0.11316
997.12330,0.11187
995.06313,0.10993
993.00296,0.10773
990.94279,0.10580
988.88262,0.10395
986.82244,0.10207
984.76227,0.10060
982.70210,0.09959
980.64193,0.09839
978.58176,0.09659
976.52158,0.09468
974.46141,0.09308
972.40124,0.09129
970.34107,0.08913
968.28089,0.08712
966.22072,0.08524
964.16055,0.08316
962.10038,0.08109
960.04021,0.07927
957.98003,0.07763
955.91986,0.07595
953.85969,0.07427
951.79952,0.07301
949.73935,0.07211
947.67917,0.07078
945.61900,0.06860
943.55883,0.06608
941.49866,0.06352
939.43849,0.06058
937.37831,0.05712
935.31814,0.05366
933.25797,0.05036
931.19780,0.04673
929.13762,0.04306
927.07745,0.04020
925.01728,0.03804
922.95711,0.03595
920.89694,0.03381
918.83676,0.03178
916.77659,0.02987
914.71642,0.02786
912.65625,0.02583
910.59608,0.02401
908.53590,0.02253
906.47573,0.02167
904.41556,0.02114
902.35539,0.02064
900.29522,0.02021
898.23504,0.01994
896.17487,0.02012
894.11470,0.02058
892.05453,0.02058
889.99435,0.02006
887.93418,0.01940
885.87401,0.01868
883.81384,0.01788
881.75367,0.01678
879.69349,0.01511
877.63332,0.01363
875.57315,0.01291
873.51298,0.01247
871.45281,0.01205
869.39263,0.01144
867.33246,0.01048
865.27229,0.00939
863.21212,0.00823
861.15194,0.00732
859.09177,0.00729
857.03160,0.00792
854.97143,0.00841
852.91126,0.00840
850.85108,0.00814
848.79091,0.00806
846.73074,0.00805
844.67057,0.00790
842.61040,0.00764
840.55022,0.00762
838.49005,0.00779
836.42988,0.00766
834.36971,0.00728
832.30954,0.00657
830.24936,0.00541
828.18919,0.00472
826.12902,0.00481
824.06885,0.00501
822.00867,0.00486
819.94850,0.00422
817.88833,0.00363
815.82816,0.00400
813.76799,0.00481
811.70781,0.00451
809.64764,0.00367
807.58747,0.00339
805.52730,0.00322
803.46713,0.00323
801.40695,0.00298
799.34678,0.00176
797.28661,0.00077
795.22644,0.00073
793.16627,0.00043
791.10609,0.00000
789.04592,0.00038
786.98575,0.00054
784.92558,0.00027
782.86540,0.00081
780.80523,0.00171
778.74506,0.00177
776.68489,0.00104
774.62472,0.00064
772.56454,0.00080
770.50437,0.00070
768.44420,0.00034
766.38403,0.00073
764.32386,0.00139
762.26368,0.00083
760.20351,-0.00027
758.14334,-0.00067
756.08317,-0.00049
754.02299,-0.00014
751.96282,0.00000
749.90265,-0.00040
747.84248,-0.00106
745.78231,-0.00185
743.72213,-0.00185
741.66196,-0.00160
739.60179,-0.00274
737.54162,-0.00435
735.48145,-0.00411
733.42127,-0.00267
731.36110,-0.00275
729.30093,-0.00387
727.24076,-0.00402
725.18059,-0.00373
723.12041,-0.00335
721.06024,-0.00305
719.00007,-0.00209
716.93990,-0.00122
714.87972,-0.00108
712.81955,-0.00106
710.75938,0.00003
708.69921,0.00190
706.63904,0.00281
704.57886,0.00227
702.51869,0.00168
700.45852,0.00175
698.39835,0.00154
696.33818,0.00098
694.27800,0.00115
692.21783,0.00220
690.15766,0.00294
688.09749,0.00278
686.03731,0.00239
683.97714,0.00194
681.91697,0.00086
679.85680,-0.00079
677.79663,-0.00236
675.73645,-0.00372
673.67628,-0.00402
671.61611,-0.00230
669.55594,-0.00346
667.49577,-0.00520
665.43559,-0.00034
663.37542,-0.00261
661.31525,-0.00388
659.25508,-0.00164
657.19491,0.00067
655.13473,0.00033
653.07456,-0.00188
651.01439,-0.00231
648.95422,0.00000
646.89404,0.00249
644.83387,0.00417
642.77370,0.00561
640.71353,0.00465
638.65336,0.00150
636.59318,0.00134
634.53301,0.00507
632.47284,0.00699
630.41267,0.00532
628.35250,0.00292
626.29232,0.00134
624.23215,0.00092
622.17198,0.00139
620.11181,0.00065
618.05164,-0.00212
615.99146,-0.00471
613.93129,-0.00379
611.87112,-0.00013
609.81095,0.00432
607.75077,0.00864
605.69060,0.01049
603.63043,0.00784
601.57026,0.00415
599.51009,0.00000
