3996.73391,0.00062
3994.67373,0.00051
3992.61356,0.00037
3990.55339,0.00020
3988.49322,0.00005
3986.43305,0.00000
3984.37287,0.00008
3982.31270,0.00019
3980.25253,0.00027
3978.19236,0.00036
3976.13219,0.00048
3974.07201,0.00058
3972.01184,0.00066
3969.95167,0.00081
3967.89150,0.00102
3965.83133,0.00120
3963.77115,0.00125
3961.71098,0.00117
3959.65081,0.00112
3957.59064,0.00119
3955.53046,0.00133
3953.47029,0.00135
3951.41012,0.00118
3949.34995,0.00096
3947.28978,0.00086
3945.22960,0.00093
3943.16943,0.00109
3941.10926,0.00119
3939.04909,0.00114
3936.98892,0.00102
3934.92874,0.00094
3932.86857,0.00094
3930.80840,0.00098
3928.74823,0.00104
3926.68805,0.00109
3924.62788,0.00111
3922.56771,0.00109
3920.50754,0.00102
3918.44737,0.00098
3916.38719,0.00106
3914.32702,0.00131
3912.26685,0.00157
3910.20668,0.00172
3908.14651,0.00176
3906.08633,0.00184
3904.02616,0.00205
3901.96599,0.00231
3899.90582,0.00248
3897.84565,0.00255
3895.78547,0.00260
3893.72530,0.00270
3891.66513,0.00282
3889.60496,0.00282
3887.54478,0.00262
3885.48461,0.00235
3883.42444,0.00218
3881.36427,0.00217
3879.30410,0.00219
3877.24392,0.00205
3875.18375,0.00170
3873.12358,0.00128
3871.06341,0.00096
3869.00324,0.00089
3866.94306,0.00114
3864.88289,0.00162
3862.82272,0.00205
3860.76255,0.00201
3858.70237,0.00137
3856.64220,0.00049
3854.58203,0.00000
3852.52186,0.00031
3850.46169,0.00117
3848.40151,0.00198
3846.34134,0.00248
3844.28117,0.00279
3842.22100,0.00296
3840.16083,0.00293
3838.10065,0.00264
3836.04048,0.00217
3833.98031,0.00173
3831.92014,0.00155
3829.85997,0.00163
3827.79979,0.00185
3825.73962,0.00210
3823.67945,0.00235
3821.61928,0.00253
3819.55910,0.00251
3817.49893,0.00227
3815.43876,0.00206
3813.37859,0.00202
3811.31842,0.00200
3809.25824,0.00188
3807.19807,0.00168
3805.13790,0.00150
3803.07773,0.00140
3801.01756,0.00142
3798.95738,0.00164
3796.89721,0.00205
3794.83704,0.00249
3792.77687,0.00282
3790.71670,0.00298
3788.65652,0.00296
3786.59635,0.00280
3784.53618,0.00261
3782.47601,0.00251
3780.41583,0.00250
3778.35566,0.00248
3776.29549,0.00239
3774.23532,0.00230
3772.17515,0.00236
3770.11497,0.00260
3768.05480,0.00291
3765.99463,0.00318
3763.93446,0.00329
3761.87429,0.00316
3759.81411,0.00278
3757.75394,0.00228
3755.69377,0.00184
3753.63360,0.00159
3751.57342,0.00163
3749.51325,0.00195
3747.45308,0.00234
3745.39291,0.00257
3743.33274,0.00253
3741.27256,0.00230
3739.21239,0.00214
3737.15222,0.00225
3735.09205,0.00255
3733.03188,0.00267
3730.97170,0.00246
3728.91153,0.00220
3726.85136,0.00220
3724.79119,0.00256
3722.73102,0.00306
3720.67084,0.00335
3718.61067,0.00328
3716.55050,0.00301
3714.49033,0.00273
3712.43015,0.00252
3710.36998,0.00246
3708.30981,0.00264
3706.24964,0.00297
3704.18947,0.00325
3702.12929,0.00337
3700.06912,0.00333
3698.00895,0.00321
3695.94878,0.00306
3693.88861,0.00290
3691.82843,0.00277
3689.76826,0.00270
3687.70809,0.00272
3685.64792,0.00282
3683.58775,0.00296
3681.52757,0.00310
3679.46740,0.00312
3677.40723,0.00286
3675.34706,0.00241
3673.28688,0.00204
3671.22671,0.00202
3669.16654,0.00234
3667.10637,0.00273
3665.04620,0.00295
3662.98602,0.00298
3660.92585,0.00295
3658.86568,0.00304
3656.80551,0.00334
3654.74534,0.00369
3652.68516,0.00385
3650.62499,0.00380
3648.56482,0.00371
3646.50465,0.00365
3644.44447,0.00370
3642.38430,0.00390
3640.32413,0.00418
3638.26396,0.00433
3636.20379,0.00428
3634.14361,0.00424
3632.08344,0.00446
3630.02327,0.00504
3627.96310,0.00576
3625.90293,0.00616
3623.84275,0.00606
3621.78258,0.00570
3619.72241,0.00545
3617.66224,0.00538
3615.60207,0.00533
3613.54189,0.00519
3611.48172,0.00507
3609.42155,0.00514
3607.36138,0.00546
3605.30120,0.00586
3603.24103,0.00618
3601.18086,0.00635
3599.12069,0.00641
3597.06052,0.00641
3595.00034,0.00646
3592.94017,0.00670
3590.88000,0.00716
3588.81983,0.00772
3586.75966,0.00819
3584.69948,0.00845
3582.63931,0.00851
3580.57914,0.00844
3578.51897,0.00831
3576.45879,0.00824
3574.39862,0.00830
3572.33845,0.00846
3570.27828,0.00860
3568.21811,0.00862
3566.15793,0.00860
3564.09776,0.00870
3562.03759,0.00891
3559.97742,0.00905
3557.91725,0.00907
3555.85707,0.00910
3553.79690,0.00923
3551.73673,0.00943
3549.67656,0.00967
3547.61639,0.01003
3545.55621,0.01047
3543.49604,0.01080
3541.43587,0.01083
3539.37570,0.01061
3537.31552,0.01039
3535.25535,0.01034
3533.19518,0.01049
3531.13501,0.01070
3529.07484,0.01083
3527.01466,0.01091
3524.95449,0.01119
3522.89432,0.01177
3520.83415,0.01242
3518.77398,0.01285
3516.71380,0.01297
3514.65363,0.01285
3512.59346,0.01272
3510.53329,0.01279
3508.47312,0.01308
3506.41294,0.01341
3504.35277,0.01359
3502.29260,0.01357
3500.23243,0.01352
3498.17225,0.01362
3496.11208,0.01391
3494.05191,0.01427
3491.99174,0.01458
3489.93157,0.01477
3487.87139,0.01486
3485.81122,0.01493
3483.75105,0.01503
3481.69088,0.01509
3479.63071,0.01502
3477.57053,0.01487
3475.51036,0.01479
3473.45019,0.01492
3471.39002,0.01533
3469.32984,0.01580
3467.26967,0.01604
3465.20950,0.01594
3463.14933,0.01565
3461.08916,0.01540
3459.02898,0.01538
3456.96881,0.01563
3454.90864,0.01604
3452.84847,0.01648
3450.78830,0.01685
3448.72812,0.01710
3446.66795,0.01730
3444.60778,0.01749
3442.54761,0.01763
3440.48744,0.01768
3438.42726,0.01767
3436.36709,0.01759
3434.30692,0.01749
3432.24675,0.01750
3430.18657,0.01772
3428.12640,0.01808
3426.06623,0.01836
3424.00606,0.01843
3421.94589,0.01840
3419.88571,0.01842
3417.82554,0.01849
3415.76537,0.01851
3413.70520,0.01855
3411.64503,0.01873
3409.58485,0.01900
3407.52468,0.01924
3405.46451,0.01934
3403.40434,0.01926
3401.34416,0.01906
3399.28399,0.01892
3397.22382,0.01897
3395.16365,0.01918
3393.10348,0.01946
3391.04330,0.01971
3388.98313,0.01984
3386.92296,0.01983
3384.86279,0.01975
3382.80262,0.01977
3380.74244,0.01995
3378.68227,0.02018
3376.62210,0.02034
3374.56193,0.02044
3372.50176,0.02053
3370.44158,0.02061
3368.38141,0.02070
3366.32124,0.02088
3364.26107,0.02115
3362.20089,0.02138
3360.14072,0.02146
3358.08055,0.02136
3356.02038,0.02124
3353.96021,0.02125
3351.90003,0.02144
3349.83986,0.02165
3347.77969,0.02169
3345.71952,0.02159
3343.65935,0.02147
3341.59917,0.02139
3339.53900,0.02128
3337.47883,0.02114
3335.41866,0.02104
3333.35849,0.02105
3331.29831,0.02114
3329.23814,0.02128
3327.17797,0.02150
3325.11780,0.02176
3323.05762,0.02192
3320.99745,0.02186
3318.93728,0.02153
3316.87711,0.02103
3314.81694,0.02064
3312.75676,0.02058
3310.69659,0.02087
3308.63642,0.02130
3306.57625,0.02165
3304.51608,0.02185
3302.45590,0.02196
3300.39573,0.02205
3298.33556,0.02211
3296.27539,0.02207
3294.21521,0.02189
3292.15504,0.02166
3290.09487,0.02152
3288.03470,0.02154
3285.97453,0.02173
3283.91435,0.02207
3281.85418,0.02241
3279.79401,0.02255
3277.73384,0.02240
3275.67367,0.02208
3273.61349,0.02180
3271.55332,0.02164
3269.49315,0.02160
3267.43298,0.02167
3265.37281,0.02184
3263.31263,0.02200
3261.25246,0.02201
3259.19229,0.02189
3257.13212,0.02170
3255.07194,0.02151
3253.01177,0.02142
3250.95160,0.02150
3248.89143,0.02169
3246.83126,0.02183
3244.77108,0.02185
3242.71091,0.02174
3240.65074,0.02159
3238.59057,0.02147
3236.53040,0.02141
3234.47022,0.02141
3232.41005,0.02142
3230.34988,0.02143
3228.28971,0.02141
3226.22954,0.02131
3224.16936,0.02113
3222.10919,0.02093
3220.04902,0.02075
3217.98885,0.02055
3215.92867,0.02027
3213.86850,0.01998
3211.80833,0.01985
3209.74816,0.01991
3207.68799,0.02000
3205.62781,0.01992
3203.56764,0.01971
3201.50747,0.01957
3199.44730,0.01965
3197.38713,0.01986
3195.32695,0.02005
3193.26678,0.02008
3191.20661,0.01992
3189.14644,0.01965
3187.08626,0.01935
3185.02609,0.01907
3182.96592,0.01887
3180.90575,0.01881
3178.84558,0.01889
3176.78540,0.01895
3174.72523,0.01888
3172.66506,0.01870
3170.60489,0.01851
3168.54472,0.01833
3166.48454,0.01813
3164.42437,0.01798
3162.36420,0.01796
3160.30403,0.01805
3158.24386,0.01807
3156.18368,0.01793
3154.12351,0.01772
3152.06334,0.01760
3150.00317,0.01761
3147.94299,0.01769
3145.88282,0.01773
3143.82265,0.01764
3141.76248,0.01735
3139.70231,0.01685
3137.64213,0.01626
3135.58196,0.01575
3133.52179,0.01545
3131.46162,0.01538
3129.40145,0.01542
3127.34127,0.01542
3125.28110,0.01531
3123.22093,0.01515
3121.16076,0.01506
3119.10058,0.01511
3117.04041,0.01529
3114.98024,0.01549
3112.92007,0.01554
3110.85990,0.01539
3108.79972,0.01505
3106.73955,0.01462
3104.67938,0.01427
3102.61921,0.01411
3100.55904,0.01414
3098.49886,0.01429
3096.43869,0.01443
3094.37852,0.01448
3092.31835,0.01442
3090.25818,0.01423
3088.19800,0.01388
3086.13783,0.01346
3084.07766,0.01313
3082.01749,0.01295
3079.95731,0.01288
3077.89714,0.01281
3075.83697,0.01268
3073.77680,0.01245
3071.71663,0.01221
3069.65645,0.01204
3067.59628,0.01196
3065.53611,0.01192
3063.47594,0.01192
3061.41577,0.01201
3059.35559,0.01213
3057.29542,0.01222
3055.23525,0.01223
3053.17508,0.01210
3051.11491,0.01184
3049.05473,0.01154
3046.99456,0.01133
3044.93439,0.01124
3042.87422,0.01118
3040.81404,0.01103
3038.75387,0.01081
3036.69370,0.01055
3034.63353,0.01031
3032.57336,0.01010
3030.51318,0.00994
3028.45301,0.00988
3026.39284,0.00993
3024.33267,0.00999
3022.27250,0.00999
3020.21232,0.00996
3018.15215,0.00996
3016.09198,0.01000
3014.03181,0.01000
3011.97163,0.00993
3009.91146,0.00984
3007.85129,0.00980
3005.79112,0.00987
3003.73095,0.01003
3001.67077,0.01015
2999.61060,0.01006
2997.55043,0.00966
2995.49026,0.00921
2993.43009,0.00912
2991.36991,0.00936
2989.30974,0.00958
2987.24957,0.00968
2985.18940,0.00974
2983.12923,0.00986
2981.06905,0.01001
2979.00888,0.01003
2976.94871,0.00987
2974.88854,0.00983
2972.82836,0.00999
2970.76819,0.01015
2968.70802,0.01020
2966.64785,0.01025
2964.58768,0.01042
2962.52750,0.01069
2960.46733,0.01091
2958.40716,0.01094
2956.34699,0.01089
2954.28682,0.01093
2952.22664,0.01099
2950.16647,0.01105
2948.10630,0.01122
2946.04613,0.01139
2943.98596,0.01146
2941.92578,0.01171
2939.86561,0.01231
2937.80544,0.01297
2935.74527,0.01319
2933.68509,0.01286
2931.62492,0.01240
2929.56475,0.01219
2927.50458,0.01223
2925.44441,0.01233
2923.38423,0.01240
2921.32406,0.01239
2919.26389,0.01232
2917.20372,0.01232
2915.14355,0.01233
2913.08337,0.01218
2911.02320,0.01189
2908.96303,0.01165
2906.90286,0.01162
2904.84268,0.01169
2902.78251,0.01152
2900.72234,0.01111
2898.66217,0.01082
2896.60200,0.01094
2894.54182,0.01132
2892.48165,0.01159
2890.42148,0.01159
2888.36131,0.01140
2886.30114,0.01121
2884.24096,0.01119
2882.18079,0.01130
2880.12062,0.01142
2878.06045,0.01154
2876.00028,0.01161
2873.94010,0.01155
2871.87993,0.01128
2869.81976,0.01083
2867.75959,0.01043
2865.69941,0.01036
2863.63924,0.01055
2861.57907,0.01067
2859.51890,0.01050
2857.45873,0.01010
2855.39855,0.00974
2853.33838,0.00968
2851.27821,0.00987
2849.21804,0.01007
2847.15787,0.01013
2845.09769,0.01006
2843.03752,0.00989
2840.97735,0.00970
2838.91718,0.00953
2836.85700,0.00948
2834.79683,0.00950
2832.73666,0.00942
2830.67649,0.00908
2828.61632,0.00867
2826.55614,0.00853
2824.49597,0.00869
2822.43580,0.00886
2820.37563,0.00892
2818.31546,0.00890
2816.25528,0.00888
2814.19511,0.00884
2812.13494,0.00865
2810.07477,0.00843
2808.01460,0.00839
2805.95442,0.00855
2803.89425,0.00870
2801.83408,0.00883
2799.77391,0.00889
2797.71373,0.00872
2795.65356,0.00837
2793.59339,0.00812
2791.53322,0.00805
2789.47305,0.00815
2787.41287,0.00836
2785.35270,0.00840
2783.29253,0.00815
2781.23236,0.00789
2779.17219,0.00786
2777.11201,0.00799
2775.05184,0.00813
2772.99167,0.00828
2770.93150,0.00846
2768.87133,0.00855
2766.81115,0.00840
2764.75098,0.00814
2762.69081,0.00807
2760.63064,0.00822
2758.57046,0.00833
2756.51029,0.00826
2754.45012,0.00814
2752.38995,0.00815
2750.32978,0.00819
2748.26960,0.00819
2746.20943,0.00823
2744.14926,0.00826
2742.08909,0.00809
2740.02892,0.00774
2737.96874,0.00745
2735.90857,0.00735
2733.84840,0.00737
2731.78823,0.00740
2729.72805,0.00743
2727.66788,0.00758
2725.60771,0.00780
2723.54754,0.00789
2721.48737,0.00778
2719.42719,0.00767
2717.36702,0.00766
2715.30685,0.00766
2713.24668,0.00764
2711.18651,0.00761
2709.12633,0.00759
2707.06616,0.00764
2705.00599,0.00776
2702.94582,0.00786
2700.88565,0.00787
2698.82547,0.00784
2696.76530,0.00784
2694.70513,0.00779
2692.64496,0.00769
2690.58478,0.00758
2688.52461,0.00747
2686.46444,0.00740
2684.40427,0.00740
2682.34410,0.00739
2680.28392,0.00736
2678.22375,0.00736
2676.16358,0.00739
2674.10341,0.00735
2672.04324,0.00721
2669.98306,0.00713
2667.92289,0.00728
2665.86272,0.00753
2663.80255,0.00762
2661.74238,0.00749
2659.68220,0.00731
2657.62203,0.00729
2655.56186,0.00748
2653.50169,0.00761
2651.44151,0.00747
2649.38134,0.00728
2647.32117,0.00741
2645.26100,0.00780
2643.20083,0.00804
2641.14065,0.00794
2639.08048,0.00768
2637.02031,0.00751
2634.96014,0.00743
2632.89997,0.00730
2630.83979,0.00707
2628.77962,0.00682
2626.71945,0.00660
2624.65928,0.00654
2622.59910,0.00672
2620.53893,0.00702
2618.47876,0.00714
2616.41859,0.00707
2614.35842,0.00693
2612.29824,0.00676
2610.23807,0.00665
2608.17790,0.00666
2606.11773,0.00669
2604.05756,0.00677
2601.99738,0.00701
2599.93721,0.00726
2597.87704,0.00731
2595.81687,0.00722
2593.75670,0.00718
2591.69652,0.00725
2589.63635,0.00729
2587.57618,0.00717
2585.51601,0.00693
2583.45583,0.00667
2581.39566,0.00655
2579.33549,0.00659
2577.27532,0.00657
2575.21515,0.00645
2573.15497,0.00637
2571.09480,0.00633
2569.03463,0.00611
2566.97446,0.00564
2564.91429,0.00525
2562.85411,0.00527
2560.79394,0.00571
2558.73377,0.00615
2556.67360,0.00626
2554.61342,0.00613
2552.55325,0.00610
2550.49308,0.00613
2548.43291,0.00595
2546.37274,0.00565
2544.31256,0.00556
2542.25239,0.00565
2540.19222,0.00559
2538.13205,0.00545
2536.07188,0.00547
2534.01170,0.00553
2531.95153,0.00546
2529.89136,0.00551
2527.83119,0.00585
2525.77102,0.00622
2523.71084,0.00634
2521.65067,0.00633
2519.59050,0.00642
2517.53033,0.00653
2515.47015,0.00657
2513.40998,0.00663
2511.34981,0.00671
2509.28964,0.00664
2507.22947,0.00628
2505.16929,0.00595
2503.10912,0.00595
2501.04895,0.00612
2498.98878,0.00612
2496.92861,0.00606
2494.86843,0.00620
2492.80826,0.00629
2490.74809,0.00621
2488.68792,0.00625
2486.62775,0.00640
2484.56757,0.00641
2482.50740,0.00629
2480.44723,0.00629
2478.38706,0.00642
2476.32688,0.00636
2474.26671,0.00597
2472.20654,0.00548
2470.14637,0.00522
2468.08620,0.00528
2466.02602,0.00546
2463.96585,0.00564
2461.90568,0.00591
2459.84551,0.00607
2457.78534,0.00592
2455.72516,0.00582
2453.66499,0.00600
2451.60482,0.00617
2449.54465,0.00606
2447.48447,0.00591
2445.42430,0.00608
2443.36413,0.00631
2441.30396,0.00619
2439.24379,0.00585
2437.18361,0.00565
2435.12344,0.00552
2433.06327,0.00527
2431.00310,0.00514
2428.94293,0.00549
2426.88275,0.00598
2424.82258,0.00604
2422.76241,0.00586
2420.70224,0.00582
2418.64207,0.00568
2416.58189,0.00530
2414.52172,0.00508
2412.46155,0.00517
2410.40138,0.00539
2408.34120,0.00553
2406.28103,0.00566
2404.22086,0.00587
2402.16069,0.00600
2400.10052,0.00604
2398.04034,0.00616
2395.98017,0.00629
2393.92000,0.00634
2391.85983,0.00634
2389.79966,0.00634
2387.73948,0.00630
2385.67931,0.00618
2383.61914,0.00602
2381.55897,0.00585
2379.49880,0.00567
2377.43862,0.00546
2375.37845,0.00517
2373.31828,0.00482
2371.25811,0.00451
2369.19793,0.00437
2367.13776,0.00452
2365.07759,0.00497
2363.01742,0.00560
2360.95725,0.00637
2358.89707,0.00734
2356.83690,0.00819
2354.77673,0.00847
2352.71656,0.00818
2350.65639,0.00772
2348.59621,0.00745
2346.53604,0.00751
2344.47587,0.00784
2342.41570,0.00815
2340.35552,0.00817
2338.29535,0.00788
2336.23518,0.00743
2334.17501,0.00696
2332.11484,0.00655
2330.05466,0.00628
2327.99449,0.00625
2325.93432,0.00629
2323.87415,0.00612
2321.81398,0.00572
2319.75380,0.00550
2317.69363,0.00574
2315.63346,0.00618
2313.57329,0.00638
2311.51312,0.00624
2309.45294,0.00598
2307.39277,0.00584
2305.33260,0.00595
2303.27243,0.00620
2301.21225,0.00639
2299.15208,0.00638
2297.09191,0.00625
2295.03174,0.00617
2292.97157,0.00622
2290.91139,0.00628
2288.85122,0.00623
2286.79105,0.00606
2284.73088,0.00594
2282.67071,0.00595
2280.61053,0.00599
2278.55036,0.00605
2276.49019,0.00625
2274.43002,0.00656
2272.36984,0.00673
2270.30967,0.00672
2268.24950,0.00667
2266.18933,0.00662
2264.12916,0.00640
2262.06898,0.00600
2260.00881,0.00564
2257.94864,0.00547
2255.88847,0.00542
2253.82830,0.00537
2251.76812,0.00525
2249.70795,0.00495
2247.64778,0.00458
2245.58761,0.00492
2243.52744,0.00607
2241.46726,0.00701
2239.40709,0.00716
2237.34692,0.00696
2235.28675,0.00700
2233.22657,0.00719
2231.16640,0.00688
2229.10623,0.00608
2227.04606,0.00588
2224.98589,0.00670
2222.92571,0.00760
2220.86554,0.00792
2218.80537,0.00738
2216.74520,0.00620
2214.68503,0.00564
2212.62485,0.00627
2210.56468,0.00712
2208.50451,0.00729
2206.44434,0.00671
2204.38417,0.00554
2202.32399,0.00421
2200.26382,0.00345
2198.20365,0.00374
2196.14348,0.00460
2194.08330,0.00532
2192.02313,0.00587
2189.96296,0.00616
2187.90279,0.00602
2185.84262,0.00609
2183.78244,0.00686
2181.72227,0.00752
2179.66210,0.00707
2177.60193,0.00614
2175.54176,0.00608
2173.48158,0.00684
2171.42141,0.00739
2169.36124,0.00765
2167.30107,0.00824
2165.24089,0.00952
2163.18072,0.01106
2161.12055,0.01090
2159.06038,0.00803
2157.00021,0.00481
2154.94003,0.00312
2152.87986,0.00204
2150.81969,0.00082
2148.75952,0.00000
2146.69935,0.00025
2144.63917,0.00171
2142.57900,0.00378
2140.51883,0.00572
2138.45866,0.00661
2136.39849,0.00575
2134.33831,0.00421
2132.27814,0.00388
2130.21797,0.00484
2128.15780,0.00559
2126.09762,0.00546
2124.03745,0.00513
2121.97728,0.00526
2119.91711,0.00567
2117.85694,0.00582
2115.79676,0.00584
2113.73659,0.00598
2111.67642,0.00597
2109.61625,0.00591
2107.55608,0.00618
2105.49590,0.00647
2103.43573,0.00652
2101.37556,0.00658
2099.31539,0.00653
2097.25521,0.00623
2095.19504,0.00577
2093.13487,0.00534
2091.07470,0.00507
2089.01453,0.00515
2086.95435,0.00563
2084.89418,0.00616
2082.83401,0.00624
2080.77384,0.00585
2078.71367,0.00535
2076.65349,0.00498
2074.59332,0.00476
2072.53315,0.00475
2070.47298,0.00497
2068.41281,0.00516
2066.35263,0.00503
2064.29246,0.00463
2062.23229,0.00435
2060.17212,0.00450
2058.11194,0.00498
2056.05177,0.00541
2053.99160,0.00528
2051.93143,0.00454
2049.87126,0.00379
2047.81108,0.00360
2045.75091,0.00392
2043.69074,0.00429
2041.63057,0.00441
2039.57040,0.00444
2037.51022,0.00474
2035.45005,0.00515
2033.38988,0.00515
2031.32971,0.00460
2029.26954,0.00396
2027.20936,0.00354
2025.14919,0.00318
2023.08902,0.00270
2021.02885,0.00221
2018.96867,0.00189
2016.90850,0.00185
2014.84833,0.00224
2012.78816,0.00307
2010.72799,0.00403
2008.66781,0.00463
2006.60764,0.00462
2004.54747,0.00430
2002.48730,0.00412
2000.42713,0.00394
1998.36695,0.00318
1996.30678,0.00177
1994.24661,0.00040
1992.18644,0.00000
1990.12626,0.00083
1988.06609,0.00209
1986.00592,0.00272
1983.94575,0.00241
1981.88558,0.00166
1979.82540,0.00108
1977.76523,0.00105
1975.70506,0.00170
1973.64489,0.00273
1971.58472,0.00346
1969.52454,0.00352
1967.46437,0.00313
1965.40420,0.00275
1963.34403,0.00278
1961.28386,0.00323
1959.22368,0.00374
1957.16351,0.00392
1955.10334,0.00382
1953.04317,0.00391
1950.98299,0.00444
1948.92282,0.00497
1946.86265,0.00512
1944.80248,0.00502
1942.74231,0.00487
1940.68213,0.00457
1938.62196,0.00395
1936.56179,0.00316
1934.50162,0.00256
1932.44145,0.00233
1930.38127,0.00230
1928.32110,0.00224
1926.26093,0.00214
1924.20076,0.00213
1922.14059,0.00224
1920.08041,0.00226
1918.02024,0.00214
1915.96007,0.00205
1913.89990,0.00212
1911.83972,0.00228
1909.77955,0.00242
1907.71938,0.00248
1905.65921,0.00244
1903.59904,0.00231
1901.53886,0.00212
1899.47869,0.00189
1897.41852,0.00176
1895.35835,0.00181
1893.29818,0.00195
1891.23800,0.00208
1889.17783,0.00220
1887.11766,0.00229
1885.05749,0.00230
1882.99731,0.00232
1880.93714,0.00249
1878.87697,0.00272
1876.81680,0.00282
1874.75663,0.00270
1872.69645,0.00247
1870.63628,0.00240
1868.57611,0.00257
1866.51594,0.00283
1864.45577,0.00296
1862.39559,0.00290
1860.33542,0.00274
1858.27525,0.00262
1856.21508,0.00264
1854.15491,0.00278
1852.09473,0.00294
1850.03456,0.00301
1847.97439,0.00300
1845.91422,0.00294
1843.85404,0.00285
1841.79387,0.00270
1839.73370,0.00246
1837.67353,0.00217
1835.61336,0.00194
1833.55318,0.00179
1831.49301,0.00174
1829.43284,0.00184
1827.37267,0.00198
1825.31250,0.00205
1823.25232,0.00207
1821.19215,0.00214
1819.13198,0.00227
1817.07181,0.00239
1815.01163,0.00248
1812.95146,0.00253
1810.89129,0.00252
1808.83112,0.00241
1806.77095,0.00222
1804.71077,0.00207
1802.65060,0.00199
1800.59043,0.00195
1798.53026,0.00191
1796.47009,0.00182
1794.40991,0.00168
1792.34974,0.00158
1790.28957,0.00156
1788.22940,0.00162
1786.16923,0.00171
1784.10905,0.00185
1782.04888,0.00202
1779.98871,0.00219
1777.92854,0.00234
1775.86836,0.00248
1773.80819,0.00262
1771.74802,0.00271
1769.68785,0.00266
1767.62768,0.00246
1765.56750,0.00220
1763.50733,0.00202
1761.44716,0.00205
1759.38699,0.00230
1757.32682,0.00263
1755.26664,0.00292
1753.20647,0.00308
1751.14630,0.00319
1749.08613,0.00340
1747.02596,0.00376
1744.96578,0.00418
1742.90561,0.00452
1740.84544,0.00466
1738.78527,0.00456
1736.72509,0.00430
1734.66492,0.00409
1732.60475,0.00409
1730.54458,0.00427
1728.48441,0.00450
1726.42423,0.00474
1724.36406,0.00492
1722.30389,0.00490
1720.24372,0.00466
1718.18355,0.00432
1716.12337,0.00404
1714.06320,0.00385
1712.00303,0.00369
1709.94286,0.00353
1707.88268,0.00340
1705.82251,0.00329
1703.76234,0.00315
1701.70217,0.00292
1699.64200,0.00266
1697.58182,0.00249
1695.52165,0.00253
1693.46148,0.00276
1691.40131,0.00298
1689.34114,0.00305
1687.28096,0.00302
1685.22079,0.00305
1683.16062,0.00322
1681.10045,0.00345
1679.04028,0.00365
1676.98010,0.00376
1674.91993,0.00378
1672.85976,0.00375
1670.79959,0.00384
1668.73941,0.00418
1666.67924,0.00471
1664.61907,0.00524
1662.55890,0.00574
1660.49873,0.00618
1658.43855,0.00657
1656.37838,0.00690
1654.31821,0.00725
1652.25804,0.00759
1650.19787,0.00775
1648.13769,0.00772
1646.07752,0.00768
1644.01735,0.00766
1641.95718,0.00758
1639.89701,0.00742
1637.83683,0.00734
1635.77666,0.00748
1633.71649,0.00788
1631.65632,0.00835
1629.59614,0.00873
1627.53597,0.00897
1625.47580,0.00914
1623.41563,0.00929
1621.35546,0.00944
1619.29528,0.00953
1617.23511,0.00953
1615.17494,0.00945
1613.11477,0.00927
1611.05460,0.00904
1608.99442,0.00881
1606.93425,0.00856
1604.87408,0.00823
1602.81391,0.00786
1600.75373,0.00750
1598.69356,0.00720
1596.63339,0.00690
1594.57322,0.00647
1592.51305,0.00588
1590.45287,0.00529
1588.39270,0.00484
1586.33253,0.00455
1584.27236,0.00430
1582.21219,0.00396
1580.15201,0.00355
1578.09184,0.00318
1576.03167,0.00294
1573.97150,0.00277
1571.91133,0.00257
1569.85115,0.00230
1567.79098,0.00197
1565.73081,0.00164
1563.67064,0.00134
1561.61046,0.00113
1559.55029,0.00110
1557.49012,0.00126
1555.42995,0.00144
1553.36978,0.00151
1551.30960,0.00147
1549.24943,0.00139
1547.18926,0.00126
1545.12909,0.00108
1543.06892,0.00090
1541.00874,0.00084
1538.94857,0.00088
1536.88840,0.00084
1534.82823,0.00068
1532.76805,0.00051
1530.70788,0.00043
1528.64771,0.00038
1526.58754,0.00034
1524.52737,0.00029
1522.46719,0.00024
1520.40702,0.00025
1518.34685,0.00037
1516.28668,0.00051
1514.22651,0.00056
1512.16633,0.00044
1510.10616,0.00026
1508.04599,0.00017
1505.98582,0.00026
1503.92565,0.00037
1501.86547,0.00036
1499.80530,0.00026
1497.74513,0.00025
1495.68496,0.00040
1493.62478,0.00061
1491.56461,0.00077
1489.50444,0.00090
1487.44427,0.00105
1485.38410,0.00125
1483.32392,0.00150
1481.26375,0.00177
1479.20358,0.00196
1477.14341,0.00206
1475.08324,0.00212
1473.02306,0.00228
1470.96289,0.00255
1468.90272,0.00282
1466.84255,0.00304
1464.78238,0.00326
1462.72220,0.00350
1460.66203,0.00372
1458.60186,0.00389
1456.54169,0.00404
1454.48151,0.00415
1452.42134,0.00423
1450.36117,0.00435
1448.30100,0.00449
1446.24083,0.00461
1444.18065,0.00471
1442.12048,0.00479
1440.06031,0.00494
1438.00014,0.00524
1435.93997,0.00564
1433.87979,0.00598
1431.81962,0.00613
1429.75945,0.00619
1427.69928,0.00626
1425.63910,0.00643
1423.57893,0.00670
1421.51876,0.00699
1419.45859,0.00724
1417.39842,0.00742
1415.33824,0.00751
1413.27807,0.00750
1411.21790,0.00741
1409.15773,0.00727
1407.09756,0.00706
1405.03738,0.00679
1402.97721,0.00643
1400.91704,0.00603
1398.85687,0.00572
1396.79670,0.00561
1394.73652,0.00567
1392.67635,0.00579
1390.61618,0.00590
1388.55601,0.00599
1386.49583,0.00609
1384.43566,0.00617
1382.37549,0.00622
1380.31532,0.00628
1378.25515,0.00637
1376.19497,0.00647
1374.13480,0.00657
1372.07463,0.00664
1370.01446,0.00667
1367.95429,0.00670
1365.89411,0.00675
1363.83394,0.00677
1361.77377,0.00673
1359.71360,0.00662
1357.65343,0.00648
1355.59325,0.00633
1353.53308,0.00623
1351.47291,0.00620
1349.41274,0.00623
1347.35256,0.00623
1345.29239,0.00615
1343.23222,0.00601
1341.17205,0.00586
1339.11188,0.00575
1337.05170,0.00566
1334.99153,0.00557
1332.93136,0.00546
1330.87119,0.00539
1328.81102,0.00538
1326.75084,0.00544
1324.69067,0.00552
1322.63050,0.00556
1320.57033,0.00560
1318.51015,0.00566
1316.44998,0.00573
1314.38981,0.00576
1312.32964,0.00575
1310.26947,0.00573
1308.20929,0.00567
1306.14912,0.00557
1304.08895,0.00548
1302.02878,0.00541
1299.96861,0.00533
1297.90843,0.00517
1295.84826,0.00498
1293.78809,0.00485
1291.72792,0.00484
1289.66775,0.00489
1287.60757,0.00489
1285.54740,0.00480
1283.48723,0.00464
1281.42706,0.00448
1279.36688,0.00438
1277.30671,0.00441
1275.24654,0.00457
1273.18637,0.00481
1271.12620,0.00508
1269.06602,0.00536
1267.00585,0.00562
1264.94568,0.00588
1262.88551,0.00613
1260.82534,0.00638
1258.76516,0.00658
1256.70499,0.00670
1254.64482,0.00677
1252.58465,0.00686
1250.52447,0.00703
1248.46430,0.00722
1246.40413,0.00735
1244.34396,0.00741
1242.28379,0.00741
1240.22361,0.00732
1238.16344,0.00714
1236.10327,0.00690
1234.04310,0.00660
1231.98293,0.00622
1229.92275,0.00582
1227.86258,0.00544
1225.80241,0.00512
1223.74224,0.00488
1221.68207,0.00470
1219.62189,0.00454
1217.56172,0.00438
1215.50155,0.00420
1213.44138,0.00400
1211.38120,0.00374
1209.32103,0.00337
1207.26086,0.00288
1205.20069,0.00236
1203.14052,0.00192
1201.08034,0.00159
1199.02017,0.00129
1196.96000,0.00091
1194.89983,0.00043
1192.83966,0.00009
1190.77948,0.00000
1188.71931,0.00001
1186.65914,0.00002
1184.59897,-0.00003
1182.53880,-0.00015
1180.47862,-0.00020
1178.41845,0.00011
1176.35828,0.00076
1174.29811,0.00145
1172.23793,0.00201
1170.17776,0.00254
1168.11759,0.00315
1166.05742,0.00374
1163.99725,0.00425
1161.93707,0.00470
1159.87690,0.00500
1157.81673,0.00511
1155.75656,0.00530
1153.69639,0.00584
1151.63621,0.00653
1149.57604,0.00706
1147.51587,0.00740
1145.45570,0.00764
1143.39552,0.00783
1141.33535,0.00799
1139.27518,0.00822
1137.21501,0.00859
1135.15484,0.00901
1133.09466,0.00930
1131.03449,0.00943
1128.97432,0.00963
1126.91415,0.01010
1124.85398,0.01068
1122.79380,0.01108
1120.73363,0.01134
1118.67346,0.01166
1116.61329,0.01212
1114.55312,0.01259
1112.49294,0.01295
1110.43277,0.01322
1108.37260,0.01356
1106.31243,0.01408
1104.25225,0.01463
1102.19208,0.01513
1100.13191,0.01571
1098.07174,0.01646
1096.01157,0.01722
1093.95139,0.01781
1091.89122,0.01832
1089.83105,0.01888
1087.77088,0.01943
1085.71071,0.01988
1083.65053,0.02028
1081.59036,0.02067
1079.53019,0.02107
1077.47002,0.02160
1075.40985,0.02227
1073.34967,0.02299
1071.28950,0.02368
1069.22933,0.02412
1067.16916,0.02418
1065.10898,0.02411
1063.04881,0.02429
1060.98864,0.02473
1058.92847,0.02518
1056.86830,0.02555
1054.80812,0.02571
1052.74795,0.02563
1050.68778,0.02557
1048.62761,0.02583
1046.56744,0.02644
1044.50726,0.02712
1042.44709,0.02763
1040.38692,0.02790
1038.32675,0.02807
1036.26657,0.02834
1034.20640,0.02875
1032.14623,0.02917
1030.08606,0.02944
1028.02589,0.02949
1025.96571,0.02942
1023.90554,0.02937
1021.84537,0.02948
1019.78520,0.02970
1017.72503,0.02985
1015.66485,0.02980
1013.60468,0.02961
1011.54451,0.02951
1009.48434,0.02957
1007.42417,0.02955
1005.36399,0.02930
1003.30382,0.02890
1001.24365,0.02849
999.18348,0.02818
997.12330,0.02791
995.06313,0.02758
993.00296,0.02718
990.94279,0.02668
988.88262,0.02611
986.82244,0.02570
984.76227,0.02564
982.70210,0.02575
980.64193,0.02564
978.58176,0.02532
976.52158,0.02497
974.46141,0.02459
972.40124,0.02424
970.34107,0.02401
968.28089,0.02385
966.22072,0.02373
964.16055,0.02353
962.10038,0.02313
960.04021,0.02255
957.98003,0.02199
955.91986,0.02166
953.85969,0.02148
951.79952,0.02120
949.73935,0.02073
947.67917,0.02017
945.61900,0.01963
943.55883,0.01919
941.49866,0.01862
939.43849,0.01765
937.37831,0.01638
935.31814,0.01500
933.25797,0.01378
931.19780,0.01295
929.13762,0.01231
927.07745,0.01160
925.01728,0.01090
922.95711,0.01032
920.89694,0.00973
918.83676,0.00905
916.77659,0.00851
914.71642,0.00829
912.65625,0.00812
910.59608,0.00763
908.53590,0.00695
906.47573,0.00638
904.41556,0.00605
902.35539,0.00603
900.29522,0.00619
898.23504,0.00627
896.17487,0.00622
894.11470,0.00596
892.05453,0.00554
889.99435,0.00523
887.93418,0.00518
885.87401,0.00531
883.81384,0.00535
881.75367,0.00506
879.69349,0.00458
877.63332,0.00428
875.57315,0.00426
873.51298,0.00436
871.45281,0.00441
869.39263,0.00434
867.33246,0.00424
865.27229,0.00429
863.21212,0.00446
861.15194,0.00451
859.09177,0.00431
857.03160,0.00397
854.97143,0.00357
852.91126,0.00311
850.85108,0.00262
848.79091,0.00220
846.73074,0.00194
844.67057,0.00181
842.61040,0.00166
840.55022,0.00150
838.49005,0.00150
836.42988,0.00158
834.36971,0.00167
832.30954,0.00169
830.24936,0.00166
828.18919,0.00167
826.12902,0.00168
824.06885,0.00135
822.00867,0.00080
819.94850,0.00076
817.88833,0.00155
815.82816,0.00243
813.76799,0.00255
811.70781,0.00213
809.64764,0.00209
807.58747,0.00272
805.52730,0.00335
803.46713,0.00320
801.40695,0.00237
799.34678,0.00154
797.28661,0.00108
795.22644,0.00089
793.16627,0.00086
791.10609,0.00102
789.04592,0.00147
786.98575,0.00202
784.92558,0.00197
782.86540,0.00117
780.80523,0.00079
778.74506,0.00152
776.68489,0.00260
774.62472,0.00324
772.56454,0.00340
770.50437,0.00290
768.44420,0.00187
766.38403,0.00110
764.32386,0.00106
762.26368,0.00146
760.20351,0.00193
758.14334,0.00231
756.08317,0.00243
754.02299,0.00223
751.96282,0.00178
749.90265,0.00136
747.84248,0.00134
745.78231,0.00150
743.72213,0.00116
741.66196,0.00062
739.60179,0.00067
737.54162,0.00148
735.48145,0.00268
733.42127,0.00334
731.36110,0.00255
729.30093,0.00089
727.24076,0.00000
725.18059,0.00059
723.12041,0.00202
721.06024,0.00331
719.00007,0.00379
716.93990,0.00342
714.87972,0.00268
712.81955,0.00221
710.75938,0.00231
708.69921,0.00277
706.63904,0.00323
704.57886,0.00358
702.51869,0.00381
700.45852,0.00383
698.39835,0.00367
696.33818,0.00346
694.27800,0.00322
692.21783,0.00277
690.15766,0.00213
688.09749,0.00169
686.03731,0.00181
683.97714,0.00242
681.91697,0.00316
679.85680,0.00366
677.79663,0.00372
675.73645,0.00339
673.67628,0.00287
671.61611,0.00222
669.55594,0.00150
667.49577,0.00076
665.43559,0.00015
663.37542,0.00000
661.31525,0.00035
659.25508,0.00115
657.19491,0.00208
655.13473,0.00285
653.07456,0.00355
651.01439,0.00427
648.95422,0.00464
646.89404,0.00422
644.83387,0.00316
642.77370,0.00213
640.71353,0.00183
638.65336,0.00237
636.59318,0.00320
634.53301,0.00347
632.47284,0.00269
630.41267,0.00117
628.35250,0.00000
626.29232,-0.00015
624.23215,0.00074
622.17198,0.00158
620.11181,0.00128
618.05164,-0.00076
615.99146,-0.00314
613.93129,-0.00318
611.87112,-0.00176
609.81095,-0.00234
607.75077,-0.00460
605.69060,-0.00516
603.63043,-0.00334
601.57026,-0.00130
599.51009,0.00000
