3996.73391,0.00078
3994.67373,0.00064
3992.61356,0.00085
3990.55339,0.00098
3988.49322,0.00046
3986.43305,0.00000
3984.37287,0.00016
3982.31270,0.00064
3980.25253,0.00092
3978.19236,0.00084
3976.13219,0.00076
3974.07201,0.00091
3972.01184,0.00115
3969.95167,0.00123
3967.89150,0.00107
3965.83133,0.00101
3963.77115,0.00128
3961.71098,0.00129
3959.65081,0.00093
3957.59064,0.00080
3955.53046,0.00082
3953.47029,0.00099
3951.41012,0.00156
3949.34995,0.00207
3947.28978,0.00175
3945.22960,0.00127
3943.16943,0.00134
3941.10926,0.00137
3939.04909,0.00141
3936.98892,0.00156
3934.92874,0.00194
3932.86857,0.00237
3930.80840,0.00165
3928.74823,0.00029
3926.68805,0.00013
3924.62788,0.00089
3922.56771,0.00134
3920.50754,0.00168
3918.44737,0.00186
3916.38719,0.00159
3914.32702,0.00122
3912.26685,0.00111
3910.20668,0.00071
3908.14651,0.00000
3906.08633,0.00007
3904.02616,0.00071
3901.96599,0.00114
3899.90582,0.00178
3897.84565,0.00182
3895.78547,0.00134
3893.72530,0.00171
3891.66513,0.00236
3889.60496,0.00192
3887.54478,0.00212
3885.48461,0.00271
3883.42444,0.00222
3881.36427,0.00248
3879.30410,0.00232
3877.24392,0.00126
3875.18375,0.00090
3873.12358,0.00069
3871.06341,0.00105
3869.00324,0.00069
3866.94306,0.00040
3864.88289,0.00197
3862.82272,0.00265
3860.76255,0.00171
3858.70237,0.00066
3856.64220,0.00102
3854.58203,0.00294
3852.52186,0.00317
3850.46169,0.00162
3848.40151,0.00132
3846.34134,0.00200
3844.28117,0.00256
3842.22100,0.00239
3840.16083,0.00210
3838.10065,0.00152
3836.04048,0.00053
3833.98031,0.00078
3831.92014,0.00200
3829.85997,0.00277
3827.79979,0.00316
3825.73962,0.00264
3823.67945,0.00214
3821.61928,0.00242
3819.55910,0.00142
3817.49893,0.00167
3815.43876,0.00261
3813.37859,0.00199
3811.31842,0.00158
3809.25824,0.00204
3807.19807,0.00241
3805.13790,0.00209
3803.07773,0.00316
3801.01756,0.00337
3798.95738,0.00192
3796.89721,0.00269
3794.83704,0.00347
3792.77687,0.00279
3790.71670,0.00222
3788.65652,0.00269
3786.59635,0.00378
3784.53618,0.00414
3782.47601,0.00405
3780.41583,0.00468
3778.35566,0.00443
3776.29549,0.00339
3774.23532,0.00308
3772.17515,0.00326
3770.11497,0.00339
3768.05480,0.00320
3765.99463,0.00340
3763.93446,0.00303
3761.87429,0.00239
3759.81411,0.00194
3757.75394,0.00108
3755.69377,0.00104
3753.63360,0.00308
3751.57342,0.00486
3749.51325,0.00257
3747.45308,0.00000
3745.39291,0.00149
3743.33274,0.00215
3741.27256,0.00045
3739.21239,0.00000
3737.15222,0.00132
3735.09205,0.00291
3733.03188,0.00367
3730.97170,0.00384
3728.91153,0.00435
3726.85136,0.00523
3724.79119,0.00488
3722.73102,0.00380
3720.67084,0.00313
3718.61067,0.00282
3716.55050,0.00217
3714.49033,0.00165
3712.43015,0.00166
3710.36998,0.00123
3708.30981,0.00054
3706.24964,0.00064
3704.18947,0.00223
3702.12929,0.00385
3700.06912,0.00336
3698.00895,0.00223
3695.94878,0.00146
3693.88861,0.00080
3691.82843,0.00149
3689.76826,0.00348
3687.70809,0.00415
3685.64792,0.00346
3683.58775,0.00324
3681.52757,0.00341
3679.46740,0.00354
3677.40723,0.00385
3675.34706,0.00312
3673.28688,0.00101
3671.22671,0.00147
3669.16654,0.00227
3667.10637,0.00152
3665.04620,0.00176
3662.98602,0.00266
3660.92585,0.00293
3658.86568,0.00319
3656.80551,0.00361
3654.74534,0.00251
3652.68516,0.00174
3650.62499,0.00273
3648.56482,0.00326
3646.50465,0.00293
3644.44447,0.00294
3642.38430,0.00380
3640.32413,0.00432
3638.26396,0.00411
3636.20379,0.00381
3634.14361,0.00367
3632.08344,0.00443
3630.02327,0.00706
3627.96310,0.00759
3625.90293,0.00501
3623.84275,0.00388
3621.78258,0.00488
3619.72241,0.00599
3617.66224,0.00541
3615.60207,0.00498
3613.54189,0.00601
3611.48172,0.00663
3609.42155,0.00680
3607.36138,0.00702
3605.30120,0.00689
3603.24103,0.00682
3601.18086,0.00694
3599.12069,0.00696
3597.06052,0.00733
3595.00034,0.00800
3592.94017,0.00798
3590.88000,0.00779
3588.81983,0.00849
3586.75966,0.00922
3584.69948,0.00958
3582.63931,0.01006
3580.57914,0.01010
3578.51897,0.00977
3576.45879,0.00981
3574.39862,0.01014
3572.33845,0.01019
3570.27828,0.01024
3568.21811,0.01084
3566.15793,0.01124
3564.09776,0.01121
3562.03759,0.01172
3559.97742,0.01247
3557.91725,0.01287
3555.85707,0.01328
3553.79690,0.01403
3551.73673,0.01452
3549.67656,0.01464
3547.61639,0.01494
3545.55621,0.01511
3543.49604,0.01517
3541.43587,0.01558
3539.37570,0.01639
3537.31552,0.01742
3535.25535,0.01825
3533.19518,0.01867
3531.13501,0.01894
3529.07484,0.01923
3527.01466,0.01947
3524.95449,0.01973
3522.89432,0.02018
3520.83415,0.02084
3518.77398,0.02162
3516.71380,0.02188
3514.65363,0.02138
3512.59346,0.02076
3510.53329,0.02081
3508.47312,0.02144
3506.41294,0.02234
3504.35277,0.02319
3502.29260,0.02329
3500.23243,0.02334
3498.17225,0.02431
3496.11208,0.02538
3494.05191,0.02585
3491.99174,0.02610
3489.93157,0.02622
3487.87139,0.02626
3485.81122,0.02665
3483.75105,0.02731
3481.69088,0.02752
3479.63071,0.02746
3477.57053,0.02802
3475.51036,0.02903
3473.45019,0.02968
3471.39002,0.02960
3469.32984,0.02947
3467.26967,0.02994
3465.20950,0.03068
3463.14933,0.03133
3461.08916,0.03162
3459.02898,0.03152
3456.96881,0.03166
3454.90864,0.03208
3452.84847,0.03225
3450.78830,0.03256
3448.72812,0.03368
3446.66795,0.03459
3444.60778,0.03455
3442.54761,0.03463
3440.48744,0.03523
3438.42726,0.03586
3436.36709,0.03610
3434.30692,0.03638
3432.24675,0.03688
3430.18657,0.03734
3428.12640,0.03769
3426.06623,0.03756
3424.00606,0.03708
3421.94589,0.03706
3419.88571,0.03737
3417.82554,0.03787
3415.76537,0.03881
3413.70520,0.03967
3411.64503,0.03991
3409.58485,0.04002
3407.52468,0.04059
3405.46451,0.04117
3403.40434,0.04141
3401.34416,0.04184
3399.28399,0.04259
3397.22382,0.04288
3395.16365,0.04266
3393.10348,0.04249
3391.04330,0.04232
3388.98313,0.04226
3386.92296,0.04258
3384.86279,0.04331
3382.80262,0.04402
3380.74244,0.04416
3378.68227,0.04414
3376.62210,0.04454
3374.56193,0.04500
3372.50176,0.04508
3370.44158,0.04498
3368.38141,0.04508
3366.32124,0.04568
3364.26107,0.04668
3362.20089,0.04728
3360.14072,0.04681
3358.08055,0.04619
3356.02038,0.04628
3353.96021,0.04653
3351.90003,0.04666
3349.83986,0.04685
3347.77969,0.04694
3345.71952,0.04696
3343.65935,0.04725
3341.59917,0.04756
3339.53900,0.04739
3337.47883,0.04709
3335.41866,0.04712
3333.35849,0.04759
3331.29831,0.04808
3329.23814,0.04797
3327.17797,0.04776
3325.11780,0.04800
3323.05762,0.04813
3320.99745,0.04821
3318.93728,0.04877
3316.87711,0.04949
3314.81694,0.04981
3312.75676,0.04948
3310.69659,0.04907
3308.63642,0.04913
3306.57625,0.04926
3304.51608,0.04921
3302.45590,0.04921
3300.39573,0.04936
3298.33556,0.04932
3296.27539,0.04894
3294.21521,0.04910
3292.15504,0.05002
3290.09487,0.05047
3288.03470,0.05011
3285.97453,0.04973
3283.91435,0.04957
3281.85418,0.04926
3279.79401,0.04913
3277.73384,0.04946
3275.67367,0.04952
3273.61349,0.04929
3271.55332,0.04934
3269.49315,0.04922
3267.43298,0.04867
3265.37281,0.04842
3263.31263,0.04867
3261.25246,0.04886
3259.19229,0.04874
3257.13212,0.04827
3255.07194,0.04793
3253.01177,0.04824
3250.95160,0.04853
3248.89143,0.04820
3246.83126,0.04774
3244.77108,0.04759
3242.71091,0.04802
3240.65074,0.04880
3238.59057,0.04889
3236.53040,0.04859
3234.47022,0.04873
3232.41005,0.04860
3230.34988,0.04777
3228.28971,0.04723
3226.22954,0.04739
3224.16936,0.04759
3222.10919,0.04744
3220.04902,0.04697
3217.98885,0.04627
3215.92867,0.04577
3213.86850,0.04578
3211.80833,0.04587
3209.74816,0.04560
3207.68799,0.04524
3205.62781,0.04547
3203.56764,0.04604
3201.50747,0.04606
3199.44730,0.04562
3197.38713,0.04530
3195.32695,0.04533
3193.26678,0.04569
3191.20661,0.04609
3189.14644,0.04590
3187.08626,0.04476
3185.02609,0.04352
3182.96592,0.04325
3180.90575,0.04362
3178.84558,0.04376
3176.78540,0.04347
3174.72523,0.04315
3172.66506,0.04305
3170.60489,0.04284
3168.54472,0.04244
3166.48454,0.04208
3164.42437,0.04177
3162.36420,0.04167
3160.30403,0.04176
3158.24386,0.04176
3156.18368,0.04142
3154.12351,0.04067
3152.06334,0.04007
3150.00317,0.03986
3147.94299,0.03980
3145.88282,0.03983
3143.82265,0.03983
3141.76248,0.03968
3139.70231,0.03939
3137.64213,0.03890
3135.58196,0.03843
3133.52179,0.03821
3131.46162,0.03811
3129.40145,0.03807
3127.34127,0.03795
3125.28110,0.03742
3123.22093,0.03680
3121.16076,0.03633
3119.10058,0.03586
3117.04041,0.03563
3114.98024,0.03574
3112.92007,0.03582
3110.85990,0.03565
3108.79972,0.03533
3106.73955,0.03508
3104.67938,0.03490
3102.61921,0.03467
3100.55904,0.03442
3098.49886,0.03419
3096.43869,0.03389
3094.37852,0.03325
3092.31835,0.03254
3090.25818,0.03234
3088.19800,0.03273
3086.13783,0.03325
3084.07766,0.03354
3082.01749,0.03346
3079.95731,0.03286
3077.89714,0.03187
3075.83697,0.03103
3073.77680,0.03077
3071.71663,0.03093
3069.65645,0.03135
3067.59628,0.03176
3065.53611,0.03158
3063.47594,0.03082
3061.41577,0.02986
3059.35559,0.02902
3057.29542,0.02860
3055.23525,0.02836
3053.17508,0.02808
3051.11491,0.02801
3049.05473,0.02806
3046.99456,0.02790
3044.93439,0.02754
3042.87422,0.02735
3040.81404,0.02724
3038.75387,0.02701
3036.69370,0.02686
3034.63353,0.02661
3032.57336,0.02623
3030.51318,0.02608
3028.45301,0.02623
3026.39284,0.02628
3024.33267,0.02610
3022.27250,0.02579
3020.21232,0.02533
3018.15215,0.02494
3016.09198,0.02496
3014.03181,0.02530
3011.97163,0.02522
3009.91146,0.02450
3007.85129,0.02397
3005.79112,0.02398
3003.73095,0.02394
3001.67077,0.02356
2999.61060,0.02327
2997.55043,0.02321
2995.49026,0.02297
2993.43009,0.02289
2991.36991,0.02312
2989.30974,0.02308
2987.24957,0.02287
2985.18940,0.02298
2983.12923,0.02316
2981.06905,0.02332
2979.00888,0.02368
2976.94871,0.02402
2974.88854,0.02423
2972.82836,0.02458
2970.76819,0.02527
2968.70802,0.02614
2966.64785,0.02689
2964.58768,0.02773
2962.52750,0.02925
2960.46733,0.03113
2958.40716,0.03230
2956.34699,0.03285
2954.28682,0.03407
2952.22664,0.03614
2950.16647,0.03831
2948.10630,0.04053
2946.04613,0.04266
2943.98596,0.04431
2941.92578,0.04599
2939.86561,0.04814
2937.80544,0.05058
2935.74527,0.05285
2933.68509,0.05480
2931.62492,0.05676
2929.56475,0.05889
2927.50458,0.06088
2925.44441,0.06226
2923.38423,0.06314
2921.32406,0.06396
2919.26389,0.06458
2917.20372,0.06441
2915.14355,0.06307
2913.08337,0.06084
2911.02320,0.05839
2908.96303,0.05618
2906.90286,0.05438
2904.84268,0.05270
2902.78251,0.05081
2900.72234,0.04906
2898.66217,0.04811
2896.60200,0.04764
2894.54182,0.04648
2892.48165,0.04480
2890.42148,0.04378
2888.36131,0.04336
2886.30114,0.04281
2884.24096,0.04200
2882.18079,0.04109
2880.12062,0.04040
2878.06045,0.04020
2876.00028,0.04032
2873.94010,0.04055
2871.87993,0.04082
2869.81976,0.04115
2867.75959,0.04145
2865.69941,0.04186
2863.63924,0.04269
2861.57907,0.04415
2859.51890,0.04606
2857.45873,0.04796
2855.39855,0.04981
2853.33838,0.05137
2851.27821,0.05172
2849.21804,0.05080
2847.15787,0.04906
2845.09769,0.04648
2843.03752,0.04371
2840.97735,0.04149
2838.91718,0.03967
2836.85700,0.03789
2834.79683,0.03624
2832.73666,0.03488
2830.67649,0.03368
2828.61632,0.03275
2826.55614,0.03224
2824.49597,0.03189
2822.43580,0.03130
2820.37563,0.03038
2818.31546,0.02953
2816.25528,0.02903
2814.19511,0.02868
2812.13494,0.02834
2810.07477,0.02803
2808.01460,0.02771
2805.95442,0.02764
2803.89425,0.02787
2801.83408,0.02772
2799.77391,0.02693
2797.71373,0.02637
2795.65356,0.02633
2793.59339,0.02622
2791.53322,0.02588
2789.47305,0.02544
2787.41287,0.02511
2785.35270,0.02519
2783.29253,0.02529
2781.23236,0.02514
2779.17219,0.02515
2777.11201,0.02525
2775.05184,0.02505
2772.99167,0.02481
2770.93150,0.02472
2768.87133,0.02436
2766.81115,0.02370
2764.75098,0.02343
2762.69081,0.02366
2760.63064,0.02378
2758.57046,0.02357
2756.51029,0.02324
2754.45012,0.02298
2752.38995,0.02289
2750.32978,0.02290
2748.26960,0.02293
2746.20943,0.02293
2744.14926,0.02275
2742.08909,0.02250
2740.02892,0.02235
2737.96874,0.02231
2735.90857,0.02225
2733.84840,0.02230
2731.78823,0.02258
2729.72805,0.02281
2727.66788,0.02282
2725.60771,0.02285
2723.54754,0.02279
2721.48737,0.02246
2719.42719,0.02211
2717.36702,0.02175
2715.30685,0.02143
2713.24668,0.02165
2711.18651,0.02232
2709.12633,0.02260
2707.06616,0.02210
2705.00599,0.02131
2702.94582,0.02085
2700.88565,0.02106
2698.82547,0.02164
2696.76530,0.02188
2694.70513,0.02159
2692.64496,0.02125
2690.58478,0.02122
2688.52461,0.02148
2686.46444,0.02174
2684.40427,0.02169
2682.34410,0.02139
2680.28392,0.02110
2678.22375,0.02092
2676.16358,0.02084
2674.10341,0.02091
2672.04324,0.02114
2669.98306,0.02131
2667.92289,0.02130
2665.86272,0.02099
2663.80255,0.02056
2661.74238,0.02054
2659.68220,0.02060
2657.62203,0.02020
2655.56186,0.01958
2653.50169,0.01928
2651.44151,0.01930
2649.38134,0.01919
2647.32117,0.01919
2645.26100,0.01979
2643.20083,0.02032
2641.14065,0.01993
2639.08048,0.01901
2637.02031,0.01844
2634.96014,0.01840
2632.89997,0.01860
2630.83979,0.01885
2628.77962,0.01896
2626.71945,0.01888
2624.65928,0.01900
2622.59910,0.01911
2620.53893,0.01864
2618.47876,0.01797
2616.41859,0.01781
2614.35842,0.01812
2612.29824,0.01841
2610.23807,0.01841
2608.17790,0.01814
2606.11773,0.01781
2604.05756,0.01749
2601.99738,0.01700
2599.93721,0.01649
2597.87704,0.01637
2595.81687,0.01687
2593.75670,0.01745
2591.69652,0.01718
2589.63635,0.01668
2587.57618,0.01713
2585.51601,0.01767
2583.45583,0.01743
2581.39566,0.01710
2579.33549,0.01701
2577.27532,0.01693
2575.21515,0.01694
2573.15497,0.01693
2571.09480,0.01655
2569.03463,0.01593
2566.97446,0.01536
2564.91429,0.01484
2562.85411,0.01480
2560.79394,0.01555
2558.73377,0.01593
2556.67360,0.01534
2554.61342,0.01486
2552.55325,0.01476
2550.49308,0.01458
2548.43291,0.01481
2546.37274,0.01522
2544.31256,0.01512
2542.25239,0.01474
2540.19222,0.01438
2538.13205,0.01426
2536.07188,0.01462
2534.01170,0.01497
2531.95153,0.01448
2529.89136,0.01337
2527.83119,0.01315
2525.77102,0.01395
2523.71084,0.01458
2521.65067,0.01492
2519.59050,0.01481
2517.53033,0.01408
2515.47015,0.01371
2513.40998,0.01405
2511.34981,0.01448
2509.28964,0.01481
2507.22947,0.01511
2505.16929,0.01527
2503.10912,0.01509
2501.04895,0.01463
2498.98878,0.01452
2496.92861,0.01498
2494.86843,0.01537
2492.80826,0.01517
2490.74809,0.01455
2488.68792,0.01409
2486.62775,0.01403
2484.56757,0.01412
2482.50740,0.01417
2480.44723,0.01412
2478.38706,0.01371
2476.32688,0.01255
2474.26671,0.01156
2472.20654,0.01190
2470.14637,0.01266
2468.08620,0.01289
2466.02602,0.01317
2463.96585,0.01340
2461.90568,0.01329
2459.84551,0.01337
2457.78534,0.01337
2455.72516,0.01286
2453.66499,0.01250
2451.60482,0.01248
2449.54465,0.01246
2447.48447,0.01269
2445.42430,0.01297
2443.36413,0.01260
2441.30396,0.01183
2439.24379,0.01166
2437.18361,0.01199
2435.12344,0.01194
2433.06327,0.01180
2431.00310,0.01202
2428.94293,0.01204
2426.88275,0.01179
2424.82258,0.01164
2422.76241,0.01147
2420.70224,0.01154
2418.64207,0.01174
2416.58189,0.01144
2414.52172,0.01093
2412.46155,0.01091
2410.40138,0.01146
2408.34120,0.01190
2406.28103,0.01184
2404.22086,0.01173
2402.16069,0.01185
2400.10052,0.01197
2398.04034,0.01168
2395.98017,0.01140
2393.92000,0.01162
2391.85983,0.01188
2389.79966,0.01141
2387.73948,0.01054
2385.67931,0.01008
2383.61914,0.01031
2381.55897,0.01110
2379.49880,0.01207
2377.43862,0.01263
2375.37845,0.01285
2373.31828,0.01267
2371.25811,0.01186
2369.19793,0.01134
2367.13776,0.01141
2365.07759,0.00985
2363.01742,0.00633
2360.95725,0.00398
2358.89707,0.00559
2356.83690,0.00868
2354.77673,0.01098
2352.71656,0.01188
2350.65639,0.01010
2348.59621,0.00785
2346.53604,0.00831
2344.47587,0.00878
2342.41570,0.00861
2340.35552,0.00874
2338.29535,0.00920
2336.23518,0.00930
2334.17501,0.00895
2332.11484,0.00865
2330.05466,0.00878
2327.99449,0.00996
2325.93432,0.01056
2323.87415,0.00964
2321.81398,0.00878
2319.75380,0.00952
2317.69363,0.01007
2315.63346,0.00995
2313.57329,0.01009
2311.51312,0.01076
2309.45294,0.01115
2307.39277,0.01067
2305.33260,0.00977
2303.27243,0.00916
2301.21225,0.00910
2299.15208,0.00955
2297.09191,0.01019
2295.03174,0.01034
2292.97157,0.01003
2290.91139,0.00983
2288.85122,0.00986
2286.79105,0.00991
2284.73088,0.01008
2282.67071,0.01014
2280.61053,0.00933
2278.55036,0.00817
2276.49019,0.00790
2274.43002,0.00847
2272.36984,0.00927
2270.30967,0.01026
2268.24950,0.01096
2266.18933,0.01028
2264.12916,0.00888
2262.06898,0.00809
2260.00881,0.00780
2257.94864,0.00830
2255.88847,0.00968
2253.82830,0.01034
2251.76812,0.00974
2249.70795,0.00862
2247.64778,0.00706
2245.58761,0.00550
2243.52744,0.00463
2241.46726,0.00501
2239.40709,0.00671
2237.34692,0.00787
2235.28675,0.00717
2233.22657,0.00677
2231.16640,0.00750
2229.10623,0.00723
2227.04606,0.00587
2224.98589,0.00493
2222.92571,0.00539
2220.86554,0.00648
2218.80537,0.00775
2216.74520,0.01004
2214.68503,0.01147
2212.62485,0.00985
2210.56468,0.00766
2208.50451,0.00754
2206.44434,0.00721
2204.38417,0.00621
2202.32399,0.00748
2200.26382,0.00973
2198.20365,0.00995
2196.14348,0.00879
2194.08330,0.00768
2192.02313,0.00693
2189.96296,0.00704
2187.90279,0.00806
2185.84262,0.00845
2183.78244,0.00713
2181.72227,0.00493
2179.66210,0.00346
2177.60193,0.00334
2175.54176,0.00225
2173.48158,0.00076
2171.42141,0.00323
2169.36124,0.00767
2167.30107,0.00895
2165.24089,0.00786
2163.18072,0.00692
2161.12055,0.00494
2159.06038,0.00305
2157.00021,0.00427
2154.94003,0.00689
2152.87986,0.00874
2150.81969,0.00940
2148.75952,0.00865
2146.69935,0.00654
2144.63917,0.00519
2142.57900,0.00568
2140.51883,0.00562
2138.45866,0.00484
2136.39849,0.00451
2134.33831,0.00419
2132.27814,0.00406
2130.21797,0.00426
2128.15780,0.00486
2126.09762,0.00599
2124.03745,0.00684
2121.97728,0.00690
2119.91711,0.00672
2117.85694,0.00723
2115.79676,0.00770
2113.73659,0.00727
2111.67642,0.00653
2109.61625,0.00582
2107.55608,0.00547
2105.49590,0.00557
2103.43573,0.00607
2101.37556,0.00666
2099.31539,0.00662
2097.25521,0.00632
2095.19504,0.00645
2093.13487,0.00677
2091.07470,0.00687
2089.01453,0.00693
2086.95435,0.00749
2084.89418,0.00791
2082.83401,0.00711
2080.77384,0.00611
2078.71367,0.00604
2076.65349,0.00661
2074.59332,0.00690
2072.53315,0.00654
2070.47298,0.00606
2068.41281,0.00531
2066.35263,0.00504
2064.29246,0.00602
2062.23229,0.00673
2060.17212,0.00608
2058.11194,0.00525
2056.05177,0.00553
2053.99160,0.00676
2051.93143,0.00745
2049.87126,0.00608
2047.81108,0.00385
2045.75091,0.00229
2043.69074,0.00157
2041.63057,0.00316
2039.57040,0.00717
2037.51022,0.01043
2035.45005,0.01068
2033.38988,0.00930
2031.32971,0.00808
2029.26954,0.00714
2027.20936,0.00571
2025.14919,0.00278
2023.08902,0.00014
2021.02885,0.00015
2018.96867,0.00082
2016.90850,0.00056
2014.84833,0.00146
2012.78816,0.00460
2010.72799,0.00692
2008.66781,0.00562
2006.60764,0.00282
2004.54747,0.00235
2002.48730,0.00392
2000.42713,0.00488
1998.36695,0.00532
1996.30678,0.00521
1994.24661,0.00345
1992.18644,0.00244
1990.12626,0.00433
1988.06609,0.00552
1986.00592,0.00332
1983.94575,0.00107
1981.88558,0.00108
1979.82540,0.00216
1977.76523,0.00247
1975.70506,0.00220
1973.64489,0.00298
1971.58472,0.00450
1969.52454,0.00511
1967.46437,0.00440
1965.40420,0.00434
1963.34403,0.00673
1961.28386,0.00898
1959.22368,0.00734
1957.16351,0.00330
1955.10334,0.00092
1953.04317,0.00084
1950.98299,0.00153
1948.92282,0.00257
1946.86265,0.00388
1944.80248,0.00480
1942.74231,0.00515
1940.68213,0.00436
1938.62196,0.00301
1936.56179,0.00222
1934.50162,0.00193
1932.44145,0.00135
1930.38127,0.00116
1928.32110,0.00215
1926.26093,0.00277
1924.20076,0.00224
1922.14059,0.00148
1920.08041,0.00188
1918.02024,0.00319
1915.96007,0.00375
1913.89990,0.00393
1911.83972,0.00369
1909.77955,0.00339
1907.71938,0.00366
1905.65921,0.00374
1903.59904,0.00355
1901.53886,0.00400
1899.47869,0.00498
1897.41852,0.00579
1895.35835,0.00580
1893.29818,0.00497
1891.23800,0.00463
1889.17783,0.00475
1887.11766,0.00443
1885.05749,0.00408
1882.99731,0.00369
1880.93714,0.00328
1878.87697,0.00295
1876.81680,0.00254
1874.75663,0.00208
1872.69645,0.00200
1870.63628,0.00300
1868.57611,0.00407
1866.51594,0.00363
1864.45577,0.00288
1862.39559,0.00275
1860.33542,0.00281
1858.27525,0.00292
1856.21508,0.00329
1854.15491,0.00369
1852.09473,0.00341
1850.03456,0.00248
1847.97439,0.00184
1845.91422,0.00228
1843.85404,0.00254
1841.79387,0.00154
1839.73370,0.00147
1837.67353,0.00218
1835.61336,0.00199
1833.55318,0.00155
1831.49301,0.00204
1829.43284,0.00197
1827.37267,0.00091
1825.31250,0.00089
1823.25232,0.00125
1821.19215,0.00147
1819.13198,0.00162
1817.07181,0.00130
1815.01163,0.00075
1812.95146,0.00077
1810.89129,0.00131
1808.83112,0.00162
1806.77095,0.00160
1804.71077,0.00140
1802.65060,0.00123
1800.59043,0.00093
1798.53026,0.00036
1796.47009,0.00023
1794.40991,0.00108
1792.34974,0.00187
1790.28957,0.00092
1788.22940,0.00002
1786.16923,0.00047
1784.10905,0.00086
1782.04888,0.00077
1779.98871,0.00052
1777.92854,0.00006
1775.86836,0.00000
1773.80819,0.00058
1771.74802,0.00089
1769.68785,0.00046
1767.62768,0.00022
1765.56750,0.00009
1763.50733,0.00094
1761.44716,0.00186
1759.38699,0.00217
1757.32682,0.00340
1755.26664,0.00460
1753.20647,0.00573
1751.14630,0.00714
1749.08613,0.00778
1747.02596,0.00847
1744.96578,0.01005
1742.90561,0.01189
1740.84544,0.01322
1738.78527,0.01327
1736.72509,0.01366
1734.66492,0.01557
1732.60475,0.01515
1730.54458,0.01380
1728.48441,0.01388
1726.42423,0.01459
1724.36406,0.01525
1722.30389,0.01501
1720.24372,0.01511
1718.18355,0.01610
1716.12337,0.01595
1714.06320,0.01548
1712.00303,0.01563
1709.94286,0.01593
1707.88268,0.01612
1705.82251,0.01579
1703.76234,0.01472
1701.70217,0.01531
1699.64200,0.01573
1697.58182,0.01510
1695.52165,0.01577
1693.46148,0.01572
1691.40131,0.01629
1689.34114,0.01716
1687.28096,0.01810
1685.22079,0.02157
1683.16062,0.02486
1681.10045,0.02614
1679.04028,0.02774
1676.98010,0.02989
1674.91993,0.03092
1672.85976,0.03065
1670.79959,0.03191
1668.73941,0.03235
1666.67924,0.03071
1664.61907,0.03049
1662.55890,0.03089
1660.49873,0.02948
1658.43855,0.02796
1656.37838,0.02829
1654.31821,0.03023
1652.25804,0.02851
1650.19787,0.02503
1648.13769,0.02610
1646.07752,0.02767
1644.01735,0.02684
1641.95718,0.02651
1639.89701,0.02698
1637.83683,0.02869
1635.77666,0.03097
1633.71649,0.03054
1631.65632,0.02971
1629.59614,0.03054
1627.53597,0.03162
1625.47580,0.03253
1623.41563,0.03298
1621.35546,0.03168
1619.29528,0.03154
1617.23511,0.03349
1615.17494,0.03409
1613.11477,0.03428
1611.05460,0.03599
1608.99442,0.03809
1606.93425,0.03944
1604.87408,0.03997
1602.81391,0.03967
1600.75373,0.03840
1598.69356,0.03674
1596.63339,0.03543
1594.57322,0.03440
1592.51305,0.03344
1590.45287,0.03275
1588.39270,0.03216
1586.33253,0.03135
1584.27236,0.03029
1582.21219,0.02896
1580.15201,0.02765
1578.09184,0.02737
1576.03167,0.02685
1573.97150,0.02463
1571.91133,0.02411
1569.85115,0.02497
1567.79098,0.02395
1565.73081,0.02240
1563.67064,0.02084
1561.61046,0.02060
1559.55029,0.02155
1557.49012,0.01816
1555.42995,0.01579
1553.36978,0.01621
1551.30960,0.01670
1549.24943,0.01591
1547.18926,0.01414
1545.12909,0.01310
1543.06892,0.01301
1541.00874,0.01377
1538.94857,0.01199
1536.88840,0.00888
1534.82823,0.00907
1532.76805,0.00958
1530.70788,0.00834
1528.64771,0.00804
1526.58754,0.00781
1524.52737,0.00714
1522.46719,0.00819
1520.40702,0.00947
1518.34685,0.01080
1516.28668,0.01263
1514.22651,0.01261
1512.16633,0.01134
1510.10616,0.01041
1508.04599,0.01080
1505.98582,0.00928
1503.92565,0.00598
1501.86547,0.00476
1499.80530,0.00493
1497.74513,0.00481
1495.68496,0.00340
1493.62478,0.00169
1491.56461,0.00177
1489.50444,0.00235
1487.44427,0.00188
1485.38410,0.00147
1483.32392,0.00182
1481.26375,0.00232
1479.20358,0.00227
1477.14341,0.00240
1475.08324,0.00344
1473.02306,0.00579
1470.96289,0.00754
1468.90272,0.00875
1466.84255,0.01159
1464.78238,0.01448
1462.72220,0.01477
1460.66203,0.01466
1458.60186,0.01656
1456.54169,0.01828
1454.48151,0.01822
1452.42134,0.01881
1450.36117,0.02021
1448.30100,0.02172
1446.24083,0.02279
1444.18065,0.02366
1442.12048,0.02436
1440.06031,0.02502
1438.00014,0.02679
1435.93997,0.02795
1433.87979,0.02731
1431.81962,0.02748
1429.75945,0.02799
1427.69928,0.02760
1425.63910,0.02736
1423.57893,0.02718
1421.51876,0.02734
1419.45859,0.02843
1417.39842,0.02844
1415.33824,0.02797
1413.27807,0.02809
1411.21790,0.02802
1409.15773,0.02741
1407.09756,0.02683
1405.03738,0.02603
1402.97721,0.02447
1400.91704,0.02358
1398.85687,0.02336
1396.79670,0.02289
1394.73652,0.02226
1392.67635,0.02105
1390.61618,0.02058
1388.55601,0.02154
1386.49583,0.02227
1384.43566,0.02247
1382.37549,0.02315
1380.31532,0.02398
1378.25515,0.02455
1376.19497,0.02535
1374.13480,0.02598
1372.07463,0.02553
1370.01446,0.02514
1367.95429,0.02513
1365.89411,0.02504
1363.83394,0.02514
1361.77377,0.02469
1359.71360,0.02384
1357.65343,0.02363
1355.59325,0.02374
1353.53308,0.02357
1351.47291,0.02341
1349.41274,0.02353
1347.35256,0.02364
1345.29239,0.02340
1343.23222,0.02303
1341.17205,0.02307
1339.11188,0.02319
1337.05170,0.02286
1334.99153,0.02252
1332.93136,0.02258
1330.87119,0.02297
1328.81102,0.02329
1326.75084,0.02335
1324.69067,0.02327
1322.63050,0.02315
1320.57033,0.02314
1318.51015,0.02324
1316.44998,0.02323
1314.38981,0.02314
1312.32964,0.02303
1310.26947,0.02288
1308.20929,0.02251
1306.14912,0.02166
1304.08895,0.02066
1302.02878,0.01994
1299.96861,0.01958
1297.90843,0.01950
1295.84826,0.01956
1293.78809,0.01959
1291.72792,0.01952
1289.66775,0.01945
1287.60757,0.01943
1285.54740,0.01943
1283.48723,0.01956
1281.42706,0.01986
1279.36688,0.02014
1277.30671,0.02022
1275.24654,0.02031
1273.18637,0.02068
1271.12620,0.02125
1269.06602,0.02182
1267.00585,0.02232
1264.94568,0.02292
1262.88551,0.02383
1260.82534,0.02474
1258.76516,0.02524
1256.70499,0.02584
1254.64482,0.02662
1252.58465,0.02684
1250.52447,0.02675
1248.46430,0.02711
1246.40413,0.02774
1244.34396,0.02826
1242.28379,0.02859
1240.22361,0.02864
1238.16344,0.02856
1236.10327,0.02848
1234.04310,0.02827
1231.98293,0.02771
1229.92275,0.02677
1227.86258,0.02572
1225.80241,0.02477
1223.74224,0.02377
1221.68207,0.02243
1219.62189,0.02086
1217.56172,0.01929
1215.50155,0.01789
1213.44138,0.01665
1211.38120,0.01535
1209.32103,0.01399
1207.26086,0.01293
1205.20069,0.01186
1203.14052,0.01017
1201.08034,0.00822
1199.02017,0.00667
1196.96000,0.00552
1194.89983,0.00441
1192.83966,0.00299
1190.77948,0.00149
1188.71931,0.00042
1186.65914,0.00000
1184.59897,-0.00014
1182.53880,-0.00011
1180.47862,0.00016
1178.41845,0.00092
1176.35828,0.00238
1174.29811,0.00437
1172.23793,0.00650
1170.17776,0.00867
1168.11759,0.01065
1166.05742,0.01200
1163.99725,0.01256
1161.93707,0.01258
1159.87690,0.01280
1157.81673,0.01350
1155.75656,0.01420
1153.69639,0.01486
1151.63621,0.01588
1149.57604,0.01717
1147.51587,0.01834
1145.45570,0.01925
1143.39552,0.02011
1141.33535,0.02106
1139.27518,0.02189
1137.21501,0.02245
1135.15484,0.02286
1133.09466,0.02347
1131.03449,0.02452
1128.97432,0.02577
1126.91415,0.02723
1124.85398,0.02886
1122.79380,0.03019
1120.73363,0.03129
1118.67346,0.03282
1116.61329,0.03466
1114.55312,0.03593
1112.49294,0.03659
1110.43277,0.03728
1108.37260,0.03826
1106.31243,0.03956
1104.25225,0.04120
1102.19208,0.04267
1100.13191,0.04382
1098.07174,0.04540
1096.01157,0.04775
1093.95139,0.05041
1091.89122,0.05276
1089.83105,0.05462
1087.77088,0.05622
1085.71071,0.05772
1083.65053,0.05910
1081.59036,0.06100
1079.53019,0.06414
1077.47002,0.06749
1075.40985,0.06995
1073.34967,0.07199
1071.28950,0.07404
1069.22933,0.07576
1067.16916,0.07735
1065.10898,0.07936
1063.04881,0.08145
1060.98864,0.08299
1058.92847,0.08415
1056.86830,0.08533
1054.80812,0.08691
1052.74795,0.08924
1050.68778,0.09224
1048.62761,0.09524
1046.56744,0.09789
1044.50726,0.10074
1042.44709,0.10382
1040.38692,0.10651
1038.32675,0.10849
1036.26657,0.10987
1034.20640,0.11101
1032.14623,0.11220
1030.08606,0.11263
1028.02589,0.11178
1025.96571,0.11091
1023.90554,0.11067
1021.84537,0.11064
1019.78520,0.11036
1017.72503,0.10960
1015.66485,0.10881
1013.60468,0.10850
1011.54451,0.10882
1009.48434,0.10953
1007.42417,0.11001
1005.36399,0.11001
1003.30382,0.10959
1001.24365,0.10868
999.18348,0.10755
997.12330,0.10597
995.06313,0.10388
993.00296,0.10192
990.94279,0.09992
988.88262,0.09796
986.82244,0.09677
984.76227,0.09595
982.70210,0.09440
980.64193,0.09223
978.58176,0.09049
976.52158,0.08920
974.46141,0.08774
972.40124,0.08588
970.34107,0.08377
968.28089,0.08174
966.22072,0.07982
964.16055,0.07773
962.10038,0.07560
960.04021,0.07407
957.98003,0.07301
955.91986,0.07160
953.85969,0.06987
951.79952,0.06770
949.73935,0.06506
947.67917,0.06310
945.61900,0.06179
943.55883,0.06007
941.49866,0.05774
939.43849,0.05506
937.37831,0.05206
935.31814,0.04873
933.25797,0.04536
931.19780,0.04224
929.13762,0.03942
927.07745,0.03700
925.01728,0.03520
922.95711,0.03359
920.89694,0.03156
918.83676,0.02923
916.77659,0.02682
914.71642,0.02451
912.65625,0.02286
910.59608,0.02203
908.53590,0.02113
906.47573,0.01977
904.41556,0.01840
902.35539,0.01738
900.29522,0.01720
898.23504,0.01779
896.17487,0.01834
894.11470,0.01845
892.05453,0.01813
889.99435,0.01746
887.93418,0.01643
885.87401,0.01504
883.81384,0.01406
881.75367,0.01415
879.69349,0.01437
877.63332,0.01344
875.57315,0.01141
873.51298,0.00955
871.45281,0.00906
869.39263,0.00928
867.33246,0.00902
865.27229,0.00835
863.21212,0.00789
861.15194,0.00779
859.09177,0.00804
857.03160,0.00822
854.97143,0.00783
852.91126,0.00727
850.85108,0.00705
848.79091,0.00722
846.73074,0.00761
844.67057,0.00784
842.61040,0.00724
840.55022,0.00570
838.49005,0.00464
836.42988,0.00466
834.36971,0.00520
832.30954,0.00538
830.24936,0.00443
828.18919,0.00333
826.12902,0.00310
824.06885,0.00319
822.00867,0.00297
819.94850,0.00314
817.88833,0.00379
815.82816,0.00375
813.76799,0.00285
811.70781,0.00217
809.64764,0.00274
807.58747,0.00362
805.52730,0.00267
803.46713,0.00078
801.40695,0.00055
799.34678,0.00103
797.28661,0.00077
795.22644,0.00059
793.16627,0.00057
791.10609,0.00065
789.04592,0.00112
786.98575,0.00136
784.92558,0.00110
782.86540,0.00122
780.80523,0.00148
778.74506,0.00111
776.68489,0.00089
774.62472,0.00127
772.56454,0.00133
770.50437,0.00131
768.44420,0.00260
766.38403,0.00383
764.32386,0.00269
762.26368,0.00100
760.20351,0.00091
758.14334,0.00178
756.08317,0.00291
754.02299,0.00315
751.96282,0.00208
749.90265,0.00181
747.84248,0.00293
745.78231,0.00365
743.72213,0.00276
741.66196,0.00089
739.60179,0.00000
737.54162,0.00063
735.48145,0.00177
733.42127,0.00123
731.36110,-0.00035
729.30093,0.00024
727.24076,0.00285
725.18059,0.00519
723.12041,0.00617
721.06024,0.00567
719.00007,0.00420
716.93990,0.00372
714.87972,0.00495
712.81955,0.00669
710.75938,0.00705
708.69921,0.00604
706.63904,0.00507
704.57886,0.00424
702.51869,0.00451
700.45852,0.00673
698.39835,0.00890
696.33818,0.00996
694.27800,0.01024
692.21783,0.00936
690.15766,0.00794
688.09749,0.00742
686.03731,0.00746
683.97714,0.00610
681.91697,0.00378
679.85680,0.00335
677.79663,0.00451
675.73645,0.00465
673.67628,0.00413
671.61611,0.00522
669.55594,0.01006
667.49577,0.01384
665.43559,0.01046
663.37542,0.00756
661.31525,0.00470
659.25508,0.00335
657.19491,0.00353
655.13473,0.00356
653.07456,0.00423
651.01439,0.00571
648.95422,0.00625
646.89404,0.00513
644.83387,0.00250
642.77370,0.00000
640.71353,0.00016
638.65336,0.00271
636.59318,0.00426
634.53301,0.00514
632.47284,0.00781
630.41267,0.01113
628.35250,0.00983
626.29232,0.00204
624.23215,-0.00197
622.17198,0.00004
620.11181,-0.00067
618.05164,-0.00135
615.99146,0.00075
613.93129,0.00063
611.87112,0.00257
609.81095,0.00815
607.75077,0.01230
605.69060,0.01280
603.63043,0.00984
601.57026,0.00615
599.51009,0.00000
