3996.73391,0.00001
3994.67373,0.00010
3992.61356,0.00018
3990.55339,0.00042
3988.49322,0.00043
3986.43305,0.00034
3984.37287,0.00029
3982.31270,0.00020
3980.25253,0.00021
3978.19236,0.00043
3976.13219,0.00063
3974.07201,0.00060
3972.01184,0.00041
3969.95167,0.00017
3967.89150,0.00000
3965.83133,0.00018
3963.77115,0.00076
3961.71098,0.00110
3959.65081,0.00091
3957.59064,0.00070
3955.53046,0.00054
3953.47029,0.00056
3951.41012,0.00104
3949.34995,0.00158
3947.28978,0.00154
3945.22960,0.00142
3943.16943,0.00152
3941.10926,0.00129
3939.04909,0.00114
3936.98892,0.00104
3934.92874,0.00106
3932.86857,0.00159
3930.80840,0.00167
3928.74823,0.00117
3926.68805,0.00132
3924.62788,0.00165
3922.56771,0.00138
3920.50754,0.00149
3918.44737,0.00195
3916.38719,0.00194
3914.32702,0.00156
3912.26685,0.00124
3910.20668,0.00055
3908.14651,0.00000
3906.08633,0.00060
3904.02616,0.00135
3901.96599,0.00144
3899.90582,0.00188
3897.84565,0.00176
3895.78547,0.00120
3893.72530,0.00172
3891.66513,0.00248
3889.60496,0.00180
3887.54478,0.00170
3885.48461,0.00207
3883.42444,0.00142
3881.36427,0.00186
3879.30410,0.00197
3877.24392,0.00131
3875.18375,0.00158
3873.12358,0.00159
3871.06341,0.00165
3869.00324,0.00121
3866.94306,0.00096
3864.88289,0.00217
3862.82272,0.00230
3860.76255,0.00138
3858.70237,0.00085
3856.64220,0.00205
3854.58203,0.00506
3852.52186,0.00537
3850.46169,0.00260
3848.40151,0.00138
3846.34134,0.00196
3844.28117,0.00244
3842.22100,0.00176
3840.16083,0.00139
3838.10065,0.00145
3836.04048,0.00098
3833.98031,0.00128
3831.92014,0.00206
3829.85997,0.00202
3827.79979,0.00184
3825.73962,0.00130
3823.67945,0.00134
3821.61928,0.00240
3819.55910,0.00165
3817.49893,0.00183
3815.43876,0.00264
3813.37859,0.00171
3811.31842,0.00096
3809.25824,0.00116
3807.19807,0.00134
3805.13790,0.00078
3803.07773,0.00217
3801.01756,0.00334
3798.95738,0.00246
3796.89721,0.00316
3794.83704,0.00371
3792.77687,0.00304
3790.71670,0.00233
3788.65652,0.00213
3786.59635,0.00260
3784.53618,0.00278
3782.47601,0.00257
3780.41583,0.00326
3778.35566,0.00340
3776.29549,0.00240
3774.23532,0.00180
3772.17515,0.00215
3770.11497,0.00276
3768.05480,0.00272
3765.99463,0.00294
3763.93446,0.00274
3761.87429,0.00257
3759.81411,0.00267
3757.75394,0.00181
3755.69377,0.00099
3753.63360,0.00176
3751.57342,0.00289
3749.51325,0.00168
3747.45308,0.00049
3745.39291,0.00224
3743.33274,0.00246
3741.27256,0.00052
3739.21239,0.00010
3737.15222,0.00173
3735.09205,0.00352
3733.03188,0.00376
3730.97170,0.00303
3728.91153,0.00282
3726.85136,0.00354
3724.79119,0.00376
3722.73102,0.00384
3720.67084,0.00379
3718.61067,0.00287
3716.55050,0.00171
3714.49033,0.00186
3712.43015,0.00278
3710.36998,0.00207
3708.30981,0.00040
3706.24964,0.00000
3704.18947,0.00113
3702.12929,0.00212
3700.06912,0.00150
3698.00895,0.00089
3695.94878,0.00092
3693.88861,0.00102
3691.82843,0.00211
3689.76826,0.00378
3687.70809,0.00381
3685.64792,0.00311
3683.58775,0.00332
3681.52757,0.00355
3679.46740,0.00343
3677.40723,0.00388
3675.34706,0.00380
3673.28688,0.00212
3671.22671,0.00288
3669.16654,0.00344
3667.10637,0.00193
3665.04620,0.00169
3662.98602,0.00247
3660.92585,0.00268
3658.86568,0.00279
3656.80551,0.00327
3654.74534,0.00244
3652.68516,0.00190
3650.62499,0.00285
3648.56482,0.00276
3646.50465,0.00187
3644.44447,0.00185
3642.38430,0.00271
3640.32413,0.00313
3638.26396,0.00308
3636.20379,0.00303
3634.14361,0.00290
3632.08344,0.00324
3630.02327,0.00540
3627.96310,0.00595
3625.90293,0.00371
3623.84275,0.00262
3621.78258,0.00346
3619.72241,0.00474
3617.66224,0.00456
3615.60207,0.00436
3613.54189,0.00550
3611.48172,0.00652
3609.42155,0.00722
3607.36138,0.00714
3605.30120,0.00636
3603.24103,0.00650
3601.18086,0.00734
3599.12069,0.00767
3597.06052,0.00790
3595.00034,0.00817
3592.94017,0.00765
3590.88000,0.00745
3588.81983,0.00873
3586.75966,0.00967
3584.69948,0.00913
3582.63931,0.00881
3580.57914,0.00907
3578.51897,0.00942
3576.45879,0.00969
3574.39862,0.00966
3572.33845,0.00928
3570.27828,0.00935
3568.21811,0.01051
3566.15793,0.01151
3564.09776,0.01155
3562.03759,0.01181
3559.97742,0.01250
3557.91725,0.01316
3555.85707,0.01380
3553.79690,0.01458
3551.73673,0.01500
3549.67656,0.01517
3547.61639,0.01578
3545.55621,0.01612
3543.49604,0.01584
3541.43587,0.01577
3539.37570,0.01634
3537.31552,0.01712
3535.25535,0.01739
3533.19518,0.01737
3531.13501,0.01777
3529.07484,0.01838
3527.01466,0.01880
3524.95449,0.01927
3522.89432,0.01982
3520.83415,0.02015
3518.77398,0.02064
3516.71380,0.02123
3514.65363,0.02152
3512.59346,0.02160
3510.53329,0.02177
3508.47312,0.02187
3506.41294,0.02214
3504.35277,0.02290
3502.29260,0.02346
3500.23243,0.02387
3498.17225,0.02467
3496.11208,0.02529
3494.05191,0.02541
3491.99174,0.02537
3489.93157,0.02579
3487.87139,0.02689
3485.81122,0.02798
3483.75105,0.02853
3481.69088,0.02848
3479.63071,0.02823
3477.57053,0.02858
3475.51036,0.02946
3473.45019,0.03017
3471.39002,0.03031
3469.32984,0.03030
3467.26967,0.03066
3465.20950,0.03136
3463.14933,0.03207
3461.08916,0.03244
3459.02898,0.03251
3456.96881,0.03250
3454.90864,0.03265
3452.84847,0.03313
3450.78830,0.03381
3448.72812,0.03456
3446.66795,0.03481
3444.60778,0.03462
3442.54761,0.03510
3440.48744,0.03603
3438.42726,0.03678
3436.36709,0.03700
3434.30692,0.03716
3432.24675,0.03767
3430.18657,0.03794
3428.12640,0.03780
3426.06623,0.03783
3424.00606,0.03820
3421.94589,0.03856
3419.88571,0.03870
3417.82554,0.03907
3415.76537,0.03990
3413.70520,0.04069
3411.64503,0.04107
3409.58485,0.04130
3407.52468,0.04171
3405.46451,0.04230
3403.40434,0.04304
3401.34416,0.04354
3399.28399,0.04355
3397.22382,0.04336
3395.16365,0.04307
3393.10348,0.04299
3391.04330,0.04307
3388.98313,0.04344
3386.92296,0.04424
3384.86279,0.04496
3382.80262,0.04523
3380.74244,0.04539
3378.68227,0.04553
3376.62210,0.04572
3374.56193,0.04607
3372.50176,0.04634
3370.44158,0.04648
3368.38141,0.04662
3366.32124,0.04676
3364.26107,0.04714
3362.20089,0.04764
3360.14072,0.04765
3358.08055,0.04735
3356.02038,0.04748
3353.96021,0.04794
3351.90003,0.04845
3349.83986,0.04899
3347.77969,0.04918
3345.71952,0.04885
3343.65935,0.04850
3341.59917,0.04857
3339.53900,0.04874
3337.47883,0.04879
3335.41866,0.04894
3333.35849,0.04921
3331.29831,0.04933
3329.23814,0.04906
3327.17797,0.04882
3325.11780,0.04910
3323.05762,0.04973
3320.99745,0.05035
3318.93728,0.05063
3316.87711,0.05080
3314.81694,0.05104
3312.75676,0.05074
3310.69659,0.05017
3308.63642,0.05019
3306.57625,0.05032
3304.51608,0.05006
3302.45590,0.04993
3300.39573,0.05022
3298.33556,0.05043
3296.27539,0.05028
3294.21521,0.05034
3292.15504,0.05067
3290.09487,0.05066
3288.03470,0.05046
3285.97453,0.05053
3283.91435,0.05075
3281.85418,0.05081
3279.79401,0.05068
3277.73384,0.05051
3275.67367,0.05033
3273.61349,0.05035
3271.55332,0.05072
3269.49315,0.05079
3267.43298,0.05027
3265.37281,0.05016
3263.31263,0.05056
3261.25246,0.05052
3259.19229,0.05012
3257.13212,0.04990
3255.07194,0.04975
3253.01177,0.04956
3250.95160,0.04950
3248.89143,0.04951
3246.83126,0.04927
3244.77108,0.04884
3242.71091,0.04885
3240.65074,0.04942
3238.59057,0.04975
3236.53040,0.04960
3234.47022,0.04931
3232.41005,0.04899
3230.34988,0.04895
3228.28971,0.04922
3226.22954,0.04930
3224.16936,0.04894
3222.10919,0.04833
3220.04902,0.04782
3217.98885,0.04760
3215.92867,0.04764
3213.86850,0.04765
3211.80833,0.04738
3209.74816,0.04698
3207.68799,0.04649
3205.62781,0.04618
3203.56764,0.04628
3201.50747,0.04661
3199.44730,0.04680
3197.38713,0.04662
3195.32695,0.04632
3193.26678,0.04636
3191.20661,0.04663
3189.14644,0.04661
3187.08626,0.04603
3185.02609,0.04529
3182.96592,0.04498
3180.90575,0.04517
3178.84558,0.04531
3176.78540,0.04487
3174.72523,0.04420
3172.66506,0.04380
3170.60489,0.04357
3168.54472,0.04333
3166.48454,0.04300
3164.42437,0.04258
3162.36420,0.04239
3160.30403,0.04247
3158.24386,0.04251
3156.18368,0.04224
3154.12351,0.04162
3152.06334,0.04110
3150.00317,0.04087
3147.94299,0.04061
3145.88282,0.04033
3143.82265,0.04014
3141.76248,0.03985
3139.70231,0.03942
3137.64213,0.03889
3135.58196,0.03842
3133.52179,0.03832
3131.46162,0.03851
3129.40145,0.03880
3127.34127,0.03881
3125.28110,0.03832
3123.22093,0.03773
3121.16076,0.03734
3119.10058,0.03711
3117.04041,0.03696
3114.98024,0.03688
3112.92007,0.03683
3110.85990,0.03669
3108.79972,0.03631
3106.73955,0.03574
3104.67938,0.03535
3102.61921,0.03538
3100.55904,0.03534
3098.49886,0.03503
3096.43869,0.03466
3094.37852,0.03423
3092.31835,0.03381
3090.25818,0.03351
3088.19800,0.03333
3086.13783,0.03336
3084.07766,0.03369
3082.01749,0.03386
3079.95731,0.03337
3077.89714,0.03264
3075.83697,0.03223
3073.77680,0.03202
3071.71663,0.03174
3069.65645,0.03147
3067.59628,0.03129
3065.53611,0.03106
3063.47594,0.03075
3061.41577,0.03029
3059.35559,0.02983
3057.29542,0.02965
3055.23525,0.02955
3053.17508,0.02925
3051.11491,0.02892
3049.05473,0.02872
3046.99456,0.02841
3044.93439,0.02801
3042.87422,0.02780
3040.81404,0.02766
3038.75387,0.02748
3036.69370,0.02728
3034.63353,0.02691
3032.57336,0.02649
3030.51318,0.02627
3028.45301,0.02612
3026.39284,0.02596
3024.33267,0.02582
3022.27250,0.02560
3020.21232,0.02521
3018.15215,0.02494
3016.09198,0.02513
3014.03181,0.02546
3011.97163,0.02530
3009.91146,0.02458
3007.85129,0.02410
3005.79112,0.02436
3003.73095,0.02453
3001.67077,0.02417
2999.61060,0.02388
2997.55043,0.02369
2995.49026,0.02314
2993.43009,0.02281
2991.36991,0.02310
2989.30974,0.02341
2987.24957,0.02337
2985.18940,0.02323
2983.12923,0.02334
2981.06905,0.02365
2979.00888,0.02396
2976.94871,0.02417
2974.88854,0.02436
2972.82836,0.02484
2970.76819,0.02569
2968.70802,0.02663
2966.64785,0.02745
2964.58768,0.02848
2962.52750,0.03010
2960.46733,0.03189
2958.40716,0.03328
2956.34699,0.03441
2954.28682,0.03575
2952.22664,0.03727
2950.16647,0.03889
2948.10630,0.04078
2946.04613,0.04293
2943.98596,0.04505
2941.92578,0.04713
2939.86561,0.04938
2937.80544,0.05194
2935.74527,0.05464
2933.68509,0.05713
2931.62492,0.05941
2929.56475,0.06145
2927.50458,0.06315
2925.44441,0.06453
2923.38423,0.06563
2921.32406,0.06647
2919.26389,0.06694
2917.20372,0.06675
2915.14355,0.06556
2913.08337,0.06335
2911.02320,0.06075
2908.96303,0.05823
2906.90286,0.05606
2904.84268,0.05446
2902.78251,0.05313
2900.72234,0.05176
2898.66217,0.05047
2896.60200,0.04924
2894.54182,0.04780
2892.48165,0.04615
2890.42148,0.04488
2888.36131,0.04427
2886.30114,0.04374
2884.24096,0.04288
2882.18079,0.04222
2880.12062,0.04209
2878.06045,0.04203
2876.00028,0.04197
2873.94010,0.04223
2871.87993,0.04275
2869.81976,0.04310
2867.75959,0.04329
2865.69941,0.04389
2863.63924,0.04488
2861.57907,0.04615
2859.51890,0.04784
2857.45873,0.04974
2855.39855,0.05156
2853.33838,0.05301
2851.27821,0.05372
2849.21804,0.05340
2847.15787,0.05166
2845.09769,0.04866
2843.03752,0.04532
2840.97735,0.04242
2838.91718,0.04015
2836.85700,0.03833
2834.79683,0.03683
2832.73666,0.03562
2830.67649,0.03454
2828.61632,0.03355
2826.55614,0.03276
2824.49597,0.03233
2822.43580,0.03190
2820.37563,0.03115
2818.31546,0.03051
2816.25528,0.03011
2814.19511,0.02970
2812.13494,0.02920
2810.07477,0.02877
2808.01460,0.02857
2805.95442,0.02846
2803.89425,0.02830
2801.83408,0.02811
2799.77391,0.02778
2797.71373,0.02730
2795.65356,0.02685
2793.59339,0.02665
2791.53322,0.02672
2789.47305,0.02665
2787.41287,0.02626
2785.35270,0.02586
2783.29253,0.02547
2781.23236,0.02519
2779.17219,0.02528
2777.11201,0.02531
2775.05184,0.02497
2772.99167,0.02461
2770.93150,0.02451
2768.87133,0.02439
2766.81115,0.02403
2764.75098,0.02387
2762.69081,0.02402
2760.63064,0.02405
2758.57046,0.02381
2756.51029,0.02354
2754.45012,0.02345
2752.38995,0.02364
2750.32978,0.02385
2748.26960,0.02378
2746.20943,0.02351
2744.14926,0.02329
2742.08909,0.02311
2740.02892,0.02295
2737.96874,0.02288
2735.90857,0.02272
2733.84840,0.02261
2731.78823,0.02278
2729.72805,0.02301
2727.66788,0.02306
2725.60771,0.02309
2723.54754,0.02312
2721.48737,0.02312
2719.42719,0.02310
2717.36702,0.02274
2715.30685,0.02211
2713.24668,0.02176
2711.18651,0.02189
2709.12633,0.02204
2707.06616,0.02190
2705.00599,0.02162
2702.94582,0.02145
2700.88565,0.02164
2698.82547,0.02198
2696.76530,0.02205
2694.70513,0.02191
2692.64496,0.02171
2690.58478,0.02146
2688.52461,0.02133
2686.46444,0.02149
2684.40427,0.02169
2682.34410,0.02169
2680.28392,0.02157
2678.22375,0.02146
2676.16358,0.02138
2674.10341,0.02147
2672.04324,0.02160
2669.98306,0.02153
2667.92289,0.02142
2665.86272,0.02124
2663.80255,0.02092
2661.74238,0.02076
2659.68220,0.02080
2657.62203,0.02078
2655.56186,0.02059
2653.50169,0.02035
2651.44151,0.02021
2649.38134,0.02009
2647.32117,0.01997
2645.26100,0.02006
2643.20083,0.02017
2641.14065,0.01997
2639.08048,0.01952
2637.02031,0.01901
2634.96014,0.01866
2632.89997,0.01860
2630.83979,0.01883
2628.77962,0.01912
2626.71945,0.01930
2624.65928,0.01953
2622.59910,0.01960
2620.53893,0.01927
2618.47876,0.01889
2616.41859,0.01853
2614.35842,0.01803
2612.29824,0.01798
2610.23807,0.01866
2608.17790,0.01900
2606.11773,0.01835
2604.05756,0.01758
2601.99738,0.01740
2599.93721,0.01744
2597.87704,0.01753
2595.81687,0.01796
2593.75670,0.01834
2591.69652,0.01793
2589.63635,0.01727
2587.57618,0.01727
2585.51601,0.01755
2583.45583,0.01736
2581.39566,0.01685
2579.33549,0.01674
2577.27532,0.01697
2575.21515,0.01705
2573.15497,0.01696
2571.09480,0.01667
2569.03463,0.01624
2566.97446,0.01597
2564.91429,0.01569
2562.85411,0.01545
2560.79394,0.01578
2558.73377,0.01613
2556.67360,0.01572
2554.61342,0.01530
2552.55325,0.01523
2550.49308,0.01485
2548.43291,0.01456
2546.37274,0.01481
2544.31256,0.01516
2542.25239,0.01513
2540.19222,0.01476
2538.13205,0.01447
2536.07188,0.01453
2534.01170,0.01481
2531.95153,0.01486
2529.89136,0.01474
2527.83119,0.01472
2525.77102,0.01458
2523.71084,0.01457
2521.65067,0.01508
2519.59050,0.01535
2517.53033,0.01489
2515.47015,0.01459
2513.40998,0.01458
2511.34981,0.01448
2509.28964,0.01463
2507.22947,0.01506
2505.16929,0.01518
2503.10912,0.01474
2501.04895,0.01385
2498.98878,0.01324
2496.92861,0.01363
2494.86843,0.01422
2492.80826,0.01420
2490.74809,0.01384
2488.68792,0.01369
2486.62775,0.01372
2484.56757,0.01365
2482.50740,0.01345
2480.44723,0.01327
2478.38706,0.01312
2476.32688,0.01278
2474.26671,0.01248
2472.20654,0.01270
2470.14637,0.01294
2468.08620,0.01265
2466.02602,0.01247
2463.96585,0.01277
2461.90568,0.01285
2459.84551,0.01268
2457.78534,0.01272
2455.72516,0.01292
2453.66499,0.01307
2451.60482,0.01290
2449.54465,0.01239
2447.48447,0.01212
2445.42430,0.01213
2443.36413,0.01198
2441.30396,0.01178
2439.24379,0.01188
2437.18361,0.01231
2435.12344,0.01270
2433.06327,0.01287
2431.00310,0.01281
2428.94293,0.01266
2426.88275,0.01255
2424.82258,0.01234
2422.76241,0.01196
2420.70224,0.01183
2418.64207,0.01188
2416.58189,0.01172
2414.52172,0.01154
2412.46155,0.01154
2410.40138,0.01168
2408.34120,0.01174
2406.28103,0.01153
2404.22086,0.01120
2402.16069,0.01125
2400.10052,0.01181
2398.04034,0.01205
2395.98017,0.01196
2393.92000,0.01194
2391.85983,0.01188
2389.79966,0.01144
2387.73948,0.01103
2385.67931,0.01106
2383.61914,0.01127
2381.55897,0.01153
2379.49880,0.01181
2377.43862,0.01211
2375.37845,0.01250
2373.31828,0.01302
2371.25811,0.01337
2369.19793,0.01362
2367.13776,0.01418
2365.07759,0.01387
2363.01742,0.01184
2360.95725,0.01043
2358.89707,0.01035
2356.83690,0.01084
2354.77673,0.01096
2352.71656,0.01169
2350.65639,0.01317
2348.59621,0.01315
2346.53604,0.01099
2344.47587,0.01018
2342.41570,0.00989
2340.35552,0.00980
2338.29535,0.01004
2336.23518,0.00962
2334.17501,0.00920
2332.11484,0.00947
2330.05466,0.01021
2327.99449,0.01095
2325.93432,0.01126
2323.87415,0.00985
2321.81398,0.00835
2319.75380,0.00859
2317.69363,0.00979
2315.63346,0.01019
2313.57329,0.01043
2311.51312,0.01125
2309.45294,0.01180
2307.39277,0.01148
2305.33260,0.01105
2303.27243,0.01107
2301.21225,0.01097
2299.15208,0.01074
2297.09191,0.01056
2295.03174,0.01039
2292.97157,0.01035
2290.91139,0.01035
2288.85122,0.01028
2286.79105,0.01031
2284.73088,0.01056
2282.67071,0.01065
2280.61053,0.01016
2278.55036,0.00945
2276.49019,0.00920
2274.43002,0.00951
2272.36984,0.01009
2270.30967,0.01098
2268.24950,0.01151
2266.18933,0.01064
2264.12916,0.00917
2262.06898,0.00847
2260.00881,0.00829
2257.94864,0.00826
2255.88847,0.00822
2253.82830,0.00808
2251.76812,0.00795
2249.70795,0.00758
2247.64778,0.00670
2245.58761,0.00586
2243.52744,0.00574
2241.46726,0.00603
2239.40709,0.00687
2237.34692,0.00840
2235.28675,0.00919
2233.22657,0.00890
2231.16640,0.00821
2229.10623,0.00725
2227.04606,0.00676
2224.98589,0.00680
2222.92571,0.00694
2220.86554,0.00721
2218.80537,0.00753
2216.74520,0.00822
2214.68503,0.00846
2212.62485,0.00740
2210.56468,0.00666
2208.50451,0.00727
2206.44434,0.00731
2204.38417,0.00656
2202.32399,0.00704
2200.26382,0.00802
2198.20365,0.00794
2196.14348,0.00762
2194.08330,0.00742
2192.02313,0.00676
2189.96296,0.00711
2187.90279,0.00874
2185.84262,0.00850
2183.78244,0.00638
2181.72227,0.00537
2179.66210,0.00518
2177.60193,0.00439
2175.54176,0.00328
2173.48158,0.00277
2171.42141,0.00380
2169.36124,0.00610
2167.30107,0.00733
2165.24089,0.00637
2163.18072,0.00501
2161.12055,0.00354
2159.06038,0.00269
2157.00021,0.00394
2154.94003,0.00608
2152.87986,0.00838
2150.81969,0.00967
2148.75952,0.00859
2146.69935,0.00599
2144.63917,0.00484
2142.57900,0.00629
2140.51883,0.00742
2138.45866,0.00692
2136.39849,0.00612
2134.33831,0.00570
2132.27814,0.00557
2130.21797,0.00547
2128.15780,0.00575
2126.09762,0.00635
2124.03745,0.00700
2121.97728,0.00752
2119.91711,0.00763
2117.85694,0.00776
2115.79676,0.00765
2113.73659,0.00667
2111.67642,0.00563
2109.61625,0.00515
2107.55608,0.00472
2105.49590,0.00407
2103.43573,0.00391
2101.37556,0.00437
2099.31539,0.00494
2097.25521,0.00553
2095.19504,0.00619
2093.13487,0.00621
2091.07470,0.00531
2089.01453,0.00510
2086.95435,0.00627
2084.89418,0.00697
2082.83401,0.00653
2080.77384,0.00654
2078.71367,0.00728
2076.65349,0.00791
2074.59332,0.00840
2072.53315,0.00834
2070.47298,0.00736
2068.41281,0.00607
2066.35263,0.00523
2064.29246,0.00495
2062.23229,0.00524
2060.17212,0.00569
2058.11194,0.00592
2056.05177,0.00632
2053.99160,0.00681
2051.93143,0.00699
2049.87126,0.00593
2047.81108,0.00395
2045.75091,0.00253
2043.69074,0.00130
2041.63057,0.00129
2039.57040,0.00481
2037.51022,0.00884
2035.45005,0.00901
2033.38988,0.00754
2031.32971,0.00642
2029.26954,0.00455
2027.20936,0.00252
2025.14919,0.00070
2023.08902,0.00000
2021.02885,0.00103
2018.96867,0.00126
2016.90850,0.00040
2014.84833,0.00162
2012.78816,0.00435
2010.72799,0.00515
2008.66781,0.00370
2006.60764,0.00220
2004.54747,0.00282
2002.48730,0.00496
2000.42713,0.00610
1998.36695,0.00616
1996.30678,0.00582
1994.24661,0.00428
1992.18644,0.00303
1990.12626,0.00417
1988.06609,0.00581
1986.00592,0.00536
1983.94575,0.00322
1981.88558,0.00122
1979.82540,0.00109
1977.76523,0.00241
1975.70506,0.00322
1973.64489,0.00324
1971.58472,0.00358
1969.52454,0.00422
1967.46437,0.00424
1965.40420,0.00375
1963.34403,0.00416
1961.28386,0.00479
1959.22368,0.00382
1957.16351,0.00208
1955.10334,0.00143
1953.04317,0.00210
1950.98299,0.00320
1948.92282,0.00359
1946.86265,0.00310
1944.80248,0.00311
1942.74231,0.00397
1940.68213,0.00380
1938.62196,0.00303
1936.56179,0.00268
1934.50162,0.00226
1932.44145,0.00155
1930.38127,0.00143
1928.32110,0.00234
1926.26093,0.00347
1924.20076,0.00438
1922.14059,0.00442
1920.08041,0.00409
1918.02024,0.00399
1915.96007,0.00346
1913.89990,0.00347
1911.83972,0.00390
1909.77955,0.00389
1907.71938,0.00335
1905.65921,0.00296
1903.59904,0.00337
1901.53886,0.00430
1899.47869,0.00494
1897.41852,0.00486
1895.35835,0.00427
1893.29818,0.00369
1891.23800,0.00383
1889.17783,0.00388
1887.11766,0.00340
1885.05749,0.00334
1882.99731,0.00338
1880.93714,0.00343
1878.87697,0.00367
1876.81680,0.00358
1874.75663,0.00292
1872.69645,0.00251
1870.63628,0.00331
1868.57611,0.00414
1866.51594,0.00337
1864.45577,0.00231
1862.39559,0.00219
1860.33542,0.00279
1858.27525,0.00352
1856.21508,0.00393
1854.15491,0.00392
1852.09473,0.00359
1850.03456,0.00320
1847.97439,0.00300
1845.91422,0.00349
1843.85404,0.00389
1841.79387,0.00313
1839.73370,0.00290
1837.67353,0.00316
1835.61336,0.00271
1833.55318,0.00223
1831.49301,0.00279
1829.43284,0.00294
1827.37267,0.00214
1825.31250,0.00214
1823.25232,0.00225
1821.19215,0.00213
1819.13198,0.00198
1817.07181,0.00156
1815.01163,0.00122
1812.95146,0.00153
1810.89129,0.00202
1808.83112,0.00190
1806.77095,0.00162
1804.71077,0.00156
1802.65060,0.00177
1800.59043,0.00196
1798.53026,0.00180
1796.47009,0.00178
1794.40991,0.00255
1792.34974,0.00320
1790.28957,0.00190
1788.22940,0.00071
1786.16923,0.00110
1784.10905,0.00146
1782.04888,0.00133
1779.98871,0.00091
1777.92854,0.00010
1775.86836,0.00000
1773.80819,0.00109
1771.74802,0.00187
1769.68785,0.00147
1767.62768,0.00132
1765.56750,0.00127
1763.50733,0.00207
1761.44716,0.00302
1759.38699,0.00341
1757.32682,0.00455
1755.26664,0.00527
1753.20647,0.00610
1751.14630,0.00793
1749.08613,0.00924
1747.02596,0.00999
1744.96578,0.01126
1742.90561,0.01305
1740.84544,0.01469
1738.78527,0.01497
1736.72509,0.01531
1734.66492,0.01727
1732.60475,0.01689
1730.54458,0.01552
1728.48441,0.01540
1726.42423,0.01588
1724.36406,0.01663
1722.30389,0.01679
1720.24372,0.01747
1718.18355,0.01902
1716.12337,0.01866
1714.06320,0.01739
1712.00303,0.01694
1709.94286,0.01708
1707.88268,0.01757
1705.82251,0.01769
1703.76234,0.01656
1701.70217,0.01676
1699.64200,0.01698
1697.58182,0.01636
1695.52165,0.01712
1693.46148,0.01711
1691.40131,0.01788
1689.34114,0.01892
1687.28096,0.01990
1685.22079,0.02348
1683.16062,0.02666
1681.10045,0.02774
1679.04028,0.02929
1676.98010,0.03160
1674.91993,0.03301
1672.85976,0.03302
1670.79959,0.03436
1668.73941,0.03446
1666.67924,0.03224
1664.61907,0.03175
1662.55890,0.03220
1660.49873,0.03071
1658.43855,0.02897
1656.37838,0.02937
1654.31821,0.03192
1652.25804,0.03066
1650.19787,0.02721
1648.13769,0.02833
1646.07752,0.02950
1644.01735,0.02795
1641.95718,0.02729
1639.89701,0.02788
1637.83683,0.02999
1635.77666,0.03264
1633.71649,0.03221
1631.65632,0.03146
1629.59614,0.03244
1627.53597,0.03334
1625.47580,0.03390
1623.41563,0.03454
1621.35546,0.03380
1619.29528,0.03398
1617.23511,0.03593
1615.17494,0.03623
1613.11477,0.03615
1611.05460,0.03778
1608.99442,0.03997
1606.93425,0.04145
1604.87408,0.04205
1602.81391,0.04180
1600.75373,0.04062
1598.69356,0.03913
1596.63339,0.03778
1594.57322,0.03630
1592.51305,0.03475
1590.45287,0.03364
1588.39270,0.03287
1586.33253,0.03216
1584.27236,0.03132
1582.21219,0.03013
1580.15201,0.02901
1578.09184,0.02920
1576.03167,0.02904
1573.97150,0.02647
1571.91133,0.02549
1569.85115,0.02624
1567.79098,0.02515
1565.73081,0.02354
1563.67064,0.02198
1561.61046,0.02210
1559.55029,0.02397
1557.49012,0.02079
1555.42995,0.01762
1553.36978,0.01709
1551.30960,0.01704
1549.24943,0.01616
1547.18926,0.01453
1545.12909,0.01396
1543.06892,0.01433
1541.00874,0.01521
1538.94857,0.01320
1536.88840,0.00978
1534.82823,0.00986
1532.76805,0.01020
1530.70788,0.00880
1528.64771,0.00875
1526.58754,0.00892
1524.52737,0.00843
1522.46719,0.00964
1520.40702,0.01101
1518.34685,0.01227
1516.28668,0.01401
1514.22651,0.01385
1512.16633,0.01267
1510.10616,0.01219
1508.04599,0.01303
1505.98582,0.01092
1503.92565,0.00646
1501.86547,0.00478
1499.80530,0.00506
1497.74513,0.00508
1495.68496,0.00360
1493.62478,0.00189
1491.56461,0.00227
1489.50444,0.00298
1487.44427,0.00218
1485.38410,0.00141
1483.32392,0.00165
1481.26375,0.00221
1479.20358,0.00235
1477.14341,0.00298
1475.08324,0.00461
1473.02306,0.00706
1470.96289,0.00833
1468.90272,0.00925
1466.84255,0.01217
1464.78238,0.01516
1462.72220,0.01553
1460.66203,0.01593
1458.60186,0.01863
1456.54169,0.02048
1454.48151,0.01983
1452.42134,0.02009
1450.36117,0.02147
1448.30100,0.02302
1446.24083,0.02402
1444.18065,0.02477
1442.12048,0.02547
1440.06031,0.02620
1438.00014,0.02802
1435.93997,0.02916
1433.87979,0.02860
1431.81962,0.02899
1429.75945,0.02966
1427.69928,0.02926
1425.63910,0.02897
1423.57893,0.02879
1421.51876,0.02909
1419.45859,0.03056
1417.39842,0.03058
1415.33824,0.02973
1413.27807,0.02953
1411.21790,0.02930
1409.15773,0.02865
1407.09756,0.02822
1405.03738,0.02762
1402.97721,0.02607
1400.91704,0.02512
1398.85687,0.02488
1396.79670,0.02438
1394.73652,0.02370
1392.67635,0.02236
1390.61618,0.02177
1388.55601,0.02267
1386.49583,0.02341
1384.43566,0.02365
1382.37549,0.02454
1380.31532,0.02566
1378.25515,0.02634
1376.19497,0.02696
1374.13480,0.02749
1372.07463,0.02719
1370.01446,0.02701
1367.95429,0.02701
1365.89411,0.02677
1363.83394,0.02680
1361.77377,0.02634
1359.71360,0.02538
1357.65343,0.02497
1355.59325,0.02489
1353.53308,0.02465
1351.47291,0.02451
1349.41274,0.02468
1347.35256,0.02475
1345.29239,0.02444
1343.23222,0.02409
1341.17205,0.02439
1339.11188,0.02463
1337.05170,0.02406
1334.99153,0.02363
1332.93136,0.02389
1330.87119,0.02433
1328.81102,0.02447
1326.75084,0.02437
1324.69067,0.02420
1322.63050,0.02410
1320.57033,0.02415
1318.51015,0.02418
1316.44998,0.02399
1314.38981,0.02384
1312.32964,0.02382
1310.26947,0.02382
1308.20929,0.02356
1306.14912,0.02275
1304.08895,0.02188
1302.02878,0.02137
1299.96861,0.02100
1297.90843,0.02052
1295.84826,0.02019
1293.78809,0.02015
1291.72792,0.02021
1289.66775,0.02023
1287.60757,0.02031
1285.54740,0.02046
1283.48723,0.02067
1281.42706,0.02093
1279.36688,0.02117
1277.30671,0.02125
1275.24654,0.02132
1273.18637,0.02170
1271.12620,0.02224
1269.06602,0.02273
1267.00585,0.02332
1264.94568,0.02409
1262.88551,0.02501
1260.82534,0.02595
1258.76516,0.02658
1256.70499,0.02713
1254.64482,0.02782
1252.58465,0.02820
1250.52447,0.02826
1248.46430,0.02869
1246.40413,0.02949
1244.34396,0.02995
1242.28379,0.02989
1240.22361,0.02975
1238.16344,0.02980
1236.10327,0.02985
1234.04310,0.02965
1231.98293,0.02900
1229.92275,0.02786
1227.86258,0.02671
1225.80241,0.02576
1223.74224,0.02464
1221.68207,0.02320
1219.62189,0.02172
1217.56172,0.02020
1215.50155,0.01856
1213.44138,0.01712
1211.38120,0.01591
1209.32103,0.01457
1207.26086,0.01313
1205.20069,0.01171
1203.14052,0.01023
1201.08034,0.00877
1199.02017,0.00727
1196.96000,0.00566
1194.89983,0.00422
1192.83966,0.00284
1190.77948,0.00145
1188.71931,0.00043
1186.65914,0.00000
1184.59897,-0.00009
1182.53880,0.00009
1180.47862,0.00036
1178.41845,0.00091
1176.35828,0.00222
1174.29811,0.00413
1172.23793,0.00639
1170.17776,0.00900
1168.11759,0.01133
1166.05742,0.01272
1163.99725,0.01333
1161.93707,0.01365
1159.87690,0.01398
1157.81673,0.01438
1155.75656,0.01497
1153.69639,0.01593
1151.63621,0.01713
1149.57604,0.01832
1147.51587,0.01948
1145.45570,0.02065
1143.39552,0.02169
1141.33535,0.02250
1139.27518,0.02315
1137.21501,0.02377
1135.15484,0.02436
1133.09466,0.02508
1131.03449,0.02620
1128.97432,0.02741
1126.91415,0.02869
1124.85398,0.03024
1122.79380,0.03175
1120.73363,0.03311
1118.67346,0.03460
1116.61329,0.03626
1114.55312,0.03785
1112.49294,0.03906
1110.43277,0.03982
1108.37260,0.04077
1106.31243,0.04215
1104.25225,0.04365
1102.19208,0.04506
1100.13191,0.04641
1098.07174,0.04820
1096.01157,0.05055
1093.95139,0.05302
1091.89122,0.05547
1089.83105,0.05796
1087.77088,0.06011
1085.71071,0.06184
1083.65053,0.06351
1081.59036,0.06534
1079.53019,0.06791
1077.47002,0.07111
1075.40985,0.07398
1073.34967,0.07634
1071.28950,0.07853
1069.22933,0.08056
1067.16916,0.08221
1065.10898,0.08372
1063.04881,0.08523
1060.98864,0.08664
1058.92847,0.08829
1056.86830,0.09036
1054.80812,0.09267
1052.74795,0.09517
1050.68778,0.09766
1048.62761,0.10017
1046.56744,0.10303
1044.50726,0.10599
1042.44709,0.10892
1040.38692,0.11188
1038.32675,0.11424
1036.26657,0.11568
1034.20640,0.11671
1032.14623,0.11754
1030.08606,0.11785
1028.02589,0.11766
1025.96571,0.11750
1023.90554,0.11728
1021.84537,0.11689
1019.78520,0.11648
1017.72503,0.11581
1015.66485,0.11510
1013.60468,0.11517
1011.54451,0.11591
1009.48434,0.11658
1007.42417,0.11678
1005.36399,0.11627
1003.30382,0.11499
1001.24365,0.11373
999.18348,0.11308
997.12330,0.11229
995.06313,0.11051
993.00296,0.10807
990.94279,0.10580
988.88262,0.10397
986.82244,0.10246
984.76227,0.10116
982.70210,0.09977
980.64193,0.09809
978.58176,0.09626
976.52158,0.09435
974.46141,0.09236
972.40124,0.09046
970.34107,0.08855
968.28089,0.08687
966.22072,0.08556
964.16055,0.08346
962.10038,0.08069
960.04021,0.07880
957.98003,0.07742
955.91986,0.07572
953.85969,0.07397
951.79952,0.07202
949.73935,0.06990
947.67917,0.06844
945.61900,0.06746
943.55883,0.06587
941.49866,0.06300
939.43849,0.05918
937.37831,0.05530
935.31814,0.05150
933.25797,0.04792
931.19780,0.04495
929.13762,0.04209
927.07745,0.03948
925.01728,0.03769
922.95711,0.03593
920.89694,0.03340
918.83676,0.03049
916.77659,0.02792
914.71642,0.02590
912.65625,0.02454
910.59608,0.02346
908.53590,0.02224
906.47573,0.02132
904.41556,0.02057
902.35539,0.01934
900.29522,0.01848
898.23504,0.01878
896.17487,0.01920
894.11470,0.01906
892.05453,0.01880
889.99435,0.01862
887.93418,0.01827
885.87401,0.01746
883.81384,0.01647
881.75367,0.01560
879.69349,0.01441
877.63332,0.01275
875.57315,0.01111
873.51298,0.01001
871.45281,0.00966
869.39263,0.00983
867.33246,0.01000
865.27229,0.00950
863.21212,0.00852
861.15194,0.00788
859.09177,0.00753
857.03160,0.00740
854.97143,0.00775
852.91126,0.00810
850.85108,0.00766
848.79091,0.00665
846.73074,0.00609
844.67057,0.00631
842.61040,0.00645
840.55022,0.00612
838.49005,0.00604
836.42988,0.00629
834.36971,0.00653
832.30954,0.00671
830.24936,0.00600
828.18919,0.00461
826.12902,0.00409
824.06885,0.00438
822.00867,0.00456
819.94850,0.00483
817.88833,0.00468
815.82816,0.00350
813.76799,0.00229
811.70781,0.00215
809.64764,0.00299
807.58747,0.00374
805.52730,0.00333
803.46713,0.00209
801.40695,0.00156
799.34678,0.00151
797.28661,0.00127
795.22644,0.00173
793.16627,0.00262
791.10609,0.00251
789.04592,0.00150
786.98575,0.00063
784.92558,0.00031
782.86540,0.00050
780.80523,0.00069
778.74506,0.00071
776.68489,0.00071
774.62472,0.00090
772.56454,0.00137
770.50437,0.00124
768.44420,0.00089
766.38403,0.00179
764.32386,0.00321
762.26368,0.00352
760.20351,0.00282
758.14334,0.00249
756.08317,0.00320
754.02299,0.00374
751.96282,0.00301
749.90265,0.00176
747.84248,0.00133
745.78231,0.00133
743.72213,0.00086
741.66196,0.00035
739.60179,0.00000
737.54162,-0.00060
735.48145,-0.00022
733.42127,0.00073
731.36110,0.00085
729.30093,0.00053
727.24076,0.00113
725.18059,0.00193
723.12041,0.00200
721.06024,0.00203
719.00007,0.00267
716.93990,0.00322
714.87972,0.00398
712.81955,0.00540
710.75938,0.00661
708.69921,0.00654
706.63904,0.00542
704.57886,0.00478
702.51869,0.00576
700.45852,0.00736
698.39835,0.00822
696.33818,0.00874
694.27800,0.00872
692.21783,0.00749
690.15766,0.00571
688.09749,0.00430
686.03731,0.00353
683.97714,0.00338
681.91697,0.00364
679.85680,0.00384
677.79663,0.00332
675.73645,0.00268
673.67628,0.00295
671.61611,0.00343
669.55594,0.00255
667.49577,0.00389
665.43559,0.00797
663.37542,0.00555
661.31525,0.00191
659.25508,0.00120
657.19491,0.00195
655.13473,0.00113
653.07456,-0.00063
651.01439,-0.00084
648.95422,0.00114
646.89404,0.00360
644.83387,0.00388
642.77370,0.00301
640.71353,0.00373
638.65336,0.00505
636.59318,0.00505
634.53301,0.00533
632.47284,0.00744
630.41267,0.00942
628.35250,0.00770
626.29232,0.00143
624.23215,-0.00196
622.17198,0.00118
620.11181,0.00396
618.05164,0.00485
615.99146,0.00687
613.93129,0.00902
611.87112,0.01061
609.81095,0.01299
607.75077,0.01471
605.69060,0.01215
603.63043,0.00612
601.57026,0.00144
599.51009,0.00000
