3996.73391,0.00064
3994.67373,0.00082
3992.61356,0.00086
3990.55339,0.00073
3988.49322,0.00055
3986.43305,0.00052
3984.37287,0.00069
3982.31270,0.00077
3980.25253,0.00058
3978.19236,0.00041
3976.13219,0.00046
3974.07201,0.00051
3972.01184,0.00042
3969.95167,0.00020
3967.89150,0.00000
3965.83133,0.00002
3963.77115,0.00021
3961.71098,0.00035
3959.65081,0.00043
3957.59064,0.00050
3955.53046,0.00063
3953.47029,0.00072
3951.41012,0.00057
3949.34995,0.00033
3947.28978,0.00034
3945.22960,0.00057
3943.16943,0.00074
3941.10926,0.00077
3939.04909,0.00071
3936.98892,0.00056
3934.92874,0.00036
3932.86857,0.00040
3930.80840,0.00072
3928.74823,0.00106
3926.68805,0.00134
3924.62788,0.00157
3922.56771,0.00154
3920.50754,0.00119
3918.44737,0.00087
3916.38719,0.00080
3914.32702,0.00087
3912.26685,0.00093
3910.20668,0.00099
3908.14651,0.00106
3906.08633,0.00120
3904.02616,0.00151
3901.96599,0.00167
3899.90582,0.00141
3897.84565,0.00101
3895.78547,0.00086
3893.72530,0.00094
3891.66513,0.00100
3889.60496,0.00087
3887.54478,0.00065
3885.48461,0.00056
3883.42444,0.00069
3881.36427,0.00088
3879.30410,0.00102
3877.24392,0.00107
3875.18375,0.00112
3873.12358,0.00113
3871.06341,0.00091
3869.00324,0.00060
3866.94306,0.00051
3864.88289,0.00063
3862.82272,0.00077
3860.76255,0.00082
3858.70237,0.00068
3856.64220,0.00030
3854.58203,0.00000
3852.52186,0.00033
3850.46169,0.00090
3848.40151,0.00105
3846.34134,0.00090
3844.28117,0.00090
3842.22100,0.00126
3840.16083,0.00177
3838.10065,0.00203
3836.04048,0.00179
3833.98031,0.00113
3831.92014,0.00045
3829.85997,0.00015
3827.79979,0.00024
3825.73962,0.00049
3823.67945,0.00069
3821.61928,0.00085
3819.55910,0.00099
3817.49893,0.00103
3815.43876,0.00101
3813.37859,0.00086
3811.31842,0.00061
3809.25824,0.00054
3807.19807,0.00080
3805.13790,0.00109
3803.07773,0.00120
3801.01756,0.00123
3798.95738,0.00126
3796.89721,0.00130
3794.83704,0.00121
3792.77687,0.00108
3790.71670,0.00111
3788.65652,0.00114
3786.59635,0.00097
3784.53618,0.00080
3782.47601,0.00076
3780.41583,0.00071
3778.35566,0.00075
3776.29549,0.00100
3774.23532,0.00110
3772.17515,0.00091
3770.11497,0.00080
3768.05480,0.00103
3765.99463,0.00128
3763.93446,0.00132
3761.87429,0.00125
3759.81411,0.00120
3757.75394,0.00112
3755.69377,0.00095
3753.63360,0.00083
3751.57342,0.00107
3749.51325,0.00144
3747.45308,0.00121
3745.39291,0.00062
3743.33274,0.00047
3741.27256,0.00065
3739.21239,0.00071
3737.15222,0.00077
3735.09205,0.00106
3733.03188,0.00139
3730.97170,0.00138
3728.91153,0.00113
3726.85136,0.00107
3724.79119,0.00126
3722.73102,0.00154
3720.67084,0.00179
3718.61067,0.00193
3716.55050,0.00184
3714.49033,0.00154
3712.43015,0.00115
3710.36998,0.00100
3708.30981,0.00138
3706.24964,0.00181
3704.18947,0.00165
3702.12929,0.00095
3700.06912,0.00046
3698.00895,0.00061
3695.94878,0.00113
3693.88861,0.00162
3691.82843,0.00180
3689.76826,0.00175
3687.70809,0.00172
3685.64792,0.00169
3683.58775,0.00161
3681.52757,0.00149
3679.46740,0.00143
3677.40723,0.00177
3675.34706,0.00251
3673.28688,0.00266
3671.22671,0.00228
3669.16654,0.00244
3667.10637,0.00297
3665.04620,0.00326
3662.98602,0.00334
3660.92585,0.00331
3658.86568,0.00333
3656.80551,0.00364
3654.74534,0.00401
3652.68516,0.00423
3650.62499,0.00461
3648.56482,0.00508
3646.50465,0.00513
3644.44447,0.00500
3642.38430,0.00515
3640.32413,0.00554
3638.26396,0.00593
3636.20379,0.00633
3634.14361,0.00677
3632.08344,0.00718
3630.02327,0.00764
3627.96310,0.00803
3625.90293,0.00820
3623.84275,0.00844
3621.78258,0.00890
3619.72241,0.00937
3617.66224,0.00966
3615.60207,0.00990
3613.54189,0.01025
3611.48172,0.01061
3609.42155,0.01090
3607.36138,0.01141
3605.30120,0.01217
3603.24103,0.01276
3601.18086,0.01294
3599.12069,0.01290
3597.06052,0.01307
3595.00034,0.01370
3592.94017,0.01444
3590.88000,0.01469
3588.81983,0.01473
3586.75966,0.01515
3584.69948,0.01574
3582.63931,0.01621
3580.57914,0.01669
3578.51897,0.01724
3576.45879,0.01778
3574.39862,0.01811
3572.33845,0.01819
3570.27828,0.01837
3568.21811,0.01901
3566.15793,0.01985
3564.09776,0.02034
3562.03759,0.02055
3559.97742,0.02082
3557.91725,0.02131
3555.85707,0.02202
3553.79690,0.02265
3551.73673,0.02287
3549.67656,0.02282
3547.61639,0.02307
3545.55621,0.02375
3543.49604,0.02436
3541.43587,0.02485
3539.37570,0.02547
3537.31552,0.02601
3535.25535,0.02622
3533.19518,0.02626
3531.13501,0.02643
3529.07484,0.02681
3527.01466,0.02722
3524.95449,0.02765
3522.89432,0.02825
3520.83415,0.02887
3518.77398,0.02932
3516.71380,0.02958
3514.65363,0.02975
3512.59346,0.02997
3510.53329,0.03036
3508.47312,0.03085
3506.41294,0.03136
3504.35277,0.03207
3502.29260,0.03283
3500.23243,0.03314
3498.17225,0.03324
3496.11208,0.03357
3494.05191,0.03383
3491.99174,0.03395
3489.93157,0.03438
3487.87139,0.03512
3485.81122,0.03561
3483.75105,0.03578
3481.69088,0.03615
3479.63071,0.03663
3477.57053,0.03684
3475.51036,0.03685
3473.45019,0.03687
3471.39002,0.03710
3469.32984,0.03762
3467.26967,0.03820
3465.20950,0.03859
3463.14933,0.03877
3461.08916,0.03887
3459.02898,0.03915
3456.96881,0.03966
3454.90864,0.04013
3452.84847,0.04046
3450.78830,0.04072
3448.72812,0.04099
3446.66795,0.04133
3444.60778,0.04162
3442.54761,0.04180
3440.48744,0.04206
3438.42726,0.04263
3436.36709,0.04325
3434.30692,0.04348
3432.24675,0.04357
3430.18657,0.04395
3428.12640,0.04440
3426.06623,0.04469
3424.00606,0.04487
3421.94589,0.04496
3419.88571,0.04524
3417.82554,0.04578
3415.76537,0.04620
3413.70520,0.04637
3411.64503,0.04646
3409.58485,0.04665
3407.52468,0.04689
3405.46451,0.04702
3403.40434,0.04715
3401.34416,0.04736
3399.28399,0.04759
3397.22382,0.04778
3395.16365,0.04795
3393.10348,0.04815
3391.04330,0.04823
3388.98313,0.04822
3386.92296,0.04848
3384.86279,0.04909
3382.80262,0.04972
3380.74244,0.05000
3378.68227,0.04989
3376.62210,0.04963
3374.56193,0.04960
3372.50176,0.04974
3370.44158,0.04978
3368.38141,0.04996
3366.32124,0.05039
3364.26107,0.05083
3362.20089,0.05101
3360.14072,0.05095
3358.08055,0.05082
3356.02038,0.05072
3353.96021,0.05063
3351.90003,0.05065
3349.83986,0.05082
3347.77969,0.05100
3345.71952,0.05102
3343.65935,0.05094
3341.59917,0.05097
3339.53900,0.05106
3337.47883,0.05105
3335.41866,0.05102
3333.35849,0.05101
3331.29831,0.05091
3329.23814,0.05091
3327.17797,0.05122
3325.11780,0.05154
3323.05762,0.05153
3320.99745,0.05142
3318.93728,0.05144
3316.87711,0.05144
3314.81694,0.05131
3312.75676,0.05128
3310.69659,0.05151
3308.63642,0.05170
3306.57625,0.05152
3304.51608,0.05134
3302.45590,0.05156
3300.39573,0.05189
3298.33556,0.05200
3296.27539,0.05199
3294.21521,0.05189
3292.15504,0.05166
3290.09487,0.05150
3288.03470,0.05155
3285.97453,0.05160
3283.91435,0.05151
3281.85418,0.05153
3279.79401,0.05164
3277.73384,0.05160
3275.67367,0.05146
3273.61349,0.05151
3271.55332,0.05155
3269.49315,0.05143
3267.43298,0.05143
3265.37281,0.05158
3263.31263,0.05161
3261.25246,0.05144
3259.19229,0.05117
3257.13212,0.05098
3255.07194,0.05085
3253.01177,0.05069
3250.95160,0.05059
3248.89143,0.05064
3246.83126,0.05074
3244.77108,0.05063
3242.71091,0.05032
3240.65074,0.05011
3238.59057,0.05003
3236.53040,0.04992
3234.47022,0.04975
3232.41005,0.04955
3230.34988,0.04933
3228.28971,0.04912
3226.22954,0.04891
3224.16936,0.04860
3222.10919,0.04822
3220.04902,0.04795
3217.98885,0.04782
3215.92867,0.04760
3213.86850,0.04736
3211.80833,0.04730
3209.74816,0.04732
3207.68799,0.04721
3205.62781,0.04691
3203.56764,0.04654
3201.50747,0.04617
3199.44730,0.04583
3197.38713,0.04551
3195.32695,0.04529
3193.26678,0.04514
3191.20661,0.04480
3189.14644,0.04427
3187.08626,0.04383
3185.02609,0.04341
3182.96592,0.04302
3180.90575,0.04270
3178.84558,0.04241
3176.78540,0.04209
3174.72523,0.04166
3172.66506,0.04118
3170.60489,0.04077
3168.54472,0.04037
3166.48454,0.04012
3164.42437,0.04001
3162.36420,0.03980
3160.30403,0.03954
3158.24386,0.03918
3156.18368,0.03858
3154.12351,0.03797
3152.06334,0.03758
3150.00317,0.03727
3147.94299,0.03700
3145.88282,0.03672
3143.82265,0.03638
3141.76248,0.03611
3139.70231,0.03585
3137.64213,0.03532
3135.58196,0.03466
3133.52179,0.03427
3131.46162,0.03401
3129.40145,0.03359
3127.34127,0.03322
3125.28110,0.03292
3123.22093,0.03249
3121.16076,0.03197
3119.10058,0.03148
3117.04041,0.03123
3114.98024,0.03109
3112.92007,0.03075
3110.85990,0.03034
3108.79972,0.03006
3106.73955,0.02976
3104.67938,0.02942
3102.61921,0.02909
3100.55904,0.02871
3098.49886,0.02832
3096.43869,0.02804
3094.37852,0.02767
3092.31835,0.02713
3090.25818,0.02674
3088.19800,0.02651
3086.13783,0.02616
3084.07766,0.02567
3082.01749,0.02525
3079.95731,0.02508
3077.89714,0.02503
3075.83697,0.02485
3073.77680,0.02446
3071.71663,0.02402
3069.65645,0.02379
3067.59628,0.02366
3065.53611,0.02344
3063.47594,0.02310
3061.41577,0.02260
3059.35559,0.02212
3057.29542,0.02186
3055.23525,0.02166
3053.17508,0.02139
3051.11491,0.02112
3049.05473,0.02091
3046.99456,0.02076
3044.93439,0.02058
3042.87422,0.02028
3040.81404,0.01997
3038.75387,0.01981
3036.69370,0.01960
3034.63353,0.01921
3032.57336,0.01879
3030.51318,0.01848
3028.45301,0.01826
3026.39284,0.01819
3024.33267,0.01817
3022.27250,0.01803
3020.21232,0.01789
3018.15215,0.01778
3016.09198,0.01753
3014.03181,0.01718
3011.97163,0.01685
3009.91146,0.01659
3007.85129,0.01651
3005.79112,0.01657
3003.73095,0.01657
3001.67077,0.01640
2999.61060,0.01608
2997.55043,0.01572
2995.49026,0.01560
2993.43009,0.01582
2991.36991,0.01625
2989.30974,0.01655
2987.24957,0.01652
2985.18940,0.01645
2983.12923,0.01652
2981.06905,0.01658
2979.00888,0.01664
2976.94871,0.01681
2974.88854,0.01693
2972.82836,0.01698
2970.76819,0.01719
2968.70802,0.01743
2966.64785,0.01754
2964.58768,0.01770
2962.52750,0.01792
2960.46733,0.01824
2958.40716,0.01871
2956.34699,0.01909
2954.28682,0.01941
2952.22664,0.01990
2950.16647,0.02050
2948.10630,0.02108
2946.04613,0.02153
2943.98596,0.02175
2941.92578,0.02182
2939.86561,0.02203
2937.80544,0.02228
2935.74527,0.02231
2933.68509,0.02224
2931.62492,0.02228
2929.56475,0.02228
2927.50458,0.02204
2925.44441,0.02174
2923.38423,0.02152
2921.32406,0.02137
2919.26389,0.02119
2917.20372,0.02091
2915.14355,0.02068
2913.08337,0.02050
2911.02320,0.02023
2908.96303,0.01992
2906.90286,0.01970
2904.84268,0.01964
2902.78251,0.01965
2900.72234,0.01948
2898.66217,0.01922
2896.60200,0.01919
2894.54182,0.01924
2892.48165,0.01914
2890.42148,0.01906
2888.36131,0.01907
2886.30114,0.01896
2884.24096,0.01880
2882.18079,0.01863
2880.12062,0.01840
2878.06045,0.01825
2876.00028,0.01828
2873.94010,0.01821
2871.87993,0.01785
2869.81976,0.01741
2867.75959,0.01701
2865.69941,0.01656
2863.63924,0.01622
2861.57907,0.01605
2859.51890,0.01588
2857.45873,0.01564
2855.39855,0.01546
2853.33838,0.01535
2851.27821,0.01518
2849.21804,0.01494
2847.15787,0.01467
2845.09769,0.01439
2843.03752,0.01417
2840.97735,0.01397
2838.91718,0.01378
2836.85700,0.01364
2834.79683,0.01340
2832.73666,0.01304
2830.67649,0.01287
2828.61632,0.01292
2826.55614,0.01294
2824.49597,0.01284
2822.43580,0.01264
2820.37563,0.01244
2818.31546,0.01228
2816.25528,0.01220
2814.19511,0.01221
2812.13494,0.01219
2810.07477,0.01204
2808.01460,0.01184
2805.95442,0.01169
2803.89425,0.01155
2801.83408,0.01143
2799.77391,0.01143
2797.71373,0.01150
2795.65356,0.01141
2793.59339,0.01117
2791.53322,0.01101
2789.47305,0.01104
2787.41287,0.01117
2785.35270,0.01112
2783.29253,0.01098
2781.23236,0.01099
2779.17219,0.01108
2777.11201,0.01109
2775.05184,0.01092
2772.99167,0.01071
2770.93150,0.01069
2768.87133,0.01062
2766.81115,0.01034
2764.75098,0.01007
2762.69081,0.00992
2760.63064,0.00991
2758.57046,0.00998
2756.51029,0.00998
2754.45012,0.00989
2752.38995,0.00979
2750.32978,0.00982
2748.26960,0.00999
2746.20943,0.01011
2744.14926,0.01013
2742.08909,0.01009
2740.02892,0.01003
2737.96874,0.00999
2735.90857,0.00990
2733.84840,0.00970
2731.78823,0.00953
2729.72805,0.00946
2727.66788,0.00941
2725.60771,0.00941
2723.54754,0.00940
2721.48737,0.00935
2719.42719,0.00935
2717.36702,0.00939
2715.30685,0.00940
2713.24668,0.00929
2711.18651,0.00909
2709.12633,0.00896
2707.06616,0.00896
2705.00599,0.00897
2702.94582,0.00894
2700.88565,0.00892
2698.82547,0.00882
2696.76530,0.00869
2694.70513,0.00866
2692.64496,0.00864
2690.58478,0.00855
2688.52461,0.00855
2686.46444,0.00861
2684.40427,0.00868
2682.34410,0.00869
2680.28392,0.00861
2678.22375,0.00850
2676.16358,0.00847
2674.10341,0.00847
2672.04324,0.00839
2669.98306,0.00826
2667.92289,0.00821
2665.86272,0.00822
2663.80255,0.00819
2661.74238,0.00815
2659.68220,0.00816
2657.62203,0.00823
2655.56186,0.00834
2653.50169,0.00833
2651.44151,0.00814
2649.38134,0.00792
2647.32117,0.00782
2645.26100,0.00785
2643.20083,0.00791
2641.14065,0.00778
2639.08048,0.00745
2637.02031,0.00719
2634.96014,0.00705
2632.89997,0.00699
2630.83979,0.00698
2628.77962,0.00692
2626.71945,0.00689
2624.65928,0.00691
2622.59910,0.00696
2620.53893,0.00686
2618.47876,0.00655
2616.41859,0.00636
2614.35842,0.00637
2612.29824,0.00642
2610.23807,0.00641
2608.17790,0.00626
2606.11773,0.00613
2604.05756,0.00625
2601.99738,0.00638
2599.93721,0.00628
2597.87704,0.00609
2595.81687,0.00599
2593.75670,0.00591
2591.69652,0.00574
2589.63635,0.00571
2587.57618,0.00593
2585.51601,0.00605
2583.45583,0.00591
2581.39566,0.00569
2579.33549,0.00561
2577.27532,0.00579
2575.21515,0.00594
2573.15497,0.00569
2571.09480,0.00539
2569.03463,0.00534
2566.97446,0.00537
2564.91429,0.00544
2562.85411,0.00557
2560.79394,0.00566
2558.73377,0.00574
2556.67360,0.00582
2554.61342,0.00577
2552.55325,0.00551
2550.49308,0.00538
2548.43291,0.00554
2546.37274,0.00571
2544.31256,0.00571
2542.25239,0.00567
2540.19222,0.00554
2538.13205,0.00532
2536.07188,0.00512
2534.01170,0.00503
2531.95153,0.00480
2529.89136,0.00447
2527.83119,0.00450
2525.77102,0.00491
2523.71084,0.00527
2521.65067,0.00528
2519.59050,0.00508
2517.53033,0.00487
2515.47015,0.00467
2513.40998,0.00450
2511.34981,0.00450
2509.28964,0.00476
2507.22947,0.00487
2505.16929,0.00460
2503.10912,0.00446
2501.04895,0.00472
2498.98878,0.00487
2496.92861,0.00467
2494.86843,0.00449
2492.80826,0.00457
2490.74809,0.00488
2488.68792,0.00517
2486.62775,0.00514
2484.56757,0.00480
2482.50740,0.00455
2480.44723,0.00454
2478.38706,0.00452
2476.32688,0.00434
2474.26671,0.00433
2472.20654,0.00460
2470.14637,0.00478
2468.08620,0.00489
2466.02602,0.00504
2463.96585,0.00501
2461.90568,0.00487
2459.84551,0.00475
2457.78534,0.00449
2455.72516,0.00428
2453.66499,0.00436
2451.60482,0.00451
2449.54465,0.00449
2447.48447,0.00430
2445.42430,0.00412
2443.36413,0.00403
2441.30396,0.00404
2439.24379,0.00400
2437.18361,0.00399
2435.12344,0.00413
2433.06327,0.00423
2431.00310,0.00420
2428.94293,0.00418
2426.88275,0.00419
2424.82258,0.00417
2422.76241,0.00423
2420.70224,0.00441
2418.64207,0.00452
2416.58189,0.00439
2414.52172,0.00412
2412.46155,0.00394
2410.40138,0.00398
2408.34120,0.00411
2406.28103,0.00415
2404.22086,0.00419
2402.16069,0.00422
2400.10052,0.00416
2398.04034,0.00402
2395.98017,0.00396
2393.92000,0.00401
2391.85983,0.00398
2389.79966,0.00386
2387.73948,0.00383
2385.67931,0.00387
2383.61914,0.00390
2381.55897,0.00386
2379.49880,0.00375
2377.43862,0.00372
2375.37845,0.00406
2373.31828,0.00452
2371.25811,0.00483
2369.19793,0.00488
2367.13776,0.00362
2365.07759,0.00134
2363.01742,0.00015
2360.95725,0.00000
2358.89707,0.00118
2356.83690,0.00277
2354.77673,0.00422
2352.71656,0.00500
2350.65639,0.00432
2348.59621,0.00393
2346.53604,0.00572
2344.47587,0.00676
2342.41570,0.00677
2340.35552,0.00596
2338.29535,0.00462
2336.23518,0.00360
2334.17501,0.00295
2332.11484,0.00281
2330.05466,0.00337
2327.99449,0.00453
2325.93432,0.00532
2323.87415,0.00571
2321.81398,0.00540
2319.75380,0.00488
2317.69363,0.00428
2315.63346,0.00417
2313.57329,0.00440
2311.51312,0.00451
2309.45294,0.00444
2307.39277,0.00429
2305.33260,0.00401
2303.27243,0.00366
2301.21225,0.00364
2299.15208,0.00397
2297.09191,0.00433
2295.03174,0.00447
2292.97157,0.00452
2290.91139,0.00464
2288.85122,0.00473
2286.79105,0.00469
2284.73088,0.00451
2282.67071,0.00426
2280.61053,0.00418
2278.55036,0.00425
2276.49019,0.00427
2274.43002,0.00409
2272.36984,0.00387
2270.30967,0.00374
2268.24950,0.00375
2266.18933,0.00395
2264.12916,0.00405
2262.06898,0.00382
2260.00881,0.00357
2257.94864,0.00347
2255.88847,0.00365
2253.82830,0.00399
2251.76812,0.00409
2249.70795,0.00410
2247.64778,0.00439
2245.58761,0.00460
2243.52744,0.00424
2241.46726,0.00400
2239.40709,0.00421
2237.34692,0.00408
2235.28675,0.00368
2233.22657,0.00380
2231.16640,0.00414
2229.10623,0.00397
2227.04606,0.00355
2224.98589,0.00355
2222.92571,0.00390
2220.86554,0.00410
2218.80537,0.00399
2216.74520,0.00379
2214.68503,0.00361
2212.62485,0.00361
2210.56468,0.00358
2208.50451,0.00308
2206.44434,0.00301
2204.38417,0.00385
2202.32399,0.00411
2200.26382,0.00355
2198.20365,0.00307
2196.14348,0.00282
2194.08330,0.00267
2192.02313,0.00287
2189.96296,0.00386
2187.90279,0.00476
2185.84262,0.00448
2183.78244,0.00360
2181.72227,0.00329
2179.66210,0.00364
2177.60193,0.00355
2175.54176,0.00282
2173.48158,0.00207
2171.42141,0.00165
2169.36124,0.00196
2167.30107,0.00257
2165.24089,0.00314
2163.18072,0.00386
2161.12055,0.00348
2159.06038,0.00206
2157.00021,0.00096
2154.94003,0.00009
2152.87986,0.00063
2150.81969,0.00205
2148.75952,0.00252
2146.69935,0.00290
2144.63917,0.00382
2142.57900,0.00479
2140.51883,0.00527
2138.45866,0.00449
2136.39849,0.00315
2134.33831,0.00272
2132.27814,0.00307
2130.21797,0.00352
2128.15780,0.00400
2126.09762,0.00399
2124.03745,0.00353
2121.97728,0.00393
2119.91711,0.00489
2117.85694,0.00508
2115.79676,0.00479
2113.73659,0.00474
2111.67642,0.00470
2109.61625,0.00445
2107.55608,0.00420
2105.49590,0.00408
2103.43573,0.00432
2101.37556,0.00492
2099.31539,0.00485
2097.25521,0.00398
2095.19504,0.00337
2093.13487,0.00332
2091.07470,0.00356
2089.01453,0.00415
2086.95435,0.00492
2084.89418,0.00520
2082.83401,0.00478
2080.77384,0.00424
2078.71367,0.00403
2076.65349,0.00389
2074.59332,0.00364
2072.53315,0.00363
2070.47298,0.00398
2068.41281,0.00431
2066.35263,0.00429
2064.29246,0.00407
2062.23229,0.00410
2060.17212,0.00426
2058.11194,0.00381
2056.05177,0.00289
2053.99160,0.00302
2051.93143,0.00412
2049.87126,0.00425
2047.81108,0.00314
2045.75091,0.00202
2043.69074,0.00126
2041.63057,0.00115
2039.57040,0.00217
2037.51022,0.00331
2035.45005,0.00343
2033.38988,0.00326
2031.32971,0.00323
2029.26954,0.00275
2027.20936,0.00231
2025.14919,0.00246
2023.08902,0.00284
2021.02885,0.00333
2018.96867,0.00322
2016.90850,0.00193
2014.84833,0.00091
2012.78816,0.00110
2010.72799,0.00183
2008.66781,0.00266
2006.60764,0.00339
2004.54747,0.00364
2002.48730,0.00286
2000.42713,0.00136
1998.36695,0.00029
1996.30678,0.00000
1994.24661,0.00005
1992.18644,0.00074
1990.12626,0.00156
1988.06609,0.00150
1986.00592,0.00186
1983.94575,0.00347
1981.88558,0.00475
1979.82540,0.00431
1977.76523,0.00302
1975.70506,0.00243
1973.64489,0.00215
1971.58472,0.00168
1969.52454,0.00139
1967.46437,0.00142
1965.40420,0.00166
1963.34403,0.00171
1961.28386,0.00158
1959.22368,0.00168
1957.16351,0.00152
1955.10334,0.00073
1953.04317,0.00013
1950.98299,0.00024
1948.92282,0.00067
1946.86265,0.00098
1944.80248,0.00131
1942.74231,0.00172
1940.68213,0.00190
1938.62196,0.00185
1936.56179,0.00203
1934.50162,0.00237
1932.44145,0.00226
1930.38127,0.00181
1928.32110,0.00141
1926.26093,0.00114
1924.20076,0.00112
1922.14059,0.00136
1920.08041,0.00135
1918.02024,0.00108
1915.96007,0.00107
1913.89990,0.00122
1911.83972,0.00118
1909.77955,0.00101
1907.71938,0.00103
1905.65921,0.00119
1903.59904,0.00114
1901.53886,0.00099
1899.47869,0.00115
1897.41852,0.00140
1895.35835,0.00136
1893.29818,0.00109
1891.23800,0.00069
1889.17783,0.00034
1887.11766,0.00034
1885.05749,0.00061
1882.99731,0.00080
1880.93714,0.00081
1878.87697,0.00079
1876.81680,0.00078
1874.75663,0.00082
1872.69645,0.00080
1870.63628,0.00063
1868.57611,0.00052
1866.51594,0.00057
1864.45577,0.00063
1862.39559,0.00077
1860.33542,0.00092
1858.27525,0.00085
1856.21508,0.00063
1854.15491,0.00052
1852.09473,0.00052
1850.03456,0.00052
1847.97439,0.00037
1845.91422,0.00011
1843.85404,-0.00004
1841.79387,0.00002
1839.73370,0.00027
1837.67353,0.00056
1835.61336,0.00080
1833.55318,0.00095
1831.49301,0.00094
1829.43284,0.00079
1827.37267,0.00062
1825.31250,0.00043
1823.25232,0.00016
1821.19215,0.00000
1819.13198,0.00008
1817.07181,0.00019
1815.01163,0.00020
1812.95146,0.00032
1810.89129,0.00062
1808.83112,0.00078
1806.77095,0.00056
1804.71077,0.00025
1802.65060,0.00017
1800.59043,0.00018
1798.53026,0.00012
1796.47009,0.00012
1794.40991,0.00030
1792.34974,0.00055
1790.28957,0.00066
1788.22940,0.00053
1786.16923,0.00023
1784.10905,0.00001
1782.04888,0.00000
1779.98871,0.00009
1777.92854,0.00012
1775.86836,0.00010
1773.80819,0.00014
1771.74802,0.00035
1769.68785,0.00071
1767.62768,0.00104
1765.56750,0.00125
1763.50733,0.00145
1761.44716,0.00182
1759.38699,0.00233
1757.32682,0.00286
1755.26664,0.00333
1753.20647,0.00375
1751.14630,0.00442
1749.08613,0.00543
1747.02596,0.00632
1744.96578,0.00688
1742.90561,0.00722
1740.84544,0.00745
1738.78527,0.00759
1736.72509,0.00761
1734.66492,0.00765
1732.60475,0.00780
1730.54458,0.00794
1728.48441,0.00804
1726.42423,0.00805
1724.36406,0.00796
1722.30389,0.00778
1720.24372,0.00752
1718.18355,0.00722
1716.12337,0.00693
1714.06320,0.00658
1712.00303,0.00615
1709.94286,0.00569
1707.88268,0.00528
1705.82251,0.00503
1703.76234,0.00493
1701.70217,0.00500
1699.64200,0.00526
1697.58182,0.00551
1695.52165,0.00569
1693.46148,0.00590
1691.40131,0.00617
1689.34114,0.00648
1687.28096,0.00675
1685.22079,0.00727
1683.16062,0.00834
1681.10045,0.00932
1679.04028,0.00991
1676.98010,0.01047
1674.91993,0.01125
1672.85976,0.01214
1670.79959,0.01317
1668.73941,0.01432
1666.67924,0.01512
1664.61907,0.01576
1662.55890,0.01673
1660.49873,0.01776
1658.43855,0.01844
1656.37838,0.01893
1654.31821,0.01986
1652.25804,0.02120
1650.19787,0.02195
1648.13769,0.02240
1646.07752,0.02295
1644.01735,0.02323
1641.95718,0.02328
1639.89701,0.02330
1637.83683,0.02347
1635.77666,0.02390
1633.71649,0.02411
1631.65632,0.02392
1629.59614,0.02370
1627.53597,0.02365
1625.47580,0.02368
1623.41563,0.02373
1621.35546,0.02362
1619.29528,0.02326
1617.23511,0.02289
1615.17494,0.02266
1613.11477,0.02235
1611.05460,0.02183
1608.99442,0.02120
1606.93425,0.02047
1604.87408,0.01970
1602.81391,0.01893
1600.75373,0.01804
1598.69356,0.01689
1596.63339,0.01563
1594.57322,0.01443
1592.51305,0.01331
1590.45287,0.01225
1588.39270,0.01121
1586.33253,0.01018
1584.27236,0.00918
1582.21219,0.00829
1580.15201,0.00760
1578.09184,0.00710
1576.03167,0.00658
1573.97150,0.00589
1571.91133,0.00526
1569.85115,0.00489
1567.79098,0.00465
1565.73081,0.00426
1563.67064,0.00378
1561.61046,0.00348
1559.55029,0.00346
1557.49012,0.00334
1555.42995,0.00285
1553.36978,0.00227
1551.30960,0.00179
1549.24943,0.00145
1547.18926,0.00127
1545.12909,0.00120
1543.06892,0.00105
1541.00874,0.00086
1538.94857,0.00087
1536.88840,0.00087
1534.82823,0.00073
1532.76805,0.00059
1530.70788,0.00054
1528.64771,0.00049
1526.58754,0.00047
1524.52737,0.00056
1522.46719,0.00063
1520.40702,0.00053
1518.34685,0.00037
1516.28668,0.00026
1514.22651,0.00019
1512.16633,0.00016
1510.10616,0.00019
1508.04599,0.00033
1505.98582,0.00060
1503.92565,0.00076
1501.86547,0.00079
1499.80530,0.00084
1497.74513,0.00096
1495.68496,0.00104
1493.62478,0.00101
1491.56461,0.00098
1489.50444,0.00113
1487.44427,0.00134
1485.38410,0.00149
1483.32392,0.00172
1481.26375,0.00213
1479.20358,0.00263
1477.14341,0.00312
1475.08324,0.00371
1473.02306,0.00462
1470.96289,0.00562
1468.90272,0.00633
1466.84255,0.00692
1464.78238,0.00758
1462.72220,0.00802
1460.66203,0.00818
1458.60186,0.00853
1456.54169,0.00926
1454.48151,0.00979
1452.42134,0.00994
1450.36117,0.01007
1448.30100,0.01034
1446.24083,0.01068
1444.18065,0.01101
1442.12048,0.01133
1440.06031,0.01168
1438.00014,0.01215
1435.93997,0.01270
1433.87979,0.01311
1431.81962,0.01347
1429.75945,0.01401
1427.69928,0.01463
1425.63910,0.01515
1423.57893,0.01559
1421.51876,0.01595
1419.45859,0.01629
1417.39842,0.01667
1415.33824,0.01695
1413.27807,0.01700
1411.21790,0.01686
1409.15773,0.01662
1407.09756,0.01630
1405.03738,0.01585
1402.97721,0.01523
1400.91704,0.01459
1398.85687,0.01408
1396.79670,0.01381
1394.73652,0.01373
1392.67635,0.01366
1390.61618,0.01356
1388.55601,0.01363
1386.49583,0.01388
1384.43566,0.01411
1382.37549,0.01433
1380.31532,0.01464
1378.25515,0.01502
1376.19497,0.01543
1374.13480,0.01578
1372.07463,0.01597
1370.01446,0.01598
1367.95429,0.01580
1365.89411,0.01553
1363.83394,0.01539
1361.77377,0.01529
1359.71360,0.01502
1357.65343,0.01473
1355.59325,0.01458
1353.53308,0.01444
1351.47291,0.01421
1349.41274,0.01389
1347.35256,0.01353
1345.29239,0.01317
1343.23222,0.01291
1341.17205,0.01283
1339.11188,0.01287
1337.05170,0.01288
1334.99153,0.01285
1332.93136,0.01286
1330.87119,0.01294
1328.81102,0.01309
1326.75084,0.01320
1324.69067,0.01326
1322.63050,0.01340
1320.57033,0.01359
1318.51015,0.01365
1316.44998,0.01363
1314.38981,0.01364
1312.32964,0.01355
1310.26947,0.01332
1308.20929,0.01310
1306.14912,0.01292
1304.08895,0.01263
1302.02878,0.01223
1299.96861,0.01189
1297.90843,0.01170
1295.84826,0.01156
1293.78809,0.01138
1291.72792,0.01116
1289.66775,0.01104
1287.60757,0.01102
1285.54740,0.01102
1283.48723,0.01094
1281.42706,0.01085
1279.36688,0.01083
1277.30671,0.01087
1275.24654,0.01105
1273.18637,0.01142
1271.12620,0.01190
1269.06602,0.01243
1267.00585,0.01301
1264.94568,0.01363
1262.88551,0.01437
1260.82534,0.01514
1258.76516,0.01575
1256.70499,0.01618
1254.64482,0.01655
1252.58465,0.01687
1250.52447,0.01707
1248.46430,0.01714
1246.40413,0.01708
1244.34396,0.01694
1242.28379,0.01679
1240.22361,0.01658
1238.16344,0.01618
1236.10327,0.01557
1234.04310,0.01492
1231.98293,0.01435
1229.92275,0.01376
1227.86258,0.01309
1225.80241,0.01247
1223.74224,0.01195
1221.68207,0.01146
1219.62189,0.01093
1217.56172,0.01034
1215.50155,0.00969
1213.44138,0.00895
1211.38120,0.00811
1209.32103,0.00718
1207.26086,0.00611
1205.20069,0.00506
1203.14052,0.00412
1201.08034,0.00329
1199.02017,0.00249
1196.96000,0.00171
1194.89983,0.00100
1192.83966,0.00037
1190.77948,0.00000
1188.71931,-0.00003
1186.65914,0.00012
1184.59897,0.00025
1182.53880,0.00054
1180.47862,0.00110
1178.41845,0.00183
1176.35828,0.00272
1174.29811,0.00377
1172.23793,0.00496
1170.17776,0.00623
1168.11759,0.00756
1166.05742,0.00890
1163.99725,0.01024
1161.93707,0.01151
1159.87690,0.01263
1157.81673,0.01371
1155.75656,0.01481
1153.69639,0.01579
1151.63621,0.01662
1149.57604,0.01739
1147.51587,0.01807
1145.45570,0.01861
1143.39552,0.01909
1141.33535,0.01954
1139.27518,0.01989
1137.21501,0.02025
1135.15484,0.02082
1133.09466,0.02145
1131.03449,0.02205
1128.97432,0.02279
1126.91415,0.02382
1124.85398,0.02511
1122.79380,0.02645
1120.73363,0.02769
1118.67346,0.02870
1116.61329,0.02947
1114.55312,0.03024
1112.49294,0.03118
1110.43277,0.03222
1108.37260,0.03326
1106.31243,0.03427
1104.25225,0.03548
1102.19208,0.03694
1100.13191,0.03849
1098.07174,0.04007
1096.01157,0.04169
1093.95139,0.04348
1091.89122,0.04532
1089.83105,0.04691
1087.77088,0.04815
1085.71071,0.04924
1083.65053,0.05037
1081.59036,0.05164
1079.53019,0.05302
1077.47002,0.05456
1075.40985,0.05625
1073.34967,0.05776
1071.28950,0.05894
1069.22933,0.05993
1067.16916,0.06080
1065.10898,0.06140
1063.04881,0.06176
1060.98864,0.06224
1058.92847,0.06289
1056.86830,0.06352
1054.80812,0.06414
1052.74795,0.06487
1050.68778,0.06576
1048.62761,0.06684
1046.56744,0.06808
1044.50726,0.06937
1042.44709,0.07049
1040.38692,0.07137
1038.32675,0.07220
1036.26657,0.07274
1034.20640,0.07283
1032.14623,0.07277
1030.08606,0.07283
1028.02589,0.07298
1025.96571,0.07294
1023.90554,0.07273
1021.84537,0.07267
1019.78520,0.07267
1017.72503,0.07251
1015.66485,0.07236
1013.60468,0.07234
1011.54451,0.07219
1009.48434,0.07177
1007.42417,0.07114
1005.36399,0.07031
1003.30382,0.06933
1001.24365,0.06815
999.18348,0.06674
997.12330,0.06522
995.06313,0.06380
993.00296,0.06263
990.94279,0.06178
988.88262,0.06106
986.82244,0.06027
984.76227,0.05930
982.70210,0.05837
980.64193,0.05762
978.58176,0.05683
976.52158,0.05596
974.46141,0.05502
972.40124,0.05397
970.34107,0.05305
968.28089,0.05226
966.22072,0.05135
964.16055,0.05033
962.10038,0.04926
960.04021,0.04815
957.98003,0.04701
955.91986,0.04575
953.85969,0.04444
951.79952,0.04316
949.73935,0.04183
947.67917,0.04037
945.61900,0.03848
943.55883,0.03601
941.49866,0.03325
939.43849,0.03040
937.37831,0.02752
935.31814,0.02463
933.25797,0.02190
931.19780,0.01956
929.13762,0.01757
927.07745,0.01577
925.01728,0.01427
922.95711,0.01306
920.89694,0.01207
918.83676,0.01111
916.77659,0.00997
914.71642,0.00892
912.65625,0.00823
910.59608,0.00758
908.53590,0.00678
906.47573,0.00623
904.41556,0.00618
902.35539,0.00626
900.29522,0.00635
898.23504,0.00662
896.17487,0.00684
894.11470,0.00684
892.05453,0.00668
889.99435,0.00630
887.93418,0.00568
885.87401,0.00519
883.81384,0.00498
881.75367,0.00470
879.69349,0.00420
877.63332,0.00374
875.57315,0.00333
873.51298,0.00289
871.45281,0.00274
869.39263,0.00295
867.33246,0.00304
865.27229,0.00277
863.21212,0.00250
861.15194,0.00257
859.09177,0.00277
857.03160,0.00273
854.97143,0.00251
852.91126,0.00232
850.85108,0.00216
848.79091,0.00200
846.73074,0.00182
844.67057,0.00152
842.61040,0.00110
840.55022,0.00079
838.49005,0.00072
836.42988,0.00063
834.36971,0.00032
832.30954,0.00000
830.24936,-0.00019
828.18919,-0.00025
826.12902,-0.00028
824.06885,0.00011
822.00867,0.00072
819.94850,0.00092
817.88833,0.00081
815.82816,0.00087
813.76799,0.00122
811.70781,0.00174
809.64764,0.00222
807.58747,0.00264
805.52730,0.00287
803.46713,0.00267
801.40695,0.00205
799.34678,0.00130
797.28661,0.00079
795.22644,0.00042
793.16627,0.00004
791.10609,0.00010
789.04592,0.00057
786.98575,0.00082
784.92558,0.00055
782.86540,0.00028
780.80523,0.00060
778.74506,0.00106
776.68489,0.00108
774.62472,0.00094
772.56454,0.00089
770.50437,0.00063
768.44420,0.00022
766.38403,-0.00011
764.32386,-0.00023
762.26368,0.00017
760.20351,0.00063
758.14334,0.00059
756.08317,0.00030
754.02299,0.00025
751.96282,0.00056
749.90265,0.00046
747.84248,0.00000
745.78231,-0.00008
743.72213,-0.00004
741.66196,-0.00018
739.60179,-0.00035
737.54162,-0.00087
735.48145,-0.00136
733.42127,-0.00148
731.36110,-0.00143
729.30093,-0.00120
727.24076,-0.00102
725.18059,-0.00078
723.12041,-0.00021
721.06024,0.00045
719.00007,0.00020
716.93990,-0.00020
714.87972,0.00032
712.81955,0.00126
710.75938,0.00166
708.69921,0.00175
706.63904,0.00233
704.57886,0.00328
702.51869,0.00364
700.45852,0.00317
698.39835,0.00249
696.33818,0.00204
694.27800,0.00169
692.21783,0.00140
690.15766,0.00126
688.09749,0.00114
686.03731,0.00109
683.97714,0.00133
681.91697,0.00158
679.85680,0.00146
677.79663,0.00122
675.73645,0.00095
673.67628,0.00037
671.61611,-0.00026
669.55594,0.00104
667.49577,0.00235
665.43559,-0.00019
663.37542,-0.00001
661.31525,0.00036
659.25508,0.00053
657.19491,0.00044
655.13473,-0.00011
653.07456,0.00027
651.01439,0.00176
648.95422,0.00228
646.89404,0.00104
644.83387,0.00000
642.77370,0.00049
640.71353,0.00152
638.65336,0.00095
636.59318,-0.00079
634.53301,-0.00137
632.47284,-0.00054
630.41267,-0.00002
628.35250,-0.00067
626.29232,-0.00186
624.23215,-0.00209
622.17198,-0.00155
620.11181,-0.00139
618.05164,-0.00034
615.99146,0.00203
613.93129,0.00342
611.87112,0.00232
609.81095,-0.00014
607.75077,-0.00119
605.69060,-0.00052
603.63043,0.00032
601.57026,0.00046
599.51009,0.00000
