3996.73391,-0.00026
3994.67373,0.00012
3992.61356,0.00041
3990.55339,0.00045
3988.49322,0.00024
3986.43305,0.00022
3984.37287,0.00053
3982.31270,0.00069
3980.25253,0.00046
3978.19236,0.00027
3976.13219,0.00027
3974.07201,0.00032
3972.01184,0.00050
3969.95167,0.00069
3967.89150,0.00058
3965.83133,0.00027
3963.77115,0.00015
3961.71098,0.00008
3959.65081,0.00000
3957.59064,0.00027
3955.53046,0.00073
3953.47029,0.00087
3951.41012,0.00071
3949.34995,0.00044
3947.28978,0.00019
3945.22960,0.00042
3943.16943,0.00094
3941.10926,0.00087
3939.04909,0.00073
3936.98892,0.00083
3934.92874,0.00104
3932.86857,0.00136
3930.80840,0.00122
3928.74823,0.00087
3926.68805,0.00119
3924.62788,0.00164
3922.56771,0.00132
3920.50754,0.00095
3918.44737,0.00090
3916.38719,0.00076
3914.32702,0.00057
3912.26685,0.00074
3910.20668,0.00097
3908.14651,0.00131
3906.08633,0.00216
3904.02616,0.00251
3901.96599,0.00192
3899.90582,0.00154
3897.84565,0.00099
3895.78547,0.00075
3893.72530,0.00153
3891.66513,0.00184
3889.60496,0.00067
3887.54478,0.00054
3885.48461,0.00111
3883.42444,0.00088
3881.36427,0.00134
3879.30410,0.00107
3877.24392,0.00040
3875.18375,0.00103
3873.12358,0.00140
3871.06341,0.00160
3869.00324,0.00089
3866.94306,0.00015
3864.88289,0.00106
3862.82272,0.00127
3860.76255,0.00051
3858.70237,0.00000
3856.64220,0.00096
3854.58203,0.00354
3852.52186,0.00363
3850.46169,0.00107
3848.40151,0.00002
3846.34134,0.00052
3844.28117,0.00127
3842.22100,0.00153
3840.16083,0.00197
3838.10065,0.00226
3836.04048,0.00160
3833.98031,0.00117
3831.92014,0.00116
3829.85997,0.00091
3827.79979,0.00092
3825.73962,0.00073
3823.67945,0.00120
3821.61928,0.00244
3819.55910,0.00156
3817.49893,0.00131
3815.43876,0.00157
3813.37859,0.00055
3811.31842,0.00036
3809.25824,0.00134
3807.19807,0.00187
3805.13790,0.00099
3803.07773,0.00163
3801.01756,0.00228
3798.95738,0.00122
3796.89721,0.00113
3794.83704,0.00107
3792.77687,0.00114
3790.71670,0.00164
3788.65652,0.00181
3786.59635,0.00185
3784.53618,0.00168
3782.47601,0.00139
3780.41583,0.00180
3778.35566,0.00177
3776.29549,0.00115
3774.23532,0.00109
3772.17515,0.00170
3770.11497,0.00210
3768.05480,0.00156
3765.99463,0.00123
3763.93446,0.00086
3761.87429,0.00111
3759.81411,0.00181
3757.75394,0.00121
3755.69377,0.00038
3753.63360,0.00132
3751.57342,0.00274
3749.51325,0.00155
3747.45308,0.00000
3745.39291,0.00126
3743.33274,0.00150
3741.27256,0.00027
3739.21239,0.00040
3737.15222,0.00152
3735.09205,0.00197
3733.03188,0.00139
3730.97170,0.00060
3728.91153,0.00043
3726.85136,0.00105
3724.79119,0.00133
3722.73102,0.00157
3720.67084,0.00167
3718.61067,0.00142
3716.55050,0.00118
3714.49033,0.00183
3712.43015,0.00311
3710.36998,0.00297
3708.30981,0.00189
3706.24964,0.00150
3704.18947,0.00197
3702.12929,0.00227
3700.06912,0.00172
3698.00895,0.00163
3695.94878,0.00206
3693.88861,0.00235
3691.82843,0.00320
3689.76826,0.00404
3687.70809,0.00313
3685.64792,0.00172
3683.58775,0.00146
3681.52757,0.00160
3679.46740,0.00183
3677.40723,0.00315
3675.34706,0.00386
3673.28688,0.00208
3671.22671,0.00244
3669.16654,0.00329
3667.10637,0.00261
3665.04620,0.00279
3662.98602,0.00349
3660.92585,0.00377
3658.86568,0.00414
3656.80551,0.00445
3654.74534,0.00355
3652.68516,0.00390
3650.62499,0.00630
3648.56482,0.00685
3646.50465,0.00517
3644.44447,0.00426
3642.38430,0.00481
3640.32413,0.00548
3638.26396,0.00592
3636.20379,0.00632
3634.14361,0.00653
3632.08344,0.00692
3630.02327,0.00860
3627.96310,0.00884
3625.90293,0.00727
3623.84275,0.00714
3621.78258,0.00863
3619.72241,0.01009
3617.66224,0.00996
3615.60207,0.00984
3613.54189,0.01043
3611.48172,0.01056
3609.42155,0.01101
3607.36138,0.01151
3605.30120,0.01151
3603.24103,0.01186
3601.18086,0.01215
3599.12069,0.01184
3597.06052,0.01208
3595.00034,0.01282
3592.94017,0.01288
3590.88000,0.01315
3588.81983,0.01452
3586.75966,0.01500
3584.69948,0.01437
3582.63931,0.01468
3580.57914,0.01555
3578.51897,0.01605
3576.45879,0.01647
3574.39862,0.01685
3572.33845,0.01702
3570.27828,0.01765
3568.21811,0.01866
3566.15793,0.01846
3564.09776,0.01767
3562.03759,0.01805
3559.97742,0.01884
3557.91725,0.01931
3555.85707,0.01994
3553.79690,0.02088
3551.73673,0.02131
3549.67656,0.02123
3547.61639,0.02154
3545.55621,0.02189
3543.49604,0.02184
3541.43587,0.02214
3539.37570,0.02316
3537.31552,0.02406
3535.25535,0.02415
3533.19518,0.02403
3531.13501,0.02444
3529.07484,0.02510
3527.01466,0.02545
3524.95449,0.02573
3522.89432,0.02608
3520.83415,0.02631
3518.77398,0.02660
3516.71380,0.02691
3514.65363,0.02719
3512.59346,0.02765
3510.53329,0.02827
3508.47312,0.02851
3506.41294,0.02868
3504.35277,0.02954
3502.29260,0.03018
3500.23243,0.03013
3498.17225,0.03031
3496.11208,0.03070
3494.05191,0.03082
3491.99174,0.03090
3489.93157,0.03135
3487.87139,0.03183
3485.81122,0.03194
3483.75105,0.03220
3481.69088,0.03269
3479.63071,0.03290
3477.57053,0.03312
3475.51036,0.03342
3473.45019,0.03360
3471.39002,0.03395
3469.32984,0.03447
3467.26967,0.03486
3465.20950,0.03518
3463.14933,0.03553
3461.08916,0.03559
3459.02898,0.03559
3456.96881,0.03593
3454.90864,0.03632
3452.84847,0.03656
3450.78830,0.03680
3448.72812,0.03738
3446.66795,0.03787
3444.60778,0.03799
3442.54761,0.03819
3440.48744,0.03828
3438.42726,0.03861
3436.36709,0.03914
3434.30692,0.03936
3432.24675,0.03952
3430.18657,0.03986
3428.12640,0.04017
3426.06623,0.04034
3424.00606,0.04051
3421.94589,0.04067
3419.88571,0.04082
3417.82554,0.04125
3415.76537,0.04178
3413.70520,0.04199
3411.64503,0.04213
3409.58485,0.04248
3407.52468,0.04276
3405.46451,0.04287
3403.40434,0.04291
3401.34416,0.04294
3399.28399,0.04310
3397.22382,0.04325
3395.16365,0.04326
3393.10348,0.04340
3391.04330,0.04353
3388.98313,0.04367
3386.92296,0.04404
3384.86279,0.04455
3382.80262,0.04491
3380.74244,0.04508
3378.68227,0.04502
3376.62210,0.04485
3374.56193,0.04485
3372.50176,0.04505
3370.44158,0.04526
3368.38141,0.04551
3366.32124,0.04575
3364.26107,0.04583
3362.20089,0.04577
3360.14072,0.04570
3358.08055,0.04585
3356.02038,0.04615
3353.96021,0.04623
3351.90003,0.04606
3349.83986,0.04584
3347.77969,0.04582
3345.71952,0.04593
3343.65935,0.04603
3341.59917,0.04628
3339.53900,0.04657
3337.47883,0.04663
3335.41866,0.04644
3333.35849,0.04621
3331.29831,0.04611
3329.23814,0.04628
3327.17797,0.04665
3325.11780,0.04686
3323.05762,0.04671
3320.99745,0.04654
3318.93728,0.04662
3316.87711,0.04681
3314.81694,0.04685
3312.75676,0.04680
3310.69659,0.04691
3308.63642,0.04703
3306.57625,0.04685
3304.51608,0.04668
3302.45590,0.04677
3300.39573,0.04684
3298.33556,0.04681
3296.27539,0.04688
3294.21521,0.04695
3292.15504,0.04689
3290.09487,0.04677
3288.03470,0.04674
3285.97453,0.04680
3283.91435,0.04676
3281.85418,0.04662
3279.79401,0.04661
3277.73384,0.04674
3275.67367,0.04671
3273.61349,0.04652
3271.55332,0.04643
3269.49315,0.04651
3267.43298,0.04667
3265.37281,0.04680
3263.31263,0.04680
3261.25246,0.04660
3259.19229,0.04635
3257.13212,0.04624
3255.07194,0.04623
3253.01177,0.04616
3250.95160,0.04607
3248.89143,0.04617
3246.83126,0.04630
3244.77108,0.04610
3242.71091,0.04573
3240.65074,0.04556
3238.59057,0.04546
3236.53040,0.04543
3234.47022,0.04536
3232.41005,0.04503
3230.34988,0.04472
3228.28971,0.04467
3226.22954,0.04459
3224.16936,0.04438
3222.10919,0.04415
3220.04902,0.04402
3217.98885,0.04386
3215.92867,0.04351
3213.86850,0.04307
3211.80833,0.04268
3209.74816,0.04251
3207.68799,0.04247
3205.62781,0.04247
3203.56764,0.04236
3201.50747,0.04198
3199.44730,0.04158
3197.38713,0.04129
3195.32695,0.04100
3193.26678,0.04082
3191.20661,0.04065
3189.14644,0.04040
3187.08626,0.04015
3185.02609,0.03990
3182.96592,0.03959
3180.90575,0.03929
3178.84558,0.03901
3176.78540,0.03869
3174.72523,0.03841
3172.66506,0.03816
3170.60489,0.03786
3168.54472,0.03747
3166.48454,0.03713
3164.42437,0.03696
3162.36420,0.03679
3160.30403,0.03649
3158.24386,0.03615
3156.18368,0.03568
3154.12351,0.03518
3152.06334,0.03475
3150.00317,0.03433
3147.94299,0.03398
3145.88282,0.03379
3143.82265,0.03363
3141.76248,0.03343
3139.70231,0.03320
3137.64213,0.03272
3135.58196,0.03210
3133.52179,0.03173
3131.46162,0.03148
3129.40145,0.03125
3127.34127,0.03105
3125.28110,0.03070
3123.22093,0.03017
3121.16076,0.02971
3119.10058,0.02945
3117.04041,0.02928
3114.98024,0.02903
3112.92007,0.02867
3110.85990,0.02835
3108.79972,0.02805
3106.73955,0.02773
3104.67938,0.02737
3102.61921,0.02701
3100.55904,0.02669
3098.49886,0.02651
3096.43869,0.02642
3094.37852,0.02598
3092.31835,0.02530
3090.25818,0.02493
3088.19800,0.02487
3086.13783,0.02481
3084.07766,0.02455
3082.01749,0.02413
3079.95731,0.02380
3077.89714,0.02370
3075.83697,0.02356
3073.77680,0.02321
3071.71663,0.02285
3069.65645,0.02266
3067.59628,0.02255
3065.53611,0.02233
3063.47594,0.02194
3061.41577,0.02140
3059.35559,0.02099
3057.29542,0.02080
3055.23525,0.02053
3053.17508,0.02016
3051.11491,0.02000
3049.05473,0.01993
3046.99456,0.01971
3044.93439,0.01941
3042.87422,0.01913
3040.81404,0.01891
3038.75387,0.01876
3036.69370,0.01855
3034.63353,0.01819
3032.57336,0.01788
3030.51318,0.01766
3028.45301,0.01747
3026.39284,0.01736
3024.33267,0.01730
3022.27250,0.01729
3020.21232,0.01731
3018.15215,0.01729
3016.09198,0.01705
3014.03181,0.01662
3011.97163,0.01627
3009.91146,0.01605
3007.85129,0.01585
3005.79112,0.01576
3003.73095,0.01575
3001.67077,0.01564
2999.61060,0.01542
2997.55043,0.01526
2995.49026,0.01521
2993.43009,0.01518
2991.36991,0.01533
2989.30974,0.01558
2987.24957,0.01570
2985.18940,0.01573
2983.12923,0.01570
2981.06905,0.01565
2979.00888,0.01582
2976.94871,0.01614
2974.88854,0.01627
2972.82836,0.01631
2970.76819,0.01647
2968.70802,0.01664
2966.64785,0.01672
2964.58768,0.01691
2962.52750,0.01721
2960.46733,0.01764
2958.40716,0.01812
2956.34699,0.01830
2954.28682,0.01832
2952.22664,0.01871
2950.16647,0.01944
2948.10630,0.02008
2946.04613,0.02045
2943.98596,0.02056
2941.92578,0.02059
2939.86561,0.02073
2937.80544,0.02089
2935.74527,0.02093
2933.68509,0.02095
2931.62492,0.02115
2929.56475,0.02135
2927.50458,0.02124
2925.44441,0.02089
2923.38423,0.02061
2921.32406,0.02039
2919.26389,0.02016
2917.20372,0.01995
2915.14355,0.01972
2913.08337,0.01944
2911.02320,0.01924
2908.96303,0.01914
2906.90286,0.01899
2904.84268,0.01887
2902.78251,0.01883
2900.72234,0.01868
2898.66217,0.01854
2896.60200,0.01855
2894.54182,0.01852
2892.48165,0.01843
2890.42148,0.01847
2888.36131,0.01854
2886.30114,0.01837
2884.24096,0.01800
2882.18079,0.01775
2880.12062,0.01763
2878.06045,0.01747
2876.00028,0.01736
2873.94010,0.01721
2871.87993,0.01689
2869.81976,0.01658
2867.75959,0.01631
2865.69941,0.01595
2863.63924,0.01553
2861.57907,0.01525
2859.51890,0.01506
2857.45873,0.01484
2855.39855,0.01465
2853.33838,0.01450
2851.27821,0.01428
2849.21804,0.01406
2847.15787,0.01377
2845.09769,0.01341
2843.03752,0.01319
2840.97735,0.01308
2838.91718,0.01295
2836.85700,0.01279
2834.79683,0.01259
2832.73666,0.01242
2830.67649,0.01232
2828.61632,0.01224
2826.55614,0.01215
2824.49597,0.01208
2822.43580,0.01194
2820.37563,0.01182
2818.31546,0.01181
2816.25528,0.01177
2814.19511,0.01171
2812.13494,0.01154
2810.07477,0.01124
2808.01460,0.01098
2805.95442,0.01089
2803.89425,0.01085
2801.83408,0.01076
2799.77391,0.01065
2797.71373,0.01054
2795.65356,0.01040
2793.59339,0.01035
2791.53322,0.01040
2789.47305,0.01042
2787.41287,0.01038
2785.35270,0.01039
2783.29253,0.01044
2781.23236,0.01038
2779.17219,0.01023
2777.11201,0.01009
2775.05184,0.00999
2772.99167,0.00995
2770.93150,0.00999
2768.87133,0.00991
2766.81115,0.00968
2764.75098,0.00949
2762.69081,0.00944
2760.63064,0.00947
2758.57046,0.00944
2756.51029,0.00937
2754.45012,0.00935
2752.38995,0.00937
2750.32978,0.00938
2748.26960,0.00934
2746.20943,0.00931
2744.14926,0.00930
2742.08909,0.00927
2740.02892,0.00924
2737.96874,0.00914
2735.90857,0.00902
2733.84840,0.00901
2731.78823,0.00903
2729.72805,0.00895
2727.66788,0.00883
2725.60771,0.00873
2723.54754,0.00872
2721.48737,0.00876
2719.42719,0.00875
2717.36702,0.00865
2715.30685,0.00857
2713.24668,0.00851
2711.18651,0.00838
2709.12633,0.00825
2707.06616,0.00826
2705.00599,0.00836
2702.94582,0.00836
2700.88565,0.00820
2698.82547,0.00796
2696.76530,0.00775
2694.70513,0.00772
2692.64496,0.00785
2690.58478,0.00789
2688.52461,0.00775
2686.46444,0.00758
2684.40427,0.00754
2682.34410,0.00755
2680.28392,0.00758
2678.22375,0.00766
2676.16358,0.00765
2674.10341,0.00757
2672.04324,0.00747
2669.98306,0.00733
2667.92289,0.00719
2665.86272,0.00718
2663.80255,0.00717
2661.74238,0.00719
2659.68220,0.00729
2657.62203,0.00733
2655.56186,0.00732
2653.50169,0.00727
2651.44151,0.00715
2649.38134,0.00704
2647.32117,0.00696
2645.26100,0.00694
2643.20083,0.00696
2641.14065,0.00688
2639.08048,0.00671
2637.02031,0.00650
2634.96014,0.00625
2632.89997,0.00618
2630.83979,0.00629
2628.77962,0.00627
2626.71945,0.00617
2624.65928,0.00614
2622.59910,0.00607
2620.53893,0.00584
2618.47876,0.00564
2616.41859,0.00564
2614.35842,0.00562
2612.29824,0.00560
2610.23807,0.00568
2608.17790,0.00554
2606.11773,0.00530
2604.05756,0.00538
2601.99738,0.00554
2599.93721,0.00549
2597.87704,0.00527
2595.81687,0.00504
2593.75670,0.00487
2591.69652,0.00476
2589.63635,0.00486
2587.57618,0.00512
2585.51601,0.00517
2583.45583,0.00499
2581.39566,0.00490
2579.33549,0.00492
2577.27532,0.00508
2575.21515,0.00522
2573.15497,0.00512
2571.09480,0.00502
2569.03463,0.00496
2566.97446,0.00486
2564.91429,0.00485
2562.85411,0.00482
2560.79394,0.00481
2558.73377,0.00486
2556.67360,0.00473
2554.61342,0.00443
2552.55325,0.00425
2550.49308,0.00436
2548.43291,0.00457
2546.37274,0.00462
2544.31256,0.00455
2542.25239,0.00452
2540.19222,0.00457
2538.13205,0.00459
2536.07188,0.00464
2534.01170,0.00479
2531.95153,0.00476
2529.89136,0.00448
2527.83119,0.00432
2525.77102,0.00434
2523.71084,0.00432
2521.65067,0.00418
2519.59050,0.00403
2517.53033,0.00383
2515.47015,0.00368
2513.40998,0.00371
2511.34981,0.00394
2509.28964,0.00433
2507.22947,0.00445
2505.16929,0.00411
2503.10912,0.00393
2501.04895,0.00403
2498.98878,0.00413
2496.92861,0.00412
2494.86843,0.00404
2492.80826,0.00415
2490.74809,0.00429
2488.68792,0.00407
2486.62775,0.00379
2484.56757,0.00370
2482.50740,0.00366
2480.44723,0.00369
2478.38706,0.00367
2476.32688,0.00359
2474.26671,0.00362
2472.20654,0.00381
2470.14637,0.00396
2468.08620,0.00391
2466.02602,0.00374
2463.96585,0.00365
2461.90568,0.00383
2459.84551,0.00411
2457.78534,0.00405
2455.72516,0.00373
2453.66499,0.00366
2451.60482,0.00385
2449.54465,0.00384
2447.48447,0.00352
2445.42430,0.00322
2443.36413,0.00325
2441.30396,0.00354
2439.24379,0.00363
2437.18361,0.00349
2435.12344,0.00356
2433.06327,0.00357
2431.00310,0.00326
2428.94293,0.00308
2426.88275,0.00317
2424.82258,0.00323
2422.76241,0.00324
2420.70224,0.00330
2418.64207,0.00327
2416.58189,0.00299
2414.52172,0.00276
2412.46155,0.00292
2410.40138,0.00324
2408.34120,0.00332
2406.28103,0.00325
2404.22086,0.00322
2402.16069,0.00313
2400.10052,0.00299
2398.04034,0.00300
2395.98017,0.00306
2393.92000,0.00304
2391.85983,0.00291
2389.79966,0.00274
2387.73948,0.00276
2385.67931,0.00303
2383.61914,0.00329
2381.55897,0.00342
2379.49880,0.00352
2377.43862,0.00373
2375.37845,0.00428
2373.31828,0.00484
2371.25811,0.00506
2369.19793,0.00510
2367.13776,0.00433
2365.07759,0.00269
2363.01742,0.00201
2360.95725,0.00231
2358.89707,0.00364
2356.83690,0.00448
2354.77673,0.00434
2352.71656,0.00392
2350.65639,0.00321
2348.59621,0.00348
2346.53604,0.00576
2344.47587,0.00649
2342.41570,0.00623
2340.35552,0.00561
2338.29535,0.00425
2336.23518,0.00248
2334.17501,0.00110
2332.11484,0.00097
2330.05466,0.00167
2327.99449,0.00265
2325.93432,0.00323
2323.87415,0.00376
2321.81398,0.00383
2319.75380,0.00383
2317.69363,0.00353
2315.63346,0.00343
2313.57329,0.00357
2311.51312,0.00365
2309.45294,0.00357
2307.39277,0.00321
2305.33260,0.00260
2303.27243,0.00222
2301.21225,0.00253
2299.15208,0.00323
2297.09191,0.00380
2295.03174,0.00394
2292.97157,0.00373
2290.91139,0.00351
2288.85122,0.00343
2286.79105,0.00349
2284.73088,0.00363
2282.67071,0.00372
2280.61053,0.00369
2278.55036,0.00351
2276.49019,0.00320
2274.43002,0.00283
2272.36984,0.00262
2270.30967,0.00257
2268.24950,0.00261
2266.18933,0.00296
2264.12916,0.00358
2262.06898,0.00375
2260.00881,0.00317
2257.94864,0.00256
2255.88847,0.00252
2253.82830,0.00266
2251.76812,0.00278
2249.70795,0.00308
2247.64778,0.00338
2245.58761,0.00320
2243.52744,0.00285
2241.46726,0.00304
2239.40709,0.00322
2237.34692,0.00285
2235.28675,0.00252
2233.22657,0.00271
2231.16640,0.00298
2229.10623,0.00272
2227.04606,0.00253
2224.98589,0.00331
2222.92571,0.00429
2220.86554,0.00422
2218.80537,0.00376
2216.74520,0.00363
2214.68503,0.00330
2212.62485,0.00292
2210.56468,0.00304
2208.50451,0.00316
2206.44434,0.00307
2204.38417,0.00328
2202.32399,0.00348
2200.26382,0.00298
2198.20365,0.00209
2196.14348,0.00169
2194.08330,0.00226
2192.02313,0.00364
2189.96296,0.00504
2187.90279,0.00561
2185.84262,0.00558
2183.78244,0.00511
2181.72227,0.00405
2179.66210,0.00304
2177.60193,0.00267
2175.54176,0.00275
2173.48158,0.00254
2171.42141,0.00254
2169.36124,0.00312
2167.30107,0.00344
2165.24089,0.00392
2163.18072,0.00437
2161.12055,0.00313
2159.06038,0.00121
2157.00021,0.00040
2154.94003,0.00027
2152.87986,0.00085
2150.81969,0.00178
2148.75952,0.00200
2146.69935,0.00175
2144.63917,0.00226
2142.57900,0.00324
2140.51883,0.00350
2138.45866,0.00312
2136.39849,0.00244
2134.33831,0.00157
2132.27814,0.00115
2130.21797,0.00158
2128.15780,0.00224
2126.09762,0.00256
2124.03745,0.00275
2121.97728,0.00303
2119.91711,0.00321
2117.85694,0.00298
2115.79676,0.00278
2113.73659,0.00315
2111.67642,0.00364
2109.61625,0.00361
2107.55608,0.00347
2105.49590,0.00350
2103.43573,0.00342
2101.37556,0.00335
2099.31539,0.00329
2097.25521,0.00324
2095.19504,0.00309
2093.13487,0.00257
2091.07470,0.00206
2089.01453,0.00217
2086.95435,0.00288
2084.89418,0.00339
2082.83401,0.00322
2080.77384,0.00293
2078.71367,0.00292
2076.65349,0.00312
2074.59332,0.00329
2072.53315,0.00322
2070.47298,0.00296
2068.41281,0.00277
2066.35263,0.00285
2064.29246,0.00303
2062.23229,0.00323
2060.17212,0.00360
2058.11194,0.00384
2056.05177,0.00357
2053.99160,0.00334
2051.93143,0.00352
2049.87126,0.00343
2047.81108,0.00312
2045.75091,0.00260
2043.69074,0.00159
2041.63057,0.00100
2039.57040,0.00162
2037.51022,0.00292
2035.45005,0.00327
2033.38988,0.00220
2031.32971,0.00107
2029.26954,0.00057
2027.20936,0.00067
2025.14919,0.00097
2023.08902,0.00112
2021.02885,0.00137
2018.96867,0.00167
2016.90850,0.00201
2014.84833,0.00226
2012.78816,0.00284
2010.72799,0.00397
2008.66781,0.00431
2006.60764,0.00364
2004.54747,0.00306
2002.48730,0.00223
2000.42713,0.00105
1998.36695,0.00030
1996.30678,0.00002
1994.24661,0.00000
1992.18644,0.00059
1990.12626,0.00139
1988.06609,0.00170
1986.00592,0.00179
1983.94575,0.00235
1981.88558,0.00301
1979.82540,0.00279
1977.76523,0.00173
1975.70506,0.00126
1973.64489,0.00189
1971.58472,0.00260
1969.52454,0.00259
1967.46437,0.00209
1965.40420,0.00190
1963.34403,0.00223
1961.28386,0.00235
1959.22368,0.00214
1957.16351,0.00177
1955.10334,0.00106
1953.04317,0.00045
1950.98299,0.00043
1948.92282,0.00072
1946.86265,0.00099
1944.80248,0.00129
1942.74231,0.00161
1940.68213,0.00148
1938.62196,0.00154
1936.56179,0.00190
1934.50162,0.00193
1932.44145,0.00161
1930.38127,0.00120
1928.32110,0.00077
1926.26093,0.00044
1924.20076,0.00055
1922.14059,0.00051
1920.08041,0.00044
1918.02024,0.00074
1915.96007,0.00051
1913.89990,0.00047
1911.83972,0.00096
1909.77955,0.00137
1907.71938,0.00126
1905.65921,0.00104
1903.59904,0.00098
1901.53886,0.00093
1899.47869,0.00103
1897.41852,0.00131
1895.35835,0.00146
1893.29818,0.00128
1891.23800,0.00138
1889.17783,0.00139
1887.11766,0.00100
1885.05749,0.00112
1882.99731,0.00135
1880.93714,0.00129
1878.87697,0.00118
1876.81680,0.00099
1874.75663,0.00067
1872.69645,0.00058
1870.63628,0.00130
1868.57611,0.00199
1866.51594,0.00158
1864.45577,0.00095
1862.39559,0.00079
1860.33542,0.00085
1858.27525,0.00094
1856.21508,0.00100
1854.15491,0.00092
1852.09473,0.00067
1850.03456,0.00048
1847.97439,0.00051
1845.91422,0.00089
1843.85404,0.00091
1841.79387,0.00000
1839.73370,-0.00002
1837.67353,0.00080
1835.61336,0.00113
1833.55318,0.00104
1831.49301,0.00134
1829.43284,0.00122
1827.37267,0.00052
1825.31250,0.00048
1823.25232,0.00032
1821.19215,0.00010
1819.13198,0.00028
1817.07181,0.00039
1815.01163,0.00033
1812.95146,0.00058
1810.89129,0.00088
1808.83112,0.00059
1806.77095,0.00012
1804.71077,0.00004
1802.65060,0.00045
1800.59043,0.00065
1798.53026,0.00017
1796.47009,-0.00020
1794.40991,0.00041
1792.34974,0.00123
1790.28957,0.00056
1788.22940,-0.00017
1786.16923,0.00010
1784.10905,0.00032
1782.04888,0.00044
1779.98871,0.00053
1777.92854,0.00019
1775.86836,0.00021
1773.80819,0.00110
1771.74802,0.00152
1769.68785,0.00093
1767.62768,0.00075
1765.56750,0.00068
1763.50733,0.00131
1761.44716,0.00198
1759.38699,0.00211
1757.32682,0.00268
1755.26664,0.00270
1753.20647,0.00307
1751.14630,0.00454
1749.08613,0.00537
1747.02596,0.00545
1744.96578,0.00574
1742.90561,0.00640
1740.84544,0.00708
1738.78527,0.00676
1736.72509,0.00678
1734.66492,0.00851
1732.60475,0.00833
1730.54458,0.00732
1728.48441,0.00727
1726.42423,0.00746
1724.36406,0.00760
1722.30389,0.00715
1720.24372,0.00742
1718.18355,0.00856
1716.12337,0.00781
1714.06320,0.00619
1712.00303,0.00537
1709.94286,0.00522
1707.88268,0.00554
1705.82251,0.00557
1703.76234,0.00468
1701.70217,0.00520
1699.64200,0.00565
1697.58182,0.00518
1695.52165,0.00560
1693.46148,0.00499
1691.40131,0.00520
1689.34114,0.00582
1687.28096,0.00627
1685.22079,0.00817
1683.16062,0.00856
1681.10045,0.00747
1679.04028,0.00786
1676.98010,0.00947
1674.91993,0.01052
1672.85976,0.01056
1670.79959,0.01220
1668.73941,0.01336
1666.67924,0.01298
1664.61907,0.01414
1662.55890,0.01597
1660.49873,0.01605
1658.43855,0.01580
1656.37838,0.01723
1654.31821,0.02036
1652.25804,0.01985
1650.19787,0.01759
1648.13769,0.01968
1646.07752,0.02141
1644.01735,0.02024
1641.95718,0.01982
1639.89701,0.02040
1637.83683,0.02175
1635.77666,0.02269
1633.71649,0.02093
1631.65632,0.01983
1629.59614,0.02057
1627.53597,0.02089
1625.47580,0.02096
1623.41563,0.02131
1621.35546,0.02045
1619.29528,0.02040
1617.23511,0.02154
1615.17494,0.02066
1613.11477,0.01952
1611.05460,0.01979
1608.99442,0.01991
1606.93425,0.01924
1604.87408,0.01850
1602.81391,0.01794
1600.75373,0.01710
1598.69356,0.01608
1596.63339,0.01518
1594.57322,0.01418
1592.51305,0.01299
1590.45287,0.01198
1588.39270,0.01114
1586.33253,0.01032
1584.27236,0.00942
1582.21219,0.00831
1580.15201,0.00746
1578.09184,0.00797
1576.03167,0.00801
1573.97150,0.00563
1571.91133,0.00500
1569.85115,0.00609
1567.79098,0.00529
1565.73081,0.00407
1563.67064,0.00321
1561.61046,0.00409
1559.55029,0.00654
1557.49012,0.00418
1555.42995,0.00170
1553.36978,0.00176
1551.30960,0.00224
1549.24943,0.00213
1547.18926,0.00161
1545.12909,0.00191
1543.06892,0.00265
1541.00874,0.00369
1538.94857,0.00239
1536.88840,0.00000
1534.82823,0.00083
1532.76805,0.00179
1530.70788,0.00086
1528.64771,0.00097
1526.58754,0.00145
1524.52737,0.00139
1522.46719,0.00203
1520.40702,0.00162
1518.34685,0.00093
1516.28668,0.00119
1514.22651,0.00070
1512.16633,0.00039
1510.10616,0.00121
1508.04599,0.00339
1505.98582,0.00299
1503.92565,0.00027
1501.86547,0.00003
1499.80530,0.00159
1497.74513,0.00260
1495.68496,0.00189
1493.62478,0.00095
1491.56461,0.00205
1489.50444,0.00332
1487.44427,0.00283
1485.38410,0.00217
1483.32392,0.00251
1481.26375,0.00321
1479.20358,0.00351
1477.14341,0.00406
1475.08324,0.00516
1473.02306,0.00635
1470.96289,0.00603
1468.90272,0.00567
1466.84255,0.00718
1464.78238,0.00852
1462.72220,0.00798
1460.66203,0.00820
1458.60186,0.01039
1456.54169,0.01102
1454.48151,0.00925
1452.42134,0.00894
1450.36117,0.01001
1448.30100,0.01105
1446.24083,0.01119
1444.18065,0.01111
1442.12048,0.01133
1440.06031,0.01180
1438.00014,0.01309
1435.93997,0.01345
1433.87979,0.01256
1431.81962,0.01307
1429.75945,0.01400
1427.69928,0.01414
1425.63910,0.01465
1423.57893,0.01516
1421.51876,0.01560
1419.45859,0.01659
1417.39842,0.01633
1415.33824,0.01587
1413.27807,0.01629
1411.21790,0.01655
1409.15773,0.01621
1407.09756,0.01605
1405.03738,0.01587
1402.97721,0.01497
1400.91704,0.01452
1398.85687,0.01449
1396.79670,0.01416
1394.73652,0.01381
1392.67635,0.01296
1390.61618,0.01273
1388.55601,0.01358
1386.49583,0.01391
1384.43566,0.01363
1382.37549,0.01388
1380.31532,0.01438
1378.25515,0.01475
1376.19497,0.01537
1374.13480,0.01590
1372.07463,0.01570
1370.01446,0.01568
1367.95429,0.01566
1365.89411,0.01538
1363.83394,0.01552
1361.77377,0.01530
1359.71360,0.01459
1357.65343,0.01437
1355.59325,0.01446
1353.53308,0.01435
1351.47291,0.01417
1349.41274,0.01406
1347.35256,0.01378
1345.29239,0.01330
1343.23222,0.01295
1341.17205,0.01319
1339.11188,0.01342
1337.05170,0.01301
1334.99153,0.01267
1332.93136,0.01271
1330.87119,0.01288
1328.81102,0.01304
1326.75084,0.01316
1324.69067,0.01323
1322.63050,0.01338
1320.57033,0.01366
1318.51015,0.01368
1316.44998,0.01348
1314.38981,0.01350
1312.32964,0.01347
1310.26947,0.01320
1308.20929,0.01305
1306.14912,0.01294
1304.08895,0.01275
1302.02878,0.01240
1299.96861,0.01197
1297.90843,0.01164
1295.84826,0.01143
1293.78809,0.01123
1291.72792,0.01101
1289.66775,0.01084
1287.60757,0.01078
1285.54740,0.01076
1283.48723,0.01073
1281.42706,0.01068
1279.36688,0.01062
1277.30671,0.01064
1275.24654,0.01081
1273.18637,0.01108
1271.12620,0.01140
1269.06602,0.01182
1267.00585,0.01234
1264.94568,0.01291
1262.88551,0.01364
1260.82534,0.01443
1258.76516,0.01504
1256.70499,0.01538
1254.64482,0.01561
1252.58465,0.01583
1250.52447,0.01608
1248.46430,0.01625
1246.40413,0.01624
1244.34396,0.01613
1242.28379,0.01599
1240.22361,0.01573
1238.16344,0.01534
1236.10327,0.01494
1234.04310,0.01451
1231.98293,0.01398
1229.92275,0.01334
1227.86258,0.01271
1225.80241,0.01212
1223.74224,0.01150
1221.68207,0.01089
1219.62189,0.01034
1217.56172,0.00982
1215.50155,0.00927
1213.44138,0.00860
1211.38120,0.00779
1209.32103,0.00686
1207.26086,0.00578
1205.20069,0.00470
1203.14052,0.00389
1201.08034,0.00319
1199.02017,0.00233
1196.96000,0.00144
1194.89983,0.00075
1192.83966,0.00030
1190.77948,0.00006
1188.71931,0.00000
1186.65914,0.00012
1184.59897,0.00050
1182.53880,0.00106
1180.47862,0.00165
1178.41845,0.00222
1176.35828,0.00291
1174.29811,0.00384
1172.23793,0.00497
1170.17776,0.00622
1168.11759,0.00754
1166.05742,0.00887
1163.99725,0.01015
1161.93707,0.01127
1159.87690,0.01223
1157.81673,0.01327
1155.75656,0.01434
1153.69639,0.01521
1151.63621,0.01602
1149.57604,0.01693
1147.51587,0.01769
1145.45570,0.01809
1143.39552,0.01837
1141.33535,0.01875
1139.27518,0.01914
1137.21501,0.01956
1135.15484,0.02010
1133.09466,0.02071
1131.03449,0.02142
1128.97432,0.02236
1126.91415,0.02348
1124.85398,0.02467
1122.79380,0.02581
1120.73363,0.02689
1118.67346,0.02789
1116.61329,0.02879
1114.55312,0.02968
1112.49294,0.03059
1110.43277,0.03155
1108.37260,0.03254
1106.31243,0.03346
1104.25225,0.03442
1102.19208,0.03573
1100.13191,0.03749
1098.07174,0.03936
1096.01157,0.04097
1093.95139,0.04243
1091.89122,0.04396
1089.83105,0.04536
1087.77088,0.04648
1085.71071,0.04756
1083.65053,0.04881
1081.59036,0.05022
1079.53019,0.05165
1077.47002,0.05305
1075.40985,0.05445
1073.34967,0.05571
1071.28950,0.05679
1069.22933,0.05779
1067.16916,0.05867
1065.10898,0.05934
1063.04881,0.05978
1060.98864,0.06007
1058.92847,0.06054
1056.86830,0.06125
1054.80812,0.06193
1052.74795,0.06259
1050.68778,0.06345
1048.62761,0.06453
1046.56744,0.06559
1044.50726,0.06650
1042.44709,0.06736
1040.38692,0.06825
1038.32675,0.06902
1036.26657,0.06938
1034.20640,0.06942
1032.14623,0.06935
1030.08606,0.06923
1028.02589,0.06919
1025.96571,0.06922
1023.90554,0.06907
1021.84537,0.06878
1019.78520,0.06862
1017.72503,0.06846
1015.66485,0.06817
1013.60468,0.06785
1011.54451,0.06756
1009.48434,0.06717
1007.42417,0.06661
1005.36399,0.06584
1003.30382,0.06487
1001.24365,0.06376
999.18348,0.06248
997.12330,0.06109
995.06313,0.05978
993.00296,0.05878
990.94279,0.05804
988.88262,0.05734
986.82244,0.05655
984.76227,0.05573
982.70210,0.05498
980.64193,0.05428
978.58176,0.05340
976.52158,0.05236
974.46141,0.05142
972.40124,0.05057
970.34107,0.04976
968.28089,0.04890
966.22072,0.04788
964.16055,0.04679
962.10038,0.04573
960.04021,0.04467
957.98003,0.04358
955.91986,0.04235
953.85969,0.04105
951.79952,0.03969
949.73935,0.03822
947.67917,0.03673
945.61900,0.03510
943.55883,0.03302
941.49866,0.03050
939.43849,0.02771
937.37831,0.02495
935.31814,0.02242
933.25797,0.01999
931.19780,0.01763
929.13762,0.01560
927.07745,0.01405
925.01728,0.01269
922.95711,0.01147
920.89694,0.01054
918.83676,0.00962
916.77659,0.00853
914.71642,0.00757
912.65625,0.00696
910.59608,0.00650
908.53590,0.00605
906.47573,0.00568
904.41556,0.00550
902.35539,0.00560
900.29522,0.00587
898.23504,0.00619
896.17487,0.00646
894.11470,0.00646
892.05453,0.00623
889.99435,0.00591
887.93418,0.00537
885.87401,0.00471
883.81384,0.00425
881.75367,0.00406
879.69349,0.00379
877.63332,0.00342
875.57315,0.00326
873.51298,0.00317
871.45281,0.00304
869.39263,0.00306
867.33246,0.00310
865.27229,0.00290
863.21212,0.00275
861.15194,0.00289
859.09177,0.00310
857.03160,0.00326
854.97143,0.00339
852.91126,0.00332
850.85108,0.00291
848.79091,0.00241
846.73074,0.00214
844.67057,0.00206
842.61040,0.00187
840.55022,0.00137
838.49005,0.00090
836.42988,0.00075
834.36971,0.00062
832.30954,0.00018
830.24936,0.00000
828.18919,0.00027
826.12902,0.00039
824.06885,0.00042
822.00867,0.00083
819.94850,0.00113
817.88833,0.00105
815.82816,0.00116
813.76799,0.00156
811.70781,0.00210
809.64764,0.00263
807.58747,0.00279
805.52730,0.00253
803.46713,0.00217
801.40695,0.00194
799.34678,0.00166
797.28661,0.00113
795.22644,0.00057
793.16627,0.00040
791.10609,0.00064
789.04592,0.00088
786.98575,0.00109
784.92558,0.00101
782.86540,0.00049
780.80523,0.00043
778.74506,0.00103
776.68489,0.00131
774.62472,0.00125
772.56454,0.00157
770.50437,0.00187
768.44420,0.00141
766.38403,0.00060
764.32386,0.00017
762.26368,0.00031
760.20351,0.00052
758.14334,0.00051
756.08317,0.00055
754.02299,0.00069
751.96282,0.00092
749.90265,0.00092
747.84248,0.00044
745.78231,0.00000
743.72213,-0.00032
741.66196,-0.00042
739.60179,-0.00026
737.54162,-0.00046
735.48145,-0.00095
733.42127,-0.00102
731.36110,-0.00067
729.30093,-0.00005
727.24076,0.00032
725.18059,0.00035
723.12041,0.00043
721.06024,0.00065
719.00007,0.00060
716.93990,0.00073
714.87972,0.00112
712.81955,0.00149
710.75938,0.00162
708.69921,0.00182
706.63904,0.00249
704.57886,0.00317
702.51869,0.00313
700.45852,0.00265
698.39835,0.00237
696.33818,0.00235
694.27800,0.00238
692.21783,0.00225
690.15766,0.00179
688.09749,0.00126
686.03731,0.00105
683.97714,0.00112
681.91697,0.00106
679.85680,0.00055
677.79663,0.00011
675.73645,0.00025
673.67628,0.00016
671.61611,-0.00071
669.55594,-0.00013
667.49577,0.00099
665.43559,-0.00137
663.37542,-0.00079
661.31525,-0.00038
659.25508,-0.00003
657.19491,0.00059
655.13473,0.00057
653.07456,0.00078
651.01439,0.00192
648.95422,0.00242
646.89404,0.00122
644.83387,0.00000
642.77370,0.00008
640.71353,0.00093
638.65336,0.00108
636.59318,0.00060
634.53301,0.00042
632.47284,0.00038
630.41267,-0.00016
628.35250,-0.00090
626.29232,-0.00080
624.23215,0.00065
622.17198,0.00188
620.11181,0.00142
618.05164,0.00030
615.99146,0.00035
613.93129,0.00060
611.87112,-0.00025
609.81095,-0.00103
607.75077,-0.00087
605.69060,-0.00076
603.63043,-0.00057
601.57026,0.00007
599.51009,0.00000
