3996.73391,0.00042
3994.67373,0.00052
3992.61356,0.00052
3990.55339,0.00050
3988.49322,0.00064
3986.43305,0.00094
3984.37287,0.00123
3982.31270,0.00124
3980.25253,0.00101
3978.19236,0.00088
3976.13219,0.00086
3974.07201,0.00080
3972.01184,0.00075
3969.95167,0.00071
3967.89150,0.00054
3965.83133,0.00029
3963.77115,0.00007
3961.71098,0.00000
3959.65081,0.00012
3957.59064,0.00038
3955.53046,0.00071
3953.47029,0.00095
3951.41012,0.00089
3949.34995,0.00062
3947.28978,0.00051
3945.22960,0.00064
3943.16943,0.00085
3941.10926,0.00100
3939.04909,0.00092
3936.98892,0.00071
3934.92874,0.00069
3932.86857,0.00080
3930.80840,0.00069
3928.74823,0.00054
3926.68805,0.00072
3924.62788,0.00108
3922.56771,0.00123
3920.50754,0.00102
3918.44737,0.00064
3916.38719,0.00046
3914.32702,0.00059
3912.26685,0.00082
3910.20668,0.00104
3908.14651,0.00132
3906.08633,0.00161
3904.02616,0.00167
3901.96599,0.00133
3899.90582,0.00089
3897.84565,0.00078
3895.78547,0.00095
3893.72530,0.00106
3891.66513,0.00088
3889.60496,0.00068
3887.54478,0.00070
3885.48461,0.00076
3883.42444,0.00077
3881.36427,0.00075
3879.30410,0.00065
3877.24392,0.00065
3875.18375,0.00080
3873.12358,0.00091
3871.06341,0.00082
3869.00324,0.00056
3866.94306,0.00045
3864.88289,0.00041
3862.82272,0.00030
3860.76255,0.00032
3858.70237,0.00054
3856.64220,0.00083
3854.58203,0.00086
3852.52186,0.00041
3850.46169,0.00001
3848.40151,0.00000
3846.34134,0.00021
3844.28117,0.00054
3842.22100,0.00092
3840.16083,0.00116
3838.10065,0.00118
3836.04048,0.00110
3833.98031,0.00082
3831.92014,0.00048
3829.85997,0.00043
3827.79979,0.00055
3825.73962,0.00063
3823.67945,0.00087
3821.61928,0.00115
3819.55910,0.00111
3817.49893,0.00099
3815.43876,0.00085
3813.37859,0.00064
3811.31842,0.00057
3809.25824,0.00068
3807.19807,0.00083
3805.13790,0.00100
3803.07773,0.00119
3801.01756,0.00115
3798.95738,0.00094
3796.89721,0.00071
3794.83704,0.00046
3792.77687,0.00048
3790.71670,0.00075
3788.65652,0.00080
3786.59635,0.00063
3784.53618,0.00061
3782.47601,0.00078
3780.41583,0.00079
3778.35566,0.00055
3776.29549,0.00041
3774.23532,0.00044
3772.17515,0.00049
3770.11497,0.00048
3768.05480,0.00040
3765.99463,0.00030
3763.93446,0.00040
3761.87429,0.00067
3759.81411,0.00076
3757.75394,0.00074
3755.69377,0.00102
3753.63360,0.00146
3751.57342,0.00145
3749.51325,0.00094
3747.45308,0.00050
3745.39291,0.00025
3743.33274,0.00028
3741.27256,0.00051
3739.21239,0.00059
3737.15222,0.00046
3735.09205,0.00036
3733.03188,0.00041
3730.97170,0.00051
3728.91153,0.00050
3726.85136,0.00040
3724.79119,0.00039
3722.73102,0.00053
3720.67084,0.00072
3718.61067,0.00093
3716.55050,0.00123
3714.49033,0.00147
3712.43015,0.00132
3710.36998,0.00096
3708.30981,0.00099
3706.24964,0.00119
3704.18947,0.00106
3702.12929,0.00061
3700.06912,0.00025
3698.00895,0.00034
3695.94878,0.00077
3693.88861,0.00129
3691.82843,0.00167
3689.76826,0.00176
3687.70809,0.00161
3685.64792,0.00162
3683.58775,0.00181
3681.52757,0.00191
3679.46740,0.00180
3677.40723,0.00177
3675.34706,0.00187
3673.28688,0.00175
3671.22671,0.00153
3669.16654,0.00156
3667.10637,0.00187
3665.04620,0.00222
3662.98602,0.00251
3660.92585,0.00291
3658.86568,0.00341
3656.80551,0.00370
3654.74534,0.00379
3652.68516,0.00410
3650.62499,0.00447
3648.56482,0.00434
3646.50465,0.00399
3644.44447,0.00402
3642.38430,0.00435
3640.32413,0.00480
3638.26396,0.00534
3636.20379,0.00583
3634.14361,0.00617
3632.08344,0.00652
3630.02327,0.00690
3627.96310,0.00702
3625.90293,0.00712
3623.84275,0.00758
3621.78258,0.00812
3619.72241,0.00822
3617.66224,0.00800
3615.60207,0.00815
3613.54189,0.00873
3611.48172,0.00927
3609.42155,0.00948
3607.36138,0.00956
3605.30120,0.00989
3603.24103,0.01035
3601.18086,0.01062
3599.12069,0.01077
3597.06052,0.01119
3595.00034,0.01186
3592.94017,0.01236
3590.88000,0.01255
3588.81983,0.01262
3586.75966,0.01275
3584.69948,0.01301
3582.63931,0.01339
3580.57914,0.01378
3578.51897,0.01415
3576.45879,0.01450
3574.39862,0.01475
3572.33845,0.01497
3570.27828,0.01546
3568.21811,0.01614
3566.15793,0.01662
3564.09776,0.01695
3562.03759,0.01732
3559.97742,0.01755
3557.91725,0.01773
3555.85707,0.01813
3553.79690,0.01857
3551.73673,0.01886
3549.67656,0.01920
3547.61639,0.01974
3545.55621,0.02039
3543.49604,0.02088
3541.43587,0.02115
3539.37570,0.02138
3537.31552,0.02162
3535.25535,0.02184
3533.19518,0.02209
3531.13501,0.02243
3529.07484,0.02280
3527.01466,0.02304
3524.95449,0.02329
3522.89432,0.02366
3520.83415,0.02406
3518.77398,0.02440
3516.71380,0.02468
3514.65363,0.02486
3512.59346,0.02507
3510.53329,0.02545
3508.47312,0.02584
3506.41294,0.02618
3504.35277,0.02679
3502.29260,0.02759
3500.23243,0.02790
3498.17225,0.02774
3496.11208,0.02772
3494.05191,0.02797
3491.99174,0.02829
3489.93157,0.02873
3487.87139,0.02917
3485.81122,0.02937
3483.75105,0.02956
3481.69088,0.02997
3479.63071,0.03048
3477.57053,0.03092
3475.51036,0.03115
3473.45019,0.03116
3471.39002,0.03132
3469.32984,0.03176
3467.26967,0.03216
3465.20950,0.03239
3463.14933,0.03268
3461.08916,0.03305
3459.02898,0.03324
3456.96881,0.03333
3454.90864,0.03351
3452.84847,0.03374
3450.78830,0.03404
3448.72812,0.03443
3446.66795,0.03481
3444.60778,0.03506
3442.54761,0.03518
3440.48744,0.03527
3438.42726,0.03545
3436.36709,0.03569
3434.30692,0.03595
3432.24675,0.03636
3430.18657,0.03688
3428.12640,0.03733
3426.06623,0.03758
3424.00606,0.03757
3421.94589,0.03748
3419.88571,0.03767
3417.82554,0.03815
3415.76537,0.03859
3413.70520,0.03882
3411.64503,0.03881
3409.58485,0.03896
3407.52468,0.03936
3405.46451,0.03944
3403.40434,0.03929
3401.34416,0.03939
3399.28399,0.03960
3397.22382,0.03984
3395.16365,0.04023
3393.10348,0.04062
3391.04330,0.04070
3388.98313,0.04061
3386.92296,0.04069
3384.86279,0.04091
3382.80262,0.04109
3380.74244,0.04131
3378.68227,0.04157
3376.62210,0.04168
3374.56193,0.04161
3372.50176,0.04149
3370.44158,0.04146
3368.38141,0.04165
3366.32124,0.04204
3364.26107,0.04243
3362.20089,0.04261
3360.14072,0.04260
3358.08055,0.04257
3356.02038,0.04241
3353.96021,0.04217
3351.90003,0.04214
3349.83986,0.04228
3347.77969,0.04247
3345.71952,0.04269
3343.65935,0.04286
3341.59917,0.04292
3339.53900,0.04289
3337.47883,0.04282
3335.41866,0.04277
3333.35849,0.04264
3331.29831,0.04250
3329.23814,0.04276
3327.17797,0.04321
3325.11780,0.04320
3323.05762,0.04287
3320.99745,0.04281
3318.93728,0.04301
3316.87711,0.04312
3314.81694,0.04313
3312.75676,0.04327
3310.69659,0.04343
3308.63642,0.04338
3306.57625,0.04330
3304.51608,0.04341
3302.45590,0.04364
3300.39573,0.04376
3298.33556,0.04359
3296.27539,0.04335
3294.21521,0.04330
3292.15504,0.04326
3290.09487,0.04319
3288.03470,0.04317
3285.97453,0.04311
3283.91435,0.04308
3281.85418,0.04324
3279.79401,0.04359
3277.73384,0.04366
3275.67367,0.04329
3273.61349,0.04314
3271.55332,0.04338
3269.49315,0.04348
3267.43298,0.04326
3265.37281,0.04299
3263.31263,0.04287
3261.25246,0.04278
3259.19229,0.04269
3257.13212,0.04279
3255.07194,0.04295
3253.01177,0.04282
3250.95160,0.04246
3248.89143,0.04225
3246.83126,0.04237
3244.77108,0.04247
3242.71091,0.04219
3240.65074,0.04186
3238.59057,0.04181
3236.53040,0.04183
3234.47022,0.04169
3232.41005,0.04137
3230.34988,0.04105
3228.28971,0.04091
3226.22954,0.04085
3224.16936,0.04068
3222.10919,0.04043
3220.04902,0.04027
3217.98885,0.04018
3215.92867,0.03994
3213.86850,0.03961
3211.80833,0.03942
3209.74816,0.03937
3207.68799,0.03942
3205.62781,0.03952
3203.56764,0.03939
3201.50747,0.03885
3199.44730,0.03804
3197.38713,0.03747
3195.32695,0.03732
3193.26678,0.03734
3191.20661,0.03717
3189.14644,0.03677
3187.08626,0.03648
3185.02609,0.03638
3182.96592,0.03624
3180.90575,0.03599
3178.84558,0.03569
3176.78540,0.03542
3174.72523,0.03507
3172.66506,0.03460
3170.60489,0.03417
3168.54472,0.03389
3166.48454,0.03378
3164.42437,0.03373
3162.36420,0.03358
3160.30403,0.03330
3158.24386,0.03286
3156.18368,0.03234
3154.12351,0.03197
3152.06334,0.03175
3150.00317,0.03148
3147.94299,0.03114
3145.88282,0.03080
3143.82265,0.03050
3141.76248,0.03034
3139.70231,0.03012
3137.64213,0.02966
3135.58196,0.02925
3133.52179,0.02897
3131.46162,0.02866
3129.40145,0.02832
3127.34127,0.02798
3125.28110,0.02752
3123.22093,0.02708
3121.16076,0.02691
3119.10058,0.02682
3117.04041,0.02656
3114.98024,0.02618
3112.92007,0.02581
3110.85990,0.02559
3108.79972,0.02543
3106.73955,0.02511
3104.67938,0.02470
3102.61921,0.02432
3100.55904,0.02404
3098.49886,0.02388
3096.43869,0.02369
3094.37852,0.02337
3092.31835,0.02291
3090.25818,0.02255
3088.19800,0.02240
3086.13783,0.02218
3084.07766,0.02181
3082.01749,0.02142
3079.95731,0.02113
3077.89714,0.02092
3075.83697,0.02066
3073.77680,0.02044
3071.71663,0.02043
3069.65645,0.02045
3067.59628,0.02030
3065.53611,0.01997
3063.47594,0.01954
3061.41577,0.01908
3059.35559,0.01875
3057.29542,0.01854
3055.23525,0.01824
3053.17508,0.01794
3051.11491,0.01787
3049.05473,0.01783
3046.99456,0.01758
3044.93439,0.01724
3042.87422,0.01687
3040.81404,0.01650
3038.75387,0.01630
3036.69370,0.01614
3034.63353,0.01586
3032.57336,0.01569
3030.51318,0.01562
3028.45301,0.01547
3026.39284,0.01528
3024.33267,0.01506
3022.27250,0.01490
3020.21232,0.01495
3018.15215,0.01508
3016.09198,0.01495
3014.03181,0.01453
3011.97163,0.01423
3009.91146,0.01420
3007.85129,0.01419
3005.79112,0.01407
3003.73095,0.01400
3001.67077,0.01392
2999.61060,0.01358
2997.55043,0.01311
2995.49026,0.01288
2993.43009,0.01301
2991.36991,0.01336
2989.30974,0.01366
2987.24957,0.01384
2985.18940,0.01408
2983.12923,0.01424
2981.06905,0.01423
2979.00888,0.01429
2976.94871,0.01437
2974.88854,0.01435
2972.82836,0.01435
2970.76819,0.01455
2968.70802,0.01487
2966.64785,0.01507
2964.58768,0.01521
2962.52750,0.01535
2960.46733,0.01557
2958.40716,0.01598
2956.34699,0.01636
2954.28682,0.01661
2952.22664,0.01698
2950.16647,0.01755
2948.10630,0.01798
2946.04613,0.01823
2943.98596,0.01846
2941.92578,0.01862
2939.86561,0.01876
2937.80544,0.01898
2935.74527,0.01907
2933.68509,0.01907
2931.62492,0.01917
2929.56475,0.01923
2927.50458,0.01913
2925.44441,0.01900
2923.38423,0.01888
2921.32406,0.01856
2919.26389,0.01807
2917.20372,0.01772
2915.14355,0.01759
2913.08337,0.01744
2911.02320,0.01725
2908.96303,0.01709
2906.90286,0.01695
2904.84268,0.01686
2902.78251,0.01687
2900.72234,0.01684
2898.66217,0.01674
2896.60200,0.01667
2894.54182,0.01654
2892.48165,0.01637
2890.42148,0.01626
2888.36131,0.01620
2886.30114,0.01613
2884.24096,0.01608
2882.18079,0.01603
2880.12062,0.01584
2878.06045,0.01556
2876.00028,0.01540
2873.94010,0.01528
2871.87993,0.01500
2869.81976,0.01464
2867.75959,0.01430
2865.69941,0.01398
2863.63924,0.01378
2861.57907,0.01369
2859.51890,0.01353
2857.45873,0.01328
2855.39855,0.01306
2853.33838,0.01287
2851.27821,0.01264
2849.21804,0.01236
2847.15787,0.01205
2845.09769,0.01187
2843.03752,0.01181
2840.97735,0.01168
2838.91718,0.01142
2836.85700,0.01123
2834.79683,0.01112
2832.73666,0.01102
2830.67649,0.01091
2828.61632,0.01078
2826.55614,0.01066
2824.49597,0.01065
2822.43580,0.01060
2820.37563,0.01042
2818.31546,0.01023
2816.25528,0.01013
2814.19511,0.01014
2812.13494,0.01012
2810.07477,0.00998
2808.01460,0.00983
2805.95442,0.00976
2803.89425,0.00966
2801.83408,0.00949
2799.77391,0.00937
2797.71373,0.00930
2795.65356,0.00920
2793.59339,0.00911
2791.53322,0.00911
2789.47305,0.00912
2787.41287,0.00908
2785.35270,0.00901
2783.29253,0.00895
2781.23236,0.00889
2779.17219,0.00882
2777.11201,0.00883
2775.05184,0.00886
2772.99167,0.00877
2770.93150,0.00867
2768.87133,0.00865
2766.81115,0.00860
2764.75098,0.00847
2762.69081,0.00830
2760.63064,0.00820
2758.57046,0.00822
2756.51029,0.00825
2754.45012,0.00825
2752.38995,0.00830
2750.32978,0.00826
2748.26960,0.00812
2746.20943,0.00811
2744.14926,0.00817
2742.08909,0.00818
2740.02892,0.00823
2737.96874,0.00824
2735.90857,0.00814
2733.84840,0.00807
2731.78823,0.00807
2729.72805,0.00802
2727.66788,0.00791
2725.60771,0.00778
2723.54754,0.00770
2721.48737,0.00765
2719.42719,0.00757
2717.36702,0.00752
2715.30685,0.00754
2713.24668,0.00753
2711.18651,0.00741
2709.12633,0.00723
2707.06616,0.00715
2705.00599,0.00714
2702.94582,0.00709
2700.88565,0.00706
2698.82547,0.00698
2696.76530,0.00684
2694.70513,0.00685
2692.64496,0.00693
2690.58478,0.00683
2688.52461,0.00671
2686.46444,0.00680
2684.40427,0.00687
2682.34410,0.00677
2680.28392,0.00666
2678.22375,0.00669
2676.16358,0.00676
2674.10341,0.00674
2672.04324,0.00664
2669.98306,0.00655
2667.92289,0.00649
2665.86272,0.00647
2663.80255,0.00648
2661.74238,0.00643
2659.68220,0.00641
2657.62203,0.00650
2655.56186,0.00661
2653.50169,0.00661
2651.44151,0.00651
2649.38134,0.00644
2647.32117,0.00647
2645.26100,0.00652
2643.20083,0.00650
2641.14065,0.00634
2639.08048,0.00610
2637.02031,0.00595
2634.96014,0.00579
2632.89997,0.00558
2630.83979,0.00548
2628.77962,0.00547
2626.71945,0.00553
2624.65928,0.00557
2622.59910,0.00553
2620.53893,0.00540
2618.47876,0.00519
2616.41859,0.00509
2614.35842,0.00516
2612.29824,0.00526
2610.23807,0.00534
2608.17790,0.00532
2606.11773,0.00520
2604.05756,0.00508
2601.99738,0.00505
2599.93721,0.00511
2597.87704,0.00505
2595.81687,0.00486
2593.75670,0.00475
2591.69652,0.00473
2589.63635,0.00475
2587.57618,0.00477
2585.51601,0.00471
2583.45583,0.00458
2581.39566,0.00451
2579.33549,0.00465
2577.27532,0.00485
2575.21515,0.00476
2573.15497,0.00444
2571.09480,0.00429
2569.03463,0.00445
2566.97446,0.00455
2564.91429,0.00444
2562.85411,0.00430
2560.79394,0.00435
2558.73377,0.00451
2556.67360,0.00451
2554.61342,0.00437
2552.55325,0.00425
2550.49308,0.00419
2548.43291,0.00421
2546.37274,0.00424
2544.31256,0.00437
2542.25239,0.00454
2540.19222,0.00448
2538.13205,0.00418
2536.07188,0.00392
2534.01170,0.00390
2531.95153,0.00397
2529.89136,0.00402
2527.83119,0.00415
2525.77102,0.00428
2523.71084,0.00428
2521.65067,0.00411
2519.59050,0.00388
2517.53033,0.00374
2515.47015,0.00374
2513.40998,0.00366
2511.34981,0.00365
2509.28964,0.00399
2507.22947,0.00400
2505.16929,0.00337
2503.10912,0.00300
2501.04895,0.00316
2498.98878,0.00351
2496.92861,0.00378
2494.86843,0.00385
2492.80826,0.00391
2490.74809,0.00394
2488.68792,0.00377
2486.62775,0.00367
2484.56757,0.00377
2482.50740,0.00375
2480.44723,0.00373
2478.38706,0.00395
2476.32688,0.00409
2474.26671,0.00389
2472.20654,0.00361
2470.14637,0.00360
2468.08620,0.00380
2466.02602,0.00385
2463.96585,0.00358
2461.90568,0.00344
2459.84551,0.00374
2457.78534,0.00393
2455.72516,0.00372
2453.66499,0.00366
2451.60482,0.00395
2449.54465,0.00409
2447.48447,0.00381
2445.42430,0.00353
2443.36413,0.00356
2441.30396,0.00366
2439.24379,0.00350
2437.18361,0.00323
2435.12344,0.00321
2433.06327,0.00340
2431.00310,0.00352
2428.94293,0.00340
2426.88275,0.00321
2424.82258,0.00320
2422.76241,0.00339
2420.70224,0.00361
2418.64207,0.00355
2416.58189,0.00342
2414.52172,0.00343
2412.46155,0.00344
2410.40138,0.00339
2408.34120,0.00335
2406.28103,0.00338
2404.22086,0.00342
2402.16069,0.00332
2400.10052,0.00308
2398.04034,0.00299
2395.98017,0.00305
2393.92000,0.00309
2391.85983,0.00297
2389.79966,0.00282
2387.73948,0.00286
2385.67931,0.00299
2383.61914,0.00307
2381.55897,0.00315
2379.49880,0.00328
2377.43862,0.00362
2375.37845,0.00418
2373.31828,0.00441
2371.25811,0.00409
2369.19793,0.00383
2367.13776,0.00362
2365.07759,0.00323
2363.01742,0.00289
2360.95725,0.00245
2358.89707,0.00231
2356.83690,0.00303
2354.77673,0.00380
2352.71656,0.00391
2350.65639,0.00388
2348.59621,0.00422
2346.53604,0.00494
2344.47587,0.00584
2342.41570,0.00618
2340.35552,0.00560
2338.29535,0.00471
2336.23518,0.00391
2334.17501,0.00315
2332.11484,0.00254
2330.05466,0.00247
2327.99449,0.00330
2325.93432,0.00455
2323.87415,0.00520
2321.81398,0.00480
2319.75380,0.00403
2317.69363,0.00368
2315.63346,0.00372
2313.57329,0.00378
2311.51312,0.00370
2309.45294,0.00365
2307.39277,0.00372
2305.33260,0.00365
2303.27243,0.00340
2301.21225,0.00336
2299.15208,0.00375
2297.09191,0.00424
2295.03174,0.00446
2292.97157,0.00441
2290.91139,0.00416
2288.85122,0.00382
2286.79105,0.00356
2284.73088,0.00357
2282.67071,0.00377
2280.61053,0.00395
2278.55036,0.00400
2276.49019,0.00382
2274.43002,0.00340
2272.36984,0.00307
2270.30967,0.00309
2268.24950,0.00331
2266.18933,0.00346
2264.12916,0.00341
2262.06898,0.00332
2260.00881,0.00323
2257.94864,0.00302
2255.88847,0.00294
2253.82830,0.00314
2251.76812,0.00331
2249.70795,0.00327
2247.64778,0.00322
2245.58761,0.00300
2243.52744,0.00267
2241.46726,0.00313
2239.40709,0.00368
2237.34692,0.00325
2235.28675,0.00281
2233.22657,0.00306
2231.16640,0.00352
2229.10623,0.00370
2227.04606,0.00345
2224.98589,0.00328
2222.92571,0.00363
2220.86554,0.00388
2218.80537,0.00359
2216.74520,0.00327
2214.68503,0.00298
2212.62485,0.00289
2210.56468,0.00312
2208.50451,0.00310
2206.44434,0.00297
2204.38417,0.00322
2202.32399,0.00354
2200.26382,0.00349
2198.20365,0.00322
2196.14348,0.00334
2194.08330,0.00376
2192.02313,0.00413
2189.96296,0.00469
2187.90279,0.00506
2185.84262,0.00431
2183.78244,0.00268
2181.72227,0.00158
2179.66210,0.00154
2177.60193,0.00178
2175.54176,0.00176
2173.48158,0.00124
2171.42141,0.00078
2169.36124,0.00158
2167.30107,0.00349
2165.24089,0.00476
2163.18072,0.00451
2161.12055,0.00357
2159.06038,0.00286
2157.00021,0.00209
2154.94003,0.00132
2152.87986,0.00192
2150.81969,0.00325
2148.75952,0.00375
2146.69935,0.00370
2144.63917,0.00355
2142.57900,0.00361
2140.51883,0.00367
2138.45866,0.00337
2136.39849,0.00324
2134.33831,0.00322
2132.27814,0.00282
2130.21797,0.00266
2128.15780,0.00292
2126.09762,0.00301
2124.03745,0.00315
2121.97728,0.00380
2119.91711,0.00429
2117.85694,0.00404
2115.79676,0.00346
2113.73659,0.00319
2111.67642,0.00333
2109.61625,0.00356
2107.55608,0.00363
2105.49590,0.00367
2103.43573,0.00371
2101.37556,0.00367
2099.31539,0.00345
2097.25521,0.00300
2095.19504,0.00280
2093.13487,0.00291
2091.07470,0.00296
2089.01453,0.00320
2086.95435,0.00370
2084.89418,0.00410
2082.83401,0.00434
2080.77384,0.00439
2078.71367,0.00440
2076.65349,0.00453
2074.59332,0.00448
2072.53315,0.00412
2070.47298,0.00367
2068.41281,0.00349
2066.35263,0.00366
2064.29246,0.00369
2062.23229,0.00362
2060.17212,0.00381
2058.11194,0.00372
2056.05177,0.00323
2053.99160,0.00365
2051.93143,0.00488
2049.87126,0.00472
2047.81108,0.00314
2045.75091,0.00196
2043.69074,0.00171
2041.63057,0.00230
2039.57040,0.00321
2037.51022,0.00345
2035.45005,0.00339
2033.38988,0.00376
2031.32971,0.00375
2029.26954,0.00271
2027.20936,0.00184
2025.14919,0.00205
2023.08902,0.00216
2021.02885,0.00147
2018.96867,0.00059
2016.90850,0.00000
2014.84833,0.00002
2012.78816,0.00104
2010.72799,0.00260
2008.66781,0.00337
2006.60764,0.00328
2004.54747,0.00350
2002.48730,0.00341
2000.42713,0.00184
1998.36695,-0.00004
1996.30678,-0.00030
1994.24661,0.00092
1992.18644,0.00232
1990.12626,0.00306
1988.06609,0.00293
1986.00592,0.00261
1983.94575,0.00305
1981.88558,0.00388
1979.82540,0.00338
1977.76523,0.00162
1975.70506,0.00059
1973.64489,0.00084
1971.58472,0.00179
1969.52454,0.00245
1967.46437,0.00203
1965.40420,0.00135
1963.34403,0.00120
1961.28386,0.00106
1959.22368,0.00093
1957.16351,0.00101
1955.10334,0.00078
1953.04317,0.00035
1950.98299,0.00024
1948.92282,0.00051
1946.86265,0.00074
1944.80248,0.00102
1942.74231,0.00164
1940.68213,0.00188
1938.62196,0.00168
1936.56179,0.00175
1934.50162,0.00184
1932.44145,0.00159
1930.38127,0.00142
1928.32110,0.00141
1926.26093,0.00125
1924.20076,0.00105
1922.14059,0.00097
1920.08041,0.00067
1918.02024,0.00043
1915.96007,0.00078
1913.89990,0.00132
1911.83972,0.00164
1909.77955,0.00153
1907.71938,0.00116
1905.65921,0.00098
1903.59904,0.00093
1901.53886,0.00088
1899.47869,0.00106
1897.41852,0.00115
1895.35835,0.00089
1893.29818,0.00071
1891.23800,0.00067
1889.17783,0.00066
1887.11766,0.00080
1885.05749,0.00093
1882.99731,0.00090
1880.93714,0.00082
1878.87697,0.00079
1876.81680,0.00079
1874.75663,0.00089
1872.69645,0.00110
1870.63628,0.00124
1868.57611,0.00127
1866.51594,0.00134
1864.45577,0.00136
1862.39559,0.00121
1860.33542,0.00096
1858.27525,0.00077
1856.21508,0.00062
1854.15491,0.00047
1852.09473,0.00041
1850.03456,0.00044
1847.97439,0.00045
1845.91422,0.00044
1843.85404,0.00034
1841.79387,0.00014
1839.73370,0.00010
1837.67353,0.00021
1835.61336,0.00030
1833.55318,0.00041
1831.49301,0.00060
1829.43284,0.00071
1827.37267,0.00063
1825.31250,0.00040
1823.25232,0.00010
1821.19215,0.00000
1819.13198,0.00010
1817.07181,0.00018
1815.01163,0.00025
1812.95146,0.00038
1810.89129,0.00047
1808.83112,0.00039
1806.77095,0.00017
1804.71077,0.00003
1802.65060,0.00009
1800.59043,0.00010
1798.53026,-0.00001
1796.47009,-0.00009
1794.40991,-0.00003
1792.34974,0.00013
1790.28957,0.00022
1788.22940,0.00022
1786.16923,0.00016
1784.10905,0.00011
1782.04888,0.00012
1779.98871,0.00020
1777.92854,0.00028
1775.86836,0.00022
1773.80819,0.00004
1771.74802,0.00002
1769.68785,0.00041
1767.62768,0.00091
1765.56750,0.00118
1763.50733,0.00124
1761.44716,0.00135
1759.38699,0.00166
1757.32682,0.00210
1755.26664,0.00249
1753.20647,0.00292
1751.14630,0.00360
1749.08613,0.00440
1747.02596,0.00505
1744.96578,0.00552
1742.90561,0.00586
1740.84544,0.00611
1738.78527,0.00629
1736.72509,0.00646
1734.66492,0.00665
1732.60475,0.00676
1730.54458,0.00671
1728.48441,0.00663
1726.42423,0.00661
1724.36406,0.00662
1722.30389,0.00663
1720.24372,0.00659
1718.18355,0.00643
1716.12337,0.00614
1714.06320,0.00579
1712.00303,0.00536
1709.94286,0.00487
1707.88268,0.00448
1705.82251,0.00428
1703.76234,0.00413
1701.70217,0.00402
1699.64200,0.00419
1697.58182,0.00453
1695.52165,0.00473
1693.46148,0.00490
1691.40131,0.00518
1689.34114,0.00554
1687.28096,0.00586
1685.22079,0.00631
1683.16062,0.00707
1681.10045,0.00776
1679.04028,0.00827
1676.98010,0.00884
1674.91993,0.00951
1672.85976,0.01019
1670.79959,0.01100
1668.73941,0.01189
1666.67924,0.01245
1664.61907,0.01290
1662.55890,0.01367
1660.49873,0.01459
1658.43855,0.01522
1656.37838,0.01570
1654.31821,0.01655
1652.25804,0.01773
1650.19787,0.01842
1648.13769,0.01877
1646.07752,0.01899
1644.01735,0.01899
1641.95718,0.01897
1639.89701,0.01905
1637.83683,0.01927
1635.77666,0.01951
1633.71649,0.01947
1631.65632,0.01922
1629.59614,0.01905
1627.53597,0.01908
1625.47580,0.01917
1623.41563,0.01923
1621.35546,0.01915
1619.29528,0.01894
1617.23511,0.01874
1615.17494,0.01861
1613.11477,0.01842
1611.05460,0.01809
1608.99442,0.01756
1606.93425,0.01693
1604.87408,0.01634
1602.81391,0.01570
1600.75373,0.01488
1598.69356,0.01400
1596.63339,0.01314
1594.57322,0.01219
1592.51305,0.01114
1590.45287,0.01017
1588.39270,0.00933
1586.33253,0.00847
1584.27236,0.00758
1582.21219,0.00684
1580.15201,0.00634
1578.09184,0.00596
1576.03167,0.00551
1573.97150,0.00498
1571.91133,0.00459
1569.85115,0.00430
1567.79098,0.00390
1565.73081,0.00342
1563.67064,0.00309
1561.61046,0.00298
1559.55029,0.00285
1557.49012,0.00251
1555.42995,0.00217
1553.36978,0.00189
1551.30960,0.00163
1549.24943,0.00142
1547.18926,0.00134
1545.12909,0.00138
1543.06892,0.00139
1541.00874,0.00125
1538.94857,0.00096
1536.88840,0.00077
1534.82823,0.00074
1532.76805,0.00069
1530.70788,0.00058
1528.64771,0.00054
1526.58754,0.00062
1524.52737,0.00074
1522.46719,0.00081
1520.40702,0.00083
1518.34685,0.00078
1516.28668,0.00065
1514.22651,0.00057
1512.16633,0.00069
1510.10616,0.00096
1508.04599,0.00103
1505.98582,0.00082
1503.92565,0.00070
1501.86547,0.00077
1499.80530,0.00089
1497.74513,0.00096
1495.68496,0.00087
1493.62478,0.00077
1491.56461,0.00087
1489.50444,0.00120
1487.44427,0.00147
1485.38410,0.00153
1483.32392,0.00164
1481.26375,0.00192
1479.20358,0.00231
1477.14341,0.00279
1475.08324,0.00346
1473.02306,0.00430
1470.96289,0.00494
1468.90272,0.00528
1466.84255,0.00568
1464.78238,0.00627
1462.72220,0.00676
1460.66203,0.00702
1458.60186,0.00736
1456.54169,0.00796
1454.48151,0.00843
1452.42134,0.00863
1450.36117,0.00882
1448.30100,0.00916
1446.24083,0.00953
1444.18065,0.00980
1442.12048,0.00999
1440.06031,0.01021
1438.00014,0.01055
1435.93997,0.01103
1433.87979,0.01141
1431.81962,0.01169
1429.75945,0.01203
1427.69928,0.01244
1425.63910,0.01286
1423.57893,0.01321
1421.51876,0.01348
1419.45859,0.01376
1417.39842,0.01407
1415.33824,0.01424
1413.27807,0.01429
1411.21790,0.01428
1409.15773,0.01417
1407.09756,0.01395
1405.03738,0.01359
1402.97721,0.01306
1400.91704,0.01248
1398.85687,0.01206
1396.79670,0.01186
1394.73652,0.01174
1392.67635,0.01160
1390.61618,0.01151
1388.55601,0.01159
1386.49583,0.01180
1384.43566,0.01202
1382.37549,0.01219
1380.31532,0.01241
1378.25515,0.01276
1376.19497,0.01316
1374.13480,0.01344
1372.07463,0.01354
1370.01446,0.01357
1367.95429,0.01349
1365.89411,0.01327
1363.83394,0.01305
1361.77377,0.01289
1359.71360,0.01271
1357.65343,0.01249
1355.59325,0.01232
1353.53308,0.01215
1351.47291,0.01201
1349.41274,0.01189
1347.35256,0.01166
1345.29239,0.01132
1343.23222,0.01111
1341.17205,0.01112
1339.11188,0.01116
1337.05170,0.01113
1334.99153,0.01112
1332.93136,0.01116
1330.87119,0.01120
1328.81102,0.01120
1326.75084,0.01117
1324.69067,0.01116
1322.63050,0.01127
1320.57033,0.01145
1318.51015,0.01155
1316.44998,0.01160
1314.38981,0.01172
1312.32964,0.01175
1310.26947,0.01156
1308.20929,0.01128
1306.14912,0.01100
1304.08895,0.01069
1302.02878,0.01034
1299.96861,0.01005
1297.90843,0.00981
1295.84826,0.00961
1293.78809,0.00950
1291.72792,0.00937
1289.66775,0.00916
1287.60757,0.00907
1285.54740,0.00914
1283.48723,0.00921
1281.42706,0.00925
1279.36688,0.00931
1277.30671,0.00939
1275.24654,0.00958
1273.18637,0.00986
1271.12620,0.01023
1269.06602,0.01067
1267.00585,0.01107
1264.94568,0.01152
1262.88551,0.01214
1260.82534,0.01281
1258.76516,0.01342
1256.70499,0.01381
1254.64482,0.01401
1252.58465,0.01422
1250.52447,0.01448
1248.46430,0.01464
1246.40413,0.01466
1244.34396,0.01452
1242.28379,0.01422
1240.22361,0.01383
1238.16344,0.01342
1236.10327,0.01302
1234.04310,0.01260
1231.98293,0.01223
1229.92275,0.01187
1227.86258,0.01144
1225.80241,0.01091
1223.74224,0.01033
1221.68207,0.00984
1219.62189,0.00942
1217.56172,0.00901
1215.50155,0.00861
1213.44138,0.00807
1211.38120,0.00732
1209.32103,0.00641
1207.26086,0.00538
1205.20069,0.00434
1203.14052,0.00344
1201.08034,0.00265
1199.02017,0.00185
1196.96000,0.00117
1194.89983,0.00066
1192.83966,0.00023
1190.77948,0.00000
1188.71931,-0.00008
1186.65914,-0.00005
1184.59897,0.00018
1182.53880,0.00070
1180.47862,0.00126
1178.41845,0.00181
1176.35828,0.00254
1174.29811,0.00339
1172.23793,0.00433
1170.17776,0.00535
1168.11759,0.00637
1166.05742,0.00754
1163.99725,0.00878
1161.93707,0.00984
1159.87690,0.01076
1157.81673,0.01172
1155.75656,0.01265
1153.69639,0.01343
1151.63621,0.01411
1149.57604,0.01475
1147.51587,0.01522
1145.45570,0.01548
1143.39552,0.01579
1141.33535,0.01622
1139.27518,0.01661
1137.21501,0.01699
1135.15484,0.01740
1133.09466,0.01787
1131.03449,0.01852
1128.97432,0.01927
1126.91415,0.02001
1124.85398,0.02094
1122.79380,0.02204
1120.73363,0.02303
1118.67346,0.02385
1116.61329,0.02457
1114.55312,0.02525
1112.49294,0.02590
1110.43277,0.02671
1108.37260,0.02764
1106.31243,0.02845
1104.25225,0.02933
1102.19208,0.03059
1100.13191,0.03203
1098.07174,0.03335
1096.01157,0.03459
1093.95139,0.03590
1091.89122,0.03721
1089.83105,0.03829
1087.77088,0.03912
1085.71071,0.03999
1083.65053,0.04115
1081.59036,0.04242
1079.53019,0.04358
1077.47002,0.04476
1075.40985,0.04612
1073.34967,0.04745
1071.28950,0.04840
1069.22933,0.04890
1067.16916,0.04939
1065.10898,0.05002
1063.04881,0.05051
1060.98864,0.05085
1058.92847,0.05135
1056.86830,0.05208
1054.80812,0.05274
1052.74795,0.05325
1050.68778,0.05381
1048.62761,0.05455
1046.56744,0.05537
1044.50726,0.05622
1042.44709,0.05711
1040.38692,0.05806
1038.32675,0.05894
1036.26657,0.05947
1034.20640,0.05966
1032.14623,0.05975
1030.08606,0.05982
1028.02589,0.05976
1025.96571,0.05955
1023.90554,0.05933
1021.84537,0.05927
1019.78520,0.05934
1017.72503,0.05922
1015.66485,0.05899
1013.60468,0.05892
1011.54451,0.05883
1009.48434,0.05853
1007.42417,0.05796
1005.36399,0.05723
1003.30382,0.05665
1001.24365,0.05607
999.18348,0.05512
997.12330,0.05396
995.06313,0.05302
993.00296,0.05228
990.94279,0.05150
988.88262,0.05053
986.82244,0.04967
984.76227,0.04906
982.70210,0.04846
980.64193,0.04772
978.58176,0.04684
976.52158,0.04612
974.46141,0.04565
972.40124,0.04505
970.34107,0.04421
968.28089,0.04321
966.22072,0.04227
964.16055,0.04167
962.10038,0.04103
960.04021,0.04014
957.98003,0.03920
955.91986,0.03808
953.85969,0.03688
951.79952,0.03584
949.73935,0.03483
947.67917,0.03362
945.61900,0.03205
943.55883,0.03007
941.49866,0.02777
939.43849,0.02531
937.37831,0.02292
935.31814,0.02078
933.25797,0.01877
931.19780,0.01671
929.13762,0.01473
927.07745,0.01305
925.01728,0.01169
922.95711,0.01065
920.89694,0.00991
918.83676,0.00920
916.77659,0.00834
914.71642,0.00740
912.65625,0.00656
910.59608,0.00591
908.53590,0.00539
906.47573,0.00506
904.41556,0.00511
902.35539,0.00544
900.29522,0.00560
898.23504,0.00555
896.17487,0.00560
894.11470,0.00568
892.05453,0.00559
889.99435,0.00560
887.93418,0.00556
885.87401,0.00498
883.81384,0.00415
881.75367,0.00352
879.69349,0.00298
877.63332,0.00258
875.57315,0.00245
873.51298,0.00230
871.45281,0.00213
869.39263,0.00234
867.33246,0.00259
865.27229,0.00242
863.21212,0.00213
861.15194,0.00211
859.09177,0.00208
857.03160,0.00188
854.97143,0.00181
852.91126,0.00181
850.85108,0.00163
848.79091,0.00142
846.73074,0.00126
844.67057,0.00099
842.61040,0.00058
840.55022,0.00019
838.49005,0.00000
836.42988,-0.00021
834.36971,-0.00035
832.30954,-0.00037
830.24936,-0.00044
828.18919,-0.00048
826.12902,-0.00040
824.06885,-0.00036
822.00867,-0.00011
819.94850,0.00026
817.88833,0.00049
815.82816,0.00074
813.76799,0.00079
811.70781,0.00070
809.64764,0.00100
807.58747,0.00168
805.52730,0.00210
803.46713,0.00180
801.40695,0.00111
799.34678,0.00064
797.28661,0.00039
795.22644,0.00028
793.16627,0.00047
791.10609,0.00060
789.04592,0.00041
786.98575,0.00031
784.92558,0.00037
782.86540,0.00029
780.80523,0.00042
778.74506,0.00094
776.68489,0.00113
774.62472,0.00089
772.56454,0.00083
770.50437,0.00097
768.44420,0.00076
766.38403,0.00029
764.32386,0.00031
762.26368,0.00076
760.20351,0.00103
758.14334,0.00115
756.08317,0.00118
754.02299,0.00104
751.96282,0.00100
749.90265,0.00106
747.84248,0.00086
745.78231,0.00037
743.72213,0.00000
741.66196,-0.00004
739.60179,0.00010
737.54162,0.00016
735.48145,0.00016
733.42127,-0.00006
731.36110,-0.00032
729.30093,-0.00009
727.24076,0.00020
725.18059,0.00021
723.12041,0.00049
721.06024,0.00097
719.00007,0.00119
716.93990,0.00124
714.87972,0.00152
712.81955,0.00189
710.75938,0.00201
708.69921,0.00209
706.63904,0.00239
704.57886,0.00273
702.51869,0.00273
700.45852,0.00238
698.39835,0.00225
696.33818,0.00236
694.27800,0.00219
692.21783,0.00188
690.15766,0.00165
688.09749,0.00103
686.03731,0.00012
683.97714,-0.00011
681.91697,0.00037
679.85680,0.00061
677.79663,0.00079
675.73645,0.00154
673.67628,0.00209
671.61611,0.00140
669.55594,0.00010
667.49577,-0.00017
665.43559,0.00028
663.37542,0.00025
661.31525,0.00016
659.25508,0.00046
657.19491,0.00052
655.13473,-0.00012
653.07456,-0.00051
651.01439,0.00026
648.95422,0.00132
646.89404,0.00104
644.83387,0.00000
642.77370,0.00031
640.71353,0.00165
638.65336,0.00171
636.59318,0.00087
634.53301,0.00123
632.47284,0.00240
630.41267,0.00236
628.35250,0.00058
626.29232,-0.00165
624.23215,-0.00232
622.17198,-0.00147
620.11181,-0.00108
618.05164,-0.00078
615.99146,0.00007
613.93129,0.00033
611.87112,0.00015
609.81095,-0.00008
607.75077,0.00009
605.69060,0.00027
603.63043,-0.00005
601.57026,-0.00029
599.51009,0.00000
