3996.73391,0.00168
3994.67373,0.00117
3992.61356,0.00073
3990.55339,0.00043
3988.49322,0.00024
3986.43305,0.00009
3984.37287,0.00000
3982.31270,0.00009
3980.25253,0.00039
3978.19236,0.00082
3976.13219,0.00124
3974.07201,0.00154
3972.01184,0.00165
3969.95167,0.00160
3967.89150,0.00145
3965.83133,0.00124
3963.77115,0.00105
3961.71098,0.00097
3959.65081,0.00107
3957.59064,0.00129
3955.53046,0.00148
3953.47029,0.00149
3951.41012,0.00138
3949.34995,0.00131
3947.28978,0.00130
3945.22960,0.00129
3943.16943,0.00123
3941.10926,0.00103
3939.04909,0.00066
3936.98892,0.00030
3934.92874,0.00016
3932.86857,0.00030
3930.80840,0.00060
3928.74823,0.00093
3926.68805,0.00117
3924.62788,0.00123
3922.56771,0.00116
3920.50754,0.00105
3918.44737,0.00101
3916.38719,0.00105
3914.32702,0.00117
3912.26685,0.00139
3910.20668,0.00164
3908.14651,0.00178
3906.08633,0.00174
3904.02616,0.00159
3901.96599,0.00149
3899.90582,0.00151
3897.84565,0.00163
3895.78547,0.00181
3893.72530,0.00201
3891.66513,0.00218
3889.60496,0.00223
3887.54478,0.00216
3885.48461,0.00208
3883.42444,0.00203
3881.36427,0.00196
3879.30410,0.00187
3877.24392,0.00173
3875.18375,0.00151
3873.12358,0.00122
3871.06341,0.00094
3869.00324,0.00081
3866.94306,0.00093
3864.88289,0.00126
3862.82272,0.00166
3860.76255,0.00188
3858.70237,0.00172
3856.64220,0.00126
3854.58203,0.00082
3852.52186,0.00074
3850.46169,0.00110
3848.40151,0.00165
3846.34134,0.00216
3844.28117,0.00252
3842.22100,0.00269
3840.16083,0.00254
3838.10065,0.00201
3836.04048,0.00121
3833.98031,0.00044
3831.92014,0.00000
3829.85997,0.00001
3827.79979,0.00042
3825.73962,0.00103
3823.67945,0.00160
3821.61928,0.00193
3819.55910,0.00196
3817.49893,0.00176
3815.43876,0.00154
3813.37859,0.00145
3811.31842,0.00149
3809.25824,0.00159
3807.19807,0.00166
3805.13790,0.00164
3803.07773,0.00158
3801.01756,0.00153
3798.95738,0.00150
3796.89721,0.00147
3794.83704,0.00137
3792.77687,0.00126
3790.71670,0.00122
3788.65652,0.00123
3786.59635,0.00126
3784.53618,0.00134
3782.47601,0.00152
3780.41583,0.00176
3778.35566,0.00195
3776.29549,0.00198
3774.23532,0.00189
3772.17515,0.00185
3770.11497,0.00202
3768.05480,0.00240
3765.99463,0.00276
3763.93446,0.00281
3761.87429,0.00248
3759.81411,0.00195
3757.75394,0.00150
3755.69377,0.00126
3753.63360,0.00126
3751.57342,0.00148
3749.51325,0.00180
3747.45308,0.00203
3745.39291,0.00198
3743.33274,0.00165
3741.27256,0.00129
3739.21239,0.00117
3737.15222,0.00131
3735.09205,0.00146
3733.03188,0.00143
3730.97170,0.00129
3728.91153,0.00124
3726.85136,0.00148
3724.79119,0.00203
3722.73102,0.00264
3720.67084,0.00294
3718.61067,0.00284
3716.55050,0.00266
3714.49033,0.00268
3712.43015,0.00281
3710.36998,0.00277
3708.30981,0.00254
3706.24964,0.00234
3704.18947,0.00229
3702.12929,0.00230
3700.06912,0.00222
3698.00895,0.00202
3695.94878,0.00172
3693.88861,0.00139
3691.82843,0.00121
3689.76826,0.00130
3687.70809,0.00152
3685.64792,0.00173
3683.58775,0.00187
3681.52757,0.00191
3679.46740,0.00169
3677.40723,0.00116
3675.34706,0.00057
3673.28688,0.00039
3671.22671,0.00065
3669.16654,0.00106
3667.10637,0.00136
3665.04620,0.00150
3662.98602,0.00152
3660.92585,0.00150
3658.86568,0.00157
3656.80551,0.00179
3654.74534,0.00206
3652.68516,0.00226
3650.62499,0.00235
3648.56482,0.00234
3646.50465,0.00222
3644.44447,0.00209
3642.38430,0.00198
3640.32413,0.00192
3638.26396,0.00195
3636.20379,0.00215
3634.14361,0.00257
3632.08344,0.00306
3630.02327,0.00339
3627.96310,0.00341
3625.90293,0.00316
3623.84275,0.00283
3621.78258,0.00260
3619.72241,0.00247
3617.66224,0.00227
3615.60207,0.00194
3613.54189,0.00166
3611.48172,0.00164
3609.42155,0.00193
3607.36138,0.00239
3605.30120,0.00278
3603.24103,0.00299
3601.18086,0.00297
3599.12069,0.00273
3597.06052,0.00238
3595.00034,0.00215
3592.94017,0.00219
3590.88000,0.00247
3588.81983,0.00284
3586.75966,0.00311
3584.69948,0.00317
3582.63931,0.00308
3580.57914,0.00301
3578.51897,0.00304
3576.45879,0.00317
3574.39862,0.00340
3572.33845,0.00366
3570.27828,0.00383
3568.21811,0.00377
3566.15793,0.00346
3564.09776,0.00311
3562.03759,0.00292
3559.97742,0.00296
3557.91725,0.00319
3555.85707,0.00345
3553.79690,0.00355
3551.73673,0.00346
3549.67656,0.00329
3547.61639,0.00327
3545.55621,0.00350
3543.49604,0.00389
3541.43587,0.00423
3539.37570,0.00433
3537.31552,0.00423
3535.25535,0.00410
3533.19518,0.00408
3531.13501,0.00414
3529.07484,0.00420
3527.01466,0.00425
3524.95449,0.00439
3522.89432,0.00464
3520.83415,0.00479
3518.77398,0.00469
3516.71380,0.00444
3514.65363,0.00426
3512.59346,0.00427
3510.53329,0.00443
3508.47312,0.00455
3506.41294,0.00451
3504.35277,0.00432
3502.29260,0.00415
3500.23243,0.00414
3498.17225,0.00431
3496.11208,0.00459
3494.05191,0.00485
3491.99174,0.00505
3489.93157,0.00513
3487.87139,0.00509
3485.81122,0.00500
3483.75105,0.00492
3481.69088,0.00486
3479.63071,0.00473
3477.57053,0.00454
3475.51036,0.00439
3473.45019,0.00439
3471.39002,0.00457
3469.32984,0.00475
3467.26967,0.00475
3465.20950,0.00456
3463.14933,0.00437
3461.08916,0.00429
3459.02898,0.00434
3456.96881,0.00445
3454.90864,0.00468
3452.84847,0.00507
3450.78830,0.00544
3448.72812,0.00561
3446.66795,0.00559
3444.60778,0.00544
3442.54761,0.00522
3440.48744,0.00496
3438.42726,0.00473
3436.36709,0.00460
3434.30692,0.00459
3432.24675,0.00473
3430.18657,0.00502
3428.12640,0.00537
3426.06623,0.00562
3424.00606,0.00568
3421.94589,0.00565
3419.88571,0.00567
3417.82554,0.00572
3415.76537,0.00573
3413.70520,0.00576
3411.64503,0.00591
3409.58485,0.00612
3407.52468,0.00627
3405.46451,0.00630
3403.40434,0.00619
3401.34416,0.00599
3399.28399,0.00575
3397.22382,0.00559
3395.16365,0.00559
3393.10348,0.00573
3391.04330,0.00589
3388.98313,0.00597
3386.92296,0.00594
3384.86279,0.00589
3382.80262,0.00589
3380.74244,0.00598
3378.68227,0.00616
3376.62210,0.00635
3374.56193,0.00645
3372.50176,0.00649
3370.44158,0.00654
3368.38141,0.00667
3366.32124,0.00684
3364.26107,0.00691
3362.20089,0.00681
3360.14072,0.00659
3358.08055,0.00644
3356.02038,0.00650
3353.96021,0.00672
3351.90003,0.00691
3349.83986,0.00697
3347.77969,0.00692
3345.71952,0.00692
3343.65935,0.00704
3341.59917,0.00708
3339.53900,0.00681
3337.47883,0.00625
3335.41866,0.00566
3333.35849,0.00536
3331.29831,0.00539
3329.23814,0.00562
3327.17797,0.00591
3325.11780,0.00614
3323.05762,0.00623
3320.99745,0.00618
3318.93728,0.00605
3316.87711,0.00592
3314.81694,0.00589
3312.75676,0.00605
3310.69659,0.00633
3308.63642,0.00662
3306.57625,0.00683
3304.51608,0.00695
3302.45590,0.00700
3300.39573,0.00702
3298.33556,0.00698
3296.27539,0.00685
3294.21521,0.00667
3292.15504,0.00656
3290.09487,0.00654
3288.03470,0.00657
3285.97453,0.00657
3283.91435,0.00653
3281.85418,0.00646
3279.79401,0.00641
3277.73384,0.00643
3275.67367,0.00654
3273.61349,0.00671
3271.55332,0.00683
3269.49315,0.00680
3267.43298,0.00662
3265.37281,0.00641
3263.31263,0.00627
3261.25246,0.00622
3259.19229,0.00626
3257.13212,0.00637
3255.07194,0.00647
3253.01177,0.00651
3250.95160,0.00649
3248.89143,0.00643
3246.83126,0.00635
3244.77108,0.00628
3242.71091,0.00624
3240.65074,0.00623
3238.59057,0.00626
3236.53040,0.00636
3234.47022,0.00651
3232.41005,0.00670
3230.34988,0.00683
3228.28971,0.00689
3226.22954,0.00689
3224.16936,0.00689
3222.10919,0.00685
3220.04902,0.00671
3217.98885,0.00647
3215.92867,0.00620
3213.86850,0.00601
3211.80833,0.00597
3209.74816,0.00613
3207.68799,0.00636
3205.62781,0.00650
3203.56764,0.00645
3201.50747,0.00631
3199.44730,0.00621
3197.38713,0.00614
3195.32695,0.00605
3193.26678,0.00595
3191.20661,0.00592
3189.14644,0.00599
3187.08626,0.00611
3185.02609,0.00616
3182.96592,0.00614
3180.90575,0.00609
3178.84558,0.00603
3176.78540,0.00592
3174.72523,0.00580
3172.66506,0.00573
3170.60489,0.00571
3168.54472,0.00568
3166.48454,0.00561
3164.42437,0.00554
3162.36420,0.00553
3160.30403,0.00558
3158.24386,0.00566
3156.18368,0.00573
3154.12351,0.00577
3152.06334,0.00575
3150.00317,0.00569
3147.94299,0.00566
3145.88282,0.00569
3143.82265,0.00577
3141.76248,0.00580
3139.70231,0.00567
3137.64213,0.00538
3135.58196,0.00507
3133.52179,0.00483
3131.46162,0.00472
3129.40145,0.00474
3127.34127,0.00484
3125.28110,0.00495
3123.22093,0.00503
3121.16076,0.00505
3119.10058,0.00507
3117.04041,0.00515
3114.98024,0.00527
3112.92007,0.00535
3110.85990,0.00536
3108.79972,0.00536
3106.73955,0.00541
3104.67938,0.00547
3102.61921,0.00549
3100.55904,0.00541
3098.49886,0.00530
3096.43869,0.00525
3094.37852,0.00527
3092.31835,0.00526
3090.25818,0.00512
3088.19800,0.00490
3086.13783,0.00468
3084.07766,0.00453
3082.01749,0.00447
3079.95731,0.00448
3077.89714,0.00449
3075.83697,0.00442
3073.77680,0.00426
3071.71663,0.00410
3069.65645,0.00407
3067.59628,0.00420
3065.53611,0.00437
3063.47594,0.00451
3061.41577,0.00463
3059.35559,0.00473
3057.29542,0.00479
3055.23525,0.00479
3053.17508,0.00477
3051.11491,0.00477
3049.05473,0.00477
3046.99456,0.00474
3044.93439,0.00465
3042.87422,0.00448
3040.81404,0.00429
3038.75387,0.00415
3036.69370,0.00402
3034.63353,0.00388
3032.57336,0.00374
3030.51318,0.00368
3028.45301,0.00378
3026.39284,0.00400
3024.33267,0.00418
3022.27250,0.00427
3020.21232,0.00430
3018.15215,0.00435
3016.09198,0.00445
3014.03181,0.00455
3011.97163,0.00459
3009.91146,0.00457
3007.85129,0.00451
3005.79112,0.00442
3003.73095,0.00429
3001.67077,0.00412
2999.61060,0.00388
2997.55043,0.00361
2995.49026,0.00352
2993.43009,0.00367
2991.36991,0.00386
2989.30974,0.00402
2987.24957,0.00422
2985.18940,0.00443
2983.12923,0.00442
2981.06905,0.00413
2979.00888,0.00383
2976.94871,0.00378
2974.88854,0.00386
2972.82836,0.00391
2970.76819,0.00399
2968.70802,0.00424
2966.64785,0.00457
2964.58768,0.00478
2962.52750,0.00481
2960.46733,0.00473
2958.40716,0.00463
2956.34699,0.00448
2954.28682,0.00427
2952.22664,0.00405
2950.16647,0.00393
2948.10630,0.00398
2946.04613,0.00409
2943.98596,0.00418
2941.92578,0.00431
2939.86561,0.00457
2937.80544,0.00495
2935.74527,0.00520
2933.68509,0.00503
2931.62492,0.00462
2929.56475,0.00443
2927.50458,0.00466
2925.44441,0.00512
2923.38423,0.00545
2921.32406,0.00539
2919.26389,0.00507
2917.20372,0.00484
2915.14355,0.00481
2913.08337,0.00483
2911.02320,0.00480
2908.96303,0.00471
2906.90286,0.00460
2904.84268,0.00454
2902.78251,0.00444
2900.72234,0.00423
2898.66217,0.00409
2896.60200,0.00423
2894.54182,0.00454
2892.48165,0.00474
2890.42148,0.00476
2888.36131,0.00469
2886.30114,0.00467
2884.24096,0.00471
2882.18079,0.00476
2880.12062,0.00493
2878.06045,0.00516
2876.00028,0.00518
2873.94010,0.00490
2871.87993,0.00452
2869.81976,0.00425
2867.75959,0.00422
2865.69941,0.00441
2863.63924,0.00473
2861.57907,0.00497
2859.51890,0.00491
2857.45873,0.00458
2855.39855,0.00430
2853.33838,0.00427
2851.27821,0.00435
2849.21804,0.00436
2847.15787,0.00427
2845.09769,0.00420
2843.03752,0.00413
2840.97735,0.00403
2838.91718,0.00400
2836.85700,0.00414
2834.79683,0.00431
2832.73666,0.00431
2830.67649,0.00414
2828.61632,0.00405
2826.55614,0.00418
2824.49597,0.00435
2822.43580,0.00446
2820.37563,0.00458
2818.31546,0.00465
2816.25528,0.00455
2814.19511,0.00425
2812.13494,0.00391
2810.07477,0.00381
2808.01460,0.00398
2805.95442,0.00411
2803.89425,0.00408
2801.83408,0.00416
2799.77391,0.00446
2797.71373,0.00466
2795.65356,0.00460
2793.59339,0.00446
2791.53322,0.00426
2789.47305,0.00403
2787.41287,0.00394
2785.35270,0.00397
2783.29253,0.00392
2781.23236,0.00378
2779.17219,0.00365
2777.11201,0.00358
2775.05184,0.00361
2772.99167,0.00383
2770.93150,0.00421
2768.87133,0.00449
2766.81115,0.00455
2764.75098,0.00452
2762.69081,0.00451
2760.63064,0.00447
2758.57046,0.00440
2756.51029,0.00434
2754.45012,0.00438
2752.38995,0.00446
2750.32978,0.00444
2748.26960,0.00433
2746.20943,0.00428
2744.14926,0.00435
2742.08909,0.00443
2740.02892,0.00437
2737.96874,0.00417
2735.90857,0.00398
2733.84840,0.00388
2731.78823,0.00377
2729.72805,0.00366
2727.66788,0.00367
2725.60771,0.00379
2723.54754,0.00391
2721.48737,0.00405
2719.42719,0.00421
2717.36702,0.00424
2715.30685,0.00410
2713.24668,0.00390
2711.18651,0.00379
2709.12633,0.00379
2707.06616,0.00394
2705.00599,0.00425
2702.94582,0.00446
2700.88565,0.00434
2698.82547,0.00409
2696.76530,0.00397
2694.70513,0.00399
2692.64496,0.00406
2690.58478,0.00407
2688.52461,0.00409
2686.46444,0.00416
2684.40427,0.00420
2682.34410,0.00418
2680.28392,0.00418
2678.22375,0.00421
2676.16358,0.00422
2674.10341,0.00416
2672.04324,0.00405
2669.98306,0.00402
2667.92289,0.00417
2665.86272,0.00440
2663.80255,0.00451
2661.74238,0.00444
2659.68220,0.00432
2657.62203,0.00431
2655.56186,0.00438
2653.50169,0.00442
2651.44151,0.00434
2649.38134,0.00423
2647.32117,0.00432
2645.26100,0.00465
2643.20083,0.00504
2641.14065,0.00523
2639.08048,0.00505
2637.02031,0.00465
2634.96014,0.00427
2632.89997,0.00406
2630.83979,0.00406
2628.77962,0.00420
2626.71945,0.00425
2624.65928,0.00421
2622.59910,0.00427
2620.53893,0.00435
2618.47876,0.00425
2616.41859,0.00412
2614.35842,0.00415
2612.29824,0.00426
2610.23807,0.00443
2608.17790,0.00470
2606.11773,0.00497
2604.05756,0.00504
2601.99738,0.00487
2599.93721,0.00472
2597.87704,0.00476
2595.81687,0.00492
2593.75670,0.00510
2591.69652,0.00511
2589.63635,0.00472
2587.57618,0.00420
2585.51601,0.00397
2583.45583,0.00402
2581.39566,0.00419
2579.33549,0.00440
2577.27532,0.00462
2575.21515,0.00486
2573.15497,0.00500
2571.09480,0.00486
2569.03463,0.00453
2566.97446,0.00423
2564.91429,0.00405
2562.85411,0.00390
2560.79394,0.00372
2558.73377,0.00373
2556.67360,0.00395
2554.61342,0.00417
2552.55325,0.00427
2550.49308,0.00427
2548.43291,0.00420
2546.37274,0.00410
2544.31256,0.00399
2542.25239,0.00374
2540.19222,0.00338
2538.13205,0.00338
2536.07188,0.00371
2534.01170,0.00379
2531.95153,0.00354
2529.89136,0.00346
2527.83119,0.00367
2525.77102,0.00385
2523.71084,0.00390
2521.65067,0.00395
2519.59050,0.00394
2517.53033,0.00380
2515.47015,0.00372
2513.40998,0.00369
2511.34981,0.00349
2509.28964,0.00332
2507.22947,0.00359
2505.16929,0.00420
2503.10912,0.00474
2501.04895,0.00488
2498.98878,0.00451
2496.92861,0.00400
2494.86843,0.00384
2492.80826,0.00397
2490.74809,0.00403
2488.68792,0.00394
2486.62775,0.00377
2484.56757,0.00370
2482.50740,0.00381
2480.44723,0.00402
2478.38706,0.00416
2476.32688,0.00414
2474.26671,0.00392
2472.20654,0.00355
2470.14637,0.00332
2468.08620,0.00362
2466.02602,0.00428
2463.96585,0.00478
2461.90568,0.00494
2459.84551,0.00488
2457.78534,0.00471
2455.72516,0.00447
2453.66499,0.00413
2451.60482,0.00373
2449.54465,0.00355
2447.48447,0.00383
2445.42430,0.00445
2443.36413,0.00497
2441.30396,0.00494
2439.24379,0.00434
2437.18361,0.00374
2435.12344,0.00368
2433.06327,0.00400
2431.00310,0.00435
2428.94293,0.00459
2426.88275,0.00460
2424.82258,0.00442
2422.76241,0.00424
2420.70224,0.00410
2418.64207,0.00391
2416.58189,0.00379
2414.52172,0.00390
2412.46155,0.00403
2410.40138,0.00386
2408.34120,0.00354
2406.28103,0.00346
2404.22086,0.00371
2402.16069,0.00396
2400.10052,0.00403
2398.04034,0.00407
2395.98017,0.00411
2393.92000,0.00409
2391.85983,0.00400
2389.79966,0.00381
2387.73948,0.00359
2385.67931,0.00347
2383.61914,0.00359
2381.55897,0.00391
2379.49880,0.00420
2377.43862,0.00426
2375.37845,0.00411
2373.31828,0.00389
2371.25811,0.00382
2369.19793,0.00406
2367.13776,0.00455
2365.07759,0.00505
2363.01742,0.00549
2360.95725,0.00584
2358.89707,0.00595
2356.83690,0.00562
2354.77673,0.00501
2352.71656,0.00459
2350.65639,0.00458
2348.59621,0.00482
2346.53604,0.00515
2344.47587,0.00547
2342.41570,0.00565
2340.35552,0.00556
2338.29535,0.00529
2336.23518,0.00493
2334.17501,0.00454
2332.11484,0.00422
2330.05466,0.00415
2327.99449,0.00434
2325.93432,0.00460
2323.87415,0.00472
2321.81398,0.00474
2319.75380,0.00482
2317.69363,0.00500
2315.63346,0.00509
2313.57329,0.00502
2311.51312,0.00487
2309.45294,0.00473
2307.39277,0.00462
2305.33260,0.00459
2303.27243,0.00466
2301.21225,0.00483
2299.15208,0.00514
2297.09191,0.00554
2295.03174,0.00587
2292.97157,0.00594
2290.91139,0.00569
2288.85122,0.00520
2286.79105,0.00472
2284.73088,0.00449
2282.67071,0.00453
2280.61053,0.00464
2278.55036,0.00478
2276.49019,0.00500
2274.43002,0.00525
2272.36984,0.00536
2270.30967,0.00529
2268.24950,0.00516
2266.18933,0.00516
2264.12916,0.00538
2262.06898,0.00577
2260.00881,0.00610
2257.94864,0.00607
2255.88847,0.00558
2253.82830,0.00477
2251.76812,0.00397
2249.70795,0.00336
2247.64778,0.00304
2245.58761,0.00317
2243.52744,0.00395
2241.46726,0.00519
2239.40709,0.00616
2237.34692,0.00614
2235.28675,0.00547
2233.22657,0.00493
2231.16640,0.00461
2229.10623,0.00458
2227.04606,0.00525
2224.98589,0.00624
2222.92571,0.00631
2220.86554,0.00496
2218.80537,0.00324
2216.74520,0.00253
2214.68503,0.00312
2212.62485,0.00442
2210.56468,0.00548
2208.50451,0.00545
2206.44434,0.00453
2204.38417,0.00353
2202.32399,0.00291
2200.26382,0.00286
2198.20365,0.00363
2196.14348,0.00507
2194.08330,0.00666
2192.02313,0.00808
2189.96296,0.00855
2187.90279,0.00704
2185.84262,0.00455
2183.78244,0.00313
2181.72227,0.00317
2179.66210,0.00378
2177.60193,0.00407
2175.54176,0.00403
2173.48158,0.00465
2171.42141,0.00613
2169.36124,0.00728
2167.30107,0.00769
2165.24089,0.00827
2163.18072,0.00901
2161.12055,0.00843
2159.06038,0.00604
2157.00021,0.00311
2154.94003,0.00116
2152.87986,0.00055
2150.81969,0.00037
2148.75952,0.00000
2146.69935,0.00007
2144.63917,0.00163
2142.57900,0.00428
2140.51883,0.00629
2138.45866,0.00620
2136.39849,0.00421
2134.33831,0.00244
2132.27814,0.00247
2130.21797,0.00345
2128.15780,0.00404
2126.09762,0.00401
2124.03745,0.00403
2121.97728,0.00470
2119.91711,0.00554
2117.85694,0.00553
2115.79676,0.00476
2113.73659,0.00405
2111.67642,0.00385
2109.61625,0.00412
2107.55608,0.00444
2105.49590,0.00424
2103.43573,0.00368
2101.37556,0.00352
2099.31539,0.00399
2097.25521,0.00463
2095.19504,0.00504
2093.13487,0.00499
2091.07470,0.00453
2089.01453,0.00402
2086.95435,0.00388
2084.89418,0.00419
2082.83401,0.00466
2080.77384,0.00505
2078.71367,0.00535
2076.65349,0.00559
2074.59332,0.00572
2072.53315,0.00569
2070.47298,0.00551
2068.41281,0.00516
2066.35263,0.00466
2064.29246,0.00429
2062.23229,0.00439
2060.17212,0.00492
2058.11194,0.00550
2056.05177,0.00568
2053.99160,0.00526
2051.93143,0.00455
2049.87126,0.00414
2047.81108,0.00423
2045.75091,0.00453
2043.69074,0.00485
2041.63057,0.00508
2039.57040,0.00512
2037.51022,0.00493
2035.45005,0.00446
2033.38988,0.00355
2031.32971,0.00232
2029.26954,0.00150
2027.20936,0.00170
2025.14919,0.00247
2023.08902,0.00283
2021.02885,0.00241
2018.96867,0.00171
2016.90850,0.00142
2014.84833,0.00162
2012.78816,0.00169
2010.72799,0.00128
2008.66781,0.00077
2006.60764,0.00071
2004.54747,0.00143
2002.48730,0.00270
2000.42713,0.00380
1998.36695,0.00408
1996.30678,0.00354
1994.24661,0.00272
1992.18644,0.00217
1990.12626,0.00210
1988.06609,0.00224
1986.00592,0.00218
1983.94575,0.00178
1981.88558,0.00130
1979.82540,0.00124
1977.76523,0.00186
1975.70506,0.00293
1973.64489,0.00386
1971.58472,0.00426
1969.52454,0.00428
1967.46437,0.00413
1965.40420,0.00389
1963.34403,0.00376
1961.28386,0.00394
1959.22368,0.00423
1957.16351,0.00424
1955.10334,0.00383
1953.04317,0.00321
1950.98299,0.00261
1948.92282,0.00205
1946.86265,0.00155
1944.80248,0.00130
1942.74231,0.00131
1940.68213,0.00137
1938.62196,0.00131
1936.56179,0.00123
1934.50162,0.00131
1932.44145,0.00152
1930.38127,0.00172
1928.32110,0.00192
1926.26093,0.00227
1924.20076,0.00279
1922.14059,0.00320
1920.08041,0.00319
1918.02024,0.00272
1915.96007,0.00212
1913.89990,0.00173
1911.83972,0.00167
1909.77955,0.00178
1907.71938,0.00185
1905.65921,0.00181
1903.59904,0.00179
1901.53886,0.00187
1899.47869,0.00199
1897.41852,0.00210
1895.35835,0.00222
1893.29818,0.00229
1891.23800,0.00219
1889.17783,0.00196
1887.11766,0.00181
1885.05749,0.00185
1882.99731,0.00205
1880.93714,0.00231
1878.87697,0.00255
1876.81680,0.00271
1874.75663,0.00272
1872.69645,0.00260
1870.63628,0.00254
1868.57611,0.00260
1866.51594,0.00267
1864.45577,0.00264
1862.39559,0.00253
1860.33542,0.00245
1858.27525,0.00249
1856.21508,0.00265
1854.15491,0.00279
1852.09473,0.00279
1850.03456,0.00262
1847.97439,0.00240
1845.91422,0.00229
1843.85404,0.00230
1841.79387,0.00232
1839.73370,0.00228
1837.67353,0.00219
1835.61336,0.00211
1833.55318,0.00202
1831.49301,0.00192
1829.43284,0.00183
1827.37267,0.00176
1825.31250,0.00171
1823.25232,0.00171
1821.19215,0.00180
1819.13198,0.00197
1817.07181,0.00218
1815.01163,0.00241
1812.95146,0.00263
1810.89129,0.00275
1808.83112,0.00266
1806.77095,0.00242
1804.71077,0.00222
1802.65060,0.00221
1800.59043,0.00234
1798.53026,0.00243
1796.47009,0.00240
1794.40991,0.00235
1792.34974,0.00233
1790.28957,0.00233
1788.22940,0.00230
1786.16923,0.00226
1784.10905,0.00225
1782.04888,0.00224
1779.98871,0.00225
1777.92854,0.00233
1775.86836,0.00251
1773.80819,0.00267
1771.74802,0.00266
1769.68785,0.00246
1767.62768,0.00219
1765.56750,0.00198
1763.50733,0.00187
1761.44716,0.00189
1759.38699,0.00201
1757.32682,0.00214
1755.26664,0.00224
1753.20647,0.00236
1751.14630,0.00250
1749.08613,0.00263
1747.02596,0.00271
1744.96578,0.00275
1742.90561,0.00282
1740.84544,0.00290
1738.78527,0.00291
1736.72509,0.00278
1734.66492,0.00262
1732.60475,0.00246
1730.54458,0.00231
1728.48441,0.00226
1726.42423,0.00239
1724.36406,0.00260
1722.30389,0.00272
1720.24372,0.00271
1718.18355,0.00261
1716.12337,0.00244
1714.06320,0.00224
1712.00303,0.00209
1709.94286,0.00209
1707.88268,0.00224
1705.82251,0.00239
1703.76234,0.00240
1701.70217,0.00226
1699.64200,0.00207
1697.58182,0.00191
1695.52165,0.00183
1693.46148,0.00184
1691.40131,0.00185
1689.34114,0.00182
1687.28096,0.00178
1685.22079,0.00179
1683.16062,0.00185
1681.10045,0.00193
1679.04028,0.00200
1676.98010,0.00206
1674.91993,0.00213
1672.85976,0.00221
1670.79959,0.00236
1668.73941,0.00254
1666.67924,0.00266
1664.61907,0.00272
1662.55890,0.00281
1660.49873,0.00301
1658.43855,0.00328
1656.37838,0.00358
1654.31821,0.00389
1652.25804,0.00406
1650.19787,0.00396
1648.13769,0.00364
1646.07752,0.00330
1644.01735,0.00306
1641.95718,0.00291
1639.89701,0.00284
1637.83683,0.00285
1635.77666,0.00300
1633.71649,0.00326
1631.65632,0.00353
1629.59614,0.00375
1627.53597,0.00387
1625.47580,0.00388
1623.41563,0.00382
1621.35546,0.00378
1619.29528,0.00376
1617.23511,0.00373
1615.17494,0.00367
1613.11477,0.00359
1611.05460,0.00358
1608.99442,0.00366
1606.93425,0.00375
1604.87408,0.00375
1602.81391,0.00361
1600.75373,0.00339
1598.69356,0.00317
1596.63339,0.00297
1594.57322,0.00279
1592.51305,0.00265
1590.45287,0.00256
1588.39270,0.00250
1586.33253,0.00239
1584.27236,0.00218
1582.21219,0.00192
1580.15201,0.00169
1578.09184,0.00158
1576.03167,0.00157
1573.97150,0.00159
1571.91133,0.00157
1569.85115,0.00148
1567.79098,0.00137
1565.73081,0.00132
1563.67064,0.00137
1561.61046,0.00151
1559.55029,0.00167
1557.49012,0.00170
1555.42995,0.00155
1553.36978,0.00137
1551.30960,0.00127
1549.24943,0.00130
1547.18926,0.00141
1545.12909,0.00150
1543.06892,0.00151
1541.00874,0.00146
1538.94857,0.00140
1536.88840,0.00128
1534.82823,0.00113
1532.76805,0.00102
1530.70788,0.00100
1528.64771,0.00109
1526.58754,0.00127
1524.52737,0.00144
1522.46719,0.00151
1520.40702,0.00147
1518.34685,0.00136
1516.28668,0.00122
1514.22651,0.00109
1512.16633,0.00100
1510.10616,0.00095
1508.04599,0.00093
1505.98582,0.00090
1503.92565,0.00085
1501.86547,0.00082
1499.80530,0.00090
1497.74513,0.00108
1495.68496,0.00127
1493.62478,0.00136
1491.56461,0.00138
1489.50444,0.00134
1487.44427,0.00127
1485.38410,0.00116
1483.32392,0.00108
1481.26375,0.00108
1479.20358,0.00117
1477.14341,0.00128
1475.08324,0.00135
1473.02306,0.00144
1470.96289,0.00160
1468.90272,0.00173
1466.84255,0.00176
1464.78238,0.00172
1462.72220,0.00170
1460.66203,0.00177
1458.60186,0.00194
1456.54169,0.00212
1454.48151,0.00218
1452.42134,0.00219
1450.36117,0.00224
1448.30100,0.00233
1446.24083,0.00240
1444.18065,0.00245
1442.12048,0.00247
1440.06031,0.00245
1438.00014,0.00242
1435.93997,0.00240
1433.87979,0.00239
1431.81962,0.00237
1429.75945,0.00234
1427.69928,0.00232
1425.63910,0.00238
1423.57893,0.00253
1421.51876,0.00271
1419.45859,0.00283
1417.39842,0.00291
1415.33824,0.00296
1413.27807,0.00298
1411.21790,0.00297
1409.15773,0.00294
1407.09756,0.00292
1405.03738,0.00285
1402.97721,0.00270
1400.91704,0.00250
1398.85687,0.00235
1396.79670,0.00230
1394.73652,0.00235
1392.67635,0.00241
1390.61618,0.00246
1388.55601,0.00252
1386.49583,0.00258
1384.43566,0.00261
1382.37549,0.00261
1380.31532,0.00257
1378.25515,0.00252
1376.19497,0.00249
1374.13480,0.00250
1372.07463,0.00254
1370.01446,0.00261
1367.95429,0.00270
1365.89411,0.00278
1363.83394,0.00281
1361.77377,0.00278
1359.71360,0.00273
1357.65343,0.00268
1355.59325,0.00259
1353.53308,0.00248
1351.47291,0.00241
1349.41274,0.00240
1347.35256,0.00245
1345.29239,0.00248
1343.23222,0.00248
1341.17205,0.00245
1339.11188,0.00239
1337.05170,0.00229
1334.99153,0.00219
1332.93136,0.00214
1330.87119,0.00213
1328.81102,0.00215
1326.75084,0.00221
1324.69067,0.00230
1322.63050,0.00240
1320.57033,0.00249
1318.51015,0.00251
1316.44998,0.00247
1314.38981,0.00240
1312.32964,0.00234
1310.26947,0.00230
1308.20929,0.00223
1306.14912,0.00211
1304.08895,0.00201
1302.02878,0.00194
1299.96861,0.00188
1297.90843,0.00184
1295.84826,0.00182
1293.78809,0.00186
1291.72792,0.00194
1289.66775,0.00203
1287.60757,0.00204
1285.54740,0.00196
1283.48723,0.00182
1281.42706,0.00169
1279.36688,0.00167
1277.30671,0.00176
1275.24654,0.00192
1273.18637,0.00206
1271.12620,0.00215
1269.06602,0.00221
1267.00585,0.00229
1264.94568,0.00237
1262.88551,0.00244
1260.82534,0.00246
1258.76516,0.00245
1256.70499,0.00247
1254.64482,0.00251
1252.58465,0.00256
1250.52447,0.00262
1248.46430,0.00267
1246.40413,0.00270
1244.34396,0.00273
1242.28379,0.00277
1240.22361,0.00280
1238.16344,0.00279
1236.10327,0.00273
1234.04310,0.00260
1231.98293,0.00244
1229.92275,0.00225
1227.86258,0.00208
1225.80241,0.00193
1223.74224,0.00183
1221.68207,0.00172
1219.62189,0.00162
1217.56172,0.00153
1215.50155,0.00144
1213.44138,0.00133
1211.38120,0.00118
1209.32103,0.00100
1207.26086,0.00075
1205.20069,0.00048
1203.14052,0.00030
1201.08034,0.00032
1199.02017,0.00045
1196.96000,0.00049
1194.89983,0.00044
1192.83966,0.00048
1190.77948,0.00050
1188.71931,0.00031
1186.65914,0.00007
1184.59897,0.00000
1182.53880,0.00004
1180.47862,0.00014
1178.41845,0.00037
1176.35828,0.00065
1174.29811,0.00083
1172.23793,0.00093
1170.17776,0.00107
1168.11759,0.00130
1166.05742,0.00149
1163.99725,0.00156
1161.93707,0.00160
1159.87690,0.00172
1157.81673,0.00183
1155.75656,0.00190
1153.69639,0.00208
1151.63621,0.00238
1149.57604,0.00271
1147.51587,0.00302
1145.45570,0.00328
1143.39552,0.00342
1141.33535,0.00344
1139.27518,0.00343
1137.21501,0.00349
1135.15484,0.00362
1133.09466,0.00376
1131.03449,0.00375
1128.97432,0.00365
1126.91415,0.00373
1124.85398,0.00412
1122.79380,0.00465
1120.73363,0.00507
1118.67346,0.00535
1116.61329,0.00556
1114.55312,0.00577
1112.49294,0.00594
1110.43277,0.00600
1108.37260,0.00604
1106.31243,0.00630
1104.25225,0.00681
1102.19208,0.00731
1100.13191,0.00761
1098.07174,0.00777
1096.01157,0.00795
1093.95139,0.00825
1091.89122,0.00866
1089.83105,0.00908
1087.77088,0.00951
1085.71071,0.00991
1083.65053,0.01020
1081.59036,0.01039
1079.53019,0.01055
1077.47002,0.01070
1075.40985,0.01087
1073.34967,0.01114
1071.28950,0.01158
1069.22933,0.01201
1067.16916,0.01214
1065.10898,0.01196
1063.04881,0.01182
1060.98864,0.01187
1058.92847,0.01212
1056.86830,0.01242
1054.80812,0.01258
1052.74795,0.01257
1050.68778,0.01252
1048.62761,0.01257
1046.56744,0.01271
1044.50726,0.01285
1042.44709,0.01300
1040.38692,0.01325
1038.32675,0.01346
1036.26657,0.01353
1034.20640,0.01362
1032.14623,0.01374
1030.08606,0.01364
1028.02589,0.01334
1025.96571,0.01312
1023.90554,0.01302
1021.84537,0.01294
1019.78520,0.01292
1017.72503,0.01304
1015.66485,0.01311
1013.60468,0.01289
1011.54451,0.01253
1009.48434,0.01222
1007.42417,0.01203
1005.36399,0.01183
1003.30382,0.01147
1001.24365,0.01097
999.18348,0.01059
997.12330,0.01039
995.06313,0.01023
993.00296,0.01004
990.94279,0.00984
988.88262,0.00958
986.82244,0.00939
984.76227,0.00938
982.70210,0.00943
980.64193,0.00934
978.58176,0.00916
976.52158,0.00897
974.46141,0.00880
972.40124,0.00874
970.34107,0.00876
968.28089,0.00860
966.22072,0.00818
964.16055,0.00763
962.10038,0.00711
960.04021,0.00677
957.98003,0.00675
955.91986,0.00701
953.85969,0.00731
951.79952,0.00740
949.73935,0.00714
947.67917,0.00659
945.61900,0.00590
943.55883,0.00537
941.49866,0.00504
939.43849,0.00459
937.37831,0.00391
935.31814,0.00340
933.25797,0.00330
931.19780,0.00331
929.13762,0.00305
927.07745,0.00260
925.01728,0.00230
922.95711,0.00227
920.89694,0.00216
918.83676,0.00177
916.77659,0.00144
914.71642,0.00158
912.65625,0.00191
910.59608,0.00195
908.53590,0.00172
906.47573,0.00151
904.41556,0.00141
902.35539,0.00141
900.29522,0.00145
898.23504,0.00153
896.17487,0.00174
894.11470,0.00200
892.05453,0.00195
889.99435,0.00154
887.93418,0.00129
885.87401,0.00167
883.81384,0.00232
881.75367,0.00253
879.69349,0.00232
877.63332,0.00226
875.57315,0.00244
873.51298,0.00252
871.45281,0.00254
869.39263,0.00272
867.33246,0.00299
865.27229,0.00305
863.21212,0.00276
861.15194,0.00234
859.09177,0.00204
857.03160,0.00185
854.97143,0.00164
852.91126,0.00162
850.85108,0.00187
848.79091,0.00198
846.73074,0.00181
844.67057,0.00167
842.61040,0.00157
840.55022,0.00137
838.49005,0.00119
836.42988,0.00099
834.36971,0.00076
832.30954,0.00070
830.24936,0.00081
828.18919,0.00082
826.12902,0.00057
824.06885,0.00024
822.00867,0.00005
819.94850,0.00000
817.88833,0.00013
815.82816,0.00053
813.76799,0.00083
811.70781,0.00080
809.64764,0.00090
807.58747,0.00129
805.52730,0.00146
803.46713,0.00108
801.40695,0.00051
799.34678,0.00016
797.28661,0.00003
795.22644,-0.00001
793.16627,-0.00007
791.10609,-0.00003
789.04592,0.00055
786.98575,0.00133
784.92558,0.00128
782.86540,0.00048
780.80523,0.00019
778.74506,0.00090
776.68489,0.00154
774.62472,0.00131
772.56454,0.00089
770.50437,0.00096
768.44420,0.00122
766.38403,0.00140
764.32386,0.00148
762.26368,0.00140
760.20351,0.00142
758.14334,0.00182
756.08317,0.00243
754.02299,0.00291
751.96282,0.00302
749.90265,0.00271
747.84248,0.00226
745.78231,0.00182
743.72213,0.00130
741.66196,0.00115
739.60179,0.00174
737.54162,0.00248
735.48145,0.00265
733.42127,0.00208
731.36110,0.00122
729.30093,0.00061
727.24076,0.00059
725.18059,0.00117
723.12041,0.00195
721.06024,0.00251
719.00007,0.00261
716.93990,0.00235
714.87972,0.00203
712.81955,0.00190
710.75938,0.00207
708.69921,0.00244
706.63904,0.00280
704.57886,0.00294
702.51869,0.00287
700.45852,0.00259
698.39835,0.00217
696.33818,0.00183
694.27800,0.00174
692.21783,0.00176
690.15766,0.00171
688.09749,0.00166
686.03731,0.00171
683.97714,0.00183
681.91697,0.00206
679.85680,0.00251
677.79663,0.00305
675.73645,0.00346
673.67628,0.00361
671.61611,0.00352
669.55594,0.00321
667.49577,0.00265
665.43559,0.00207
663.37542,0.00206
661.31525,0.00285
659.25508,0.00407
657.19491,0.00507
655.13473,0.00531
653.07456,0.00480
651.01439,0.00406
648.95422,0.00359
646.89404,0.00329
644.83387,0.00301
642.77370,0.00311
640.71353,0.00393
638.65336,0.00508
636.59318,0.00574
634.53301,0.00548
632.47284,0.00446
630.41267,0.00321
628.35250,0.00243
626.29232,0.00268
624.23215,0.00357
622.17198,0.00399
620.11181,0.00348
618.05164,0.00254
615.99146,0.00154
613.93129,0.00062
611.87112,0.00000
609.81095,-0.00092
607.75077,-0.00005
605.69060,0.00174
603.63043,0.00288
601.57026,0.00227
599.51009,0.00000
