3996.73391,0.00028
3994.67373,0.00013
3992.61356,0.00056
3990.55339,0.00100
3988.49322,0.00119
3986.43305,0.00137
3984.37287,0.00133
3982.31270,0.00114
3980.25253,0.00126
3978.19236,0.00155
3976.13219,0.00161
3974.07201,0.00134
3972.01184,0.00068
3969.95167,0.00006
3967.89150,0.00000
3965.83133,0.00017
3963.77115,0.00023
3961.71098,0.00037
3959.65081,0.00063
3957.59064,0.00082
3955.53046,0.00086
3953.47029,0.00090
3951.41012,0.00102
3949.34995,0.00105
3947.28978,0.00089
3945.22960,0.00094
3943.16943,0.00154
3941.10926,0.00213
3939.04909,0.00198
3936.98892,0.00140
3934.92874,0.00106
3932.86857,0.00112
3930.80840,0.00137
3928.74823,0.00147
3926.68805,0.00165
3924.62788,0.00207
3922.56771,0.00205
3920.50754,0.00132
3918.44737,0.00061
3916.38719,0.00044
3914.32702,0.00068
3912.26685,0.00112
3910.20668,0.00139
3908.14651,0.00123
3906.08633,0.00087
3904.02616,0.00079
3901.96599,0.00144
3899.90582,0.00219
3897.84565,0.00210
3895.78547,0.00143
3893.72530,0.00076
3891.66513,0.00024
3889.60496,0.00000
3887.54478,0.00025
3885.48461,0.00107
3883.42444,0.00218
3881.36427,0.00307
3879.30410,0.00310
3877.24392,0.00210
3875.18375,0.00108
3873.12358,0.00102
3871.06341,0.00157
3869.00324,0.00178
3866.94306,0.00178
3864.88289,0.00194
3862.82272,0.00201
3860.76255,0.00184
3858.70237,0.00175
3856.64220,0.00191
3854.58203,0.00212
3852.52186,0.00217
3850.46169,0.00225
3848.40151,0.00208
3846.34134,0.00165
3844.28117,0.00152
3842.22100,0.00188
3840.16083,0.00220
3838.10065,0.00186
3836.04048,0.00124
3833.98031,0.00114
3831.92014,0.00164
3829.85997,0.00231
3827.79979,0.00256
3825.73962,0.00267
3823.67945,0.00341
3821.61928,0.00420
3819.55910,0.00387
3817.49893,0.00303
3815.43876,0.00261
3813.37859,0.00243
3811.31842,0.00209
3809.25824,0.00172
3807.19807,0.00169
3805.13790,0.00189
3803.07773,0.00207
3801.01756,0.00230
3798.95738,0.00239
3796.89721,0.00211
3794.83704,0.00190
3792.77687,0.00227
3790.71670,0.00289
3788.65652,0.00291
3786.59635,0.00195
3784.53618,0.00093
3782.47601,0.00089
3780.41583,0.00140
3778.35566,0.00143
3776.29549,0.00095
3774.23532,0.00081
3772.17515,0.00135
3770.11497,0.00190
3768.05480,0.00175
3765.99463,0.00106
3763.93446,0.00057
3761.87429,0.00085
3759.81411,0.00153
3757.75394,0.00156
3755.69377,0.00067
3753.63360,0.00000
3751.57342,0.00058
3749.51325,0.00198
3747.45308,0.00288
3745.39291,0.00299
3743.33274,0.00298
3741.27256,0.00328
3739.21239,0.00362
3737.15222,0.00386
3735.09205,0.00394
3733.03188,0.00370
3730.97170,0.00339
3728.91153,0.00338
3726.85136,0.00364
3724.79119,0.00371
3722.73102,0.00306
3720.67084,0.00192
3718.61067,0.00099
3716.55050,0.00059
3714.49033,0.00063
3712.43015,0.00106
3710.36998,0.00172
3708.30981,0.00207
3706.24964,0.00197
3704.18947,0.00204
3702.12929,0.00242
3700.06912,0.00236
3698.00895,0.00178
3695.94878,0.00134
3693.88861,0.00128
3691.82843,0.00153
3689.76826,0.00194
3687.70809,0.00199
3685.64792,0.00164
3683.58775,0.00130
3681.52757,0.00130
3679.46740,0.00154
3677.40723,0.00172
3675.34706,0.00210
3673.28688,0.00326
3671.22671,0.00444
3669.16654,0.00410
3667.10637,0.00253
3665.04620,0.00168
3662.98602,0.00202
3660.92585,0.00269
3658.86568,0.00304
3656.80551,0.00303
3654.74534,0.00280
3652.68516,0.00281
3650.62499,0.00329
3648.56482,0.00370
3646.50465,0.00363
3644.44447,0.00325
3642.38430,0.00280
3640.32413,0.00271
3638.26396,0.00305
3636.20379,0.00373
3634.14361,0.00423
3632.08344,0.00395
3630.02327,0.00358
3627.96310,0.00388
3625.90293,0.00416
3623.84275,0.00435
3621.78258,0.00491
3619.72241,0.00565
3617.66224,0.00605
3615.60207,0.00588
3613.54189,0.00521
3611.48172,0.00468
3609.42155,0.00484
3607.36138,0.00547
3605.30120,0.00615
3603.24103,0.00642
3601.18086,0.00616
3599.12069,0.00594
3597.06052,0.00627
3595.00034,0.00696
3592.94017,0.00744
3590.88000,0.00742
3588.81983,0.00753
3586.75966,0.00829
3584.69948,0.00917
3582.63931,0.00929
3580.57914,0.00871
3578.51897,0.00837
3576.45879,0.00865
3574.39862,0.00902
3572.33845,0.00934
3570.27828,0.01014
3568.21811,0.01126
3566.15793,0.01167
3564.09776,0.01126
3562.03759,0.01075
3559.97742,0.01064
3557.91725,0.01111
3555.85707,0.01180
3553.79690,0.01209
3551.73673,0.01201
3549.67656,0.01214
3547.61639,0.01276
3545.55621,0.01360
3543.49604,0.01406
3541.43587,0.01390
3539.37570,0.01384
3537.31552,0.01451
3535.25535,0.01536
3533.19518,0.01571
3531.13501,0.01565
3529.07484,0.01537
3527.01466,0.01519
3524.95449,0.01554
3522.89432,0.01640
3520.83415,0.01744
3518.77398,0.01820
3516.71380,0.01822
3514.65363,0.01811
3512.59346,0.01870
3510.53329,0.01938
3508.47312,0.01921
3506.41294,0.01868
3504.35277,0.01852
3502.29260,0.01875
3500.23243,0.01925
3498.17225,0.01959
3496.11208,0.01963
3494.05191,0.02024
3491.99174,0.02166
3489.93157,0.02264
3487.87139,0.02273
3485.81122,0.02271
3483.75105,0.02281
3481.69088,0.02285
3479.63071,0.02298
3477.57053,0.02332
3475.51036,0.02376
3473.45019,0.02426
3471.39002,0.02468
3469.32984,0.02470
3467.26967,0.02466
3465.20950,0.02517
3463.14933,0.02609
3461.08916,0.02679
3459.02898,0.02699
3456.96881,0.02695
3454.90864,0.02697
3452.84847,0.02704
3450.78830,0.02713
3448.72812,0.02751
3446.66795,0.02822
3444.60778,0.02898
3442.54761,0.02946
3440.48744,0.02931
3438.42726,0.02899
3436.36709,0.02906
3434.30692,0.02940
3432.24675,0.02974
3430.18657,0.02999
3428.12640,0.03057
3426.06623,0.03150
3424.00606,0.03196
3421.94589,0.03171
3419.88571,0.03157
3417.82554,0.03181
3415.76537,0.03223
3413.70520,0.03279
3411.64503,0.03285
3409.58485,0.03275
3407.52468,0.03339
3405.46451,0.03387
3403.40434,0.03345
3401.34416,0.03309
3399.28399,0.03318
3397.22382,0.03328
3395.16365,0.03342
3393.10348,0.03390
3391.04330,0.03436
3388.98313,0.03447
3386.92296,0.03463
3384.86279,0.03518
3382.80262,0.03590
3380.74244,0.03621
3378.68227,0.03615
3376.62210,0.03622
3374.56193,0.03618
3372.50176,0.03610
3370.44158,0.03621
3368.38141,0.03622
3366.32124,0.03626
3364.26107,0.03648
3362.20089,0.03687
3360.14072,0.03722
3358.08055,0.03719
3356.02038,0.03742
3353.96021,0.03830
3351.90003,0.03887
3349.83986,0.03873
3347.77969,0.03856
3345.71952,0.03876
3343.65935,0.03921
3341.59917,0.03945
3339.53900,0.03923
3337.47883,0.03890
3335.41866,0.03880
3333.35849,0.03902
3331.29831,0.03918
3329.23814,0.03913
3327.17797,0.03903
3325.11780,0.03906
3323.05762,0.03929
3320.99745,0.03936
3318.93728,0.03916
3316.87711,0.03903
3314.81694,0.03896
3312.75676,0.03899
3310.69659,0.03937
3308.63642,0.03994
3306.57625,0.04011
3304.51608,0.03988
3302.45590,0.03992
3300.39573,0.04027
3298.33556,0.04023
3296.27539,0.03965
3294.21521,0.03924
3292.15504,0.03920
3290.09487,0.03911
3288.03470,0.03906
3285.97453,0.03924
3283.91435,0.03946
3281.85418,0.03979
3279.79401,0.04021
3277.73384,0.04018
3275.67367,0.03974
3273.61349,0.03939
3271.55332,0.03942
3269.49315,0.03962
3267.43298,0.03931
3265.37281,0.03842
3263.31263,0.03804
3261.25246,0.03865
3259.19229,0.03927
3257.13212,0.03924
3255.07194,0.03919
3253.01177,0.03925
3250.95160,0.03879
3248.89143,0.03815
3246.83126,0.03807
3244.77108,0.03856
3242.71091,0.03935
3240.65074,0.03995
3238.59057,0.03991
3236.53040,0.03960
3234.47022,0.03949
3232.41005,0.03931
3230.34988,0.03892
3228.28971,0.03857
3226.22954,0.03827
3224.16936,0.03790
3222.10919,0.03782
3220.04902,0.03825
3217.98885,0.03866
3215.92867,0.03875
3213.86850,0.03852
3211.80833,0.03800
3209.74816,0.03764
3207.68799,0.03783
3205.62781,0.03802
3203.56764,0.03744
3201.50747,0.03672
3199.44730,0.03666
3197.38713,0.03678
3195.32695,0.03656
3193.26678,0.03614
3191.20661,0.03580
3189.14644,0.03572
3187.08626,0.03568
3185.02609,0.03541
3182.96592,0.03521
3180.90575,0.03541
3178.84558,0.03570
3176.78540,0.03561
3174.72523,0.03516
3172.66506,0.03479
3170.60489,0.03487
3168.54472,0.03519
3166.48454,0.03539
3164.42437,0.03512
3162.36420,0.03439
3160.30403,0.03393
3158.24386,0.03407
3156.18368,0.03409
3154.12351,0.03354
3152.06334,0.03290
3150.00317,0.03259
3147.94299,0.03247
3145.88282,0.03229
3143.82265,0.03204
3141.76248,0.03186
3139.70231,0.03178
3137.64213,0.03194
3135.58196,0.03209
3133.52179,0.03176
3131.46162,0.03121
3129.40145,0.03075
3127.34127,0.03054
3125.28110,0.03066
3123.22093,0.03075
3121.16076,0.03054
3119.10058,0.03030
3117.04041,0.03034
3114.98024,0.03034
3112.92007,0.02982
3110.85990,0.02920
3108.79972,0.02891
3106.73955,0.02882
3104.67938,0.02909
3102.61921,0.02930
3100.55904,0.02885
3098.49886,0.02818
3096.43869,0.02790
3094.37852,0.02791
3092.31835,0.02762
3090.25818,0.02726
3088.19800,0.02721
3086.13783,0.02726
3084.07766,0.02732
3082.01749,0.02723
3079.95731,0.02695
3077.89714,0.02675
3075.83697,0.02653
3073.77680,0.02609
3071.71663,0.02558
3069.65645,0.02533
3067.59628,0.02563
3065.53611,0.02608
3063.47594,0.02620
3061.41577,0.02592
3059.35559,0.02527
3057.29542,0.02479
3055.23525,0.02496
3053.17508,0.02527
3051.11491,0.02496
3049.05473,0.02431
3046.99456,0.02395
3044.93439,0.02402
3042.87422,0.02399
3040.81404,0.02339
3038.75387,0.02288
3036.69370,0.02308
3034.63353,0.02343
3032.57336,0.02333
3030.51318,0.02297
3028.45301,0.02268
3026.39284,0.02265
3024.33267,0.02294
3022.27250,0.02317
3020.21232,0.02288
3018.15215,0.02224
3016.09198,0.02198
3014.03181,0.02215
3011.97163,0.02213
3009.91146,0.02185
3007.85129,0.02181
3005.79112,0.02202
3003.73095,0.02196
3001.67077,0.02153
2999.61060,0.02087
2997.55043,0.02018
2995.49026,0.02003
2993.43009,0.02045
2991.36991,0.02091
2989.30974,0.02112
2987.24957,0.02121
2985.18940,0.02133
2983.12923,0.02140
2981.06905,0.02158
2979.00888,0.02176
2976.94871,0.02188
2974.88854,0.02212
2972.82836,0.02244
2970.76819,0.02313
2968.70802,0.02438
2966.64785,0.02570
2964.58768,0.02659
2962.52750,0.02718
2960.46733,0.02787
2958.40716,0.02885
2956.34699,0.02995
2954.28682,0.03105
2952.22664,0.03230
2950.16647,0.03362
2948.10630,0.03511
2946.04613,0.03676
2943.98596,0.03834
2941.92578,0.03986
2939.86561,0.04137
2937.80544,0.04286
2935.74527,0.04444
2933.68509,0.04608
2931.62492,0.04759
2929.56475,0.04912
2927.50458,0.05054
2925.44441,0.05182
2923.38423,0.05297
2921.32406,0.05330
2919.26389,0.05262
2917.20372,0.05155
2915.14355,0.05049
2913.08337,0.04930
2911.02320,0.04779
2908.96303,0.04616
2906.90286,0.04478
2904.84268,0.04379
2902.78251,0.04283
2900.72234,0.04140
2898.66217,0.03983
2896.60200,0.03880
2894.54182,0.03808
2892.48165,0.03746
2890.42148,0.03727
2888.36131,0.03703
2886.30114,0.03621
2884.24096,0.03524
2882.18079,0.03453
2880.12062,0.03424
2878.06045,0.03443
2876.00028,0.03488
2873.94010,0.03509
2871.87993,0.03497
2869.81976,0.03487
2867.75959,0.03492
2865.69941,0.03521
2863.63924,0.03606
2861.57907,0.03741
2859.51890,0.03884
2857.45873,0.04011
2855.39855,0.04141
2853.33838,0.04263
2851.27821,0.04303
2849.21804,0.04213
2847.15787,0.04025
2845.09769,0.03803
2843.03752,0.03594
2840.97735,0.03428
2838.91718,0.03298
2836.85700,0.03197
2834.79683,0.03102
2832.73666,0.02988
2830.67649,0.02899
2828.61632,0.02869
2826.55614,0.02849
2824.49597,0.02800
2822.43580,0.02749
2820.37563,0.02707
2818.31546,0.02648
2816.25528,0.02572
2814.19511,0.02528
2812.13494,0.02547
2810.07477,0.02555
2808.01460,0.02529
2805.95442,0.02501
2803.89425,0.02441
2801.83408,0.02376
2799.77391,0.02371
2797.71373,0.02390
2795.65356,0.02384
2793.59339,0.02363
2791.53322,0.02357
2789.47305,0.02368
2787.41287,0.02356
2785.35270,0.02313
2783.29253,0.02289
2781.23236,0.02301
2779.17219,0.02308
2777.11201,0.02299
2775.05184,0.02274
2772.99167,0.02216
2770.93150,0.02168
2768.87133,0.02158
2766.81115,0.02175
2764.75098,0.02205
2762.69081,0.02218
2760.63064,0.02223
2758.57046,0.02235
2756.51029,0.02233
2754.45012,0.02226
2752.38995,0.02221
2750.32978,0.02202
2748.26960,0.02182
2746.20943,0.02168
2744.14926,0.02143
2742.08909,0.02113
2740.02892,0.02115
2737.96874,0.02149
2735.90857,0.02155
2733.84840,0.02141
2731.78823,0.02143
2729.72805,0.02138
2727.66788,0.02125
2725.60771,0.02123
2723.54754,0.02114
2721.48737,0.02094
2719.42719,0.02089
2717.36702,0.02090
2715.30685,0.02071
2713.24668,0.02064
2711.18651,0.02098
2709.12633,0.02129
2707.06616,0.02129
2705.00599,0.02132
2702.94582,0.02148
2700.88565,0.02142
2698.82547,0.02103
2696.76530,0.02084
2694.70513,0.02088
2692.64496,0.02075
2690.58478,0.02066
2688.52461,0.02086
2686.46444,0.02123
2684.40427,0.02142
2682.34410,0.02124
2680.28392,0.02097
2678.22375,0.02073
2676.16358,0.02058
2674.10341,0.02054
2672.04324,0.02050
2669.98306,0.02052
2667.92289,0.02071
2665.86272,0.02071
2663.80255,0.02042
2661.74238,0.02035
2659.68220,0.02047
2657.62203,0.02046
2655.56186,0.02032
2653.50169,0.02023
2651.44151,0.02033
2649.38134,0.02038
2647.32117,0.02000
2645.26100,0.01952
2643.20083,0.01949
2641.14065,0.01983
2639.08048,0.02001
2637.02031,0.01984
2634.96014,0.01956
2632.89997,0.01931
2630.83979,0.01920
2628.77962,0.01912
2626.71945,0.01903
2624.65928,0.01909
2622.59910,0.01918
2620.53893,0.01904
2618.47876,0.01878
2616.41859,0.01876
2614.35842,0.01871
2612.29824,0.01831
2610.23807,0.01791
2608.17790,0.01784
2606.11773,0.01801
2604.05756,0.01813
2601.99738,0.01831
2599.93721,0.01841
2597.87704,0.01803
2595.81687,0.01737
2593.75670,0.01686
2591.69652,0.01685
2589.63635,0.01754
2587.57618,0.01847
2585.51601,0.01882
2583.45583,0.01857
2581.39566,0.01822
2579.33549,0.01819
2577.27532,0.01838
2575.21515,0.01826
2573.15497,0.01816
2571.09480,0.01851
2569.03463,0.01857
2566.97446,0.01822
2564.91429,0.01819
2562.85411,0.01812
2560.79394,0.01735
2558.73377,0.01659
2556.67360,0.01657
2554.61342,0.01688
2552.55325,0.01696
2550.49308,0.01675
2548.43291,0.01694
2546.37274,0.01778
2544.31256,0.01827
2542.25239,0.01809
2540.19222,0.01801
2538.13205,0.01820
2536.07188,0.01796
2534.01170,0.01733
2531.95153,0.01661
2529.89136,0.01599
2527.83119,0.01596
2525.77102,0.01615
2523.71084,0.01586
2521.65067,0.01559
2519.59050,0.01574
2517.53033,0.01602
2515.47015,0.01632
2513.40998,0.01650
2511.34981,0.01668
2509.28964,0.01683
2507.22947,0.01703
2505.16929,0.01748
2503.10912,0.01772
2501.04895,0.01742
2498.98878,0.01737
2496.92861,0.01788
2494.86843,0.01777
2492.80826,0.01698
2490.74809,0.01661
2488.68792,0.01655
2486.62775,0.01653
2484.56757,0.01699
2482.50740,0.01758
2480.44723,0.01720
2478.38706,0.01614
2476.32688,0.01591
2474.26671,0.01647
2472.20654,0.01657
2470.14637,0.01635
2468.08620,0.01638
2466.02602,0.01650
2463.96585,0.01662
2461.90568,0.01694
2459.84551,0.01719
2457.78534,0.01653
2455.72516,0.01532
2453.66499,0.01507
2451.60482,0.01609
2449.54465,0.01709
2447.48447,0.01701
2445.42430,0.01636
2443.36413,0.01613
2441.30396,0.01618
2439.24379,0.01591
2437.18361,0.01540
2435.12344,0.01522
2433.06327,0.01518
2431.00310,0.01494
2428.94293,0.01502
2426.88275,0.01591
2424.82258,0.01665
2422.76241,0.01645
2420.70224,0.01616
2418.64207,0.01623
2416.58189,0.01660
2414.52172,0.01677
2412.46155,0.01607
2410.40138,0.01559
2408.34120,0.01594
2406.28103,0.01621
2404.22086,0.01623
2402.16069,0.01617
2400.10052,0.01605
2398.04034,0.01596
2395.98017,0.01584
2393.92000,0.01573
2391.85983,0.01568
2389.79966,0.01569
2387.73948,0.01570
2385.67931,0.01555
2383.61914,0.01525
2381.55897,0.01491
2379.49880,0.01450
2377.43862,0.01398
2375.37845,0.01351
2373.31828,0.01223
2371.25811,0.00899
2369.19793,0.00511
2367.13776,0.00226
2365.07759,0.00018
2363.01742,0.00000
2360.95725,0.00159
2358.89707,0.00696
2356.83690,0.01395
2354.77673,0.01634
2352.71656,0.01522
2350.65639,0.01363
2348.59621,0.01385
2346.53604,0.01688
2344.47587,0.01829
2342.41570,0.01759
2340.35552,0.01572
2338.29535,0.01385
2336.23518,0.01368
2334.17501,0.01502
2332.11484,0.01631
2330.05466,0.01595
2327.99449,0.01425
2325.93432,0.01267
2323.87415,0.01303
2321.81398,0.01418
2319.75380,0.01510
2317.69363,0.01551
2315.63346,0.01583
2313.57329,0.01612
2311.51312,0.01628
2309.45294,0.01596
2307.39277,0.01530
2305.33260,0.01476
2303.27243,0.01417
2301.21225,0.01339
2299.15208,0.01289
2297.09191,0.01340
2295.03174,0.01448
2292.97157,0.01507
2290.91139,0.01469
2288.85122,0.01364
2286.79105,0.01286
2284.73088,0.01307
2282.67071,0.01374
2280.61053,0.01366
2278.55036,0.01289
2276.49019,0.01264
2274.43002,0.01312
2272.36984,0.01355
2270.30967,0.01356
2268.24950,0.01301
2266.18933,0.01218
2264.12916,0.01212
2262.06898,0.01291
2260.00881,0.01345
2257.94864,0.01317
2255.88847,0.01257
2253.82830,0.01255
2251.76812,0.01283
2249.70795,0.01268
2247.64778,0.01254
2245.58761,0.01248
2243.52744,0.01313
2241.46726,0.01380
2239.40709,0.01264
2237.34692,0.01136
2235.28675,0.01140
2233.22657,0.01212
2231.16640,0.01211
2229.10623,0.01139
2227.04606,0.01164
2224.98589,0.01234
2222.92571,0.01223
2220.86554,0.01169
2218.80537,0.01121
2216.74520,0.00990
2214.68503,0.00824
2212.62485,0.00829
2210.56468,0.00960
2208.50451,0.00995
2206.44434,0.01005
2204.38417,0.01118
2202.32399,0.01175
2200.26382,0.01162
2198.20365,0.01135
2196.14348,0.01035
2194.08330,0.00914
2192.02313,0.00813
2189.96296,0.00725
2187.90279,0.00753
2185.84262,0.00913
2183.78244,0.00958
2181.72227,0.00856
2179.66210,0.00852
2177.60193,0.00974
2175.54176,0.01090
2173.48158,0.01068
2171.42141,0.00934
2169.36124,0.00887
2167.30107,0.00805
2165.24089,0.00618
2163.18072,0.00641
2161.12055,0.00771
2159.06038,0.00726
2157.00021,0.00652
2154.94003,0.00625
2152.87986,0.00500
2150.81969,0.00344
2148.75952,0.00453
2146.69935,0.00767
2144.63917,0.00962
2142.57900,0.00981
2140.51883,0.00917
2138.45866,0.00805
2136.39849,0.00680
2134.33831,0.00606
2132.27814,0.00645
2130.21797,0.00746
2128.15780,0.00810
2126.09762,0.00852
2124.03745,0.00864
2121.97728,0.00827
2119.91711,0.00766
2117.85694,0.00771
2115.79676,0.00878
2113.73659,0.00910
2111.67642,0.00866
2109.61625,0.00901
2107.55608,0.00957
2105.49590,0.00909
2103.43573,0.00778
2101.37556,0.00657
2099.31539,0.00599
2097.25521,0.00625
2095.19504,0.00655
2093.13487,0.00646
2091.07470,0.00688
2089.01453,0.00773
2086.95435,0.00809
2084.89418,0.00768
2082.83401,0.00700
2080.77384,0.00734
2078.71367,0.00896
2076.65349,0.01001
2074.59332,0.00932
2072.53315,0.00805
2070.47298,0.00762
2068.41281,0.00808
2066.35263,0.00832
2064.29246,0.00767
2062.23229,0.00681
2060.17212,0.00576
2058.11194,0.00494
2056.05177,0.00514
2053.99160,0.00554
2051.93143,0.00564
2049.87126,0.00483
2047.81108,0.00302
2045.75091,0.00255
2043.69074,0.00413
2041.63057,0.00522
2039.57040,0.00511
2037.51022,0.00578
2035.45005,0.00684
2033.38988,0.00720
2031.32971,0.00691
2029.26954,0.00538
2027.20936,0.00423
2025.14919,0.00469
2023.08902,0.00491
2021.02885,0.00479
2018.96867,0.00489
2016.90850,0.00527
2014.84833,0.00584
2012.78816,0.00472
2010.72799,0.00265
2008.66781,0.00269
2006.60764,0.00433
2004.54747,0.00477
2002.48730,0.00413
2000.42713,0.00447
1998.36695,0.00618
1996.30678,0.00738
1994.24661,0.00646
1992.18644,0.00475
1990.12626,0.00359
1988.06609,0.00308
1986.00592,0.00416
1983.94575,0.00562
1981.88558,0.00573
1979.82540,0.00554
1977.76523,0.00601
1975.70506,0.00647
1973.64489,0.00605
1971.58472,0.00462
1969.52454,0.00304
1967.46437,0.00166
1965.40420,0.00082
1963.34403,0.00082
1961.28386,0.00039
1959.22368,0.00000
1957.16351,0.00104
1955.10334,0.00176
1953.04317,0.00163
1950.98299,0.00202
1948.92282,0.00238
1946.86265,0.00252
1944.80248,0.00282
1942.74231,0.00298
1940.68213,0.00364
1938.62196,0.00473
1936.56179,0.00548
1934.50162,0.00575
1932.44145,0.00536
1930.38127,0.00459
1928.32110,0.00364
1926.26093,0.00268
1924.20076,0.00260
1922.14059,0.00325
1920.08041,0.00362
1918.02024,0.00367
1915.96007,0.00366
1913.89990,0.00377
1911.83972,0.00399
1909.77955,0.00431
1907.71938,0.00504
1905.65921,0.00614
1903.59904,0.00674
1901.53886,0.00620
1899.47869,0.00510
1897.41852,0.00442
1895.35835,0.00449
1893.29818,0.00471
1891.23800,0.00418
1889.17783,0.00318
1887.11766,0.00278
1885.05749,0.00274
1882.99731,0.00210
1880.93714,0.00128
1878.87697,0.00139
1876.81680,0.00237
1874.75663,0.00313
1872.69645,0.00288
1870.63628,0.00197
1868.57611,0.00149
1866.51594,0.00170
1864.45577,0.00181
1862.39559,0.00169
1860.33542,0.00180
1858.27525,0.00201
1856.21508,0.00215
1854.15491,0.00266
1852.09473,0.00331
1850.03456,0.00318
1847.97439,0.00241
1845.91422,0.00189
1843.85404,0.00186
1841.79387,0.00197
1839.73370,0.00228
1837.67353,0.00254
1835.61336,0.00225
1833.55318,0.00195
1831.49301,0.00230
1829.43284,0.00280
1827.37267,0.00244
1825.31250,0.00151
1823.25232,0.00121
1821.19215,0.00150
1819.13198,0.00152
1817.07181,0.00138
1815.01163,0.00154
1812.95146,0.00166
1810.89129,0.00129
1808.83112,0.00073
1806.77095,0.00040
1804.71077,0.00045
1802.65060,0.00095
1800.59043,0.00156
1798.53026,0.00162
1796.47009,0.00116
1794.40991,0.00056
1792.34974,0.00013
1790.28957,0.00000
1788.22940,0.00001
1786.16923,0.00012
1784.10905,0.00041
1782.04888,0.00055
1779.98871,0.00032
1777.92854,0.00013
1775.86836,0.00017
1773.80819,0.00029
1771.74802,0.00066
1769.68785,0.00120
1767.62768,0.00156
1765.56750,0.00187
1763.50733,0.00230
1761.44716,0.00276
1759.38699,0.00320
1757.32682,0.00386
1755.26664,0.00499
1753.20647,0.00646
1751.14630,0.00790
1749.08613,0.00909
1747.02596,0.00995
1744.96578,0.01041
1742.90561,0.01058
1740.84544,0.01086
1738.78527,0.01143
1736.72509,0.01210
1734.66492,0.01272
1732.60475,0.01292
1730.54458,0.01258
1728.48441,0.01228
1726.42423,0.01229
1724.36406,0.01241
1722.30389,0.01255
1720.24372,0.01280
1718.18355,0.01314
1716.12337,0.01327
1714.06320,0.01295
1712.00303,0.01237
1709.94286,0.01196
1707.88268,0.01208
1705.82251,0.01258
1703.76234,0.01287
1701.70217,0.01286
1699.64200,0.01282
1697.58182,0.01258
1695.52165,0.01217
1693.46148,0.01247
1691.40131,0.01372
1689.34114,0.01529
1687.28096,0.01673
1685.22079,0.01846
1683.16062,0.02025
1681.10045,0.02129
1679.04028,0.02209
1676.98010,0.02309
1674.91993,0.02420
1672.85976,0.02490
1670.79959,0.02478
1668.73941,0.02407
1666.67924,0.02343
1664.61907,0.02296
1662.55890,0.02250
1660.49873,0.02222
1658.43855,0.02207
1656.37838,0.02181
1654.31821,0.02169
1652.25804,0.02193
1650.19787,0.02220
1648.13769,0.02241
1646.07752,0.02205
1644.01735,0.02098
1641.95718,0.02039
1639.89701,0.02084
1637.83683,0.02201
1635.77666,0.02319
1633.71649,0.02368
1631.65632,0.02381
1629.59614,0.02412
1627.53597,0.02465
1625.47580,0.02511
1623.41563,0.02527
1621.35546,0.02536
1619.29528,0.02573
1617.23511,0.02625
1615.17494,0.02655
1613.11477,0.02682
1611.05460,0.02744
1608.99442,0.02843
1606.93425,0.02938
1604.87408,0.02977
1602.81391,0.02937
1600.75373,0.02843
1598.69356,0.02728
1596.63339,0.02597
1594.57322,0.02461
1592.51305,0.02357
1590.45287,0.02294
1588.39270,0.02240
1586.33253,0.02168
1584.27236,0.02086
1582.21219,0.02013
1580.15201,0.01961
1578.09184,0.01928
1576.03167,0.01912
1573.97150,0.01888
1571.91133,0.01843
1569.85115,0.01780
1567.79098,0.01694
1565.73081,0.01595
1563.67064,0.01504
1561.61046,0.01430
1559.55029,0.01344
1557.49012,0.01254
1555.42995,0.01217
1553.36978,0.01203
1551.30960,0.01167
1549.24943,0.01095
1547.18926,0.01026
1545.12909,0.01024
1543.06892,0.01064
1541.00874,0.01014
1538.94857,0.00841
1536.88840,0.00715
1534.82823,0.00670
1532.76805,0.00653
1530.70788,0.00643
1528.64771,0.00647
1526.58754,0.00669
1524.52737,0.00704
1522.46719,0.00744
1520.40702,0.00780
1518.34685,0.00832
1516.28668,0.00918
1514.22651,0.00988
1512.16633,0.01013
1510.10616,0.00991
1508.04599,0.00864
1505.98582,0.00633
1503.92565,0.00490
1501.86547,0.00454
1499.80530,0.00417
1497.74513,0.00311
1495.68496,0.00171
1493.62478,0.00102
1491.56461,0.00117
1489.50444,0.00137
1487.44427,0.00102
1485.38410,0.00053
1483.32392,0.00036
1481.26375,0.00045
1479.20358,0.00083
1477.14341,0.00189
1475.08324,0.00360
1473.02306,0.00550
1470.96289,0.00722
1468.90272,0.00861
1466.84255,0.00990
1464.78238,0.01115
1462.72220,0.01211
1460.66203,0.01294
1458.60186,0.01391
1456.54169,0.01468
1454.48151,0.01492
1452.42134,0.01518
1450.36117,0.01592
1448.30100,0.01696
1446.24083,0.01779
1444.18065,0.01836
1442.12048,0.01890
1440.06031,0.01952
1438.00014,0.02019
1435.93997,0.02064
1433.87979,0.02062
1431.81962,0.02056
1429.75945,0.02078
1427.69928,0.02106
1425.63910,0.02134
1423.57893,0.02173
1421.51876,0.02211
1419.45859,0.02235
1417.39842,0.02242
1415.33824,0.02222
1413.27807,0.02174
1411.21790,0.02110
1409.15773,0.02040
1407.09756,0.01968
1405.03738,0.01902
1402.97721,0.01853
1400.91704,0.01827
1398.85687,0.01801
1396.79670,0.01751
1394.73652,0.01682
1392.67635,0.01616
1390.61618,0.01597
1388.55601,0.01637
1386.49583,0.01696
1384.43566,0.01745
1382.37549,0.01784
1380.31532,0.01826
1378.25515,0.01871
1376.19497,0.01910
1374.13480,0.01947
1372.07463,0.01987
1370.01446,0.02007
1367.95429,0.01979
1365.89411,0.01932
1363.83394,0.01910
1361.77377,0.01888
1359.71360,0.01847
1357.65343,0.01804
1355.59325,0.01769
1353.53308,0.01748
1351.47291,0.01746
1349.41274,0.01749
1347.35256,0.01753
1345.29239,0.01757
1343.23222,0.01753
1341.17205,0.01747
1339.11188,0.01726
1337.05170,0.01674
1334.99153,0.01642
1332.93136,0.01665
1330.87119,0.01706
1328.81102,0.01735
1326.75084,0.01754
1324.69067,0.01762
1322.63050,0.01755
1320.57033,0.01745
1318.51015,0.01741
1316.44998,0.01732
1314.38981,0.01710
1312.32964,0.01682
1310.26947,0.01654
1308.20929,0.01639
1306.14912,0.01620
1304.08895,0.01567
1302.02878,0.01493
1299.96861,0.01419
1297.90843,0.01354
1295.84826,0.01326
1293.78809,0.01339
1291.72792,0.01372
1289.66775,0.01420
1287.60757,0.01459
1285.54740,0.01460
1283.48723,0.01449
1281.42706,0.01467
1279.36688,0.01503
1277.30671,0.01516
1275.24654,0.01507
1273.18637,0.01510
1271.12620,0.01543
1269.06602,0.01599
1267.00585,0.01671
1264.94568,0.01745
1262.88551,0.01810
1260.82534,0.01865
1258.76516,0.01911
1256.70499,0.01947
1254.64482,0.01977
1252.58465,0.02018
1250.52447,0.02077
1248.46430,0.02120
1246.40413,0.02134
1244.34396,0.02151
1242.28379,0.02171
1240.22361,0.02170
1238.16344,0.02152
1236.10327,0.02139
1234.04310,0.02119
1231.98293,0.02054
1229.92275,0.01964
1227.86258,0.01898
1225.80241,0.01836
1223.74224,0.01739
1221.68207,0.01612
1219.62189,0.01479
1217.56172,0.01355
1215.50155,0.01254
1213.44138,0.01170
1211.38120,0.01082
1209.32103,0.00990
1207.26086,0.00884
1205.20069,0.00766
1203.14052,0.00651
1201.08034,0.00510
1199.02017,0.00349
1196.96000,0.00234
1194.89983,0.00175
1192.83966,0.00133
1190.77948,0.00100
1188.71931,0.00083
1186.65914,0.00061
1184.59897,0.00026
1182.53880,0.00000
1180.47862,0.00007
1178.41845,0.00074
1176.35828,0.00191
1174.29811,0.00361
1172.23793,0.00552
1170.17776,0.00704
1168.11759,0.00832
1166.05742,0.00966
1163.99725,0.01086
1161.93707,0.01165
1159.87690,0.01202
1157.81673,0.01230
1155.75656,0.01282
1153.69639,0.01365
1151.63621,0.01453
1149.57604,0.01522
1147.51587,0.01600
1145.45570,0.01690
1143.39552,0.01736
1141.33535,0.01762
1139.27518,0.01830
1137.21501,0.01921
1135.15484,0.02001
1133.09466,0.02040
1131.03449,0.02045
1128.97432,0.02092
1126.91415,0.02213
1124.85398,0.02354
1122.79380,0.02466
1120.73363,0.02561
1118.67346,0.02652
1116.61329,0.02728
1114.55312,0.02805
1112.49294,0.02914
1110.43277,0.03029
1108.37260,0.03127
1106.31243,0.03209
1104.25225,0.03287
1102.19208,0.03393
1100.13191,0.03521
1098.07174,0.03683
1096.01157,0.03880
1093.95139,0.04011
1091.89122,0.04083
1089.83105,0.04206
1087.77088,0.04357
1085.71071,0.04505
1083.65053,0.04683
1081.59036,0.04859
1079.53019,0.05002
1077.47002,0.05151
1075.40985,0.05326
1073.34967,0.05511
1071.28950,0.05684
1069.22933,0.05839
1067.16916,0.05981
1065.10898,0.06103
1063.04881,0.06184
1060.98864,0.06262
1058.92847,0.06390
1056.86830,0.06567
1054.80812,0.06745
1052.74795,0.06888
1050.68778,0.07054
1048.62761,0.07258
1046.56744,0.07420
1044.50726,0.07562
1042.44709,0.07739
1040.38692,0.07945
1038.32675,0.08143
1036.26657,0.08277
1034.20640,0.08348
1032.14623,0.08383
1030.08606,0.08396
1028.02589,0.08386
1025.96571,0.08362
1023.90554,0.08344
1021.84537,0.08320
1019.78520,0.08248
1017.72503,0.08138
1015.66485,0.08073
1013.60468,0.08098
1011.54451,0.08176
1009.48434,0.08247
1007.42417,0.08281
1005.36399,0.08240
1003.30382,0.08129
1001.24365,0.08036
999.18348,0.08004
997.12330,0.07961
995.06313,0.07820
993.00296,0.07589
990.94279,0.07393
988.88262,0.07318
986.82244,0.07261
984.76227,0.07141
982.70210,0.07015
980.64193,0.06887
978.58176,0.06731
976.52158,0.06602
974.46141,0.06513
972.40124,0.06437
970.34107,0.06361
968.28089,0.06248
966.22072,0.06105
964.16055,0.05973
962.10038,0.05830
960.04021,0.05659
957.98003,0.05532
955.91986,0.05442
953.85969,0.05304
951.79952,0.05145
949.73935,0.05009
947.67917,0.04870
945.61900,0.04732
943.55883,0.04576
941.49866,0.04380
939.43849,0.04206
937.37831,0.04032
935.31814,0.03785
933.25797,0.03501
931.19780,0.03241
929.13762,0.03044
927.07745,0.02896
925.01728,0.02743
922.95711,0.02570
920.89694,0.02395
918.83676,0.02215
916.77659,0.02064
914.71642,0.01931
912.65625,0.01779
910.59608,0.01661
908.53590,0.01590
906.47573,0.01517
904.41556,0.01471
902.35539,0.01493
900.29522,0.01522
898.23504,0.01510
896.17487,0.01472
894.11470,0.01423
892.05453,0.01375
889.99435,0.01370
887.93418,0.01413
885.87401,0.01386
883.81384,0.01242
881.75367,0.01113
879.69349,0.01046
877.63332,0.00969
875.57315,0.00869
873.51298,0.00754
871.45281,0.00667
869.39263,0.00642
867.33246,0.00658
865.27229,0.00703
863.21212,0.00734
861.15194,0.00699
859.09177,0.00627
857.03160,0.00587
854.97143,0.00572
852.91126,0.00565
850.85108,0.00604
848.79091,0.00620
846.73074,0.00543
844.67057,0.00479
842.61040,0.00509
840.55022,0.00576
838.49005,0.00605
836.42988,0.00644
834.36971,0.00666
832.30954,0.00601
830.24936,0.00491
828.18919,0.00369
826.12902,0.00320
824.06885,0.00376
822.00867,0.00388
819.94850,0.00268
817.88833,0.00161
815.82816,0.00167
813.76799,0.00171
811.70781,0.00178
809.64764,0.00267
807.58747,0.00369
805.52730,0.00378
803.46713,0.00264
801.40695,0.00125
799.34678,0.00079
797.28661,0.00124
795.22644,0.00168
793.16627,0.00145
791.10609,0.00106
789.04592,0.00142
786.98575,0.00224
784.92558,0.00230
782.86540,0.00124
780.80523,0.00098
778.74506,0.00247
776.68489,0.00295
774.62472,0.00151
772.56454,0.00105
770.50437,0.00180
768.44420,0.00184
766.38403,0.00166
764.32386,0.00181
762.26368,0.00215
760.20351,0.00295
758.14334,0.00350
756.08317,0.00318
754.02299,0.00212
751.96282,0.00089
749.90265,0.00072
747.84248,0.00172
745.78231,0.00199
743.72213,0.00080
741.66196,0.00000
739.60179,0.00024
737.54162,0.00089
735.48145,0.00106
733.42127,0.00115
731.36110,0.00187
729.30093,0.00282
727.24076,0.00337
725.18059,0.00382
723.12041,0.00411
721.06024,0.00467
719.00007,0.00538
716.93990,0.00582
714.87972,0.00517
712.81955,0.00387
710.75938,0.00344
708.69921,0.00437
706.63904,0.00517
704.57886,0.00476
702.51869,0.00426
700.45852,0.00450
698.39835,0.00496
696.33818,0.00527
694.27800,0.00563
692.21783,0.00652
690.15766,0.00724
688.09749,0.00587
686.03731,0.00328
683.97714,0.00191
681.91697,0.00166
679.85680,0.00233
677.79663,0.00366
675.73645,0.00378
673.67628,0.00189
671.61611,-0.00006
669.55594,0.00187
667.49577,0.00379
665.43559,0.00052
663.37542,0.00169
661.31525,0.00515
659.25508,0.00720
657.19491,0.00708
655.13473,0.00617
653.07456,0.00529
651.01439,0.00428
648.95422,0.00321
646.89404,0.00326
644.83387,0.00463
642.77370,0.00623
640.71353,0.00765
638.65336,0.00729
636.59318,0.00508
634.53301,0.00375
632.47284,0.00452
630.41267,0.00631
628.35250,0.00662
626.29232,0.00359
624.23215,0.00112
622.17198,0.00124
620.11181,0.00040
618.05164,-0.00205
615.99146,-0.00302
613.93129,-0.00086
611.87112,0.00261
609.81095,0.00467
607.75077,0.00492
605.69060,0.00376
603.63043,0.00232
601.57026,0.00092
599.51009,0.00000
