3996.73391,-0.00074
3994.67373,-0.00096
3992.61356,-0.00084
3990.55339,-0.00045
3988.49322,-0.00022
3986.43305,-0.00018
3984.37287,-0.00030
3982.31270,-0.00041
3980.25253,-0.00037
3978.19236,-0.00013
3976.13219,0.00001
3974.07201,-0.00028
3972.01184,-0.00063
3969.95167,-0.00063
3967.89150,-0.00041
3965.83133,-0.00037
3963.77115,-0.00035
3961.71098,-0.00005
3959.65081,0.00032
3957.59064,0.00042
3955.53046,0.00019
3953.47029,0.00003
3951.41012,0.00015
3949.34995,0.00022
3947.28978,0.00000
3945.22960,0.00028
3943.16943,0.00112
3941.10926,0.00128
3939.04909,0.00094
3936.98892,0.00080
3934.92874,0.00094
3932.86857,0.00110
3930.80840,0.00080
3928.74823,0.00046
3926.68805,0.00094
3924.62788,0.00167
3922.56771,0.00176
3920.50754,0.00176
3918.44737,0.00154
3916.38719,0.00065
3914.32702,0.00000
3912.26685,0.00032
3910.20668,0.00067
3908.14651,0.00077
3906.08633,0.00127
3904.02616,0.00157
3901.96599,0.00155
3899.90582,0.00190
3897.84565,0.00143
3895.78547,0.00058
3893.72530,0.00089
3891.66513,0.00137
3889.60496,0.00068
3887.54478,0.00080
3885.48461,0.00157
3883.42444,0.00176
3881.36427,0.00289
3879.30410,0.00289
3877.24392,0.00160
3875.18375,0.00153
3873.12358,0.00191
3871.06341,0.00245
3869.00324,0.00187
3866.94306,0.00099
3864.88289,0.00193
3862.82272,0.00228
3860.76255,0.00123
3858.70237,0.00031
3856.64220,0.00096
3854.58203,0.00340
3852.52186,0.00414
3850.46169,0.00254
3848.40151,0.00157
3846.34134,0.00138
3844.28117,0.00118
3842.22100,0.00084
3840.16083,0.00158
3838.10065,0.00248
3836.04048,0.00177
3833.98031,0.00105
3831.92014,0.00100
3829.85997,0.00080
3827.79979,0.00105
3825.73962,0.00157
3823.67945,0.00299
3821.61928,0.00469
3819.55910,0.00346
3817.49893,0.00287
3815.43876,0.00351
3813.37859,0.00265
3811.31842,0.00189
3809.25824,0.00246
3807.19807,0.00311
3805.13790,0.00217
3803.07773,0.00205
3801.01756,0.00210
3798.95738,0.00123
3796.89721,0.00169
3794.83704,0.00209
3792.77687,0.00223
3790.71670,0.00244
3788.65652,0.00217
3786.59635,0.00187
3784.53618,0.00160
3782.47601,0.00160
3780.41583,0.00249
3778.35566,0.00265
3776.29549,0.00171
3774.23532,0.00128
3772.17515,0.00188
3770.11497,0.00251
3768.05480,0.00202
3765.99463,0.00138
3763.93446,0.00078
3761.87429,0.00103
3759.81411,0.00186
3757.75394,0.00122
3755.69377,0.00000
3753.63360,0.00047
3751.57342,0.00184
3749.51325,0.00115
3747.45308,0.00022
3745.39291,0.00196
3743.33274,0.00270
3741.27256,0.00149
3739.21239,0.00142
3737.15222,0.00298
3735.09205,0.00415
3733.03188,0.00349
3730.97170,0.00211
3728.91153,0.00189
3726.85136,0.00318
3724.79119,0.00392
3722.73102,0.00344
3720.67084,0.00239
3718.61067,0.00153
3716.55050,0.00100
3714.49033,0.00161
3712.43015,0.00323
3710.36998,0.00342
3708.30981,0.00214
3706.24964,0.00136
3704.18947,0.00213
3702.12929,0.00320
3700.06912,0.00276
3698.00895,0.00211
3695.94878,0.00179
3693.88861,0.00123
3691.82843,0.00157
3689.76826,0.00291
3687.70809,0.00273
3685.64792,0.00137
3683.58775,0.00086
3681.52757,0.00104
3679.46740,0.00136
3677.40723,0.00240
3675.34706,0.00285
3673.28688,0.00179
3671.22671,0.00322
3669.16654,0.00403
3667.10637,0.00212
3665.04620,0.00142
3662.98602,0.00195
3660.92585,0.00211
3658.86568,0.00241
3656.80551,0.00305
3654.74534,0.00264
3652.68516,0.00297
3650.62499,0.00460
3648.56482,0.00439
3646.50465,0.00280
3644.44447,0.00199
3642.38430,0.00228
3640.32413,0.00268
3638.26396,0.00267
3636.20379,0.00230
3634.14361,0.00201
3632.08344,0.00254
3630.02327,0.00473
3627.96310,0.00533
3625.90293,0.00355
3623.84275,0.00312
3621.78258,0.00471
3619.72241,0.00643
3617.66224,0.00613
3615.60207,0.00546
3613.54189,0.00562
3611.48172,0.00553
3609.42155,0.00593
3607.36138,0.00669
3605.30120,0.00691
3603.24103,0.00711
3601.18086,0.00721
3599.12069,0.00661
3597.06052,0.00613
3595.00034,0.00606
3592.94017,0.00568
3590.88000,0.00591
3588.81983,0.00798
3586.75966,0.00948
3584.69948,0.00899
3582.63931,0.00857
3580.57914,0.00864
3578.51897,0.00870
3576.45879,0.00881
3574.39862,0.00869
3572.33845,0.00838
3570.27828,0.00886
3568.21811,0.01014
3566.15793,0.01063
3564.09776,0.01043
3562.03759,0.01069
3559.97742,0.01092
3557.91725,0.01087
3555.85707,0.01111
3553.79690,0.01159
3551.73673,0.01166
3549.67656,0.01174
3547.61639,0.01277
3545.55621,0.01401
3543.49604,0.01419
3541.43587,0.01363
3539.37570,0.01354
3537.31552,0.01441
3535.25535,0.01529
3533.19518,0.01568
3531.13501,0.01603
3529.07484,0.01607
3527.01466,0.01576
3524.95449,0.01584
3522.89432,0.01633
3520.83415,0.01696
3518.77398,0.01788
3516.71380,0.01842
3514.65363,0.01832
3512.59346,0.01832
3510.53329,0.01863
3508.47312,0.01878
3506.41294,0.01896
3504.35277,0.01944
3502.29260,0.01954
3500.23243,0.01945
3498.17225,0.01964
3496.11208,0.01982
3494.05191,0.02022
3491.99174,0.02115
3489.93157,0.02197
3487.87139,0.02222
3485.81122,0.02225
3483.75105,0.02265
3481.69088,0.02325
3479.63071,0.02336
3477.57053,0.02326
3475.51036,0.02354
3473.45019,0.02421
3471.39002,0.02476
3469.32984,0.02494
3467.26967,0.02507
3465.20950,0.02537
3463.14933,0.02598
3461.08916,0.02672
3459.02898,0.02736
3456.96881,0.02798
3454.90864,0.02844
3452.84847,0.02822
3450.78830,0.02751
3448.72812,0.02760
3446.66795,0.02840
3444.60778,0.02892
3442.54761,0.02933
3440.48744,0.02938
3438.42726,0.02905
3436.36709,0.02894
3434.30692,0.02925
3432.24675,0.02964
3430.18657,0.02998
3428.12640,0.03055
3426.06623,0.03144
3424.00606,0.03224
3421.94589,0.03248
3419.88571,0.03228
3417.82554,0.03228
3415.76537,0.03266
3413.70520,0.03310
3411.64503,0.03319
3409.58485,0.03295
3407.52468,0.03304
3405.46451,0.03341
3403.40434,0.03348
3401.34416,0.03342
3399.28399,0.03361
3397.22382,0.03403
3395.16365,0.03449
3393.10348,0.03483
3391.04330,0.03485
3388.98313,0.03492
3386.92296,0.03526
3384.86279,0.03561
3382.80262,0.03584
3380.74244,0.03603
3378.68227,0.03625
3376.62210,0.03651
3374.56193,0.03661
3372.50176,0.03671
3370.44158,0.03718
3368.38141,0.03760
3366.32124,0.03734
3364.26107,0.03698
3362.20089,0.03739
3360.14072,0.03791
3358.08055,0.03774
3356.02038,0.03751
3353.96021,0.03791
3351.90003,0.03871
3349.83986,0.03932
3347.77969,0.03957
3345.71952,0.03960
3343.65935,0.03944
3341.59917,0.03908
3339.53900,0.03881
3337.47883,0.03895
3335.41866,0.03920
3333.35849,0.03919
3331.29831,0.03904
3329.23814,0.03898
3327.17797,0.03900
3325.11780,0.03910
3323.05762,0.03946
3320.99745,0.03984
3318.93728,0.03991
3316.87711,0.03987
3314.81694,0.03974
3312.75676,0.03948
3310.69659,0.03959
3308.63642,0.04006
3306.57625,0.04018
3304.51608,0.03996
3302.45590,0.03976
3300.39573,0.03966
3298.33556,0.03959
3296.27539,0.03973
3294.21521,0.04011
3292.15504,0.04030
3290.09487,0.04014
3288.03470,0.03993
3285.97453,0.03964
3283.91435,0.03934
3281.85418,0.03947
3279.79401,0.03999
3277.73384,0.04046
3275.67367,0.04065
3273.61349,0.04056
3271.55332,0.04023
3269.49315,0.03998
3267.43298,0.03996
3265.37281,0.03986
3263.31263,0.03957
3261.25246,0.03937
3259.19229,0.03939
3257.13212,0.03955
3255.07194,0.03980
3253.01177,0.03976
3250.95160,0.03930
3248.89143,0.03883
3246.83126,0.03861
3244.77108,0.03854
3242.71091,0.03869
3240.65074,0.03907
3238.59057,0.03919
3236.53040,0.03916
3234.47022,0.03932
3232.41005,0.03918
3230.34988,0.03863
3228.28971,0.03836
3226.22954,0.03828
3224.16936,0.03798
3222.10919,0.03785
3220.04902,0.03790
3217.98885,0.03781
3215.92867,0.03778
3213.86850,0.03768
3211.80833,0.03735
3209.74816,0.03715
3207.68799,0.03712
3205.62781,0.03703
3203.56764,0.03652
3201.50747,0.03600
3199.44730,0.03597
3197.38713,0.03601
3195.32695,0.03579
3193.26678,0.03546
3191.20661,0.03504
3189.14644,0.03476
3187.08626,0.03484
3185.02609,0.03480
3182.96592,0.03452
3180.90575,0.03444
3178.84558,0.03442
3176.78540,0.03398
3174.72523,0.03340
3172.66506,0.03341
3170.60489,0.03410
3168.54472,0.03486
3166.48454,0.03491
3164.42437,0.03432
3162.36420,0.03370
3160.30403,0.03331
3158.24386,0.03317
3156.18368,0.03299
3154.12351,0.03245
3152.06334,0.03188
3150.00317,0.03155
3147.94299,0.03146
3145.88282,0.03138
3143.82265,0.03117
3141.76248,0.03112
3139.70231,0.03111
3137.64213,0.03079
3135.58196,0.03028
3133.52179,0.02996
3131.46162,0.02979
3129.40145,0.02970
3127.34127,0.02977
3125.28110,0.02983
3123.22093,0.02972
3121.16076,0.02943
3119.10058,0.02914
3117.04041,0.02915
3114.98024,0.02928
3112.92007,0.02911
3110.85990,0.02876
3108.79972,0.02837
3106.73955,0.02792
3104.67938,0.02761
3102.61921,0.02754
3100.55904,0.02741
3098.49886,0.02699
3096.43869,0.02650
3094.37852,0.02619
3092.31835,0.02595
3090.25818,0.02581
3088.19800,0.02596
3086.13783,0.02631
3084.07766,0.02648
3082.01749,0.02598
3079.95731,0.02510
3077.89714,0.02449
3075.83697,0.02416
3073.77680,0.02396
3071.71663,0.02392
3069.65645,0.02391
3067.59628,0.02399
3065.53611,0.02418
3063.47594,0.02430
3061.41577,0.02406
3059.35559,0.02361
3057.29542,0.02344
3055.23525,0.02350
3053.17508,0.02340
3051.11491,0.02301
3049.05473,0.02259
3046.99456,0.02249
3044.93439,0.02250
3042.87422,0.02229
3040.81404,0.02179
3038.75387,0.02145
3036.69370,0.02142
3034.63353,0.02129
3032.57336,0.02089
3030.51318,0.02051
3028.45301,0.02043
3026.39284,0.02062
3024.33267,0.02073
3022.27250,0.02050
3020.21232,0.02012
3018.15215,0.01976
3016.09198,0.01961
3014.03181,0.01981
3011.97163,0.02001
3009.91146,0.02005
3007.85129,0.02029
3005.79112,0.02056
3003.73095,0.02028
3001.67077,0.01970
2999.61060,0.01924
2997.55043,0.01876
2995.49026,0.01846
2993.43009,0.01865
2991.36991,0.01893
2989.30974,0.01891
2987.24957,0.01884
2985.18940,0.01901
2983.12923,0.01931
2981.06905,0.01956
2979.00888,0.01959
2976.94871,0.01976
2974.88854,0.02036
2972.82836,0.02093
2970.76819,0.02154
2968.70802,0.02256
2966.64785,0.02374
2964.58768,0.02489
2962.52750,0.02589
2960.46733,0.02660
2958.40716,0.02735
2956.34699,0.02831
2954.28682,0.02957
2952.22664,0.03105
2950.16647,0.03241
2948.10630,0.03378
2946.04613,0.03524
2943.98596,0.03677
2941.92578,0.03874
2939.86561,0.04078
2937.80544,0.04229
2935.74527,0.04361
2933.68509,0.04514
2931.62492,0.04668
2929.56475,0.04825
2927.50458,0.04975
2925.44441,0.05091
2923.38423,0.05177
2921.32406,0.05204
2919.26389,0.05166
2917.20372,0.05095
2915.14355,0.04983
2913.08337,0.04823
2911.02320,0.04647
2908.96303,0.04483
2906.90286,0.04345
2904.84268,0.04240
2902.78251,0.04134
2900.72234,0.03985
2898.66217,0.03822
2896.60200,0.03704
2894.54182,0.03624
2892.48165,0.03559
2890.42148,0.03520
2888.36131,0.03478
2886.30114,0.03398
2884.24096,0.03319
2882.18079,0.03274
2880.12062,0.03249
2878.06045,0.03245
2876.00028,0.03266
2873.94010,0.03292
2871.87993,0.03314
2869.81976,0.03325
2867.75959,0.03320
2865.69941,0.03343
2863.63924,0.03433
2861.57907,0.03568
2859.51890,0.03722
2857.45873,0.03868
2855.39855,0.03976
2853.33838,0.04050
2851.27821,0.04085
2849.21804,0.04025
2847.15787,0.03842
2845.09769,0.03595
2843.03752,0.03375
2840.97735,0.03211
2838.91718,0.03067
2836.85700,0.02941
2834.79683,0.02837
2832.73666,0.02732
2830.67649,0.02633
2828.61632,0.02571
2826.55614,0.02538
2824.49597,0.02506
2822.43580,0.02472
2820.37563,0.02426
2818.31546,0.02362
2816.25528,0.02297
2814.19511,0.02266
2812.13494,0.02270
2810.07477,0.02263
2808.01460,0.02234
2805.95442,0.02202
2803.89425,0.02171
2801.83408,0.02132
2799.77391,0.02097
2797.71373,0.02073
2795.65356,0.02054
2793.59339,0.02050
2791.53322,0.02049
2789.47305,0.02029
2787.41287,0.02005
2785.35270,0.01989
2783.29253,0.01974
2781.23236,0.01965
2779.17219,0.01966
2777.11201,0.01962
2775.05184,0.01927
2772.99167,0.01888
2770.93150,0.01886
2768.87133,0.01902
2766.81115,0.01920
2764.75098,0.01927
2762.69081,0.01914
2760.63064,0.01901
2758.57046,0.01889
2756.51029,0.01869
2754.45012,0.01864
2752.38995,0.01862
2750.32978,0.01846
2748.26960,0.01841
2746.20943,0.01843
2744.14926,0.01833
2742.08909,0.01828
2740.02892,0.01842
2737.96874,0.01862
2735.90857,0.01866
2733.84840,0.01852
2731.78823,0.01832
2729.72805,0.01811
2727.66788,0.01807
2725.60771,0.01820
2723.54754,0.01811
2721.48737,0.01780
2719.42719,0.01757
2717.36702,0.01750
2715.30685,0.01740
2713.24668,0.01725
2711.18651,0.01733
2709.12633,0.01749
2707.06616,0.01757
2705.00599,0.01771
2702.94582,0.01782
2700.88565,0.01767
2698.82547,0.01730
2696.76530,0.01720
2694.70513,0.01728
2692.64496,0.01712
2690.58478,0.01689
2688.52461,0.01686
2686.46444,0.01712
2684.40427,0.01736
2682.34410,0.01734
2680.28392,0.01738
2678.22375,0.01753
2676.16358,0.01747
2674.10341,0.01722
2672.04324,0.01709
2669.98306,0.01694
2667.92289,0.01667
2665.86272,0.01661
2663.80255,0.01684
2661.74238,0.01708
2659.68220,0.01709
2657.62203,0.01695
2655.56186,0.01682
2653.50169,0.01662
2651.44151,0.01627
2649.38134,0.01602
2647.32117,0.01603
2645.26100,0.01604
2643.20083,0.01595
2641.14065,0.01590
2639.08048,0.01576
2637.02031,0.01537
2634.96014,0.01503
2632.89997,0.01495
2630.83979,0.01518
2628.77962,0.01550
2626.71945,0.01549
2624.65928,0.01534
2622.59910,0.01542
2620.53893,0.01538
2618.47876,0.01505
2616.41859,0.01493
2614.35842,0.01516
2612.29824,0.01532
2610.23807,0.01510
2608.17790,0.01473
2606.11773,0.01475
2604.05756,0.01499
2601.99738,0.01490
2599.93721,0.01463
2597.87704,0.01432
2595.81687,0.01364
2593.75670,0.01280
2591.69652,0.01253
2589.63635,0.01307
2587.57618,0.01398
2585.51601,0.01453
2583.45583,0.01434
2581.39566,0.01405
2579.33549,0.01408
2577.27532,0.01389
2575.21515,0.01324
2573.15497,0.01296
2571.09480,0.01344
2569.03463,0.01385
2566.97446,0.01399
2564.91429,0.01418
2562.85411,0.01405
2560.79394,0.01339
2558.73377,0.01278
2556.67360,0.01272
2554.61342,0.01296
2552.55325,0.01311
2550.49308,0.01313
2548.43291,0.01348
2546.37274,0.01417
2544.31256,0.01427
2542.25239,0.01352
2540.19222,0.01285
2538.13205,0.01284
2536.07188,0.01295
2534.01170,0.01271
2531.95153,0.01224
2529.89136,0.01162
2527.83119,0.01132
2525.77102,0.01169
2523.71084,0.01233
2521.65067,0.01267
2519.59050,0.01254
2517.53033,0.01271
2515.47015,0.01329
2513.40998,0.01317
2511.34981,0.01251
2509.28964,0.01228
2507.22947,0.01268
2505.16929,0.01318
2503.10912,0.01294
2501.04895,0.01233
2498.98878,0.01229
2496.92861,0.01260
2494.86843,0.01265
2492.80826,0.01255
2490.74809,0.01250
2488.68792,0.01212
2486.62775,0.01174
2484.56757,0.01204
2482.50740,0.01250
2480.44723,0.01231
2478.38706,0.01168
2476.32688,0.01139
2474.26671,0.01121
2472.20654,0.01085
2470.14637,0.01097
2468.08620,0.01143
2466.02602,0.01157
2463.96585,0.01158
2461.90568,0.01187
2459.84551,0.01205
2457.78534,0.01161
2455.72516,0.01098
2453.66499,0.01094
2451.60482,0.01139
2449.54465,0.01175
2447.48447,0.01154
2445.42430,0.01114
2443.36413,0.01129
2441.30396,0.01151
2439.24379,0.01120
2437.18361,0.01071
2435.12344,0.01050
2433.06327,0.01030
2431.00310,0.01016
2428.94293,0.01058
2426.88275,0.01113
2424.82258,0.01103
2422.76241,0.01073
2420.70224,0.01078
2418.64207,0.01073
2416.58189,0.01067
2414.52172,0.01077
2412.46155,0.01060
2410.40138,0.01043
2408.34120,0.01069
2406.28103,0.01116
2404.22086,0.01129
2402.16069,0.01083
2400.10052,0.01046
2398.04034,0.01062
2395.98017,0.01066
2393.92000,0.01028
2391.85983,0.00970
2389.79966,0.00938
2387.73948,0.00951
2385.67931,0.00982
2383.61914,0.01017
2381.55897,0.01063
2379.49880,0.01097
2377.43862,0.01091
2375.37845,0.01095
2373.31828,0.01042
2371.25811,0.00845
2369.19793,0.00658
2367.13776,0.00473
2365.07759,0.00156
2363.01742,0.00000
2360.95725,0.00114
2358.89707,0.00717
2356.83690,0.01283
2354.77673,0.01473
2352.71656,0.01463
2350.65639,0.01075
2348.59621,0.00929
2346.53604,0.01515
2344.47587,0.01634
2342.41570,0.01263
2340.35552,0.00951
2338.29535,0.00915
2336.23518,0.01152
2334.17501,0.01454
2332.11484,0.01615
2330.05466,0.01431
2327.99449,0.01165
2325.93432,0.01010
2323.87415,0.01058
2321.81398,0.01110
2319.75380,0.01140
2317.69363,0.01098
2315.63346,0.01113
2313.57329,0.01168
2311.51312,0.01214
2309.45294,0.01205
2307.39277,0.01131
2305.33260,0.01053
2303.27243,0.00987
2301.21225,0.00952
2299.15208,0.00958
2297.09191,0.01006
2295.03174,0.01057
2292.97157,0.01090
2290.91139,0.01116
2288.85122,0.01115
2286.79105,0.01058
2284.73088,0.00989
2282.67071,0.00975
2280.61053,0.00986
2278.55036,0.00965
2276.49019,0.00937
2274.43002,0.00920
2272.36984,0.00905
2270.30967,0.00894
2268.24950,0.00883
2266.18933,0.00860
2264.12916,0.00860
2262.06898,0.00893
2260.00881,0.00925
2257.94864,0.00925
2255.88847,0.00895
2253.82830,0.00839
2251.76812,0.00776
2249.70795,0.00759
2247.64778,0.00785
2245.58761,0.00832
2243.52744,0.00947
2241.46726,0.01016
2239.40709,0.00937
2237.34692,0.00793
2235.28675,0.00650
2233.22657,0.00639
2231.16640,0.00768
2229.10623,0.00879
2227.04606,0.00932
2224.98589,0.00885
2222.92571,0.00741
2220.86554,0.00650
2218.80537,0.00666
2216.74520,0.00636
2214.68503,0.00553
2212.62485,0.00629
2210.56468,0.00769
2208.50451,0.00735
2206.44434,0.00638
2204.38417,0.00566
2202.32399,0.00458
2200.26382,0.00445
2198.20365,0.00548
2196.14348,0.00628
2194.08330,0.00650
2192.02313,0.00580
2189.96296,0.00517
2187.90279,0.00598
2185.84262,0.00751
2183.78244,0.00781
2181.72227,0.00652
2179.66210,0.00586
2177.60193,0.00631
2175.54176,0.00626
2173.48158,0.00514
2171.42141,0.00360
2169.36124,0.00309
2167.30107,0.00399
2165.24089,0.00563
2163.18072,0.00774
2161.12055,0.00878
2159.06038,0.00750
2157.00021,0.00613
2154.94003,0.00632
2152.87986,0.00622
2150.81969,0.00498
2148.75952,0.00469
2146.69935,0.00586
2144.63917,0.00673
2142.57900,0.00618
2140.51883,0.00466
2138.45866,0.00361
2136.39849,0.00351
2134.33831,0.00396
2132.27814,0.00474
2130.21797,0.00562
2128.15780,0.00665
2126.09762,0.00729
2124.03745,0.00694
2121.97728,0.00659
2119.91711,0.00664
2117.85694,0.00648
2115.79676,0.00657
2113.73659,0.00721
2111.67642,0.00761
2109.61625,0.00756
2107.55608,0.00729
2105.49590,0.00698
2103.43573,0.00658
2101.37556,0.00577
2099.31539,0.00503
2097.25521,0.00485
2095.19504,0.00501
2093.13487,0.00537
2091.07470,0.00559
2089.01453,0.00541
2086.95435,0.00523
2084.89418,0.00508
2082.83401,0.00457
2080.77384,0.00422
2078.71367,0.00464
2076.65349,0.00542
2074.59332,0.00595
2072.53315,0.00591
2070.47298,0.00568
2068.41281,0.00599
2066.35263,0.00645
2064.29246,0.00591
2062.23229,0.00454
2060.17212,0.00375
2058.11194,0.00410
2056.05177,0.00460
2053.99160,0.00486
2051.93143,0.00548
2049.87126,0.00521
2047.81108,0.00301
2045.75091,0.00073
2043.69074,0.00057
2041.63057,0.00130
2039.57040,0.00178
2037.51022,0.00351
2035.45005,0.00622
2033.38988,0.00878
2031.32971,0.00964
2029.26954,0.00748
2027.20936,0.00461
2025.14919,0.00330
2023.08902,0.00318
2021.02885,0.00372
2018.96867,0.00448
2016.90850,0.00490
2014.84833,0.00477
2012.78816,0.00381
2010.72799,0.00267
2008.66781,0.00176
2006.60764,0.00122
2004.54747,0.00202
2002.48730,0.00389
2000.42713,0.00551
1998.36695,0.00595
1996.30678,0.00504
1994.24661,0.00399
1992.18644,0.00433
1990.12626,0.00463
1988.06609,0.00402
1986.00592,0.00366
1983.94575,0.00342
1981.88558,0.00335
1979.82540,0.00376
1977.76523,0.00362
1975.70506,0.00289
1973.64489,0.00242
1971.58472,0.00231
1969.52454,0.00231
1967.46437,0.00155
1965.40420,0.00011
1963.34403,0.00000
1961.28386,0.00103
1959.22368,0.00217
1957.16351,0.00326
1955.10334,0.00323
1953.04317,0.00221
1950.98299,0.00202
1948.92282,0.00260
1946.86265,0.00306
1944.80248,0.00365
1942.74231,0.00404
1940.68213,0.00367
1938.62196,0.00360
1936.56179,0.00369
1934.50162,0.00348
1932.44145,0.00329
1930.38127,0.00309
1928.32110,0.00274
1926.26093,0.00245
1924.20076,0.00279
1922.14059,0.00298
1920.08041,0.00296
1918.02024,0.00329
1915.96007,0.00304
1913.89990,0.00295
1911.83972,0.00333
1909.77955,0.00347
1907.71938,0.00363
1905.65921,0.00424
1903.59904,0.00456
1901.53886,0.00416
1899.47869,0.00379
1897.41852,0.00391
1895.35835,0.00415
1893.29818,0.00407
1891.23800,0.00371
1889.17783,0.00303
1887.11766,0.00256
1885.05749,0.00258
1882.99731,0.00218
1880.93714,0.00166
1878.87697,0.00182
1876.81680,0.00234
1874.75663,0.00250
1872.69645,0.00225
1870.63628,0.00261
1868.57611,0.00342
1866.51594,0.00307
1864.45577,0.00206
1862.39559,0.00158
1860.33542,0.00163
1858.27525,0.00194
1856.21508,0.00249
1854.15491,0.00318
1852.09473,0.00351
1850.03456,0.00314
1847.97439,0.00248
1845.91422,0.00250
1843.85404,0.00268
1841.79387,0.00199
1839.73370,0.00194
1837.67353,0.00246
1835.61336,0.00221
1833.55318,0.00161
1831.49301,0.00199
1829.43284,0.00240
1827.37267,0.00191
1825.31250,0.00155
1823.25232,0.00136
1821.19215,0.00159
1819.13198,0.00200
1817.07181,0.00191
1815.01163,0.00169
1812.95146,0.00202
1810.89129,0.00229
1808.83112,0.00173
1806.77095,0.00114
1804.71077,0.00116
1802.65060,0.00164
1800.59043,0.00195
1798.53026,0.00151
1796.47009,0.00085
1794.40991,0.00102
1792.34974,0.00157
1790.28957,0.00089
1788.22940,0.00028
1786.16923,0.00071
1784.10905,0.00105
1782.04888,0.00107
1779.98871,0.00079
1777.92854,0.00012
1775.86836,0.00000
1773.80819,0.00082
1771.74802,0.00160
1769.68785,0.00169
1767.62768,0.00172
1765.56750,0.00158
1763.50733,0.00238
1761.44716,0.00340
1759.38699,0.00358
1757.32682,0.00415
1755.26664,0.00487
1753.20647,0.00648
1751.14630,0.00909
1749.08613,0.01055
1747.02596,0.01064
1744.96578,0.01068
1742.90561,0.01114
1740.84544,0.01177
1738.78527,0.01165
1736.72509,0.01192
1734.66492,0.01380
1732.60475,0.01386
1730.54458,0.01294
1728.48441,0.01294
1726.42423,0.01335
1724.36406,0.01375
1722.30389,0.01326
1720.24372,0.01330
1718.18355,0.01473
1716.12337,0.01480
1714.06320,0.01368
1712.00303,0.01302
1709.94286,0.01298
1707.88268,0.01334
1705.82251,0.01326
1703.76234,0.01218
1701.70217,0.01282
1699.64200,0.01376
1697.58182,0.01322
1695.52165,0.01291
1693.46148,0.01227
1691.40131,0.01341
1689.34114,0.01530
1687.28096,0.01679
1685.22079,0.01986
1683.16062,0.02168
1681.10045,0.02135
1679.04028,0.02205
1676.98010,0.02405
1674.91993,0.02537
1672.85976,0.02518
1670.79959,0.02600
1668.73941,0.02601
1666.67924,0.02431
1664.61907,0.02404
1662.55890,0.02453
1660.49873,0.02344
1658.43855,0.02198
1656.37838,0.02219
1654.31821,0.02459
1652.25804,0.02382
1650.19787,0.02087
1648.13769,0.02205
1646.07752,0.02325
1644.01735,0.02171
1641.95718,0.02087
1639.89701,0.02129
1637.83683,0.02309
1635.77666,0.02528
1633.71649,0.02472
1631.65632,0.02397
1629.59614,0.02486
1627.53597,0.02559
1625.47580,0.02603
1623.41563,0.02642
1621.35546,0.02552
1619.29528,0.02582
1617.23511,0.02784
1615.17494,0.02786
1613.11477,0.02725
1611.05460,0.02831
1608.99442,0.02991
1606.93425,0.03095
1604.87408,0.03135
1602.81391,0.03099
1600.75373,0.02984
1598.69356,0.02847
1596.63339,0.02724
1594.57322,0.02596
1592.51305,0.02480
1590.45287,0.02411
1588.39270,0.02359
1586.33253,0.02292
1584.27236,0.02201
1582.21219,0.02080
1580.15201,0.01980
1578.09184,0.02034
1576.03167,0.02085
1573.97150,0.01896
1571.91133,0.01820
1569.85115,0.01884
1567.79098,0.01764
1565.73081,0.01589
1563.67064,0.01423
1561.61046,0.01431
1559.55029,0.01635
1557.49012,0.01410
1555.42995,0.01140
1553.36978,0.01091
1551.30960,0.01094
1549.24943,0.01045
1547.18926,0.00960
1545.12909,0.00963
1543.06892,0.01013
1541.00874,0.01082
1538.94857,0.00893
1536.88840,0.00579
1534.82823,0.00602
1532.76805,0.00674
1530.70788,0.00566
1528.64771,0.00548
1526.58754,0.00560
1524.52737,0.00536
1522.46719,0.00651
1520.40702,0.00742
1518.34685,0.00820
1516.28668,0.00965
1514.22651,0.00964
1512.16633,0.00876
1510.10616,0.00857
1508.04599,0.00977
1505.98582,0.00829
1503.92565,0.00420
1501.86547,0.00251
1499.80530,0.00296
1497.74513,0.00318
1495.68496,0.00172
1493.62478,0.00017
1491.56461,0.00086
1489.50444,0.00177
1487.44427,0.00084
1485.38410,-0.00017
1483.32392,0.00002
1481.26375,0.00062
1479.20358,0.00078
1477.14341,0.00147
1475.08324,0.00338
1473.02306,0.00602
1470.96289,0.00713
1468.90272,0.00763
1466.84255,0.00980
1464.78238,0.01185
1462.72220,0.01174
1460.66203,0.01227
1458.60186,0.01530
1456.54169,0.01703
1454.48151,0.01561
1452.42134,0.01520
1450.36117,0.01651
1448.30100,0.01806
1446.24083,0.01871
1444.18065,0.01898
1442.12048,0.01943
1440.06031,0.02024
1438.00014,0.02199
1435.93997,0.02262
1433.87979,0.02147
1431.81962,0.02149
1429.75945,0.02215
1427.69928,0.02199
1425.63910,0.02201
1423.57893,0.02212
1421.51876,0.02245
1419.45859,0.02356
1417.39842,0.02336
1415.33824,0.02235
1413.27807,0.02196
1411.21790,0.02166
1409.15773,0.02099
1407.09756,0.02054
1405.03738,0.02006
1402.97721,0.01889
1400.91704,0.01828
1398.85687,0.01828
1396.79670,0.01807
1394.73652,0.01779
1392.67635,0.01688
1390.61618,0.01654
1388.55601,0.01750
1386.49583,0.01808
1384.43566,0.01791
1382.37549,0.01818
1380.31532,0.01881
1378.25515,0.01936
1376.19497,0.02010
1374.13480,0.02081
1372.07463,0.02081
1370.01446,0.02081
1367.95429,0.02050
1365.89411,0.01976
1363.83394,0.01974
1361.77377,0.01973
1359.71360,0.01907
1357.65343,0.01872
1355.59325,0.01874
1353.53308,0.01865
1351.47291,0.01850
1349.41274,0.01842
1347.35256,0.01838
1345.29239,0.01821
1343.23222,0.01791
1341.17205,0.01793
1339.11188,0.01799
1337.05170,0.01758
1334.99153,0.01735
1332.93136,0.01762
1330.87119,0.01799
1328.81102,0.01813
1326.75084,0.01815
1324.69067,0.01815
1322.63050,0.01818
1320.57033,0.01836
1318.51015,0.01840
1316.44998,0.01801
1314.38981,0.01764
1312.32964,0.01738
1310.26947,0.01707
1308.20929,0.01681
1306.14912,0.01642
1304.08895,0.01589
1302.02878,0.01536
1299.96861,0.01475
1297.90843,0.01411
1295.84826,0.01375
1293.78809,0.01387
1291.72792,0.01428
1289.66775,0.01477
1287.60757,0.01506
1285.54740,0.01497
1283.48723,0.01492
1281.42706,0.01524
1279.36688,0.01570
1277.30671,0.01599
1275.24654,0.01605
1273.18637,0.01610
1271.12620,0.01640
1269.06602,0.01682
1267.00585,0.01716
1264.94568,0.01758
1262.88551,0.01845
1260.82534,0.01954
1258.76516,0.02026
1256.70499,0.02059
1254.64482,0.02084
1252.58465,0.02123
1250.52447,0.02171
1248.46430,0.02198
1246.40413,0.02209
1244.34396,0.02234
1242.28379,0.02259
1240.22361,0.02267
1238.16344,0.02254
1236.10327,0.02221
1234.04310,0.02179
1231.98293,0.02122
1229.92275,0.02064
1227.86258,0.02003
1225.80241,0.01914
1223.74224,0.01810
1221.68207,0.01699
1219.62189,0.01570
1217.56172,0.01448
1215.50155,0.01351
1213.44138,0.01262
1211.38120,0.01161
1209.32103,0.01050
1207.26086,0.00927
1205.20069,0.00806
1203.14052,0.00684
1201.08034,0.00531
1199.02017,0.00366
1196.96000,0.00258
1194.89983,0.00211
1192.83966,0.00159
1190.77948,0.00076
1188.71931,0.00017
1186.65914,0.00000
1184.59897,-0.00013
1182.53880,-0.00029
1180.47862,-0.00013
1178.41845,0.00069
1176.35828,0.00202
1174.29811,0.00372
1172.23793,0.00575
1170.17776,0.00762
1168.11759,0.00898
1166.05742,0.00997
1163.99725,0.01075
1161.93707,0.01142
1159.87690,0.01207
1157.81673,0.01252
1155.75656,0.01278
1153.69639,0.01328
1151.63621,0.01410
1149.57604,0.01504
1147.51587,0.01612
1145.45570,0.01720
1143.39552,0.01802
1141.33535,0.01881
1139.27518,0.01959
1137.21501,0.02001
1135.15484,0.02032
1133.09466,0.02077
1131.03449,0.02137
1128.97432,0.02229
1126.91415,0.02349
1124.85398,0.02468
1122.79380,0.02565
1120.73363,0.02648
1118.67346,0.02735
1116.61329,0.02829
1114.55312,0.02923
1112.49294,0.03028
1110.43277,0.03144
1108.37260,0.03243
1106.31243,0.03319
1104.25225,0.03403
1102.19208,0.03513
1100.13191,0.03638
1098.07174,0.03795
1096.01157,0.03993
1093.95139,0.04170
1091.89122,0.04293
1089.83105,0.04419
1087.77088,0.04581
1085.71071,0.04755
1083.65053,0.04918
1081.59036,0.05056
1079.53019,0.05215
1077.47002,0.05426
1075.40985,0.05648
1073.34967,0.05842
1071.28950,0.06013
1069.22933,0.06154
1067.16916,0.06268
1065.10898,0.06396
1063.04881,0.06529
1060.98864,0.06628
1058.92847,0.06710
1056.86830,0.06820
1054.80812,0.06992
1052.74795,0.07190
1050.68778,0.07388
1048.62761,0.07577
1046.56744,0.07732
1044.50726,0.07874
1042.44709,0.08063
1040.38692,0.08306
1038.32675,0.08526
1036.26657,0.08645
1034.20640,0.08691
1032.14623,0.08719
1030.08606,0.08748
1028.02589,0.08770
1025.96571,0.08753
1023.90554,0.08692
1021.84537,0.08627
1019.78520,0.08567
1017.72503,0.08507
1015.66485,0.08483
1013.60468,0.08519
1011.54451,0.08572
1009.48434,0.08590
1007.42417,0.08571
1005.36399,0.08538
1003.30382,0.08477
1001.24365,0.08407
999.18348,0.08362
997.12330,0.08288
995.06313,0.08133
993.00296,0.07942
990.94279,0.07792
988.88262,0.07707
986.82244,0.07631
984.76227,0.07514
982.70210,0.07383
980.64193,0.07271
978.58176,0.07153
976.52158,0.07020
974.46141,0.06868
972.40124,0.06715
970.34107,0.06603
968.28089,0.06510
966.22072,0.06383
964.16055,0.06202
962.10038,0.06006
960.04021,0.05869
957.98003,0.05784
955.91986,0.05675
953.85969,0.05554
951.79952,0.05465
949.73935,0.05350
947.67917,0.05180
945.61900,0.05036
943.55883,0.04890
941.49866,0.04653
939.43849,0.04392
937.37831,0.04161
935.31814,0.03912
933.25797,0.03643
931.19780,0.03406
929.13762,0.03220
927.07745,0.03043
925.01728,0.02844
922.95711,0.02615
920.89694,0.02402
918.83676,0.02267
916.77659,0.02192
914.71642,0.02093
912.65625,0.01936
910.59608,0.01776
908.53590,0.01650
906.47573,0.01555
904.41556,0.01479
902.35539,0.01450
900.29522,0.01488
898.23504,0.01525
896.17487,0.01496
894.11470,0.01440
892.05453,0.01419
889.99435,0.01436
887.93418,0.01460
885.87401,0.01420
883.81384,0.01306
881.75367,0.01182
879.69349,0.01074
877.63332,0.00986
875.57315,0.00918
873.51298,0.00851
871.45281,0.00782
869.39263,0.00715
867.33246,0.00669
865.27229,0.00676
863.21212,0.00707
861.15194,0.00709
859.09177,0.00681
857.03160,0.00644
854.97143,0.00644
852.91126,0.00681
850.85108,0.00686
848.79091,0.00628
846.73074,0.00552
844.67057,0.00512
842.61040,0.00513
840.55022,0.00545
838.49005,0.00566
836.42988,0.00574
834.36971,0.00571
832.30954,0.00512
830.24936,0.00430
828.18919,0.00366
826.12902,0.00329
824.06885,0.00345
822.00867,0.00331
819.94850,0.00216
817.88833,0.00100
815.82816,0.00055
813.76799,0.00049
811.70781,0.00116
809.64764,0.00243
807.58747,0.00358
805.52730,0.00388
803.46713,0.00253
801.40695,0.00065
799.34678,0.00004
797.28661,0.00056
795.22644,0.00134
793.16627,0.00176
791.10609,0.00168
789.04592,0.00173
786.98575,0.00201
784.92558,0.00214
782.86540,0.00194
780.80523,0.00159
778.74506,0.00169
776.68489,0.00186
774.62472,0.00124
772.56454,0.00080
770.50437,0.00133
768.44420,0.00203
766.38403,0.00237
764.32386,0.00217
762.26368,0.00217
760.20351,0.00336
758.14334,0.00481
756.08317,0.00526
754.02299,0.00434
751.96282,0.00265
749.90265,0.00143
747.84248,0.00089
745.78231,0.00094
743.72213,0.00121
741.66196,0.00066
739.60179,0.00000
737.54162,0.00060
735.48145,0.00170
733.42127,0.00189
731.36110,0.00197
729.30093,0.00254
727.24076,0.00278
725.18059,0.00252
723.12041,0.00311
721.06024,0.00545
719.00007,0.00660
716.93990,0.00605
714.87972,0.00455
712.81955,0.00268
710.75938,0.00212
708.69921,0.00376
706.63904,0.00586
704.57886,0.00654
702.51869,0.00647
700.45852,0.00680
698.39835,0.00764
696.33818,0.00866
694.27800,0.00966
692.21783,0.01049
690.15766,0.01028
688.09749,0.00846
686.03731,0.00614
683.97714,0.00407
681.91697,0.00234
679.85680,0.00184
677.79663,0.00265
675.73645,0.00345
673.67628,0.00233
671.61611,0.00000
669.55594,0.00448
667.49577,0.00770
665.43559,-0.00054
663.37542,0.00071
661.31525,0.00417
659.25508,0.00614
657.19491,0.00613
655.13473,0.00401
653.07456,0.00243
651.01439,0.00372
648.95422,0.00641
646.89404,0.00763
644.83387,0.00742
642.77370,0.00771
640.71353,0.00974
638.65336,0.01020
636.59318,0.00708
634.53301,0.00415
632.47284,0.00382
630.41267,0.00473
628.35250,0.00574
626.29232,0.00606
624.23215,0.00581
622.17198,0.00596
620.11181,0.00540
618.05164,0.00361
615.99146,0.00374
613.93129,0.00844
611.87112,0.01370
609.81095,0.01397
607.75077,0.01153
605.69060,0.00956
603.63043,0.00760
601.57026,0.00414
599.51009,0.00000
