3996.73391,0.00056
3994.67373,0.00005
3992.61356,0.00013
3990.55339,0.00049
3988.49322,0.00067
3986.43305,0.00074
3984.37287,0.00054
3982.31270,0.00010
3980.25253,-0.00010
3978.19236,0.00025
3976.13219,0.00066
3974.07201,0.00055
3972.01184,0.00012
3969.95167,-0.00004
3967.89150,0.00016
3965.83133,0.00022
3963.77115,0.00008
3961.71098,0.00023
3959.65081,0.00046
3957.59064,0.00028
3955.53046,0.00000
3953.47029,0.00016
3951.41012,0.00051
3949.34995,0.00058
3947.28978,0.00057
3945.22960,0.00086
3943.16943,0.00138
3941.10926,0.00176
3939.04909,0.00173
3936.98892,0.00148
3934.92874,0.00125
3932.86857,0.00100
3930.80840,0.00075
3928.74823,0.00067
3926.68805,0.00088
3924.62788,0.00131
3922.56771,0.00155
3920.50754,0.00135
3918.44737,0.00083
3916.38719,0.00023
3914.32702,0.00000
3912.26685,0.00027
3910.20668,0.00064
3908.14651,0.00075
3906.08633,0.00068
3904.02616,0.00064
3901.96599,0.00088
3899.90582,0.00122
3897.84565,0.00124
3895.78547,0.00089
3893.72530,0.00043
3891.66513,0.00016
3889.60496,0.00032
3887.54478,0.00070
3885.48461,0.00097
3883.42444,0.00113
3881.36427,0.00143
3879.30410,0.00167
3877.24392,0.00147
3875.18375,0.00118
3873.12358,0.00129
3871.06341,0.00170
3869.00324,0.00184
3866.94306,0.00157
3864.88289,0.00145
3862.82272,0.00158
3860.76255,0.00149
3858.70237,0.00121
3856.64220,0.00098
3854.58203,0.00101
3852.52186,0.00141
3850.46169,0.00172
3848.40151,0.00165
3846.34134,0.00130
3844.28117,0.00077
3842.22100,0.00045
3840.16083,0.00078
3838.10065,0.00119
3836.04048,0.00090
3833.98031,0.00036
3831.92014,0.00019
3829.85997,0.00038
3827.79979,0.00069
3825.73962,0.00119
3823.67945,0.00193
3821.61928,0.00246
3819.55910,0.00237
3817.49893,0.00212
3815.43876,0.00219
3813.37859,0.00214
3811.31842,0.00151
3809.25824,0.00081
3807.19807,0.00083
3805.13790,0.00120
3803.07773,0.00099
3801.01756,0.00060
3798.95738,0.00078
3796.89721,0.00129
3794.83704,0.00168
3792.77687,0.00184
3790.71670,0.00166
3788.65652,0.00113
3786.59635,0.00054
3784.53618,0.00029
3782.47601,0.00038
3780.41583,0.00059
3778.35566,0.00078
3776.29549,0.00070
3774.23532,0.00034
3772.17515,0.00010
3770.11497,0.00005
3768.05480,0.00008
3765.99463,0.00014
3763.93446,0.00022
3761.87429,0.00036
3759.81411,0.00049
3757.75394,0.00045
3755.69377,0.00040
3753.63360,0.00058
3751.57342,0.00081
3749.51325,0.00086
3747.45308,0.00093
3745.39291,0.00123
3743.33274,0.00192
3741.27256,0.00241
3739.21239,0.00226
3737.15222,0.00188
3735.09205,0.00162
3733.03188,0.00131
3730.97170,0.00091
3728.91153,0.00087
3726.85136,0.00134
3724.79119,0.00180
3722.73102,0.00161
3720.67084,0.00099
3718.61067,0.00079
3716.55050,0.00083
3714.49033,0.00074
3712.43015,0.00059
3710.36998,0.00049
3708.30981,0.00065
3706.24964,0.00084
3704.18947,0.00110
3702.12929,0.00133
3700.06912,0.00130
3698.00895,0.00115
3695.94878,0.00081
3693.88861,0.00027
3691.82843,0.00000
3689.76826,0.00048
3687.70809,0.00113
3685.64792,0.00126
3683.58775,0.00105
3681.52757,0.00093
3679.46740,0.00113
3677.40723,0.00172
3675.34706,0.00218
3673.28688,0.00227
3671.22671,0.00241
3669.16654,0.00220
3667.10637,0.00149
3665.04620,0.00098
3662.98602,0.00085
3660.92585,0.00086
3658.86568,0.00100
3656.80551,0.00137
3654.74534,0.00180
3652.68516,0.00203
3650.62499,0.00193
3648.56482,0.00164
3646.50465,0.00168
3644.44447,0.00183
3642.38430,0.00174
3640.32413,0.00168
3638.26396,0.00174
3636.20379,0.00183
3634.14361,0.00212
3632.08344,0.00259
3630.02327,0.00302
3627.96310,0.00320
3625.90293,0.00320
3623.84275,0.00345
3621.78258,0.00407
3619.72241,0.00471
3617.66224,0.00488
3615.60207,0.00466
3613.54189,0.00428
3611.48172,0.00428
3609.42155,0.00481
3607.36138,0.00549
3605.30120,0.00599
3603.24103,0.00612
3601.18086,0.00589
3599.12069,0.00556
3597.06052,0.00560
3595.00034,0.00578
3592.94017,0.00580
3590.88000,0.00584
3588.81983,0.00640
3586.75966,0.00716
3584.69948,0.00743
3582.63931,0.00718
3580.57914,0.00692
3578.51897,0.00700
3576.45879,0.00726
3574.39862,0.00749
3572.33845,0.00787
3570.27828,0.00844
3568.21811,0.00881
3566.15793,0.00910
3564.09776,0.00967
3562.03759,0.01000
3559.97742,0.00989
3557.91725,0.00994
3555.85707,0.01025
3553.79690,0.01032
3551.73673,0.01025
3549.67656,0.01052
3547.61639,0.01133
3545.55621,0.01246
3543.49604,0.01306
3541.43587,0.01277
3539.37570,0.01251
3537.31552,0.01300
3535.25535,0.01383
3533.19518,0.01454
3531.13501,0.01502
3529.07484,0.01504
3527.01466,0.01485
3524.95449,0.01493
3522.89432,0.01521
3520.83415,0.01567
3518.77398,0.01639
3516.71380,0.01692
3514.65363,0.01709
3512.59346,0.01734
3510.53329,0.01778
3508.47312,0.01820
3506.41294,0.01830
3504.35277,0.01804
3502.29260,0.01793
3500.23243,0.01819
3498.17225,0.01847
3496.11208,0.01872
3494.05191,0.01939
3491.99174,0.02049
3489.93157,0.02122
3487.87139,0.02128
3485.81122,0.02118
3483.75105,0.02125
3481.69088,0.02154
3479.63071,0.02202
3477.57053,0.02234
3475.51036,0.02243
3473.45019,0.02282
3471.39002,0.02344
3469.32984,0.02388
3467.26967,0.02412
3465.20950,0.02431
3463.14933,0.02472
3461.08916,0.02555
3459.02898,0.02646
3456.96881,0.02686
3454.90864,0.02679
3452.84847,0.02654
3450.78830,0.02632
3448.72812,0.02655
3446.66795,0.02724
3444.60778,0.02780
3442.54761,0.02809
3440.48744,0.02805
3438.42726,0.02769
3436.36709,0.02766
3434.30692,0.02814
3432.24675,0.02866
3430.18657,0.02913
3428.12640,0.02976
3426.06623,0.03044
3424.00606,0.03081
3421.94589,0.03068
3419.88571,0.03059
3417.82554,0.03074
3415.76537,0.03099
3413.70520,0.03145
3411.64503,0.03164
3409.58485,0.03149
3407.52468,0.03184
3405.46451,0.03261
3403.40434,0.03303
3401.34416,0.03290
3399.28399,0.03281
3397.22382,0.03319
3395.16365,0.03373
3393.10348,0.03399
3391.04330,0.03384
3388.98313,0.03352
3386.92296,0.03351
3384.86279,0.03397
3382.80262,0.03467
3380.74244,0.03505
3378.68227,0.03501
3376.62210,0.03510
3374.56193,0.03533
3372.50176,0.03548
3370.44158,0.03583
3368.38141,0.03637
3366.32124,0.03653
3364.26107,0.03639
3362.20089,0.03652
3360.14072,0.03653
3358.08055,0.03612
3356.02038,0.03620
3353.96021,0.03710
3351.90003,0.03783
3349.83986,0.03784
3347.77969,0.03762
3345.71952,0.03756
3343.65935,0.03758
3341.59917,0.03758
3339.53900,0.03768
3337.47883,0.03788
3335.41866,0.03813
3333.35849,0.03835
3331.29831,0.03833
3329.23814,0.03805
3327.17797,0.03777
3325.11780,0.03768
3323.05762,0.03778
3320.99745,0.03791
3318.93728,0.03816
3316.87711,0.03848
3314.81694,0.03840
3312.75676,0.03796
3310.69659,0.03797
3308.63642,0.03843
3306.57625,0.03860
3304.51608,0.03840
3302.45590,0.03830
3300.39573,0.03844
3298.33556,0.03864
3296.27539,0.03882
3294.21521,0.03896
3292.15504,0.03898
3290.09487,0.03890
3288.03470,0.03885
3285.97453,0.03864
3283.91435,0.03831
3281.85418,0.03840
3279.79401,0.03881
3277.73384,0.03896
3275.67367,0.03889
3273.61349,0.03897
3271.55332,0.03902
3269.49315,0.03890
3267.43298,0.03865
3265.37281,0.03824
3263.31263,0.03786
3261.25246,0.03778
3259.19229,0.03794
3257.13212,0.03815
3255.07194,0.03837
3253.01177,0.03846
3250.95160,0.03822
3248.89143,0.03786
3246.83126,0.03757
3244.77108,0.03738
3242.71091,0.03753
3240.65074,0.03800
3238.59057,0.03820
3236.53040,0.03793
3234.47022,0.03766
3232.41005,0.03738
3230.34988,0.03696
3228.28971,0.03689
3226.22954,0.03690
3224.16936,0.03660
3222.10919,0.03653
3220.04902,0.03675
3217.98885,0.03681
3215.92867,0.03679
3213.86850,0.03656
3211.80833,0.03610
3209.74816,0.03590
3207.68799,0.03603
3205.62781,0.03586
3203.56764,0.03515
3201.50747,0.03462
3199.44730,0.03463
3197.38713,0.03460
3195.32695,0.03441
3193.26678,0.03425
3191.20661,0.03387
3189.14644,0.03342
3187.08626,0.03338
3185.02609,0.03356
3182.96592,0.03365
3180.90575,0.03367
3178.84558,0.03347
3176.78540,0.03292
3174.72523,0.03226
3172.66506,0.03216
3170.60489,0.03283
3168.54472,0.03346
3166.48454,0.03319
3164.42437,0.03234
3162.36420,0.03172
3160.30403,0.03156
3158.24386,0.03165
3156.18368,0.03155
3154.12351,0.03100
3152.06334,0.03030
3150.00317,0.02995
3147.94299,0.02998
3145.88282,0.03003
3143.82265,0.02989
3141.76248,0.02971
3139.70231,0.02956
3137.64213,0.02939
3135.58196,0.02909
3133.52179,0.02869
3131.46162,0.02832
3129.40145,0.02805
3127.34127,0.02798
3125.28110,0.02800
3123.22093,0.02777
3121.16076,0.02740
3119.10058,0.02730
3117.04041,0.02753
3114.98024,0.02767
3112.92007,0.02729
3110.85990,0.02666
3108.79972,0.02622
3106.73955,0.02590
3104.67938,0.02567
3102.61921,0.02557
3100.55904,0.02544
3098.49886,0.02514
3096.43869,0.02485
3094.37852,0.02471
3092.31835,0.02456
3090.25818,0.02436
3088.19800,0.02434
3086.13783,0.02450
3084.07766,0.02459
3082.01749,0.02427
3079.95731,0.02355
3077.89714,0.02293
3075.83697,0.02265
3073.77680,0.02251
3071.71663,0.02237
3069.65645,0.02232
3067.59628,0.02252
3065.53611,0.02291
3063.47594,0.02316
3061.41577,0.02292
3059.35559,0.02230
3057.29542,0.02194
3055.23525,0.02201
3053.17508,0.02200
3051.11491,0.02163
3049.05473,0.02109
3046.99456,0.02063
3044.93439,0.02047
3042.87422,0.02039
3040.81404,0.01988
3038.75387,0.01927
3036.69370,0.01928
3034.63353,0.01961
3032.57336,0.01953
3030.51318,0.01906
3028.45301,0.01866
3026.39284,0.01865
3024.33267,0.01884
3022.27250,0.01884
3020.21232,0.01849
3018.15215,0.01803
3016.09198,0.01784
3014.03181,0.01805
3011.97163,0.01821
3009.91146,0.01814
3007.85129,0.01836
3005.79112,0.01878
3003.73095,0.01863
3001.67077,0.01801
2999.61060,0.01744
2997.55043,0.01696
2995.49026,0.01678
2993.43009,0.01707
2991.36991,0.01741
2989.30974,0.01730
2987.24957,0.01703
2985.18940,0.01707
2983.12923,0.01741
2981.06905,0.01784
2979.00888,0.01805
2976.94871,0.01820
2974.88854,0.01869
2972.82836,0.01921
2970.76819,0.01984
2968.70802,0.02091
2966.64785,0.02202
2964.58768,0.02301
2962.52750,0.02397
2960.46733,0.02489
2958.40716,0.02587
2956.34699,0.02680
2954.28682,0.02787
2952.22664,0.02919
2950.16647,0.03041
2948.10630,0.03173
2946.04613,0.03344
2943.98596,0.03524
2941.92578,0.03703
2939.86561,0.03873
2937.80544,0.04021
2935.74527,0.04173
2933.68509,0.04334
2931.62492,0.04488
2929.56475,0.04648
2927.50458,0.04792
2925.44441,0.04908
2923.38423,0.05006
2921.32406,0.05037
2919.26389,0.04999
2917.20372,0.04938
2915.14355,0.04829
2913.08337,0.04646
2911.02320,0.04434
2908.96303,0.04261
2906.90286,0.04133
2904.84268,0.04022
2902.78251,0.03910
2900.72234,0.03779
2898.66217,0.03649
2896.60200,0.03543
2894.54182,0.03455
2892.48165,0.03391
2890.42148,0.03358
2888.36131,0.03320
2886.30114,0.03250
2884.24096,0.03186
2882.18079,0.03145
2880.12062,0.03100
2878.06045,0.03070
2876.00028,0.03084
2873.94010,0.03114
2871.87993,0.03140
2869.81976,0.03165
2867.75959,0.03177
2865.69941,0.03199
2863.63924,0.03274
2861.57907,0.03396
2859.51890,0.03533
2857.45873,0.03665
2855.39855,0.03782
2853.33838,0.03879
2851.27821,0.03919
2849.21804,0.03839
2847.15787,0.03640
2845.09769,0.03402
2843.03752,0.03196
2840.97735,0.03026
2838.91718,0.02877
2836.85700,0.02750
2834.79683,0.02630
2832.73666,0.02513
2830.67649,0.02431
2828.61632,0.02385
2826.55614,0.02347
2824.49597,0.02309
2822.43580,0.02269
2820.37563,0.02207
2818.31546,0.02129
2816.25528,0.02069
2814.19511,0.02052
2812.13494,0.02064
2810.07477,0.02063
2808.01460,0.02042
2805.95442,0.02021
2803.89425,0.01971
2801.83408,0.01903
2799.77391,0.01876
2797.71373,0.01881
2795.65356,0.01870
2793.59339,0.01849
2791.53322,0.01844
2789.47305,0.01842
2787.41287,0.01829
2785.35270,0.01809
2783.29253,0.01786
2781.23236,0.01777
2779.17219,0.01787
2777.11201,0.01801
2775.05184,0.01779
2772.99167,0.01724
2770.93150,0.01687
2768.87133,0.01681
2766.81115,0.01692
2764.75098,0.01707
2762.69081,0.01701
2760.63064,0.01687
2758.57046,0.01684
2756.51029,0.01681
2754.45012,0.01674
2752.38995,0.01654
2750.32978,0.01622
2748.26960,0.01619
2746.20943,0.01640
2744.14926,0.01642
2742.08909,0.01628
2740.02892,0.01637
2737.96874,0.01659
2735.90857,0.01651
2733.84840,0.01615
2731.78823,0.01578
2729.72805,0.01555
2727.66788,0.01559
2725.60771,0.01576
2723.54754,0.01576
2721.48737,0.01563
2719.42719,0.01555
2717.36702,0.01544
2715.30685,0.01521
2713.24668,0.01506
2711.18651,0.01508
2709.12633,0.01512
2707.06616,0.01524
2705.00599,0.01555
2702.94582,0.01583
2700.88565,0.01570
2698.82547,0.01521
2696.76530,0.01495
2694.70513,0.01495
2692.64496,0.01483
2690.58478,0.01483
2688.52461,0.01505
2686.46444,0.01522
2684.40427,0.01520
2682.34410,0.01520
2680.28392,0.01527
2678.22375,0.01527
2676.16358,0.01520
2674.10341,0.01511
2672.04324,0.01500
2669.98306,0.01477
2667.92289,0.01451
2665.86272,0.01447
2663.80255,0.01470
2661.74238,0.01491
2659.68220,0.01481
2657.62203,0.01458
2655.56186,0.01445
2653.50169,0.01429
2651.44151,0.01406
2649.38134,0.01399
2647.32117,0.01418
2645.26100,0.01420
2643.20083,0.01388
2641.14065,0.01352
2639.08048,0.01330
2637.02031,0.01324
2634.96014,0.01315
2632.89997,0.01290
2630.83979,0.01289
2628.77962,0.01312
2626.71945,0.01317
2624.65928,0.01311
2622.59910,0.01316
2620.53893,0.01315
2618.47876,0.01303
2616.41859,0.01316
2614.35842,0.01339
2612.29824,0.01327
2610.23807,0.01293
2608.17790,0.01272
2606.11773,0.01273
2604.05756,0.01266
2601.99738,0.01244
2599.93721,0.01232
2597.87704,0.01214
2595.81687,0.01168
2593.75670,0.01113
2591.69652,0.01099
2589.63635,0.01136
2587.57618,0.01196
2585.51601,0.01232
2583.45583,0.01208
2581.39566,0.01171
2579.33549,0.01173
2577.27532,0.01176
2575.21515,0.01138
2573.15497,0.01101
2571.09480,0.01101
2569.03463,0.01097
2566.97446,0.01091
2564.91429,0.01117
2562.85411,0.01130
2560.79394,0.01095
2558.73377,0.01057
2556.67360,0.01050
2554.61342,0.01072
2552.55325,0.01110
2550.49308,0.01130
2548.43291,0.01149
2546.37274,0.01184
2544.31256,0.01171
2542.25239,0.01117
2540.19222,0.01112
2538.13205,0.01147
2536.07188,0.01129
2534.01170,0.01051
2531.95153,0.00959
2529.89136,0.00892
2527.83119,0.00902
2525.77102,0.00961
2523.71084,0.00984
2521.65067,0.00972
2519.59050,0.00972
2517.53033,0.01002
2515.47015,0.01039
2513.40998,0.01026
2511.34981,0.00997
2509.28964,0.01019
2507.22947,0.01079
2505.16929,0.01101
2503.10912,0.01026
2501.04895,0.00935
2498.98878,0.00936
2496.92861,0.00992
2494.86843,0.01011
2492.80826,0.00996
2490.74809,0.00997
2488.68792,0.00993
2486.62775,0.00965
2484.56757,0.00960
2482.50740,0.00990
2480.44723,0.01004
2478.38706,0.00970
2476.32688,0.00942
2474.26671,0.00921
2472.20654,0.00880
2470.14637,0.00876
2468.08620,0.00912
2466.02602,0.00947
2463.96585,0.00974
2461.90568,0.00981
2459.84551,0.00959
2457.78534,0.00919
2455.72516,0.00897
2453.66499,0.00914
2451.60482,0.00942
2449.54465,0.00942
2447.48447,0.00903
2445.42430,0.00864
2443.36413,0.00862
2441.30396,0.00866
2439.24379,0.00841
2437.18361,0.00822
2435.12344,0.00843
2433.06327,0.00850
2431.00310,0.00829
2428.94293,0.00829
2426.88275,0.00836
2424.82258,0.00819
2422.76241,0.00822
2420.70224,0.00864
2418.64207,0.00880
2416.58189,0.00886
2414.52172,0.00882
2412.46155,0.00824
2410.40138,0.00789
2408.34120,0.00823
2406.28103,0.00860
2404.22086,0.00854
2402.16069,0.00807
2400.10052,0.00772
2398.04034,0.00788
2395.98017,0.00797
2393.92000,0.00765
2391.85983,0.00721
2389.79966,0.00713
2387.73948,0.00744
2385.67931,0.00767
2383.61914,0.00786
2381.55897,0.00822
2379.49880,0.00836
2377.43862,0.00805
2375.37845,0.00820
2373.31828,0.00805
2371.25811,0.00651
2369.19793,0.00519
2367.13776,0.00357
2365.07759,0.00081
2363.01742,0.00150
2360.95725,0.00431
2358.89707,0.00789
2356.83690,0.00939
2354.77673,0.01027
2352.71656,0.01131
2350.65639,0.00788
2348.59621,0.00585
2346.53604,0.01154
2344.47587,0.01322
2342.41570,0.01067
2340.35552,0.00769
2338.29535,0.00626
2336.23518,0.00720
2334.17501,0.00903
2332.11484,0.01080
2330.05466,0.01076
2327.99449,0.00976
2325.93432,0.00805
2323.87415,0.00753
2321.81398,0.00725
2319.75380,0.00773
2317.69363,0.00812
2315.63346,0.00893
2313.57329,0.00937
2311.51312,0.00911
2309.45294,0.00866
2307.39277,0.00819
2305.33260,0.00781
2303.27243,0.00746
2301.21225,0.00734
2299.15208,0.00731
2297.09191,0.00778
2295.03174,0.00868
2292.97157,0.00929
2290.91139,0.00931
2288.85122,0.00895
2286.79105,0.00834
2284.73088,0.00761
2282.67071,0.00718
2280.61053,0.00699
2278.55036,0.00680
2276.49019,0.00708
2274.43002,0.00775
2272.36984,0.00801
2270.30967,0.00783
2268.24950,0.00757
2266.18933,0.00726
2264.12916,0.00737
2262.06898,0.00801
2260.00881,0.00827
2257.94864,0.00754
2255.88847,0.00661
2253.82830,0.00631
2251.76812,0.00628
2249.70795,0.00619
2247.64778,0.00639
2245.58761,0.00707
2243.52744,0.00806
2241.46726,0.00856
2239.40709,0.00785
2237.34692,0.00638
2235.28675,0.00463
2233.22657,0.00369
2231.16640,0.00389
2229.10623,0.00471
2227.04606,0.00612
2224.98589,0.00696
2222.92571,0.00614
2220.86554,0.00514
2218.80537,0.00535
2216.74520,0.00519
2214.68503,0.00404
2212.62485,0.00387
2210.56468,0.00458
2208.50451,0.00433
2206.44434,0.00380
2204.38417,0.00389
2202.32399,0.00345
2200.26382,0.00278
2198.20365,0.00296
2196.14348,0.00370
2194.08330,0.00397
2192.02313,0.00355
2189.96296,0.00374
2187.90279,0.00518
2185.84262,0.00663
2183.78244,0.00621
2181.72227,0.00444
2179.66210,0.00435
2177.60193,0.00620
2175.54176,0.00698
2173.48158,0.00559
2171.42141,0.00446
2169.36124,0.00517
2167.30107,0.00633
2165.24089,0.00755
2163.18072,0.00899
2161.12055,0.00881
2159.06038,0.00643
2157.00021,0.00496
2154.94003,0.00557
2152.87986,0.00499
2150.81969,0.00324
2148.75952,0.00382
2146.69935,0.00603
2144.63917,0.00667
2142.57900,0.00566
2140.51883,0.00464
2138.45866,0.00460
2136.39849,0.00528
2134.33831,0.00551
2132.27814,0.00499
2130.21797,0.00460
2128.15780,0.00500
2126.09762,0.00578
2124.03745,0.00618
2121.97728,0.00606
2119.91711,0.00536
2117.85694,0.00469
2115.79676,0.00521
2113.73659,0.00638
2111.67642,0.00688
2109.61625,0.00665
2107.55608,0.00617
2105.49590,0.00559
2103.43573,0.00524
2101.37556,0.00487
2099.31539,0.00431
2097.25521,0.00432
2095.19504,0.00474
2093.13487,0.00505
2091.07470,0.00523
2089.01453,0.00529
2086.95435,0.00537
2084.89418,0.00545
2082.83401,0.00545
2080.77384,0.00549
2078.71367,0.00573
2076.65349,0.00615
2074.59332,0.00632
2072.53315,0.00613
2070.47298,0.00610
2068.41281,0.00587
2066.35263,0.00528
2064.29246,0.00527
2062.23229,0.00567
2060.17212,0.00557
2058.11194,0.00536
2056.05177,0.00554
2053.99160,0.00589
2051.93143,0.00577
2049.87126,0.00363
2047.81108,0.00050
2045.75091,0.00000
2043.69074,0.00239
2041.63057,0.00401
2039.57040,0.00344
2037.51022,0.00283
2035.45005,0.00401
2033.38988,0.00719
2031.32971,0.00897
2029.26954,0.00658
2027.20936,0.00352
2025.14919,0.00293
2023.08902,0.00336
2021.02885,0.00357
2018.96867,0.00356
2016.90850,0.00360
2014.84833,0.00398
2012.78816,0.00377
2010.72799,0.00268
2008.66781,0.00105
2006.60764,0.00013
2004.54747,0.00143
2002.48730,0.00358
2000.42713,0.00514
1998.36695,0.00606
1996.30678,0.00568
1994.24661,0.00449
1992.18644,0.00433
1990.12626,0.00471
1988.06609,0.00470
1986.00592,0.00470
1983.94575,0.00432
1981.88558,0.00369
1979.82540,0.00320
1977.76523,0.00302
1975.70506,0.00320
1973.64489,0.00290
1971.58472,0.00237
1969.52454,0.00244
1967.46437,0.00233
1965.40420,0.00155
1963.34403,0.00057
1961.28386,0.00000
1959.22368,0.00086
1957.16351,0.00243
1955.10334,0.00259
1953.04317,0.00179
1950.98299,0.00179
1948.92282,0.00231
1946.86265,0.00287
1944.80248,0.00361
1942.74231,0.00399
1940.68213,0.00388
1938.62196,0.00385
1936.56179,0.00408
1934.50162,0.00450
1932.44145,0.00453
1930.38127,0.00376
1928.32110,0.00282
1926.26093,0.00255
1924.20076,0.00315
1922.14059,0.00377
1920.08041,0.00368
1918.02024,0.00344
1915.96007,0.00339
1913.89990,0.00324
1911.83972,0.00304
1909.77955,0.00313
1907.71938,0.00389
1905.65921,0.00501
1903.59904,0.00541
1901.53886,0.00463
1899.47869,0.00368
1897.41852,0.00347
1895.35835,0.00374
1893.29818,0.00373
1891.23800,0.00299
1889.17783,0.00217
1887.11766,0.00223
1885.05749,0.00258
1882.99731,0.00235
1880.93714,0.00206
1878.87697,0.00230
1876.81680,0.00275
1874.75663,0.00295
1872.69645,0.00277
1870.63628,0.00252
1868.57611,0.00273
1866.51594,0.00301
1864.45577,0.00273
1862.39559,0.00223
1860.33542,0.00207
1858.27525,0.00216
1856.21508,0.00235
1854.15491,0.00278
1852.09473,0.00305
1850.03456,0.00267
1847.97439,0.00216
1845.91422,0.00210
1843.85404,0.00225
1841.79387,0.00229
1839.73370,0.00225
1837.67353,0.00203
1835.61336,0.00167
1833.55318,0.00153
1831.49301,0.00179
1829.43284,0.00216
1827.37267,0.00210
1825.31250,0.00164
1823.25232,0.00157
1821.19215,0.00196
1819.13198,0.00218
1817.07181,0.00213
1815.01163,0.00212
1812.95146,0.00211
1810.89129,0.00190
1808.83112,0.00153
1806.77095,0.00126
1804.71077,0.00112
1802.65060,0.00106
1800.59043,0.00112
1798.53026,0.00122
1796.47009,0.00109
1794.40991,0.00068
1792.34974,0.00038
1790.28957,0.00051
1788.22940,0.00082
1786.16923,0.00095
1784.10905,0.00090
1782.04888,0.00066
1779.98871,0.00023
1777.92854,0.00000
1775.86836,-0.00004
1773.80819,0.00010
1771.74802,0.00069
1769.68785,0.00155
1767.62768,0.00209
1765.56750,0.00236
1763.50733,0.00268
1761.44716,0.00306
1759.38699,0.00343
1757.32682,0.00401
1755.26664,0.00514
1753.20647,0.00666
1751.14630,0.00822
1749.08613,0.00952
1747.02596,0.01040
1744.96578,0.01093
1742.90561,0.01132
1740.84544,0.01177
1738.78527,0.01234
1736.72509,0.01284
1734.66492,0.01319
1732.60475,0.01338
1730.54458,0.01335
1728.48441,0.01330
1726.42423,0.01346
1724.36406,0.01366
1722.30389,0.01373
1720.24372,0.01377
1718.18355,0.01393
1716.12337,0.01413
1714.06320,0.01419
1712.00303,0.01413
1709.94286,0.01391
1707.88268,0.01361
1705.82251,0.01341
1703.76234,0.01328
1701.70217,0.01325
1699.64200,0.01339
1697.58182,0.01339
1695.52165,0.01315
1693.46148,0.01336
1691.40131,0.01443
1689.34114,0.01591
1687.28096,0.01719
1685.22079,0.01868
1683.16062,0.02067
1681.10045,0.02226
1679.04028,0.02347
1676.98010,0.02461
1674.91993,0.02542
1672.85976,0.02560
1670.79959,0.02540
1668.73941,0.02520
1666.67924,0.02504
1664.61907,0.02469
1662.55890,0.02418
1660.49873,0.02384
1658.43855,0.02358
1656.37838,0.02314
1654.31821,0.02278
1652.25804,0.02283
1650.19787,0.02300
1648.13769,0.02296
1646.07752,0.02264
1644.01735,0.02231
1641.95718,0.02234
1639.89701,0.02269
1637.83683,0.02323
1635.77666,0.02396
1633.71649,0.02464
1631.65632,0.02496
1629.59614,0.02521
1627.53597,0.02572
1625.47580,0.02628
1623.41563,0.02646
1621.35546,0.02631
1619.29528,0.02631
1617.23511,0.02670
1615.17494,0.02741
1613.11477,0.02816
1611.05460,0.02892
1608.99442,0.02988
1606.93425,0.03087
1604.87408,0.03131
1602.81391,0.03082
1600.75373,0.02969
1598.69356,0.02844
1596.63339,0.02725
1594.57322,0.02608
1592.51305,0.02512
1590.45287,0.02454
1588.39270,0.02410
1586.33253,0.02348
1584.27236,0.02253
1582.21219,0.02146
1580.15201,0.02065
1578.09184,0.02020
1576.03167,0.01996
1573.97150,0.01964
1571.91133,0.01905
1569.85115,0.01826
1567.79098,0.01757
1565.73081,0.01692
1563.67064,0.01601
1561.61046,0.01476
1559.55029,0.01327
1557.49012,0.01227
1555.42995,0.01207
1553.36978,0.01199
1551.30960,0.01173
1549.24943,0.01129
1547.18926,0.01075
1545.12909,0.01013
1543.06892,0.00945
1541.00874,0.00879
1538.94857,0.00811
1536.88840,0.00746
1534.82823,0.00691
1532.76805,0.00649
1530.70788,0.00623
1528.64771,0.00608
1526.58754,0.00604
1524.52737,0.00605
1522.46719,0.00632
1520.40702,0.00728
1518.34685,0.00875
1516.28668,0.01014
1514.22651,0.01076
1512.16633,0.01044
1510.10616,0.00967
1508.04599,0.00849
1505.98582,0.00675
1503.92565,0.00534
1501.86547,0.00447
1499.80530,0.00366
1497.74513,0.00266
1495.68496,0.00173
1493.62478,0.00125
1491.56461,0.00107
1489.50444,0.00091
1487.44427,0.00072
1485.38410,0.00063
1483.32392,0.00077
1481.26375,0.00114
1479.20358,0.00155
1477.14341,0.00202
1475.08324,0.00297
1473.02306,0.00486
1470.96289,0.00714
1468.90272,0.00878
1466.84255,0.01006
1464.78238,0.01155
1462.72220,0.01291
1460.66203,0.01371
1458.60186,0.01425
1456.54169,0.01488
1454.48151,0.01555
1452.42134,0.01613
1450.36117,0.01670
1448.30100,0.01744
1446.24083,0.01837
1444.18065,0.01932
1442.12048,0.02015
1440.06031,0.02088
1438.00014,0.02146
1435.93997,0.02185
1433.87979,0.02198
1431.81962,0.02212
1429.75945,0.02242
1427.69928,0.02266
1425.63910,0.02275
1423.57893,0.02289
1421.51876,0.02318
1419.45859,0.02349
1417.39842,0.02354
1415.33824,0.02322
1413.27807,0.02271
1411.21790,0.02221
1409.15773,0.02168
1407.09756,0.02098
1405.03738,0.02015
1402.97721,0.01940
1400.91704,0.01881
1398.85687,0.01831
1396.79670,0.01785
1394.73652,0.01745
1392.67635,0.01714
1390.61618,0.01708
1388.55601,0.01727
1386.49583,0.01764
1384.43566,0.01814
1382.37549,0.01867
1380.31532,0.01931
1378.25515,0.01995
1376.19497,0.02037
1374.13480,0.02060
1372.07463,0.02080
1370.01446,0.02096
1367.95429,0.02080
1365.89411,0.02030
1363.83394,0.01982
1361.77377,0.01958
1359.71360,0.01946
1357.65343,0.01933
1355.59325,0.01912
1353.53308,0.01889
1351.47291,0.01875
1349.41274,0.01873
1347.35256,0.01880
1345.29239,0.01880
1343.23222,0.01858
1341.17205,0.01830
1339.11188,0.01801
1337.05170,0.01772
1334.99153,0.01762
1332.93136,0.01779
1330.87119,0.01807
1328.81102,0.01827
1326.75084,0.01845
1324.69067,0.01856
1322.63050,0.01849
1320.57033,0.01840
1318.51015,0.01842
1316.44998,0.01841
1314.38981,0.01818
1312.32964,0.01771
1310.26947,0.01716
1308.20929,0.01679
1306.14912,0.01655
1304.08895,0.01620
1302.02878,0.01565
1299.96861,0.01496
1297.90843,0.01438
1295.84826,0.01411
1293.78809,0.01415
1291.72792,0.01443
1289.66775,0.01491
1287.60757,0.01529
1285.54740,0.01534
1283.48723,0.01532
1281.42706,0.01560
1279.36688,0.01608
1277.30671,0.01643
1275.24654,0.01652
1273.18637,0.01647
1271.12620,0.01664
1269.06602,0.01714
1267.00585,0.01765
1264.94568,0.01812
1262.88551,0.01885
1260.82534,0.01976
1258.76516,0.02046
1256.70499,0.02090
1254.64482,0.02122
1252.58465,0.02160
1250.52447,0.02210
1248.46430,0.02244
1246.40413,0.02256
1244.34396,0.02275
1242.28379,0.02302
1240.22361,0.02310
1238.16344,0.02285
1236.10327,0.02238
1234.04310,0.02194
1231.98293,0.02141
1229.92275,0.02068
1227.86258,0.01989
1225.80241,0.01904
1223.74224,0.01817
1221.68207,0.01730
1219.62189,0.01624
1217.56172,0.01505
1215.50155,0.01394
1213.44138,0.01299
1211.38120,0.01212
1209.32103,0.01116
1207.26086,0.00994
1205.20069,0.00855
1203.14052,0.00712
1201.08034,0.00544
1199.02017,0.00376
1196.96000,0.00270
1194.89983,0.00226
1192.83966,0.00184
1190.77948,0.00113
1188.71931,0.00054
1186.65914,0.00032
1184.59897,0.00018
1182.53880,0.00000
1180.47862,0.00012
1178.41845,0.00089
1176.35828,0.00206
1174.29811,0.00364
1172.23793,0.00574
1170.17776,0.00783
1168.11759,0.00933
1166.05742,0.01026
1163.99725,0.01095
1161.93707,0.01151
1159.87690,0.01196
1157.81673,0.01233
1155.75656,0.01279
1153.69639,0.01362
1151.63621,0.01460
1149.57604,0.01548
1147.51587,0.01638
1145.45570,0.01739
1143.39552,0.01828
1141.33535,0.01903
1139.27518,0.01971
1137.21501,0.02020
1135.15484,0.02066
1133.09466,0.02107
1131.03449,0.02146
1128.97432,0.02227
1126.91415,0.02363
1124.85398,0.02496
1122.79380,0.02583
1120.73363,0.02650
1118.67346,0.02740
1116.61329,0.02852
1114.55312,0.02961
1112.49294,0.03075
1110.43277,0.03188
1108.37260,0.03280
1106.31243,0.03359
1104.25225,0.03442
1102.19208,0.03546
1100.13191,0.03667
1098.07174,0.03814
1096.01157,0.03987
1093.95139,0.04144
1091.89122,0.04280
1089.83105,0.04435
1087.77088,0.04611
1085.71071,0.04791
1083.65053,0.04961
1081.59036,0.05113
1079.53019,0.05278
1077.47002,0.05478
1075.40985,0.05689
1073.34967,0.05893
1071.28950,0.06077
1069.22933,0.06222
1067.16916,0.06333
1065.10898,0.06442
1063.04881,0.06555
1060.98864,0.06671
1058.92847,0.06787
1056.86830,0.06907
1054.80812,0.07045
1052.74795,0.07192
1050.68778,0.07371
1048.62761,0.07588
1046.56744,0.07779
1044.50726,0.07961
1042.44709,0.08166
1040.38692,0.08364
1038.32675,0.08541
1036.26657,0.08675
1034.20640,0.08738
1032.14623,0.08754
1030.08606,0.08762
1028.02589,0.08763
1025.96571,0.08741
1023.90554,0.08706
1021.84537,0.08672
1019.78520,0.08635
1017.72503,0.08594
1015.66485,0.08572
1013.60468,0.08602
1011.54451,0.08648
1009.48434,0.08634
1007.42417,0.08581
1005.36399,0.08533
1003.30382,0.08490
1001.24365,0.08461
999.18348,0.08425
997.12330,0.08336
995.06313,0.08175
993.00296,0.07973
990.94279,0.07799
988.88262,0.07688
986.82244,0.07604
984.76227,0.07512
982.70210,0.07418
980.64193,0.07309
978.58176,0.07158
976.52158,0.06999
974.46141,0.06865
972.40124,0.06747
970.34107,0.06638
968.28089,0.06535
966.22072,0.06416
964.16055,0.06255
962.10038,0.06068
960.04021,0.05901
957.98003,0.05771
955.91986,0.05640
953.85969,0.05509
951.79952,0.05414
949.73935,0.05315
947.67917,0.05152
945.61900,0.04975
943.55883,0.04813
941.49866,0.04610
939.43849,0.04379
937.37831,0.04154
935.31814,0.03896
933.25797,0.03587
931.19780,0.03307
929.13762,0.03119
927.07745,0.02971
925.01728,0.02799
922.95711,0.02585
920.89694,0.02359
918.83676,0.02188
916.77659,0.02087
914.71642,0.01989
912.65625,0.01853
910.59608,0.01724
908.53590,0.01632
906.47573,0.01569
904.41556,0.01532
902.35539,0.01509
900.29522,0.01485
898.23504,0.01461
896.17487,0.01418
894.11470,0.01372
892.05453,0.01361
889.99435,0.01392
887.93418,0.01408
885.87401,0.01320
883.81384,0.01172
881.75367,0.01080
879.69349,0.01044
877.63332,0.00974
875.57315,0.00861
873.51298,0.00772
871.45281,0.00703
869.39263,0.00634
867.33246,0.00616
865.27229,0.00655
863.21212,0.00674
861.15194,0.00652
859.09177,0.00635
857.03160,0.00633
854.97143,0.00626
852.91126,0.00594
850.85108,0.00543
848.79091,0.00498
846.73074,0.00474
844.67057,0.00460
842.61040,0.00452
840.55022,0.00467
838.49005,0.00461
836.42988,0.00450
834.36971,0.00455
832.30954,0.00415
830.24936,0.00355
828.18919,0.00303
826.12902,0.00256
824.06885,0.00249
822.00867,0.00234
819.94850,0.00150
817.88833,0.00073
815.82816,0.00052
813.76799,0.00069
811.70781,0.00135
809.64764,0.00205
807.58747,0.00256
805.52730,0.00280
803.46713,0.00196
801.40695,0.00059
799.34678,0.00017
797.28661,0.00059
795.22644,0.00081
793.16627,0.00073
791.10609,0.00095
789.04592,0.00157
786.98575,0.00204
784.92558,0.00165
782.86540,0.00074
780.80523,0.00061
778.74506,0.00144
776.68489,0.00167
774.62472,0.00047
772.56454,-0.00058
770.50437,-0.00035
768.44420,0.00026
766.38403,0.00050
764.32386,0.00070
762.26368,0.00152
760.20351,0.00269
758.14334,0.00319
756.08317,0.00294
754.02299,0.00209
751.96282,0.00092
749.90265,0.00020
747.84248,0.00000
745.78231,-0.00004
743.72213,-0.00001
741.66196,-0.00014
739.60179,-0.00028
737.54162,-0.00013
735.48145,0.00035
733.42127,0.00088
731.36110,0.00142
729.30093,0.00233
727.24076,0.00342
725.18059,0.00397
723.12041,0.00445
721.06024,0.00608
719.00007,0.00640
716.93990,0.00511
714.87972,0.00359
712.81955,0.00308
710.75938,0.00398
708.69921,0.00547
706.63904,0.00689
704.57886,0.00809
702.51869,0.00894
700.45852,0.00931
698.39835,0.00945
696.33818,0.00980
694.27800,0.01077
692.21783,0.01226
690.15766,0.01261
688.09749,0.01049
686.03731,0.00824
683.97714,0.00751
681.91697,0.00647
679.85680,0.00473
677.79663,0.00414
675.73645,0.00459
673.67628,0.00314
671.61611,0.00000
669.55594,0.00453
667.49577,0.00974
665.43559,0.00129
663.37542,0.00109
661.31525,0.00246
659.25508,0.00306
657.19491,0.00384
655.13473,0.00424
653.07456,0.00402
651.01439,0.00418
648.95422,0.00546
646.89404,0.00642
644.83387,0.00638
642.77370,0.00640
640.71353,0.00817
638.65336,0.00933
636.59318,0.00774
634.53301,0.00615
632.47284,0.00589
630.41267,0.00520
628.35250,0.00406
626.29232,0.00391
624.23215,0.00575
622.17198,0.00685
620.11181,0.00401
618.05164,-0.00033
615.99146,-0.00149
613.93129,0.00088
611.87112,0.00313
609.81095,0.00419
607.75077,0.00609
605.69060,0.00594
603.63043,0.00148
601.57026,-0.00147
599.51009,0.00000
