3996.73391,0.00101
3994.67373,0.00012
3992.61356,0.00000
3990.55339,0.00058
3988.49322,0.00124
3986.43305,0.00163
3984.37287,0.00161
3982.31270,0.00146
3980.25253,0.00156
3978.19236,0.00177
3976.13219,0.00176
3974.07201,0.00141
3972.01184,0.00094
3969.95167,0.00062
3967.89150,0.00058
3965.83133,0.00045
3963.77115,0.00031
3961.71098,0.00050
3959.65081,0.00067
3957.59064,0.00050
3955.53046,0.00032
3953.47029,0.00049
3951.41012,0.00082
3949.34995,0.00099
3947.28978,0.00104
3945.22960,0.00114
3943.16943,0.00137
3941.10926,0.00156
3939.04909,0.00148
3936.98892,0.00126
3934.92874,0.00107
3932.86857,0.00102
3930.80840,0.00108
3928.74823,0.00120
3926.68805,0.00163
3924.62788,0.00219
3922.56771,0.00234
3920.50754,0.00203
3918.44737,0.00136
3916.38719,0.00046
3914.32702,0.00000
3912.26685,0.00023
3910.20668,0.00060
3908.14651,0.00077
3906.08633,0.00079
3904.02616,0.00079
3901.96599,0.00102
3899.90582,0.00146
3897.84565,0.00160
3895.78547,0.00117
3893.72530,0.00056
3891.66513,0.00021
3889.60496,0.00029
3887.54478,0.00068
3885.48461,0.00127
3883.42444,0.00192
3881.36427,0.00247
3879.30410,0.00260
3877.24392,0.00212
3875.18375,0.00149
3873.12358,0.00126
3871.06341,0.00134
3869.00324,0.00130
3866.94306,0.00112
3864.88289,0.00113
3862.82272,0.00123
3860.76255,0.00112
3858.70237,0.00095
3856.64220,0.00067
3854.58203,0.00031
3852.52186,0.00059
3850.46169,0.00128
3848.40151,0.00138
3846.34134,0.00110
3844.28117,0.00082
3842.22100,0.00076
3840.16083,0.00121
3838.10065,0.00156
3836.04048,0.00114
3833.98031,0.00074
3831.92014,0.00091
3829.85997,0.00120
3827.79979,0.00127
3825.73962,0.00155
3823.67945,0.00247
3821.61928,0.00346
3819.55910,0.00332
3817.49893,0.00244
3815.43876,0.00217
3813.37859,0.00244
3811.31842,0.00240
3809.25824,0.00212
3807.19807,0.00206
3805.13790,0.00207
3803.07773,0.00166
3801.01756,0.00100
3798.95738,0.00084
3796.89721,0.00134
3794.83704,0.00194
3792.77687,0.00218
3790.71670,0.00208
3788.65652,0.00161
3786.59635,0.00076
3784.53618,0.00004
3782.47601,0.00007
3780.41583,0.00081
3778.35566,0.00154
3776.29549,0.00156
3774.23532,0.00111
3772.17515,0.00088
3770.11497,0.00096
3768.05480,0.00083
3765.99463,0.00032
3763.93446,0.00000
3761.87429,0.00012
3759.81411,0.00022
3757.75394,0.00005
3755.69377,0.00000
3753.63360,0.00015
3751.57342,0.00023
3749.51325,0.00030
3747.45308,0.00047
3745.39291,0.00070
3743.33274,0.00107
3741.27256,0.00125
3739.21239,0.00115
3737.15222,0.00134
3735.09205,0.00207
3733.03188,0.00261
3730.97170,0.00230
3728.91153,0.00192
3726.85136,0.00224
3724.79119,0.00294
3722.73102,0.00324
3720.67084,0.00275
3718.61067,0.00203
3716.55050,0.00141
3714.49033,0.00094
3712.43015,0.00076
3710.36998,0.00084
3708.30981,0.00093
3706.24964,0.00085
3704.18947,0.00120
3702.12929,0.00180
3700.06912,0.00186
3698.00895,0.00165
3695.94878,0.00139
3693.88861,0.00087
3691.82843,0.00041
3689.76826,0.00068
3687.70809,0.00118
3685.64792,0.00120
3683.58775,0.00099
3681.52757,0.00113
3679.46740,0.00173
3677.40723,0.00248
3675.34706,0.00301
3673.28688,0.00320
3671.22671,0.00342
3669.16654,0.00313
3667.10637,0.00216
3665.04620,0.00150
3662.98602,0.00134
3660.92585,0.00126
3658.86568,0.00125
3656.80551,0.00152
3654.74534,0.00180
3652.68516,0.00166
3650.62499,0.00117
3648.56482,0.00091
3646.50465,0.00134
3644.44447,0.00179
3642.38430,0.00193
3640.32413,0.00206
3638.26396,0.00214
3636.20379,0.00203
3634.14361,0.00198
3632.08344,0.00204
3630.02327,0.00224
3627.96310,0.00275
3625.90293,0.00322
3623.84275,0.00348
3621.78258,0.00381
3619.72241,0.00416
3617.66224,0.00423
3615.60207,0.00412
3613.54189,0.00391
3611.48172,0.00402
3609.42155,0.00481
3607.36138,0.00597
3605.30120,0.00689
3603.24103,0.00693
3601.18086,0.00609
3599.12069,0.00519
3597.06052,0.00512
3595.00034,0.00564
3592.94017,0.00606
3590.88000,0.00628
3588.81983,0.00693
3586.75966,0.00774
3584.69948,0.00809
3582.63931,0.00812
3580.57914,0.00810
3578.51897,0.00814
3576.45879,0.00802
3574.39862,0.00748
3572.33845,0.00713
3570.27828,0.00770
3568.21811,0.00878
3566.15793,0.00962
3564.09776,0.01012
3562.03759,0.01026
3559.97742,0.01009
3557.91725,0.00999
3555.85707,0.01003
3553.79690,0.00998
3551.73673,0.00999
3549.67656,0.01042
3547.61639,0.01120
3545.55621,0.01210
3543.49604,0.01289
3541.43587,0.01316
3539.37570,0.01309
3537.31552,0.01322
3535.25535,0.01351
3533.19518,0.01364
3531.13501,0.01373
3529.07484,0.01388
3527.01466,0.01433
3524.95449,0.01517
3522.89432,0.01597
3520.83415,0.01655
3518.77398,0.01692
3516.71380,0.01691
3514.65363,0.01685
3512.59346,0.01724
3510.53329,0.01777
3508.47312,0.01807
3506.41294,0.01817
3504.35277,0.01807
3502.29260,0.01804
3500.23243,0.01822
3498.17225,0.01834
3496.11208,0.01836
3494.05191,0.01885
3491.99174,0.01998
3489.93157,0.02091
3487.87139,0.02113
3485.81122,0.02108
3483.75105,0.02114
3481.69088,0.02123
3479.63071,0.02134
3477.57053,0.02148
3475.51036,0.02163
3473.45019,0.02214
3471.39002,0.02300
3469.32984,0.02363
3467.26967,0.02387
3465.20950,0.02390
3463.14933,0.02391
3461.08916,0.02439
3459.02898,0.02528
3456.96881,0.02581
3454.90864,0.02575
3452.84847,0.02544
3450.78830,0.02528
3448.72812,0.02581
3446.66795,0.02676
3444.60778,0.02721
3442.54761,0.02721
3440.48744,0.02709
3438.42726,0.02702
3436.36709,0.02727
3434.30692,0.02772
3432.24675,0.02824
3430.18657,0.02881
3428.12640,0.02942
3426.06623,0.03018
3424.00606,0.03067
3421.94589,0.03031
3419.88571,0.02964
3417.82554,0.02958
3415.76537,0.03030
3413.70520,0.03119
3411.64503,0.03118
3409.58485,0.03066
3407.52468,0.03087
3405.46451,0.03147
3403.40434,0.03173
3401.34416,0.03179
3399.28399,0.03190
3397.22382,0.03214
3395.16365,0.03260
3393.10348,0.03329
3391.04330,0.03349
3388.98313,0.03288
3386.92296,0.03245
3384.86279,0.03286
3382.80262,0.03363
3380.74244,0.03398
3378.68227,0.03390
3376.62210,0.03416
3374.56193,0.03486
3372.50176,0.03548
3370.44158,0.03586
3368.38141,0.03602
3366.32124,0.03597
3364.26107,0.03589
3362.20089,0.03601
3360.14072,0.03596
3358.08055,0.03548
3356.02038,0.03541
3353.96021,0.03616
3351.90003,0.03696
3349.83986,0.03719
3347.77969,0.03698
3345.71952,0.03670
3343.65935,0.03673
3341.59917,0.03703
3339.53900,0.03710
3337.47883,0.03693
3335.41866,0.03690
3333.35849,0.03698
3331.29831,0.03696
3329.23814,0.03686
3327.17797,0.03671
3325.11780,0.03670
3323.05762,0.03708
3320.99745,0.03757
3318.93728,0.03786
3316.87711,0.03795
3314.81694,0.03769
3312.75676,0.03721
3310.69659,0.03719
3308.63642,0.03771
3306.57625,0.03786
3304.51608,0.03752
3302.45590,0.03743
3300.39573,0.03767
3298.33556,0.03800
3296.27539,0.03841
3294.21521,0.03869
3292.15504,0.03860
3290.09487,0.03817
3288.03470,0.03772
3285.97453,0.03741
3283.91435,0.03722
3281.85418,0.03743
3279.79401,0.03798
3277.73384,0.03813
3275.67367,0.03791
3273.61349,0.03798
3271.55332,0.03820
3269.49315,0.03799
3267.43298,0.03720
3265.37281,0.03633
3263.31263,0.03609
3261.25246,0.03647
3259.19229,0.03702
3257.13212,0.03735
3255.07194,0.03734
3253.01177,0.03709
3250.95160,0.03667
3248.89143,0.03632
3246.83126,0.03627
3244.77108,0.03654
3242.71091,0.03699
3240.65074,0.03741
3238.59057,0.03738
3236.53040,0.03698
3234.47022,0.03681
3232.41005,0.03678
3230.34988,0.03648
3228.28971,0.03622
3226.22954,0.03606
3224.16936,0.03568
3222.10919,0.03540
3220.04902,0.03556
3217.98885,0.03590
3215.92867,0.03611
3213.86850,0.03596
3211.80833,0.03553
3209.74816,0.03521
3207.68799,0.03506
3205.62781,0.03475
3203.56764,0.03422
3201.50747,0.03420
3199.44730,0.03473
3197.38713,0.03463
3195.32695,0.03380
3193.26678,0.03308
3191.20661,0.03260
3189.14644,0.03239
3187.08626,0.03265
3185.02609,0.03294
3182.96592,0.03296
3180.90575,0.03273
3178.84558,0.03230
3176.78540,0.03196
3174.72523,0.03193
3172.66506,0.03226
3170.60489,0.03271
3168.54472,0.03290
3166.48454,0.03278
3164.42437,0.03240
3162.36420,0.03186
3160.30403,0.03135
3158.24386,0.03108
3156.18368,0.03093
3154.12351,0.03058
3152.06334,0.03015
3150.00317,0.02993
3147.94299,0.02991
3145.88282,0.02983
3143.82265,0.02955
3141.76248,0.02936
3139.70231,0.02934
3137.64213,0.02913
3135.58196,0.02879
3133.52179,0.02853
3131.46162,0.02806
3129.40145,0.02732
3127.34127,0.02697
3125.28110,0.02713
3123.22093,0.02716
3121.16076,0.02696
3119.10058,0.02704
3117.04041,0.02732
3114.98024,0.02730
3112.92007,0.02694
3110.85990,0.02644
3108.79972,0.02579
3106.73955,0.02511
3104.67938,0.02466
3102.61921,0.02458
3100.55904,0.02452
3098.49886,0.02423
3096.43869,0.02407
3094.37852,0.02414
3092.31835,0.02398
3090.25818,0.02368
3088.19800,0.02377
3086.13783,0.02413
3084.07766,0.02425
3082.01749,0.02378
3079.95731,0.02306
3077.89714,0.02260
3075.83697,0.02235
3073.77680,0.02212
3071.71663,0.02183
3069.65645,0.02159
3067.59628,0.02164
3065.53611,0.02198
3063.47594,0.02234
3061.41577,0.02231
3059.35559,0.02199
3057.29542,0.02186
3055.23525,0.02181
3053.17508,0.02147
3051.11491,0.02091
3049.05473,0.02034
3046.99456,0.01999
3044.93439,0.02001
3042.87422,0.01998
3040.81404,0.01936
3038.75387,0.01869
3036.69370,0.01859
3034.63353,0.01861
3032.57336,0.01845
3030.51318,0.01839
3028.45301,0.01839
3026.39284,0.01833
3024.33267,0.01836
3022.27250,0.01836
3020.21232,0.01820
3018.15215,0.01795
3016.09198,0.01783
3014.03181,0.01791
3011.97163,0.01781
3009.91146,0.01755
3007.85129,0.01774
3005.79112,0.01813
3003.73095,0.01792
3001.67077,0.01742
2999.61060,0.01703
2997.55043,0.01668
2995.49026,0.01652
2993.43009,0.01666
2991.36991,0.01692
2989.30974,0.01696
2987.24957,0.01668
2985.18940,0.01664
2983.12923,0.01717
2981.06905,0.01769
2979.00888,0.01783
2976.94871,0.01801
2974.88854,0.01829
2972.82836,0.01837
2970.76819,0.01876
2968.70802,0.01976
2966.64785,0.02082
2964.58768,0.02177
2962.52750,0.02267
2960.46733,0.02357
2958.40716,0.02468
2956.34699,0.02579
2954.28682,0.02679
2952.22664,0.02804
2950.16647,0.02962
2948.10630,0.03133
2946.04613,0.03295
2943.98596,0.03439
2941.92578,0.03591
2939.86561,0.03766
2937.80544,0.03929
2935.74527,0.04063
2933.68509,0.04188
2931.62492,0.04317
2929.56475,0.04473
2927.50458,0.04633
2925.44441,0.04756
2923.38423,0.04864
2921.32406,0.04935
2919.26389,0.04918
2917.20372,0.04830
2915.14355,0.04697
2913.08337,0.04527
2911.02320,0.04342
2908.96303,0.04183
2906.90286,0.04060
2904.84268,0.03969
2902.78251,0.03870
2900.72234,0.03711
2898.66217,0.03543
2896.60200,0.03423
2894.54182,0.03343
2892.48165,0.03306
2890.42148,0.03312
2888.36131,0.03282
2886.30114,0.03172
2884.24096,0.03077
2882.18079,0.03049
2880.12062,0.03030
2878.06045,0.03000
2876.00028,0.02991
2873.94010,0.03007
2871.87993,0.03026
2869.81976,0.03033
2867.75959,0.03036
2865.69941,0.03083
2863.63924,0.03186
2861.57907,0.03298
2859.51890,0.03414
2857.45873,0.03540
2855.39855,0.03649
2853.33838,0.03736
2851.27821,0.03789
2849.21804,0.03742
2847.15787,0.03570
2845.09769,0.03341
2843.03752,0.03129
2840.97735,0.02946
2838.91718,0.02781
2836.85700,0.02657
2834.79683,0.02565
2832.73666,0.02484
2830.67649,0.02404
2828.61632,0.02327
2826.55614,0.02274
2824.49597,0.02237
2822.43580,0.02187
2820.37563,0.02125
2818.31546,0.02066
2816.25528,0.02024
2814.19511,0.02006
2812.13494,0.02000
2810.07477,0.01999
2808.01460,0.01993
2805.95442,0.01962
2803.89425,0.01892
2801.83408,0.01828
2799.77391,0.01823
2797.71373,0.01824
2795.65356,0.01795
2793.59339,0.01779
2791.53322,0.01784
2789.47305,0.01780
2787.41287,0.01762
2785.35270,0.01712
2783.29253,0.01653
2781.23236,0.01652
2779.17219,0.01693
2777.11201,0.01706
2775.05184,0.01676
2772.99167,0.01632
2770.93150,0.01600
2768.87133,0.01592
2766.81115,0.01629
2764.75098,0.01672
2762.69081,0.01667
2760.63064,0.01643
2758.57046,0.01632
2756.51029,0.01621
2754.45012,0.01608
2752.38995,0.01594
2750.32978,0.01576
2748.26960,0.01558
2746.20943,0.01549
2744.14926,0.01554
2742.08909,0.01567
2740.02892,0.01576
2737.96874,0.01573
2735.90857,0.01557
2733.84840,0.01539
2731.78823,0.01529
2729.72805,0.01525
2727.66788,0.01523
2725.60771,0.01530
2723.54754,0.01541
2721.48737,0.01527
2719.42719,0.01509
2717.36702,0.01513
2715.30685,0.01512
2713.24668,0.01507
2711.18651,0.01502
2709.12633,0.01485
2707.06616,0.01481
2705.00599,0.01505
2702.94582,0.01528
2700.88565,0.01517
2698.82547,0.01481
2696.76530,0.01454
2694.70513,0.01434
2692.64496,0.01412
2690.58478,0.01406
2688.52461,0.01423
2686.46444,0.01464
2684.40427,0.01502
2682.34410,0.01503
2680.28392,0.01479
2678.22375,0.01462
2676.16358,0.01458
2674.10341,0.01465
2672.04324,0.01473
2669.98306,0.01454
2667.92289,0.01418
2665.86272,0.01405
2663.80255,0.01418
2661.74238,0.01426
2659.68220,0.01407
2657.62203,0.01388
2655.56186,0.01385
2653.50169,0.01372
2651.44151,0.01348
2649.38134,0.01344
2647.32117,0.01360
2645.26100,0.01349
2643.20083,0.01297
2641.14065,0.01264
2639.08048,0.01264
2637.02031,0.01244
2634.96014,0.01200
2632.89997,0.01188
2630.83979,0.01232
2628.77962,0.01284
2626.71945,0.01305
2624.65928,0.01303
2622.59910,0.01281
2620.53893,0.01234
2618.47876,0.01193
2616.41859,0.01200
2614.35842,0.01221
2612.29824,0.01221
2610.23807,0.01216
2608.17790,0.01220
2606.11773,0.01248
2604.05756,0.01299
2601.99738,0.01322
2599.93721,0.01282
2597.87704,0.01195
2595.81687,0.01110
2593.75670,0.01080
2591.69652,0.01098
2589.63635,0.01120
2587.57618,0.01144
2585.51601,0.01170
2583.45583,0.01185
2581.39566,0.01184
2579.33549,0.01168
2577.27532,0.01156
2575.21515,0.01130
2573.15497,0.01077
2571.09480,0.01057
2569.03463,0.01086
2566.97446,0.01114
2564.91429,0.01120
2562.85411,0.01084
2560.79394,0.01017
2558.73377,0.00978
2556.67360,0.00975
2554.61342,0.01011
2552.55325,0.01075
2550.49308,0.01093
2548.43291,0.01087
2546.37274,0.01121
2544.31256,0.01141
2542.25239,0.01098
2540.19222,0.01048
2538.13205,0.01017
2536.07188,0.00984
2534.01170,0.00951
2531.95153,0.00894
2529.89136,0.00850
2527.83119,0.00872
2525.77102,0.00912
2523.71084,0.00949
2521.65067,0.00992
2519.59050,0.00988
2517.53033,0.00969
2515.47015,0.00991
2513.40998,0.01000
2511.34981,0.00971
2509.28964,0.00954
2507.22947,0.00995
2505.16929,0.01042
2503.10912,0.00984
2501.04895,0.00871
2498.98878,0.00863
2496.92861,0.00956
2494.86843,0.00984
2492.80826,0.00919
2490.74809,0.00895
2488.68792,0.00920
2486.62775,0.00925
2484.56757,0.00930
2482.50740,0.00960
2480.44723,0.00963
2478.38706,0.00923
2476.32688,0.00916
2474.26671,0.00907
2472.20654,0.00852
2470.14637,0.00845
2468.08620,0.00907
2466.02602,0.00952
2463.96585,0.00953
2461.90568,0.00970
2459.84551,0.00967
2457.78534,0.00889
2455.72516,0.00840
2453.66499,0.00887
2451.60482,0.00959
2449.54465,0.00963
2447.48447,0.00865
2445.42430,0.00761
2443.36413,0.00752
2441.30396,0.00803
2439.24379,0.00827
2437.18361,0.00807
2435.12344,0.00784
2433.06327,0.00753
2431.00310,0.00713
2428.94293,0.00712
2426.88275,0.00761
2424.82258,0.00800
2422.76241,0.00807
2420.70224,0.00846
2418.64207,0.00894
2416.58189,0.00892
2414.52172,0.00862
2412.46155,0.00825
2410.40138,0.00796
2408.34120,0.00790
2406.28103,0.00787
2404.22086,0.00767
2402.16069,0.00716
2400.10052,0.00686
2398.04034,0.00745
2395.98017,0.00795
2393.92000,0.00762
2391.85983,0.00695
2389.79966,0.00684
2387.73948,0.00734
2385.67931,0.00772
2383.61914,0.00781
2381.55897,0.00786
2379.49880,0.00771
2377.43862,0.00728
2375.37845,0.00770
2373.31828,0.00856
2371.25811,0.00812
2369.19793,0.00659
2367.13776,0.00421
2365.07759,0.00238
2363.01742,0.00439
2360.95725,0.00457
2358.89707,0.00235
2356.83690,0.00186
2354.77673,0.00520
2352.71656,0.00908
2350.65639,0.00730
2348.59621,0.00593
2346.53604,0.01160
2344.47587,0.01353
2342.41570,0.01127
2340.35552,0.00795
2338.29535,0.00527
2336.23518,0.00539
2334.17501,0.00839
2332.11484,0.01198
2330.05466,0.01256
2327.99449,0.01104
2325.93432,0.00830
2323.87415,0.00687
2321.81398,0.00661
2319.75380,0.00762
2317.69363,0.00827
2315.63346,0.00878
2313.57329,0.00932
2311.51312,0.00974
2309.45294,0.00922
2307.39277,0.00786
2305.33260,0.00699
2303.27243,0.00693
2301.21225,0.00718
2299.15208,0.00727
2297.09191,0.00757
2295.03174,0.00807
2292.97157,0.00839
2290.91139,0.00845
2288.85122,0.00833
2286.79105,0.00802
2284.73088,0.00756
2282.67071,0.00726
2280.61053,0.00715
2278.55036,0.00705
2276.49019,0.00697
2274.43002,0.00685
2272.36984,0.00664
2270.30967,0.00630
2268.24950,0.00566
2266.18933,0.00503
2264.12916,0.00552
2262.06898,0.00718
2260.00881,0.00819
2257.94864,0.00719
2255.88847,0.00542
2253.82830,0.00481
2251.76812,0.00492
2249.70795,0.00488
2247.64778,0.00540
2245.58761,0.00645
2243.52744,0.00770
2241.46726,0.00833
2239.40709,0.00703
2237.34692,0.00492
2235.28675,0.00410
2233.22657,0.00491
2231.16640,0.00556
2229.10623,0.00564
2227.04606,0.00625
2224.98589,0.00616
2222.92571,0.00457
2220.86554,0.00354
2218.80537,0.00402
2216.74520,0.00396
2214.68503,0.00292
2212.62485,0.00323
2210.56468,0.00446
2208.50451,0.00374
2206.44434,0.00242
2204.38417,0.00304
2202.32399,0.00364
2200.26382,0.00296
2198.20365,0.00269
2196.14348,0.00370
2194.08330,0.00440
2192.02313,0.00337
2189.96296,0.00232
2187.90279,0.00283
2185.84262,0.00466
2183.78244,0.00576
2181.72227,0.00509
2179.66210,0.00507
2177.60193,0.00561
2175.54176,0.00445
2173.48158,0.00296
2171.42141,0.00324
2169.36124,0.00411
2167.30107,0.00418
2165.24089,0.00520
2163.18072,0.00787
2161.12055,0.00822
2159.06038,0.00510
2157.00021,0.00354
2154.94003,0.00395
2152.87986,0.00253
2150.81969,0.00064
2148.75952,0.00240
2146.69935,0.00592
2144.63917,0.00680
2142.57900,0.00539
2140.51883,0.00390
2138.45866,0.00297
2136.39849,0.00239
2134.33831,0.00251
2132.27814,0.00336
2130.21797,0.00407
2128.15780,0.00512
2126.09762,0.00642
2124.03745,0.00631
2121.97728,0.00531
2119.91711,0.00470
2117.85694,0.00462
2115.79676,0.00520
2113.73659,0.00570
2111.67642,0.00552
2109.61625,0.00533
2107.55608,0.00538
2105.49590,0.00556
2103.43573,0.00584
2101.37556,0.00545
2099.31539,0.00451
2097.25521,0.00388
2095.19504,0.00357
2093.13487,0.00380
2091.07470,0.00474
2089.01453,0.00558
2086.95435,0.00576
2084.89418,0.00552
2082.83401,0.00498
2080.77384,0.00491
2078.71367,0.00552
2076.65349,0.00552
2074.59332,0.00465
2072.53315,0.00435
2070.47298,0.00488
2068.41281,0.00510
2066.35263,0.00524
2064.29246,0.00556
2062.23229,0.00511
2060.17212,0.00365
2058.11194,0.00281
2056.05177,0.00384
2053.99160,0.00497
2051.93143,0.00451
2049.87126,0.00263
2047.81108,0.00046
2045.75091,0.00000
2043.69074,0.00124
2041.63057,0.00146
2039.57040,0.00115
2037.51022,0.00315
2035.45005,0.00584
2033.38988,0.00698
2031.32971,0.00599
2029.26954,0.00303
2027.20936,0.00139
2025.14919,0.00261
2023.08902,0.00436
2021.02885,0.00520
2018.96867,0.00506
2016.90850,0.00440
2014.84833,0.00354
2012.78816,0.00239
2010.72799,0.00189
2008.66781,0.00204
2006.60764,0.00237
2004.54747,0.00289
2002.48730,0.00356
2000.42713,0.00483
1998.36695,0.00589
1996.30678,0.00518
1994.24661,0.00374
1992.18644,0.00411
1990.12626,0.00529
1988.06609,0.00572
1986.00592,0.00596
1983.94575,0.00541
1981.88558,0.00424
1979.82540,0.00362
1977.76523,0.00366
1975.70506,0.00366
1973.64489,0.00284
1971.58472,0.00189
1969.52454,0.00191
1967.46437,0.00210
1965.40420,0.00171
1963.34403,0.00125
1961.28386,0.00091
1959.22368,0.00112
1957.16351,0.00170
1955.10334,0.00113
1953.04317,0.00011
1950.98299,0.00076
1948.92282,0.00223
1946.86265,0.00305
1944.80248,0.00305
1942.74231,0.00227
1940.68213,0.00193
1938.62196,0.00242
1936.56179,0.00273
1934.50162,0.00274
1932.44145,0.00241
1930.38127,0.00147
1928.32110,0.00077
1926.26093,0.00112
1924.20076,0.00216
1922.14059,0.00302
1920.08041,0.00346
1918.02024,0.00407
1915.96007,0.00451
1913.89990,0.00427
1911.83972,0.00375
1909.77955,0.00357
1907.71938,0.00404
1905.65921,0.00471
1903.59904,0.00475
1901.53886,0.00410
1899.47869,0.00362
1897.41852,0.00368
1895.35835,0.00383
1893.29818,0.00377
1891.23800,0.00332
1889.17783,0.00271
1887.11766,0.00243
1885.05749,0.00219
1882.99731,0.00170
1880.93714,0.00144
1878.87697,0.00181
1876.81680,0.00248
1874.75663,0.00278
1872.69645,0.00247
1870.63628,0.00187
1868.57611,0.00148
1866.51594,0.00147
1864.45577,0.00170
1862.39559,0.00205
1860.33542,0.00237
1858.27525,0.00248
1856.21508,0.00245
1854.15491,0.00247
1852.09473,0.00249
1850.03456,0.00243
1847.97439,0.00249
1845.91422,0.00269
1843.85404,0.00262
1841.79387,0.00225
1839.73370,0.00219
1837.67353,0.00262
1835.61336,0.00292
1833.55318,0.00266
1831.49301,0.00220
1829.43284,0.00190
1827.37267,0.00165
1825.31250,0.00139
1823.25232,0.00143
1821.19215,0.00172
1819.13198,0.00186
1817.07181,0.00194
1815.01163,0.00216
1812.95146,0.00217
1810.89129,0.00170
1808.83112,0.00131
1806.77095,0.00137
1804.71077,0.00151
1802.65060,0.00147
1800.59043,0.00145
1798.53026,0.00144
1796.47009,0.00104
1794.40991,0.00032
1792.34974,0.00000
1790.28957,0.00023
1788.22940,0.00053
1786.16923,0.00092
1784.10905,0.00141
1782.04888,0.00153
1779.98871,0.00115
1777.92854,0.00070
1775.86836,0.00030
1773.80819,0.00000
1771.74802,0.00033
1769.68785,0.00120
1767.62768,0.00171
1765.56750,0.00190
1763.50733,0.00230
1761.44716,0.00302
1759.38699,0.00380
1757.32682,0.00466
1755.26664,0.00579
1753.20647,0.00716
1751.14630,0.00868
1749.08613,0.01010
1747.02596,0.01107
1744.96578,0.01154
1742.90561,0.01170
1740.84544,0.01195
1738.78527,0.01236
1736.72509,0.01256
1734.66492,0.01265
1732.60475,0.01304
1730.54458,0.01342
1728.48441,0.01364
1726.42423,0.01388
1724.36406,0.01397
1722.30389,0.01385
1720.24372,0.01381
1718.18355,0.01400
1716.12337,0.01421
1714.06320,0.01420
1712.00303,0.01400
1709.94286,0.01373
1707.88268,0.01357
1705.82251,0.01353
1703.76234,0.01338
1701.70217,0.01319
1699.64200,0.01312
1697.58182,0.01288
1695.52165,0.01254
1693.46148,0.01288
1691.40131,0.01411
1689.34114,0.01567
1687.28096,0.01714
1685.22079,0.01889
1683.16062,0.02078
1681.10045,0.02203
1679.04028,0.02303
1676.98010,0.02406
1674.91993,0.02483
1672.85976,0.02500
1670.79959,0.02474
1668.73941,0.02454
1666.67924,0.02459
1664.61907,0.02456
1662.55890,0.02426
1660.49873,0.02392
1658.43855,0.02352
1656.37838,0.02281
1654.31821,0.02220
1652.25804,0.02222
1650.19787,0.02245
1648.13769,0.02265
1646.07752,0.02262
1644.01735,0.02212
1641.95718,0.02170
1639.89701,0.02168
1637.83683,0.02198
1635.77666,0.02274
1633.71649,0.02387
1631.65632,0.02469
1629.59614,0.02510
1627.53597,0.02547
1625.47580,0.02587
1623.41563,0.02621
1621.35546,0.02648
1619.29528,0.02671
1617.23511,0.02689
1615.17494,0.02717
1613.11477,0.02772
1611.05460,0.02852
1608.99442,0.02952
1606.93425,0.03050
1604.87408,0.03091
1602.81391,0.03043
1600.75373,0.02938
1598.69356,0.02819
1596.63339,0.02692
1594.57322,0.02566
1592.51305,0.02476
1590.45287,0.02423
1588.39270,0.02366
1586.33253,0.02279
1584.27236,0.02184
1582.21219,0.02107
1580.15201,0.02049
1578.09184,0.02011
1576.03167,0.01985
1573.97150,0.01948
1571.91133,0.01885
1569.85115,0.01808
1567.79098,0.01749
1565.73081,0.01703
1563.67064,0.01639
1561.61046,0.01559
1559.55029,0.01463
1557.49012,0.01362
1555.42995,0.01285
1553.36978,0.01221
1551.30960,0.01160
1549.24943,0.01098
1547.18926,0.01041
1545.12909,0.00998
1543.06892,0.00970
1541.00874,0.00923
1538.94857,0.00819
1536.88840,0.00735
1534.82823,0.00695
1532.76805,0.00667
1530.70788,0.00638
1528.64771,0.00608
1526.58754,0.00594
1524.52737,0.00623
1522.46719,0.00687
1520.40702,0.00765
1518.34685,0.00869
1516.28668,0.01000
1514.22651,0.01073
1512.16633,0.01041
1510.10616,0.00939
1508.04599,0.00787
1505.98582,0.00608
1503.92565,0.00493
1501.86547,0.00429
1499.80530,0.00362
1497.74513,0.00266
1495.68496,0.00171
1493.62478,0.00120
1491.56461,0.00106
1489.50444,0.00098
1487.44427,0.00088
1485.38410,0.00082
1483.32392,0.00087
1481.26375,0.00105
1479.20358,0.00137
1477.14341,0.00193
1475.08324,0.00292
1473.02306,0.00465
1470.96289,0.00679
1468.90272,0.00847
1466.84255,0.00993
1464.78238,0.01160
1462.72220,0.01295
1460.66203,0.01371
1458.60186,0.01441
1456.54169,0.01515
1454.48151,0.01553
1452.42134,0.01589
1450.36117,0.01656
1448.30100,0.01746
1446.24083,0.01838
1444.18065,0.01916
1442.12048,0.01984
1440.06031,0.02048
1438.00014,0.02102
1435.93997,0.02128
1433.87979,0.02121
1431.81962,0.02107
1429.75945,0.02117
1427.69928,0.02151
1425.63910,0.02197
1423.57893,0.02248
1421.51876,0.02286
1419.45859,0.02295
1417.39842,0.02280
1415.33824,0.02247
1413.27807,0.02209
1411.21790,0.02170
1409.15773,0.02116
1407.09756,0.02042
1405.03738,0.01963
1402.97721,0.01899
1400.91704,0.01851
1398.85687,0.01799
1396.79670,0.01743
1394.73652,0.01701
1392.67635,0.01672
1390.61618,0.01661
1388.55601,0.01686
1386.49583,0.01746
1384.43566,0.01811
1382.37549,0.01862
1380.31532,0.01904
1378.25515,0.01939
1376.19497,0.01957
1374.13480,0.01966
1372.07463,0.01987
1370.01446,0.02029
1367.95429,0.02049
1365.89411,0.02009
1363.83394,0.01944
1361.77377,0.01900
1359.71360,0.01871
1357.65343,0.01850
1355.59325,0.01834
1353.53308,0.01820
1351.47291,0.01812
1349.41274,0.01810
1347.35256,0.01816
1345.29239,0.01818
1343.23222,0.01800
1341.17205,0.01772
1339.11188,0.01748
1337.05170,0.01724
1334.99153,0.01718
1332.93136,0.01743
1330.87119,0.01779
1328.81102,0.01800
1326.75084,0.01808
1324.69067,0.01805
1322.63050,0.01797
1320.57033,0.01794
1318.51015,0.01801
1316.44998,0.01802
1314.38981,0.01787
1312.32964,0.01748
1310.26947,0.01697
1308.20929,0.01658
1306.14912,0.01628
1304.08895,0.01584
1302.02878,0.01530
1299.96861,0.01473
1297.90843,0.01422
1295.84826,0.01396
1293.78809,0.01399
1291.72792,0.01410
1289.66775,0.01431
1287.60757,0.01459
1285.54740,0.01470
1283.48723,0.01470
1281.42706,0.01488
1279.36688,0.01532
1277.30671,0.01569
1275.24654,0.01568
1273.18637,0.01557
1271.12620,0.01593
1269.06602,0.01658
1267.00585,0.01707
1264.94568,0.01756
1262.88551,0.01834
1260.82534,0.01932
1258.76516,0.02009
1256.70499,0.02044
1254.64482,0.02059
1252.58465,0.02086
1250.52447,0.02128
1248.46430,0.02152
1246.40413,0.02156
1244.34396,0.02184
1242.28379,0.02226
1240.22361,0.02239
1238.16344,0.02213
1236.10327,0.02176
1234.04310,0.02150
1231.98293,0.02108
1229.92275,0.02041
1227.86258,0.01972
1225.80241,0.01890
1223.74224,0.01789
1221.68207,0.01680
1219.62189,0.01554
1217.56172,0.01423
1215.50155,0.01303
1213.44138,0.01188
1211.38120,0.01088
1209.32103,0.01008
1207.26086,0.00910
1205.20069,0.00795
1203.14052,0.00684
1201.08034,0.00544
1199.02017,0.00383
1196.96000,0.00268
1194.89983,0.00216
1192.83966,0.00170
1190.77948,0.00096
1188.71931,0.00038
1186.65914,0.00016
1184.59897,0.00000
1182.53880,-0.00009
1180.47862,0.00029
1178.41845,0.00121
1176.35828,0.00236
1174.29811,0.00368
1172.23793,0.00548
1170.17776,0.00749
1168.11759,0.00901
1166.05742,0.00998
1163.99725,0.01066
1161.93707,0.01109
1159.87690,0.01144
1157.81673,0.01185
1155.75656,0.01253
1153.69639,0.01342
1151.63621,0.01426
1149.57604,0.01493
1147.51587,0.01570
1145.45570,0.01679
1143.39552,0.01771
1141.33535,0.01834
1139.27518,0.01906
1137.21501,0.01962
1135.15484,0.01981
1133.09466,0.02010
1131.03449,0.02081
1128.97432,0.02193
1126.91415,0.02330
1124.85398,0.02443
1122.79380,0.02504
1120.73363,0.02571
1118.67346,0.02685
1116.61329,0.02790
1114.55312,0.02853
1112.49294,0.02944
1110.43277,0.03093
1108.37260,0.03238
1106.31243,0.03328
1104.25225,0.03381
1102.19208,0.03459
1100.13191,0.03585
1098.07174,0.03750
1096.01157,0.03932
1093.95139,0.04083
1091.89122,0.04198
1089.83105,0.04335
1087.77088,0.04524
1085.71071,0.04710
1083.65053,0.04846
1081.59036,0.04960
1079.53019,0.05108
1077.47002,0.05300
1075.40985,0.05503
1073.34967,0.05691
1071.28950,0.05849
1069.22933,0.05973
1067.16916,0.06098
1065.10898,0.06235
1063.04881,0.06352
1060.98864,0.06461
1058.92847,0.06590
1056.86830,0.06747
1054.80812,0.06909
1052.74795,0.07047
1050.68778,0.07203
1048.62761,0.07379
1046.56744,0.07523
1044.50726,0.07683
1042.44709,0.07886
1040.38692,0.08104
1038.32675,0.08340
1036.26657,0.08551
1034.20640,0.08650
1032.14623,0.08616
1030.08606,0.08538
1028.02589,0.08504
1025.96571,0.08481
1023.90554,0.08443
1021.84537,0.08419
1019.78520,0.08391
1017.72503,0.08355
1015.66485,0.08330
1013.60468,0.08351
1011.54451,0.08405
1009.48434,0.08420
1007.42417,0.08393
1005.36399,0.08359
1003.30382,0.08311
1001.24365,0.08249
999.18348,0.08203
997.12330,0.08144
995.06313,0.07998
993.00296,0.07793
990.94279,0.07640
988.88262,0.07572
986.82244,0.07522
984.76227,0.07426
982.70210,0.07304
980.64193,0.07179
978.58176,0.07039
976.52158,0.06887
974.46141,0.06714
972.40124,0.06555
970.34107,0.06469
968.28089,0.06383
966.22072,0.06236
964.16055,0.06075
962.10038,0.05911
960.04021,0.05732
957.98003,0.05591
955.91986,0.05501
953.85969,0.05434
951.79952,0.05370
949.73935,0.05246
947.67917,0.05076
945.61900,0.04946
943.55883,0.04808
941.49866,0.04581
939.43849,0.04334
937.37831,0.04116
935.31814,0.03885
933.25797,0.03626
931.19780,0.03351
929.13762,0.03103
927.07745,0.02921
925.01728,0.02781
922.95711,0.02593
920.89694,0.02355
918.83676,0.02173
916.77659,0.02086
914.71642,0.02019
912.65625,0.01911
910.59608,0.01763
908.53590,0.01629
906.47573,0.01565
904.41556,0.01520
902.35539,0.01495
900.29522,0.01540
898.23504,0.01571
896.17487,0.01524
894.11470,0.01456
892.05453,0.01434
889.99435,0.01481
887.93418,0.01509
885.87401,0.01407
883.81384,0.01228
881.75367,0.01078
879.69349,0.00993
877.63332,0.00969
875.57315,0.00946
873.51298,0.00880
871.45281,0.00825
869.39263,0.00770
867.33246,0.00680
865.27229,0.00678
863.21212,0.00764
861.15194,0.00778
859.09177,0.00746
857.03160,0.00709
854.97143,0.00641
852.91126,0.00592
850.85108,0.00579
848.79091,0.00544
846.73074,0.00489
844.67057,0.00437
842.61040,0.00372
840.55022,0.00364
838.49005,0.00438
836.42988,0.00494
834.36971,0.00478
832.30954,0.00425
830.24936,0.00397
828.18919,0.00357
826.12902,0.00295
824.06885,0.00307
822.00867,0.00297
819.94850,0.00197
817.88833,0.00168
815.82816,0.00199
813.76799,0.00184
811.70781,0.00192
809.64764,0.00253
807.58747,0.00345
805.52730,0.00392
803.46713,0.00336
801.40695,0.00254
799.34678,0.00221
797.28661,0.00263
795.22644,0.00320
793.16627,0.00282
791.10609,0.00248
789.04592,0.00319
786.98575,0.00358
784.92558,0.00320
782.86540,0.00294
780.80523,0.00278
778.74506,0.00245
776.68489,0.00169
774.62472,0.00040
772.56454,0.00000
770.50437,0.00116
768.44420,0.00225
766.38403,0.00202
764.32386,0.00133
762.26368,0.00181
760.20351,0.00331
758.14334,0.00456
756.08317,0.00503
754.02299,0.00398
751.96282,0.00163
749.90265,0.00000
747.84248,-0.00027
745.78231,0.00024
743.72213,0.00055
741.66196,-0.00004
739.60179,-0.00064
737.54162,-0.00018
735.48145,0.00093
733.42127,0.00188
731.36110,0.00189
729.30093,0.00176
727.24076,0.00253
725.18059,0.00318
723.12041,0.00323
721.06024,0.00433
719.00007,0.00461
716.93990,0.00384
714.87972,0.00284
712.81955,0.00155
710.75938,0.00069
708.69921,0.00127
706.63904,0.00240
704.57886,0.00315
702.51869,0.00411
700.45852,0.00514
698.39835,0.00609
696.33818,0.00757
694.27800,0.00877
692.21783,0.00879
690.15766,0.00787
688.09749,0.00600
686.03731,0.00409
683.97714,0.00276
681.91697,0.00122
679.85680,0.00000
677.79663,0.00012
675.73645,0.00094
673.67628,0.00042
671.61611,-0.00151
669.55594,0.00269
667.49577,0.00562
665.43559,-0.00265
663.37542,-0.00133
661.31525,0.00142
659.25508,0.00285
657.19491,0.00378
655.13473,0.00415
653.07456,0.00517
651.01439,0.00733
648.95422,0.00894
646.89404,0.00910
644.83387,0.00918
642.77370,0.00884
640.71353,0.00846
638.65336,0.00912
636.59318,0.01000
634.53301,0.00936
632.47284,0.00738
630.41267,0.00651
628.35250,0.00766
626.29232,0.00839
624.23215,0.00734
622.17198,0.00641
620.11181,0.00589
618.05164,0.00356
615.99146,0.00000
613.93129,0.00026
611.87112,0.00309
609.81095,0.00087
607.75077,-0.00158
605.69060,-0.00081
603.63043,-0.00060
601.57026,-0.00045
599.51009,0.00000
