3996.73391,0.00035
3994.67373,0.00056
3992.61356,0.00073
3990.55339,0.00079
3988.49322,0.00069
3986.43305,0.00046
3984.37287,0.00021
3982.31270,0.00003
3980.25253,0.00000
3978.19236,0.00009
3976.13219,0.00020
3974.07201,0.00022
3972.01184,0.00019
3969.95167,0.00023
3967.89150,0.00037
3965.83133,0.00051
3963.77115,0.00057
3961.71098,0.00055
3959.65081,0.00049
3957.59064,0.00040
3955.53046,0.00027
3953.47029,0.00018
3951.41012,0.00021
3949.34995,0.00036
3947.28978,0.00055
3945.22960,0.00070
3943.16943,0.00077
3941.10926,0.00076
3939.04909,0.00075
3936.98892,0.00079
3934.92874,0.00084
3932.86857,0.00078
3930.80840,0.00065
3928.74823,0.00058
3926.68805,0.00060
3924.62788,0.00061
3922.56771,0.00053
3920.50754,0.00046
3918.44737,0.00042
3916.38719,0.00040
3914.32702,0.00039
3912.26685,0.00038
3910.20668,0.00031
3908.14651,0.00018
3906.08633,0.00005
3904.02616,0.00001
3901.96599,0.00006
3899.90582,0.00020
3897.84565,0.00040
3895.78547,0.00062
3893.72530,0.00081
3891.66513,0.00088
3889.60496,0.00079
3887.54478,0.00061
3885.48461,0.00050
3883.42444,0.00052
3881.36427,0.00062
3879.30410,0.00068
3877.24392,0.00064
3875.18375,0.00056
3873.12358,0.00052
3871.06341,0.00058
3869.00324,0.00073
3866.94306,0.00089
3864.88289,0.00102
3862.82272,0.00101
3860.76255,0.00081
3858.70237,0.00054
3856.64220,0.00033
3854.58203,0.00018
3852.52186,0.00005
3850.46169,0.00002
3848.40151,0.00016
3846.34134,0.00049
3844.28117,0.00096
3842.22100,0.00139
3840.16083,0.00161
3838.10065,0.00147
3836.04048,0.00101
3833.98031,0.00048
3831.92014,0.00018
3829.85997,0.00019
3827.79979,0.00037
3825.73962,0.00054
3823.67945,0.00061
3821.61928,0.00064
3819.55910,0.00072
3817.49893,0.00083
3815.43876,0.00087
3813.37859,0.00078
3811.31842,0.00062
3809.25824,0.00051
3807.19807,0.00050
3805.13790,0.00048
3803.07773,0.00041
3801.01756,0.00034
3798.95738,0.00035
3796.89721,0.00047
3794.83704,0.00065
3792.77687,0.00081
3790.71670,0.00093
3788.65652,0.00099
3786.59635,0.00102
3784.53618,0.00105
3782.47601,0.00108
3780.41583,0.00110
3778.35566,0.00109
3776.29549,0.00111
3774.23532,0.00119
3772.17515,0.00131
3770.11497,0.00137
3768.05480,0.00126
3765.99463,0.00101
3763.93446,0.00081
3761.87429,0.00082
3759.81411,0.00104
3757.75394,0.00134
3755.69377,0.00159
3753.63360,0.00179
3751.57342,0.00192
3749.51325,0.00191
3747.45308,0.00178
3745.39291,0.00159
3743.33274,0.00142
3741.27256,0.00136
3739.21239,0.00150
3737.15222,0.00172
3735.09205,0.00174
3733.03188,0.00145
3730.97170,0.00100
3728.91153,0.00060
3726.85136,0.00040
3724.79119,0.00044
3722.73102,0.00067
3720.67084,0.00093
3718.61067,0.00104
3716.55050,0.00096
3714.49033,0.00078
3712.43015,0.00069
3710.36998,0.00081
3708.30981,0.00106
3706.24964,0.00121
3704.18947,0.00117
3702.12929,0.00112
3700.06912,0.00119
3698.00895,0.00131
3695.94878,0.00140
3693.88861,0.00151
3691.82843,0.00165
3689.76826,0.00166
3687.70809,0.00143
3685.64792,0.00106
3683.58775,0.00074
3681.52757,0.00063
3679.46740,0.00073
3677.40723,0.00096
3675.34706,0.00115
3673.28688,0.00119
3671.22671,0.00114
3669.16654,0.00104
3667.10637,0.00085
3665.04620,0.00066
3662.98602,0.00059
3660.92585,0.00062
3658.86568,0.00061
3656.80551,0.00050
3654.74534,0.00038
3652.68516,0.00046
3650.62499,0.00074
3648.56482,0.00103
3646.50465,0.00116
3644.44447,0.00114
3642.38430,0.00109
3640.32413,0.00112
3638.26396,0.00125
3636.20379,0.00148
3634.14361,0.00181
3632.08344,0.00216
3630.02327,0.00236
3627.96310,0.00225
3625.90293,0.00190
3623.84275,0.00152
3621.78258,0.00123
3619.72241,0.00095
3617.66224,0.00070
3615.60207,0.00058
3613.54189,0.00069
3611.48172,0.00090
3609.42155,0.00104
3607.36138,0.00111
3605.30120,0.00121
3603.24103,0.00137
3601.18086,0.00158
3599.12069,0.00179
3597.06052,0.00194
3595.00034,0.00199
3592.94017,0.00200
3590.88000,0.00206
3588.81983,0.00220
3586.75966,0.00235
3584.69948,0.00246
3582.63931,0.00258
3580.57914,0.00270
3578.51897,0.00279
3576.45879,0.00283
3574.39862,0.00278
3572.33845,0.00267
3570.27828,0.00265
3568.21811,0.00273
3566.15793,0.00278
3564.09776,0.00268
3562.03759,0.00254
3559.97742,0.00247
3557.91725,0.00253
3555.85707,0.00264
3553.79690,0.00271
3551.73673,0.00269
3549.67656,0.00262
3547.61639,0.00257
3545.55621,0.00253
3543.49604,0.00247
3541.43587,0.00245
3539.37570,0.00247
3537.31552,0.00257
3535.25535,0.00276
3533.19518,0.00299
3531.13501,0.00312
3529.07484,0.00311
3527.01466,0.00302
3524.95449,0.00300
3522.89432,0.00309
3520.83415,0.00329
3518.77398,0.00349
3516.71380,0.00357
3514.65363,0.00350
3512.59346,0.00336
3510.53329,0.00326
3508.47312,0.00326
3506.41294,0.00337
3504.35277,0.00353
3502.29260,0.00368
3500.23243,0.00383
3498.17225,0.00395
3496.11208,0.00407
3494.05191,0.00415
3491.99174,0.00420
3489.93157,0.00424
3487.87139,0.00428
3485.81122,0.00436
3483.75105,0.00443
3481.69088,0.00444
3479.63071,0.00436
3477.57053,0.00423
3475.51036,0.00408
3473.45019,0.00390
3471.39002,0.00373
3469.32984,0.00367
3467.26967,0.00378
3465.20950,0.00403
3463.14933,0.00428
3461.08916,0.00445
3459.02898,0.00455
3456.96881,0.00464
3454.90864,0.00471
3452.84847,0.00474
3450.78830,0.00476
3448.72812,0.00480
3446.66795,0.00487
3444.60778,0.00495
3442.54761,0.00502
3440.48744,0.00505
3438.42726,0.00506
3436.36709,0.00506
3434.30692,0.00508
3432.24675,0.00506
3430.18657,0.00494
3428.12640,0.00471
3426.06623,0.00450
3424.00606,0.00442
3421.94589,0.00452
3419.88571,0.00476
3417.82554,0.00510
3415.76537,0.00541
3413.70520,0.00556
3411.64503,0.00554
3409.58485,0.00544
3407.52468,0.00541
3405.46451,0.00548
3403.40434,0.00560
3401.34416,0.00574
3399.28399,0.00586
3397.22382,0.00591
3395.16365,0.00587
3393.10348,0.00582
3391.04330,0.00584
3388.98313,0.00591
3386.92296,0.00594
3384.86279,0.00592
3382.80262,0.00588
3380.74244,0.00585
3378.68227,0.00582
3376.62210,0.00573
3374.56193,0.00558
3372.50176,0.00548
3370.44158,0.00552
3368.38141,0.00568
3366.32124,0.00590
3364.26107,0.00607
3362.20089,0.00610
3360.14072,0.00601
3358.08055,0.00589
3356.02038,0.00584
3353.96021,0.00592
3351.90003,0.00609
3349.83986,0.00624
3347.77969,0.00632
3345.71952,0.00630
3343.65935,0.00620
3341.59917,0.00610
3339.53900,0.00604
3337.47883,0.00603
3335.41866,0.00602
3333.35849,0.00603
3331.29831,0.00606
3329.23814,0.00610
3327.17797,0.00616
3325.11780,0.00629
3323.05762,0.00645
3320.99745,0.00660
3318.93728,0.00668
3316.87711,0.00667
3314.81694,0.00661
3312.75676,0.00652
3310.69659,0.00643
3308.63642,0.00632
3306.57625,0.00621
3304.51608,0.00615
3302.45590,0.00619
3300.39573,0.00625
3298.33556,0.00630
3296.27539,0.00633
3294.21521,0.00635
3292.15504,0.00630
3290.09487,0.00621
3288.03470,0.00616
3285.97453,0.00622
3283.91435,0.00634
3281.85418,0.00640
3279.79401,0.00639
3277.73384,0.00636
3275.67367,0.00634
3273.61349,0.00626
3271.55332,0.00615
3269.49315,0.00604
3267.43298,0.00601
3265.37281,0.00606
3263.31263,0.00619
3261.25246,0.00632
3259.19229,0.00646
3257.13212,0.00657
3255.07194,0.00661
3253.01177,0.00656
3250.95160,0.00647
3248.89143,0.00641
3246.83126,0.00633
3244.77108,0.00616
3242.71091,0.00598
3240.65074,0.00590
3238.59057,0.00600
3236.53040,0.00621
3234.47022,0.00642
3232.41005,0.00654
3230.34988,0.00650
3228.28971,0.00631
3226.22954,0.00607
3224.16936,0.00586
3222.10919,0.00574
3220.04902,0.00563
3217.98885,0.00550
3215.92867,0.00539
3213.86850,0.00537
3211.80833,0.00544
3209.74816,0.00551
3207.68799,0.00547
3205.62781,0.00536
3203.56764,0.00527
3201.50747,0.00528
3199.44730,0.00535
3197.38713,0.00542
3195.32695,0.00543
3193.26678,0.00539
3191.20661,0.00537
3189.14644,0.00536
3187.08626,0.00534
3185.02609,0.00529
3182.96592,0.00521
3180.90575,0.00508
3178.84558,0.00493
3176.78540,0.00483
3174.72523,0.00484
3172.66506,0.00497
3170.60489,0.00515
3168.54472,0.00524
3166.48454,0.00517
3164.42437,0.00498
3162.36420,0.00477
3160.30403,0.00464
3158.24386,0.00459
3156.18368,0.00465
3154.12351,0.00480
3152.06334,0.00496
3150.00317,0.00505
3147.94299,0.00505
3145.88282,0.00500
3143.82265,0.00493
3141.76248,0.00480
3139.70231,0.00463
3137.64213,0.00450
3135.58196,0.00449
3133.52179,0.00457
3131.46162,0.00464
3129.40145,0.00464
3127.34127,0.00458
3125.28110,0.00453
3123.22093,0.00452
3121.16076,0.00454
3119.10058,0.00456
3117.04041,0.00454
3114.98024,0.00445
3112.92007,0.00434
3110.85990,0.00422
3108.79972,0.00414
3106.73955,0.00411
3104.67938,0.00415
3102.61921,0.00424
3100.55904,0.00431
3098.49886,0.00428
3096.43869,0.00412
3094.37852,0.00390
3092.31835,0.00369
3090.25818,0.00359
3088.19800,0.00362
3086.13783,0.00374
3084.07766,0.00391
3082.01749,0.00404
3079.95731,0.00411
3077.89714,0.00415
3075.83697,0.00418
3073.77680,0.00415
3071.71663,0.00400
3069.65645,0.00374
3067.59628,0.00353
3065.53611,0.00349
3063.47594,0.00353
3061.41577,0.00352
3059.35559,0.00342
3057.29542,0.00333
3055.23525,0.00333
3053.17508,0.00339
3051.11491,0.00345
3049.05473,0.00350
3046.99456,0.00358
3044.93439,0.00366
3042.87422,0.00369
3040.81404,0.00362
3038.75387,0.00345
3036.69370,0.00325
3034.63353,0.00309
3032.57336,0.00302
3030.51318,0.00303
3028.45301,0.00309
3026.39284,0.00317
3024.33267,0.00328
3022.27250,0.00335
3020.21232,0.00329
3018.15215,0.00313
3016.09198,0.00296
3014.03181,0.00288
3011.97163,0.00293
3009.91146,0.00304
3007.85129,0.00314
3005.79112,0.00321
3003.73095,0.00325
3001.67077,0.00327
2999.61060,0.00330
2997.55043,0.00333
2995.49026,0.00331
2993.43009,0.00327
2991.36991,0.00326
2989.30974,0.00321
2987.24957,0.00322
2985.18940,0.00338
2983.12923,0.00359
2981.06905,0.00367
2979.00888,0.00359
2976.94871,0.00345
2974.88854,0.00341
2972.82836,0.00348
2970.76819,0.00351
2968.70802,0.00340
2966.64785,0.00329
2964.58768,0.00331
2962.52750,0.00331
2960.46733,0.00326
2958.40716,0.00335
2956.34699,0.00356
2954.28682,0.00372
2952.22664,0.00380
2950.16647,0.00388
2948.10630,0.00400
2946.04613,0.00423
2943.98596,0.00449
2941.92578,0.00455
2939.86561,0.00433
2937.80544,0.00410
2935.74527,0.00407
2933.68509,0.00417
2931.62492,0.00422
2929.56475,0.00413
2927.50458,0.00397
2925.44441,0.00391
2923.38423,0.00400
2921.32406,0.00416
2919.26389,0.00432
2917.20372,0.00439
2915.14355,0.00434
2913.08337,0.00424
2911.02320,0.00418
2908.96303,0.00421
2906.90286,0.00429
2904.84268,0.00421
2902.78251,0.00392
2900.72234,0.00372
2898.66217,0.00386
2896.60200,0.00419
2894.54182,0.00441
2892.48165,0.00440
2890.42148,0.00430
2888.36131,0.00414
2886.30114,0.00391
2884.24096,0.00375
2882.18079,0.00377
2880.12062,0.00385
2878.06045,0.00381
2876.00028,0.00366
2873.94010,0.00357
2871.87993,0.00365
2869.81976,0.00383
2867.75959,0.00391
2865.69941,0.00372
2863.63924,0.00342
2861.57907,0.00328
2859.51890,0.00338
2857.45873,0.00359
2855.39855,0.00378
2853.33838,0.00378
2851.27821,0.00360
2849.21804,0.00338
2847.15787,0.00327
2845.09769,0.00332
2843.03752,0.00346
2840.97735,0.00353
2838.91718,0.00352
2836.85700,0.00340
2834.79683,0.00318
2832.73666,0.00304
2830.67649,0.00308
2828.61632,0.00317
2826.55614,0.00323
2824.49597,0.00320
2822.43580,0.00312
2820.37563,0.00318
2818.31546,0.00331
2816.25528,0.00335
2814.19511,0.00334
2812.13494,0.00336
2810.07477,0.00332
2808.01460,0.00315
2805.95442,0.00297
2803.89425,0.00289
2801.83408,0.00292
2799.77391,0.00303
2797.71373,0.00319
2795.65356,0.00333
2793.59339,0.00343
2791.53322,0.00345
2789.47305,0.00340
2787.41287,0.00333
2785.35270,0.00325
2783.29253,0.00318
2781.23236,0.00322
2779.17219,0.00335
2777.11201,0.00344
2775.05184,0.00335
2772.99167,0.00308
2770.93150,0.00284
2768.87133,0.00277
2766.81115,0.00285
2764.75098,0.00300
2762.69081,0.00313
2760.63064,0.00318
2758.57046,0.00313
2756.51029,0.00301
2754.45012,0.00291
2752.38995,0.00292
2750.32978,0.00308
2748.26960,0.00328
2746.20943,0.00342
2744.14926,0.00345
2742.08909,0.00340
2740.02892,0.00328
2737.96874,0.00307
2735.90857,0.00284
2733.84840,0.00282
2731.78823,0.00303
2729.72805,0.00330
2727.66788,0.00343
2725.60771,0.00338
2723.54754,0.00325
2721.48737,0.00320
2719.42719,0.00326
2717.36702,0.00332
2715.30685,0.00329
2713.24668,0.00319
2711.18651,0.00307
2709.12633,0.00304
2707.06616,0.00309
2705.00599,0.00308
2702.94582,0.00301
2700.88565,0.00301
2698.82547,0.00305
2696.76530,0.00303
2694.70513,0.00292
2692.64496,0.00279
2690.58478,0.00272
2688.52461,0.00281
2686.46444,0.00305
2684.40427,0.00327
2682.34410,0.00336
2680.28392,0.00326
2678.22375,0.00302
2676.16358,0.00283
2674.10341,0.00287
2672.04324,0.00303
2669.98306,0.00311
2667.92289,0.00308
2665.86272,0.00306
2663.80255,0.00309
2661.74238,0.00312
2659.68220,0.00314
2657.62203,0.00318
2655.56186,0.00321
2653.50169,0.00318
2651.44151,0.00313
2649.38134,0.00311
2647.32117,0.00313
2645.26100,0.00320
2643.20083,0.00323
2641.14065,0.00323
2639.08048,0.00331
2637.02031,0.00347
2634.96014,0.00351
2632.89997,0.00342
2630.83979,0.00340
2628.77962,0.00345
2626.71945,0.00346
2624.65928,0.00335
2622.59910,0.00318
2620.53893,0.00302
2618.47876,0.00286
2616.41859,0.00272
2614.35842,0.00269
2612.29824,0.00286
2610.23807,0.00305
2608.17790,0.00308
2606.11773,0.00299
2604.05756,0.00297
2601.99738,0.00310
2599.93721,0.00321
2597.87704,0.00312
2595.81687,0.00296
2593.75670,0.00293
2591.69652,0.00305
2589.63635,0.00321
2587.57618,0.00330
2585.51601,0.00331
2583.45583,0.00333
2581.39566,0.00328
2579.33549,0.00309
2577.27532,0.00283
2575.21515,0.00256
2573.15497,0.00233
2571.09480,0.00220
2569.03463,0.00222
2566.97446,0.00232
2564.91429,0.00231
2562.85411,0.00219
2560.79394,0.00226
2558.73377,0.00258
2556.67360,0.00285
2554.61342,0.00306
2552.55325,0.00334
2550.49308,0.00348
2548.43291,0.00330
2546.37274,0.00309
2544.31256,0.00315
2542.25239,0.00334
2540.19222,0.00336
2538.13205,0.00320
2536.07188,0.00309
2534.01170,0.00308
2531.95153,0.00321
2529.89136,0.00351
2527.83119,0.00377
2525.77102,0.00376
2523.71084,0.00361
2521.65067,0.00354
2519.59050,0.00350
2517.53033,0.00341
2515.47015,0.00339
2513.40998,0.00349
2511.34981,0.00342
2509.28964,0.00299
2507.22947,0.00252
2505.16929,0.00232
2503.10912,0.00233
2501.04895,0.00250
2498.98878,0.00274
2496.92861,0.00282
2494.86843,0.00271
2492.80826,0.00259
2490.74809,0.00254
2488.68792,0.00255
2486.62775,0.00258
2484.56757,0.00255
2482.50740,0.00250
2480.44723,0.00254
2478.38706,0.00271
2476.32688,0.00299
2474.26671,0.00326
2472.20654,0.00333
2470.14637,0.00315
2468.08620,0.00288
2466.02602,0.00277
2463.96585,0.00290
2461.90568,0.00299
2459.84551,0.00283
2457.78534,0.00268
2455.72516,0.00279
2453.66499,0.00298
2451.60482,0.00302
2449.54465,0.00297
2447.48447,0.00293
2445.42430,0.00281
2443.36413,0.00251
2441.30396,0.00223
2439.24379,0.00214
2437.18361,0.00222
2435.12344,0.00246
2433.06327,0.00266
2431.00310,0.00267
2428.94293,0.00274
2426.88275,0.00292
2424.82258,0.00287
2422.76241,0.00267
2420.70224,0.00260
2418.64207,0.00264
2416.58189,0.00258
2414.52172,0.00235
2412.46155,0.00214
2410.40138,0.00216
2408.34120,0.00237
2406.28103,0.00258
2404.22086,0.00268
2402.16069,0.00268
2400.10052,0.00269
2398.04034,0.00275
2395.98017,0.00280
2393.92000,0.00281
2391.85983,0.00282
2389.79966,0.00290
2387.73948,0.00303
2385.67931,0.00313
2383.61914,0.00305
2381.55897,0.00275
2379.49880,0.00234
2377.43862,0.00204
2375.37845,0.00200
2373.31828,0.00218
2371.25811,0.00244
2369.19793,0.00287
2367.13776,0.00368
2365.07759,0.00474
2363.01742,0.00543
2360.95725,0.00522
2358.89707,0.00417
2356.83690,0.00284
2354.77673,0.00190
2352.71656,0.00165
2350.65639,0.00190
2348.59621,0.00230
2346.53604,0.00266
2344.47587,0.00283
2342.41570,0.00265
2340.35552,0.00220
2338.29535,0.00196
2336.23518,0.00215
2334.17501,0.00249
2332.11484,0.00276
2330.05466,0.00301
2327.99449,0.00333
2325.93432,0.00366
2323.87415,0.00382
2321.81398,0.00379
2319.75380,0.00372
2317.69363,0.00365
2315.63346,0.00355
2313.57329,0.00340
2311.51312,0.00325
2309.45294,0.00322
2307.39277,0.00333
2305.33260,0.00346
2303.27243,0.00344
2301.21225,0.00318
2299.15208,0.00282
2297.09191,0.00256
2295.03174,0.00257
2292.97157,0.00284
2290.91139,0.00322
2288.85122,0.00355
2286.79105,0.00369
2284.73088,0.00362
2282.67071,0.00350
2280.61053,0.00352
2278.55036,0.00368
2276.49019,0.00387
2274.43002,0.00402
2272.36984,0.00414
2270.30967,0.00418
2268.24950,0.00405
2266.18933,0.00383
2264.12916,0.00367
2262.06898,0.00363
2260.00881,0.00367
2257.94864,0.00369
2255.88847,0.00353
2253.82830,0.00310
2251.76812,0.00244
2249.70795,0.00189
2247.64778,0.00182
2245.58761,0.00208
2243.52744,0.00222
2241.46726,0.00204
2239.40709,0.00182
2237.34692,0.00202
2235.28675,0.00273
2233.22657,0.00338
2231.16640,0.00340
2229.10623,0.00304
2227.04606,0.00275
2224.98589,0.00262
2222.92571,0.00270
2220.86554,0.00288
2218.80537,0.00288
2216.74520,0.00285
2214.68503,0.00314
2212.62485,0.00375
2210.56468,0.00407
2208.50451,0.00347
2206.44434,0.00242
2204.38417,0.00188
2202.32399,0.00208
2200.26382,0.00237
2198.20365,0.00240
2196.14348,0.00275
2194.08330,0.00360
2192.02313,0.00403
2189.96296,0.00367
2187.90279,0.00310
2185.84262,0.00277
2183.78244,0.00291
2181.72227,0.00336
2179.66210,0.00329
2177.60193,0.00243
2175.54176,0.00166
2173.48158,0.00182
2171.42141,0.00256
2169.36124,0.00286
2167.30107,0.00244
2165.24089,0.00197
2163.18072,0.00162
2161.12055,0.00093
2159.06038,0.00019
2157.00021,0.00032
2154.94003,0.00107
2152.87986,0.00149
2150.81969,0.00154
2148.75952,0.00187
2146.69935,0.00234
2144.63917,0.00213
2142.57900,0.00153
2140.51883,0.00170
2138.45866,0.00273
2136.39849,0.00347
2134.33831,0.00315
2132.27814,0.00234
2130.21797,0.00197
2128.15780,0.00228
2126.09762,0.00279
2124.03745,0.00296
2121.97728,0.00289
2119.91711,0.00313
2117.85694,0.00348
2115.79676,0.00345
2113.73659,0.00303
2111.67642,0.00244
2109.61625,0.00196
2107.55608,0.00189
2105.49590,0.00249
2103.43573,0.00352
2101.37556,0.00430
2099.31539,0.00458
2097.25521,0.00453
2095.19504,0.00429
2093.13487,0.00387
2091.07470,0.00340
2089.01453,0.00312
2086.95435,0.00310
2084.89418,0.00317
2082.83401,0.00316
2080.77384,0.00306
2078.71367,0.00299
2076.65349,0.00306
2074.59332,0.00322
2072.53315,0.00329
2070.47298,0.00316
2068.41281,0.00290
2066.35263,0.00273
2064.29246,0.00274
2062.23229,0.00282
2060.17212,0.00281
2058.11194,0.00266
2056.05177,0.00240
2053.99160,0.00218
2051.93143,0.00214
2049.87126,0.00226
2047.81108,0.00247
2045.75091,0.00267
2043.69074,0.00265
2041.63057,0.00226
2039.57040,0.00165
2037.51022,0.00115
2035.45005,0.00091
2033.38988,0.00095
2031.32971,0.00110
2029.26954,0.00109
2027.20936,0.00087
2025.14919,0.00065
2023.08902,0.00063
2021.02885,0.00086
2018.96867,0.00132
2016.90850,0.00188
2014.84833,0.00230
2012.78816,0.00240
2010.72799,0.00225
2008.66781,0.00223
2006.60764,0.00251
2004.54747,0.00280
2002.48730,0.00277
2000.42713,0.00242
1998.36695,0.00203
1996.30678,0.00194
1994.24661,0.00231
1992.18644,0.00304
1990.12626,0.00388
1988.06609,0.00453
1986.00592,0.00482
1983.94575,0.00463
1981.88558,0.00387
1979.82540,0.00265
1977.76523,0.00155
1975.70506,0.00117
1973.64489,0.00152
1971.58472,0.00216
1969.52454,0.00271
1967.46437,0.00284
1965.40420,0.00239
1963.34403,0.00155
1961.28386,0.00072
1959.22368,0.00017
1957.16351,0.00000
1955.10334,0.00016
1953.04317,0.00055
1950.98299,0.00104
1948.92282,0.00137
1946.86265,0.00141
1944.80248,0.00146
1942.74231,0.00184
1940.68213,0.00250
1938.62196,0.00307
1936.56179,0.00320
1934.50162,0.00278
1932.44145,0.00204
1930.38127,0.00140
1928.32110,0.00119
1926.26093,0.00150
1924.20076,0.00210
1922.14059,0.00265
1920.08041,0.00299
1918.02024,0.00316
1915.96007,0.00317
1913.89990,0.00302
1911.83972,0.00274
1909.77955,0.00234
1907.71938,0.00199
1905.65921,0.00181
1903.59904,0.00184
1901.53886,0.00200
1899.47869,0.00227
1897.41852,0.00263
1895.35835,0.00295
1893.29818,0.00305
1891.23800,0.00289
1889.17783,0.00264
1887.11766,0.00253
1885.05749,0.00262
1882.99731,0.00279
1880.93714,0.00286
1878.87697,0.00286
1876.81680,0.00287
1874.75663,0.00289
1872.69645,0.00284
1870.63628,0.00267
1868.57611,0.00240
1866.51594,0.00209
1864.45577,0.00186
1862.39559,0.00183
1860.33542,0.00197
1858.27525,0.00216
1856.21508,0.00224
1854.15491,0.00211
1852.09473,0.00184
1850.03456,0.00161
1847.97439,0.00157
1845.91422,0.00169
1843.85404,0.00187
1841.79387,0.00203
1839.73370,0.00213
1837.67353,0.00220
1835.61336,0.00222
1833.55318,0.00221
1831.49301,0.00218
1829.43284,0.00210
1827.37267,0.00199
1825.31250,0.00193
1823.25232,0.00197
1821.19215,0.00204
1819.13198,0.00209
1817.07181,0.00213
1815.01163,0.00222
1812.95146,0.00235
1810.89129,0.00247
1808.83112,0.00254
1806.77095,0.00257
1804.71077,0.00256
1802.65060,0.00257
1800.59043,0.00257
1798.53026,0.00256
1796.47009,0.00254
1794.40991,0.00252
1792.34974,0.00242
1790.28957,0.00222
1788.22940,0.00205
1786.16923,0.00204
1784.10905,0.00215
1782.04888,0.00228
1779.98871,0.00237
1777.92854,0.00240
1775.86836,0.00241
1773.80819,0.00242
1771.74802,0.00239
1769.68785,0.00231
1767.62768,0.00221
1765.56750,0.00215
1763.50733,0.00215
1761.44716,0.00217
1759.38699,0.00214
1757.32682,0.00211
1755.26664,0.00216
1753.20647,0.00231
1751.14630,0.00251
1749.08613,0.00268
1747.02596,0.00281
1744.96578,0.00291
1742.90561,0.00301
1740.84544,0.00307
1738.78527,0.00310
1736.72509,0.00309
1734.66492,0.00304
1732.60475,0.00292
1730.54458,0.00279
1728.48441,0.00269
1726.42423,0.00265
1724.36406,0.00271
1722.30389,0.00283
1720.24372,0.00293
1718.18355,0.00291
1716.12337,0.00276
1714.06320,0.00259
1712.00303,0.00250
1709.94286,0.00251
1707.88268,0.00253
1705.82251,0.00251
1703.76234,0.00245
1701.70217,0.00239
1699.64200,0.00236
1697.58182,0.00234
1695.52165,0.00236
1693.46148,0.00243
1691.40131,0.00254
1689.34114,0.00268
1687.28096,0.00285
1685.22079,0.00300
1683.16062,0.00304
1681.10045,0.00295
1679.04028,0.00281
1676.98010,0.00273
1674.91993,0.00275
1672.85976,0.00286
1670.79959,0.00295
1668.73941,0.00299
1666.67924,0.00301
1664.61907,0.00305
1662.55890,0.00310
1660.49873,0.00312
1658.43855,0.00316
1656.37838,0.00333
1654.31821,0.00361
1652.25804,0.00384
1650.19787,0.00392
1648.13769,0.00393
1646.07752,0.00395
1644.01735,0.00394
1641.95718,0.00392
1639.89701,0.00393
1637.83683,0.00393
1635.77666,0.00387
1633.71649,0.00375
1631.65632,0.00362
1629.59614,0.00354
1627.53597,0.00354
1625.47580,0.00365
1623.41563,0.00385
1621.35546,0.00406
1619.29528,0.00423
1617.23511,0.00430
1615.17494,0.00425
1613.11477,0.00414
1611.05460,0.00405
1608.99442,0.00396
1606.93425,0.00381
1604.87408,0.00359
1602.81391,0.00332
1600.75373,0.00309
1598.69356,0.00296
1596.63339,0.00293
1594.57322,0.00292
1592.51305,0.00286
1590.45287,0.00274
1588.39270,0.00258
1586.33253,0.00241
1584.27236,0.00222
1582.21219,0.00203
1580.15201,0.00183
1578.09184,0.00168
1576.03167,0.00163
1573.97150,0.00168
1571.91133,0.00182
1569.85115,0.00198
1567.79098,0.00208
1565.73081,0.00212
1563.67064,0.00216
1561.61046,0.00222
1559.55029,0.00228
1557.49012,0.00223
1555.42995,0.00205
1553.36978,0.00181
1551.30960,0.00165
1549.24943,0.00166
1547.18926,0.00181
1545.12909,0.00199
1543.06892,0.00207
1541.00874,0.00200
1538.94857,0.00182
1536.88840,0.00163
1534.82823,0.00150
1532.76805,0.00143
1530.70788,0.00137
1528.64771,0.00133
1526.58754,0.00134
1524.52737,0.00141
1522.46719,0.00148
1520.40702,0.00149
1518.34685,0.00143
1516.28668,0.00134
1514.22651,0.00126
1512.16633,0.00122
1510.10616,0.00123
1508.04599,0.00128
1505.98582,0.00131
1503.92565,0.00131
1501.86547,0.00131
1499.80530,0.00136
1497.74513,0.00142
1495.68496,0.00143
1493.62478,0.00140
1491.56461,0.00137
1489.50444,0.00135
1487.44427,0.00129
1485.38410,0.00117
1483.32392,0.00106
1481.26375,0.00105
1479.20358,0.00118
1477.14341,0.00142
1475.08324,0.00169
1473.02306,0.00191
1470.96289,0.00203
1468.90272,0.00205
1466.84255,0.00205
1464.78238,0.00207
1462.72220,0.00212
1460.66203,0.00219
1458.60186,0.00222
1456.54169,0.00218
1454.48151,0.00214
1452.42134,0.00220
1450.36117,0.00235
1448.30100,0.00249
1446.24083,0.00255
1444.18065,0.00257
1442.12048,0.00255
1440.06031,0.00253
1438.00014,0.00256
1435.93997,0.00265
1433.87979,0.00273
1431.81962,0.00278
1429.75945,0.00280
1427.69928,0.00282
1425.63910,0.00283
1423.57893,0.00286
1421.51876,0.00294
1419.45859,0.00304
1417.39842,0.00310
1415.33824,0.00310
1413.27807,0.00307
1411.21790,0.00305
1409.15773,0.00305
1407.09756,0.00307
1405.03738,0.00310
1402.97721,0.00310
1400.91704,0.00304
1398.85687,0.00296
1396.79670,0.00286
1394.73652,0.00278
1392.67635,0.00273
1390.61618,0.00270
1388.55601,0.00270
1386.49583,0.00273
1384.43566,0.00278
1382.37549,0.00284
1380.31532,0.00285
1378.25515,0.00283
1376.19497,0.00285
1374.13480,0.00296
1372.07463,0.00309
1370.01446,0.00312
1367.95429,0.00305
1365.89411,0.00294
1363.83394,0.00289
1361.77377,0.00290
1359.71360,0.00291
1357.65343,0.00291
1355.59325,0.00289
1353.53308,0.00286
1351.47291,0.00280
1349.41274,0.00273
1347.35256,0.00265
1345.29239,0.00258
1343.23222,0.00254
1341.17205,0.00255
1339.11188,0.00260
1337.05170,0.00262
1334.99153,0.00263
1332.93136,0.00264
1330.87119,0.00267
1328.81102,0.00269
1326.75084,0.00263
1324.69067,0.00251
1322.63050,0.00237
1320.57033,0.00228
1318.51015,0.00225
1316.44998,0.00227
1314.38981,0.00232
1312.32964,0.00236
1310.26947,0.00239
1308.20929,0.00241
1306.14912,0.00242
1304.08895,0.00241
1302.02878,0.00239
1299.96861,0.00235
1297.90843,0.00228
1295.84826,0.00223
1293.78809,0.00220
1291.72792,0.00215
1289.66775,0.00210
1287.60757,0.00205
1285.54740,0.00201
1283.48723,0.00196
1281.42706,0.00193
1279.36688,0.00195
1277.30671,0.00201
1275.24654,0.00208
1273.18637,0.00214
1271.12620,0.00222
1269.06602,0.00230
1267.00585,0.00239
1264.94568,0.00246
1262.88551,0.00250
1260.82534,0.00253
1258.76516,0.00257
1256.70499,0.00265
1254.64482,0.00275
1252.58465,0.00283
1250.52447,0.00289
1248.46430,0.00294
1246.40413,0.00300
1244.34396,0.00304
1242.28379,0.00307
1240.22361,0.00306
1238.16344,0.00300
1236.10327,0.00293
1234.04310,0.00288
1231.98293,0.00282
1229.92275,0.00269
1227.86258,0.00249
1225.80241,0.00226
1223.74224,0.00208
1221.68207,0.00195
1219.62189,0.00187
1217.56172,0.00181
1215.50155,0.00175
1213.44138,0.00164
1211.38120,0.00146
1209.32103,0.00120
1207.26086,0.00090
1205.20069,0.00064
1203.14052,0.00048
1201.08034,0.00045
1199.02017,0.00052
1196.96000,0.00060
1194.89983,0.00053
1192.83966,0.00029
1190.77948,0.00014
1188.71931,0.00016
1186.65914,0.00019
1184.59897,0.00009
1182.53880,0.00000
1180.47862,0.00005
1178.41845,0.00023
1176.35828,0.00047
1174.29811,0.00074
1172.23793,0.00103
1170.17776,0.00131
1168.11759,0.00149
1166.05742,0.00158
1163.99725,0.00166
1161.93707,0.00180
1159.87690,0.00211
1157.81673,0.00253
1155.75656,0.00297
1153.69639,0.00331
1151.63621,0.00342
1149.57604,0.00330
1147.51587,0.00323
1145.45570,0.00334
1143.39552,0.00349
1141.33535,0.00359
1139.27518,0.00367
1137.21501,0.00381
1135.15484,0.00400
1133.09466,0.00421
1131.03449,0.00446
1128.97432,0.00474
1126.91415,0.00496
1124.85398,0.00510
1122.79380,0.00521
1120.73363,0.00534
1118.67346,0.00554
1116.61329,0.00577
1114.55312,0.00602
1112.49294,0.00633
1110.43277,0.00669
1108.37260,0.00700
1106.31243,0.00729
1104.25225,0.00757
1102.19208,0.00779
1100.13191,0.00798
1098.07174,0.00827
1096.01157,0.00871
1093.95139,0.00921
1091.89122,0.00963
1089.83105,0.00999
1087.77088,0.01032
1085.71071,0.01058
1083.65053,0.01076
1081.59036,0.01098
1079.53019,0.01128
1077.47002,0.01164
1075.40985,0.01210
1073.34967,0.01261
1071.28950,0.01291
1069.22933,0.01286
1067.16916,0.01260
1065.10898,0.01251
1063.04881,0.01268
1060.98864,0.01296
1058.92847,0.01320
1056.86830,0.01339
1054.80812,0.01353
1052.74795,0.01365
1050.68778,0.01384
1048.62761,0.01401
1046.56744,0.01405
1044.50726,0.01406
1042.44709,0.01426
1040.38692,0.01457
1038.32675,0.01468
1036.26657,0.01454
1034.20640,0.01439
1032.14623,0.01441
1030.08606,0.01443
1028.02589,0.01429
1025.96571,0.01404
1023.90554,0.01379
1021.84537,0.01366
1019.78520,0.01358
1017.72503,0.01341
1015.66485,0.01316
1013.60468,0.01293
1011.54451,0.01274
1009.48434,0.01260
1007.42417,0.01255
1005.36399,0.01247
1003.30382,0.01227
1001.24365,0.01195
999.18348,0.01154
997.12330,0.01114
995.06313,0.01085
993.00296,0.01070
990.94279,0.01064
988.88262,0.01054
986.82244,0.01029
984.76227,0.00991
982.70210,0.00958
980.64193,0.00951
978.58176,0.00968
976.52158,0.00979
974.46141,0.00967
972.40124,0.00935
970.34107,0.00897
968.28089,0.00855
966.22072,0.00811
964.16055,0.00778
962.10038,0.00757
960.04021,0.00737
957.98003,0.00713
955.91986,0.00690
953.85969,0.00674
951.79952,0.00662
949.73935,0.00651
947.67917,0.00625
945.61900,0.00579
943.55883,0.00542
941.49866,0.00528
939.43849,0.00504
937.37831,0.00456
935.31814,0.00405
933.25797,0.00366
931.19780,0.00343
929.13762,0.00325
927.07745,0.00310
925.01728,0.00285
922.95711,0.00240
920.89694,0.00198
918.83676,0.00193
916.77659,0.00209
914.71642,0.00204
912.65625,0.00172
910.59608,0.00161
908.53590,0.00188
906.47573,0.00205
904.41556,0.00183
902.35539,0.00156
900.29522,0.00148
898.23504,0.00147
896.17487,0.00158
894.11470,0.00177
892.05453,0.00182
889.99435,0.00171
887.93418,0.00158
885.87401,0.00148
883.81384,0.00143
881.75367,0.00150
879.69349,0.00164
877.63332,0.00173
875.57315,0.00159
873.51298,0.00127
871.45281,0.00122
869.39263,0.00145
867.33246,0.00154
865.27229,0.00148
863.21212,0.00148
861.15194,0.00138
859.09177,0.00109
857.03160,0.00092
854.97143,0.00110
852.91126,0.00143
850.85108,0.00147
848.79091,0.00115
846.73074,0.00080
844.67057,0.00067
842.61040,0.00063
840.55022,0.00048
838.49005,0.00024
836.42988,0.00000
834.36971,0.00003
832.30954,0.00036
830.24936,0.00067
828.18919,0.00076
826.12902,0.00070
824.06885,0.00060
822.00867,0.00058
819.94850,0.00059
817.88833,0.00048
815.82816,0.00032
813.76799,0.00025
811.70781,0.00019
809.64764,0.00016
807.58747,0.00019
805.52730,0.00014
803.46713,0.00005
801.40695,0.00013
799.34678,0.00034
797.28661,0.00039
795.22644,0.00020
793.16627,-0.00002
791.10609,-0.00015
789.04592,-0.00020
786.98575,-0.00014
784.92558,-0.00003
782.86540,-0.00003
780.80523,-0.00011
778.74506,-0.00002
776.68489,0.00033
774.62472,0.00067
772.56454,0.00075
770.50437,0.00077
768.44420,0.00104
766.38403,0.00137
764.32386,0.00138
762.26368,0.00112
760.20351,0.00089
758.14334,0.00087
756.08317,0.00114
754.02299,0.00150
751.96282,0.00158
749.90265,0.00128
747.84248,0.00097
745.78231,0.00099
743.72213,0.00117
741.66196,0.00112
739.60179,0.00083
737.54162,0.00058
735.48145,0.00047
733.42127,0.00032
731.36110,0.00011
729.30093,0.00000
727.24076,0.00005
725.18059,0.00040
723.12041,0.00098
721.06024,0.00160
719.00007,0.00212
716.93990,0.00238
714.87972,0.00238
712.81955,0.00221
710.75938,0.00202
708.69921,0.00190
706.63904,0.00193
704.57886,0.00210
702.51869,0.00223
700.45852,0.00217
698.39835,0.00197
696.33818,0.00185
694.27800,0.00195
692.21783,0.00218
690.15766,0.00236
688.09749,0.00239
686.03731,0.00215
683.97714,0.00172
681.91697,0.00133
679.85680,0.00120
677.79663,0.00130
675.73645,0.00149
673.67628,0.00168
671.61611,0.00180
669.55594,0.00177
667.49577,0.00166
665.43559,0.00163
663.37542,0.00158
661.31525,0.00149
659.25508,0.00167
657.19491,0.00230
655.13473,0.00305
653.07456,0.00337
651.01439,0.00305
648.95422,0.00237
646.89404,0.00184
644.83387,0.00183
642.77370,0.00222
640.71353,0.00250
638.65336,0.00219
636.59318,0.00132
634.53301,0.00041
632.47284,0.00000
630.41267,0.00004
628.35250,0.00050
626.29232,0.00143
624.23215,0.00289
622.17198,0.00411
620.11181,0.00409
618.05164,0.00266
615.99146,0.00092
613.93129,-0.00018
611.87112,-0.00050
609.81095,-0.00015
607.75077,0.00054
605.69060,0.00126
603.63043,0.00157
601.57026,0.00111
599.51009,0.00000
