3996.73391,0.00018
3994.67373,0.00019
3992.61356,0.00025
3990.55339,0.00037
3988.49322,0.00047
3986.43305,0.00046
3984.37287,0.00035
3982.31270,0.00020
3980.25253,0.00007
3978.19236,0.00000
3976.13219,0.00001
3974.07201,0.00005
3972.01184,0.00012
3969.95167,0.00025
3967.89150,0.00044
3965.83133,0.00061
3963.77115,0.00066
3961.71098,0.00057
3959.65081,0.00039
3957.59064,0.00020
3955.53046,0.00007
3953.47029,0.00003
3951.41012,0.00011
3949.34995,0.00031
3947.28978,0.00056
3945.22960,0.00078
3943.16943,0.00092
3941.10926,0.00093
3939.04909,0.00082
3936.98892,0.00069
3934.92874,0.00061
3932.86857,0.00055
3930.80840,0.00049
3928.74823,0.00046
3926.68805,0.00045
3924.62788,0.00045
3922.56771,0.00044
3920.50754,0.00049
3918.44737,0.00058
3916.38719,0.00065
3914.32702,0.00066
3912.26685,0.00060
3910.20668,0.00056
3908.14651,0.00065
3906.08633,0.00092
3904.02616,0.00119
3901.96599,0.00127
3899.90582,0.00119
3897.84565,0.00107
3895.78547,0.00096
3893.72530,0.00087
3891.66513,0.00076
3889.60496,0.00065
3887.54478,0.00064
3885.48461,0.00078
3883.42444,0.00096
3881.36427,0.00105
3879.30410,0.00097
3877.24392,0.00083
3875.18375,0.00078
3873.12358,0.00083
3871.06341,0.00097
3869.00324,0.00112
3866.94306,0.00127
3864.88289,0.00140
3862.82272,0.00141
3860.76255,0.00127
3858.70237,0.00107
3856.64220,0.00096
3854.58203,0.00095
3852.52186,0.00094
3850.46169,0.00082
3848.40151,0.00062
3846.34134,0.00048
3844.28117,0.00054
3842.22100,0.00078
3840.16083,0.00104
3838.10065,0.00118
3836.04048,0.00115
3833.98031,0.00102
3831.92014,0.00095
3829.85997,0.00104
3827.79979,0.00127
3825.73962,0.00154
3823.67945,0.00178
3821.61928,0.00194
3819.55910,0.00200
3817.49893,0.00189
3815.43876,0.00153
3813.37859,0.00098
3811.31842,0.00054
3809.25824,0.00049
3807.19807,0.00080
3805.13790,0.00116
3803.07773,0.00134
3801.01756,0.00125
3798.95738,0.00099
3796.89721,0.00080
3794.83704,0.00078
3792.77687,0.00089
3790.71670,0.00102
3788.65652,0.00110
3786.59635,0.00112
3784.53618,0.00111
3782.47601,0.00106
3780.41583,0.00096
3778.35566,0.00088
3776.29549,0.00092
3774.23532,0.00111
3772.17515,0.00132
3770.11497,0.00135
3768.05480,0.00110
3765.99463,0.00076
3763.93446,0.00062
3761.87429,0.00076
3759.81411,0.00113
3757.75394,0.00153
3755.69377,0.00184
3753.63360,0.00206
3751.57342,0.00220
3749.51325,0.00214
3747.45308,0.00189
3745.39291,0.00156
3743.33274,0.00123
3741.27256,0.00102
3739.21239,0.00104
3737.15222,0.00128
3735.09205,0.00153
3733.03188,0.00158
3730.97170,0.00152
3728.91153,0.00149
3726.85136,0.00151
3724.79119,0.00150
3722.73102,0.00143
3720.67084,0.00134
3718.61067,0.00125
3716.55050,0.00119
3714.49033,0.00122
3712.43015,0.00133
3710.36998,0.00140
3708.30981,0.00137
3706.24964,0.00128
3704.18947,0.00121
3702.12929,0.00122
3700.06912,0.00129
3698.00895,0.00133
3695.94878,0.00135
3693.88861,0.00141
3691.82843,0.00149
3689.76826,0.00146
3687.70809,0.00124
3685.64792,0.00092
3683.58775,0.00074
3681.52757,0.00087
3679.46740,0.00123
3677.40723,0.00167
3675.34706,0.00202
3673.28688,0.00219
3671.22671,0.00219
3669.16654,0.00205
3667.10637,0.00176
3665.04620,0.00143
3662.98602,0.00113
3660.92585,0.00089
3658.86568,0.00074
3656.80551,0.00072
3654.74534,0.00090
3652.68516,0.00127
3650.62499,0.00172
3648.56482,0.00204
3646.50465,0.00213
3644.44447,0.00203
3642.38430,0.00190
3640.32413,0.00188
3638.26396,0.00206
3636.20379,0.00241
3634.14361,0.00286
3632.08344,0.00330
3630.02327,0.00359
3627.96310,0.00359
3625.90293,0.00332
3623.84275,0.00303
3621.78258,0.00286
3619.72241,0.00279
3617.66224,0.00273
3615.60207,0.00273
3613.54189,0.00285
3611.48172,0.00308
3609.42155,0.00334
3607.36138,0.00363
3605.30120,0.00396
3603.24103,0.00429
3601.18086,0.00449
3599.12069,0.00448
3597.06052,0.00430
3595.00034,0.00412
3592.94017,0.00415
3590.88000,0.00441
3588.81983,0.00474
3586.75966,0.00501
3584.69948,0.00522
3582.63931,0.00545
3580.57914,0.00569
3578.51897,0.00594
3576.45879,0.00617
3574.39862,0.00634
3572.33845,0.00645
3570.27828,0.00662
3568.21811,0.00686
3566.15793,0.00702
3564.09776,0.00699
3562.03759,0.00686
3559.97742,0.00682
3557.91725,0.00698
3555.85707,0.00730
3553.79690,0.00761
3551.73673,0.00773
3549.67656,0.00766
3547.61639,0.00759
3545.55621,0.00758
3543.49604,0.00760
3541.43587,0.00762
3539.37570,0.00768
3537.31552,0.00785
3535.25535,0.00815
3533.19518,0.00851
3531.13501,0.00876
3529.07484,0.00887
3527.01466,0.00890
3524.95449,0.00901
3522.89432,0.00924
3520.83415,0.00953
3518.77398,0.00981
3516.71380,0.01000
3514.65363,0.01009
3512.59346,0.01014
3510.53329,0.01022
3508.47312,0.01037
3506.41294,0.01058
3504.35277,0.01084
3502.29260,0.01109
3500.23243,0.01126
3498.17225,0.01133
3496.11208,0.01130
3494.05191,0.01118
3491.99174,0.01104
3489.93157,0.01100
3487.87139,0.01113
3485.81122,0.01135
3483.75105,0.01155
3481.69088,0.01168
3479.63071,0.01183
3477.57053,0.01202
3475.51036,0.01220
3473.45019,0.01225
3471.39002,0.01221
3469.32984,0.01219
3467.26967,0.01231
3465.20950,0.01254
3463.14933,0.01278
3461.08916,0.01296
3459.02898,0.01313
3456.96881,0.01331
3454.90864,0.01350
3452.84847,0.01370
3450.78830,0.01390
3448.72812,0.01406
3446.66795,0.01411
3444.60778,0.01404
3442.54761,0.01399
3440.48744,0.01404
3438.42726,0.01420
3436.36709,0.01439
3434.30692,0.01457
3432.24675,0.01470
3430.18657,0.01476
3428.12640,0.01474
3426.06623,0.01467
3424.00606,0.01462
3421.94589,0.01464
3419.88571,0.01473
3417.82554,0.01489
3415.76537,0.01507
3413.70520,0.01523
3411.64503,0.01538
3409.58485,0.01558
3407.52468,0.01580
3405.46451,0.01598
3403.40434,0.01605
3401.34416,0.01607
3399.28399,0.01612
3397.22382,0.01619
3395.16365,0.01629
3393.10348,0.01644
3391.04330,0.01666
3388.98313,0.01687
3386.92296,0.01700
3384.86279,0.01698
3382.80262,0.01687
3380.74244,0.01677
3378.68227,0.01676
3376.62210,0.01684
3374.56193,0.01698
3372.50176,0.01713
3370.44158,0.01724
3368.38141,0.01724
3366.32124,0.01718
3364.26107,0.01714
3362.20089,0.01717
3360.14072,0.01724
3358.08055,0.01732
3356.02038,0.01739
3353.96021,0.01748
3351.90003,0.01760
3349.83986,0.01771
3347.77969,0.01781
3345.71952,0.01790
3343.65935,0.01798
3341.59917,0.01804
3339.53900,0.01809
3337.47883,0.01808
3335.41866,0.01803
3333.35849,0.01798
3331.29831,0.01800
3329.23814,0.01810
3327.17797,0.01827
3325.11780,0.01844
3323.05762,0.01854
3320.99745,0.01853
3318.93728,0.01849
3316.87711,0.01849
3314.81694,0.01857
3312.75676,0.01870
3310.69659,0.01883
3308.63642,0.01889
3306.57625,0.01887
3304.51608,0.01880
3302.45590,0.01876
3300.39573,0.01875
3298.33556,0.01876
3296.27539,0.01879
3294.21521,0.01884
3292.15504,0.01891
3290.09487,0.01895
3288.03470,0.01894
3285.97453,0.01887
3283.91435,0.01877
3281.85418,0.01869
3279.79401,0.01868
3277.73384,0.01874
3275.67367,0.01881
3273.61349,0.01882
3271.55332,0.01876
3269.49315,0.01865
3267.43298,0.01852
3265.37281,0.01843
3263.31263,0.01839
3261.25246,0.01840
3259.19229,0.01845
3257.13212,0.01852
3255.07194,0.01855
3253.01177,0.01851
3250.95160,0.01839
3248.89143,0.01825
3246.83126,0.01813
3244.77108,0.01805
3242.71091,0.01799
3240.65074,0.01801
3238.59057,0.01812
3236.53040,0.01823
3234.47022,0.01822
3232.41005,0.01809
3230.34988,0.01791
3228.28971,0.01778
3226.22954,0.01774
3224.16936,0.01772
3222.10919,0.01766
3220.04902,0.01752
3217.98885,0.01732
3215.92867,0.01715
3213.86850,0.01709
3211.80833,0.01710
3209.74816,0.01708
3207.68799,0.01693
3205.62781,0.01666
3203.56764,0.01643
3201.50747,0.01637
3199.44730,0.01646
3197.38713,0.01655
3195.32695,0.01654
3193.26678,0.01647
3191.20661,0.01638
3189.14644,0.01629
3187.08626,0.01621
3185.02609,0.01613
3182.96592,0.01603
3180.90575,0.01594
3178.84558,0.01582
3176.78540,0.01567
3174.72523,0.01551
3172.66506,0.01532
3170.60489,0.01514
3168.54472,0.01496
3166.48454,0.01478
3164.42437,0.01460
3162.36420,0.01443
3160.30403,0.01423
3158.24386,0.01402
3156.18368,0.01387
3154.12351,0.01385
3152.06334,0.01395
3150.00317,0.01402
3147.94299,0.01396
3145.88282,0.01376
3143.82265,0.01348
3141.76248,0.01320
3139.70231,0.01296
3137.64213,0.01284
3135.58196,0.01286
3133.52179,0.01295
3131.46162,0.01297
3129.40145,0.01285
3127.34127,0.01265
3125.28110,0.01242
3123.22093,0.01220
3121.16076,0.01205
3119.10058,0.01195
3117.04041,0.01188
3114.98024,0.01178
3112.92007,0.01163
3110.85990,0.01145
3108.79972,0.01124
3106.73955,0.01105
3104.67938,0.01089
3102.61921,0.01077
3100.55904,0.01068
3098.49886,0.01060
3096.43869,0.01050
3094.37852,0.01037
3092.31835,0.01023
3090.25818,0.01012
3088.19800,0.01004
3086.13783,0.00997
3084.07766,0.00991
3082.01749,0.00987
3079.95731,0.00985
3077.89714,0.00978
3075.83697,0.00961
3073.77680,0.00935
3071.71663,0.00904
3069.65645,0.00874
3067.59628,0.00853
3065.53611,0.00847
3063.47594,0.00853
3061.41577,0.00859
3059.35559,0.00856
3057.29542,0.00843
3055.23525,0.00824
3053.17508,0.00807
3051.11491,0.00796
3049.05473,0.00794
3046.99456,0.00796
3044.93439,0.00789
3042.87422,0.00773
3040.81404,0.00753
3038.75387,0.00735
3036.69370,0.00718
3034.63353,0.00708
3032.57336,0.00709
3030.51318,0.00717
3028.45301,0.00724
3026.39284,0.00727
3024.33267,0.00727
3022.27250,0.00722
3020.21232,0.00709
3018.15215,0.00691
3016.09198,0.00679
3014.03181,0.00679
3011.97163,0.00688
3009.91146,0.00694
3007.85129,0.00687
3005.79112,0.00668
3003.73095,0.00645
3001.67077,0.00626
2999.61060,0.00620
2997.55043,0.00630
2995.49026,0.00641
2993.43009,0.00638
2991.36991,0.00622
2989.30974,0.00608
2987.24957,0.00622
2985.18940,0.00662
2983.12923,0.00701
2981.06905,0.00723
2979.00888,0.00729
2976.94871,0.00718
2974.88854,0.00702
2972.82836,0.00703
2970.76819,0.00723
2968.70802,0.00739
2966.64785,0.00741
2964.58768,0.00735
2962.52750,0.00736
2960.46733,0.00749
2958.40716,0.00776
2956.34699,0.00813
2954.28682,0.00849
2952.22664,0.00875
2950.16647,0.00895
2948.10630,0.00914
2946.04613,0.00933
2943.98596,0.00943
2941.92578,0.00940
2939.86561,0.00935
2937.80544,0.00934
2935.74527,0.00931
2933.68509,0.00932
2931.62492,0.00947
2929.56475,0.00962
2927.50458,0.00957
2925.44441,0.00937
2923.38423,0.00922
2921.32406,0.00919
2919.26389,0.00923
2917.20372,0.00931
2915.14355,0.00930
2913.08337,0.00915
2911.02320,0.00893
2908.96303,0.00879
2906.90286,0.00878
2904.84268,0.00873
2902.78251,0.00852
2900.72234,0.00835
2898.66217,0.00842
2896.60200,0.00868
2894.54182,0.00884
2892.48165,0.00881
2890.42148,0.00867
2888.36131,0.00843
2886.30114,0.00814
2884.24096,0.00802
2882.18079,0.00811
2880.12062,0.00819
2878.06045,0.00807
2876.00028,0.00783
2873.94010,0.00770
2871.87993,0.00767
2869.81976,0.00761
2867.75959,0.00746
2865.69941,0.00723
2863.63924,0.00699
2861.57907,0.00687
2859.51890,0.00691
2857.45873,0.00698
2855.39855,0.00695
2853.33838,0.00683
2851.27821,0.00672
2849.21804,0.00666
2847.15787,0.00664
2845.09769,0.00661
2843.03752,0.00650
2840.97735,0.00628
2838.91718,0.00604
2836.85700,0.00589
2834.79683,0.00584
2832.73666,0.00586
2830.67649,0.00591
2828.61632,0.00597
2826.55614,0.00602
2824.49597,0.00600
2822.43580,0.00593
2820.37563,0.00594
2818.31546,0.00598
2816.25528,0.00593
2814.19511,0.00581
2812.13494,0.00570
2810.07477,0.00557
2808.01460,0.00538
2805.95442,0.00524
2803.89425,0.00532
2801.83408,0.00552
2799.77391,0.00559
2797.71373,0.00546
2795.65356,0.00524
2793.59339,0.00509
2791.53322,0.00505
2789.47305,0.00503
2787.41287,0.00497
2785.35270,0.00493
2783.29253,0.00501
2781.23236,0.00522
2779.17219,0.00539
2777.11201,0.00541
2775.05184,0.00524
2772.99167,0.00498
2770.93150,0.00479
2768.87133,0.00476
2766.81115,0.00483
2764.75098,0.00496
2762.69081,0.00503
2760.63064,0.00499
2758.57046,0.00490
2756.51029,0.00487
2754.45012,0.00493
2752.38995,0.00501
2750.32978,0.00499
2748.26960,0.00486
2746.20943,0.00474
2744.14926,0.00463
2742.08909,0.00452
2740.02892,0.00443
2737.96874,0.00429
2735.90857,0.00412
2733.84840,0.00411
2731.78823,0.00432
2729.72805,0.00455
2727.66788,0.00469
2725.60771,0.00474
2723.54754,0.00465
2721.48737,0.00448
2719.42719,0.00441
2717.36702,0.00449
2715.30685,0.00456
2713.24668,0.00451
2711.18651,0.00440
2709.12633,0.00435
2707.06616,0.00430
2705.00599,0.00424
2702.94582,0.00422
2700.88565,0.00427
2698.82547,0.00437
2696.76530,0.00440
2694.70513,0.00427
2692.64496,0.00404
2690.58478,0.00390
2688.52461,0.00396
2686.46444,0.00412
2684.40427,0.00422
2682.34410,0.00423
2680.28392,0.00418
2678.22375,0.00409
2676.16358,0.00407
2674.10341,0.00418
2672.04324,0.00430
2669.98306,0.00426
2667.92289,0.00404
2665.86272,0.00381
2663.80255,0.00372
2661.74238,0.00381
2659.68220,0.00403
2657.62203,0.00419
2655.56186,0.00409
2653.50169,0.00384
2651.44151,0.00374
2649.38134,0.00377
2647.32117,0.00380
2645.26100,0.00378
2643.20083,0.00370
2641.14065,0.00357
2639.08048,0.00345
2637.02031,0.00340
2634.96014,0.00342
2632.89997,0.00354
2630.83979,0.00376
2628.77962,0.00402
2626.71945,0.00417
2624.65928,0.00400
2622.59910,0.00364
2620.53893,0.00341
2618.47876,0.00334
2616.41859,0.00332
2614.35842,0.00336
2612.29824,0.00352
2610.23807,0.00364
2608.17790,0.00358
2606.11773,0.00336
2604.05756,0.00316
2601.99738,0.00311
2599.93721,0.00315
2597.87704,0.00320
2595.81687,0.00322
2593.75670,0.00320
2591.69652,0.00316
2589.63635,0.00316
2587.57618,0.00324
2585.51601,0.00332
2583.45583,0.00332
2581.39566,0.00318
2579.33549,0.00300
2577.27532,0.00300
2575.21515,0.00319
2573.15497,0.00330
2571.09480,0.00314
2569.03463,0.00279
2566.97446,0.00248
2564.91429,0.00228
2562.85411,0.00215
2560.79394,0.00226
2558.73377,0.00263
2556.67360,0.00290
2554.61342,0.00302
2552.55325,0.00321
2550.49308,0.00333
2548.43291,0.00314
2546.37274,0.00286
2544.31256,0.00276
2542.25239,0.00281
2540.19222,0.00276
2538.13205,0.00265
2536.07188,0.00269
2534.01170,0.00288
2531.95153,0.00300
2529.89136,0.00305
2527.83119,0.00304
2525.77102,0.00293
2523.71084,0.00287
2521.65067,0.00292
2519.59050,0.00293
2517.53033,0.00295
2515.47015,0.00316
2513.40998,0.00350
2511.34981,0.00352
2509.28964,0.00304
2507.22947,0.00247
2505.16929,0.00218
2503.10912,0.00216
2501.04895,0.00240
2498.98878,0.00271
2496.92861,0.00279
2494.86843,0.00266
2492.80826,0.00268
2490.74809,0.00284
2488.68792,0.00287
2486.62775,0.00261
2484.56757,0.00220
2482.50740,0.00191
2480.44723,0.00190
2478.38706,0.00204
2476.32688,0.00221
2474.26671,0.00233
2472.20654,0.00234
2470.14637,0.00239
2468.08620,0.00256
2466.02602,0.00269
2463.96585,0.00264
2461.90568,0.00251
2459.84551,0.00242
2457.78534,0.00248
2455.72516,0.00262
2453.66499,0.00265
2451.60482,0.00266
2449.54465,0.00279
2447.48447,0.00293
2445.42430,0.00290
2443.36413,0.00268
2441.30396,0.00240
2439.24379,0.00217
2437.18361,0.00206
2435.12344,0.00216
2433.06327,0.00233
2431.00310,0.00240
2428.94293,0.00236
2426.88275,0.00220
2424.82258,0.00197
2422.76241,0.00187
2420.70224,0.00206
2418.64207,0.00241
2416.58189,0.00260
2414.52172,0.00247
2412.46155,0.00219
2410.40138,0.00198
2408.34120,0.00186
2406.28103,0.00179
2404.22086,0.00176
2402.16069,0.00188
2400.10052,0.00220
2398.04034,0.00254
2395.98017,0.00271
2393.92000,0.00268
2391.85983,0.00253
2389.79966,0.00239
2387.73948,0.00234
2385.67931,0.00237
2383.61914,0.00241
2381.55897,0.00239
2379.49880,0.00234
2377.43862,0.00235
2375.37845,0.00255
2373.31828,0.00293
2371.25811,0.00330
2369.19793,0.00342
2367.13776,0.00332
2365.07759,0.00339
2363.01742,0.00382
2360.95725,0.00402
2358.89707,0.00335
2356.83690,0.00216
2354.77673,0.00151
2352.71656,0.00175
2350.65639,0.00232
2348.59621,0.00260
2346.53604,0.00237
2344.47587,0.00171
2342.41570,0.00089
2340.35552,0.00038
2338.29535,0.00048
2336.23518,0.00096
2334.17501,0.00130
2332.11484,0.00141
2330.05466,0.00165
2327.99449,0.00223
2325.93432,0.00297
2323.87415,0.00353
2321.81398,0.00379
2319.75380,0.00385
2317.69363,0.00381
2315.63346,0.00368
2313.57329,0.00350
2311.51312,0.00334
2309.45294,0.00322
2307.39277,0.00319
2305.33260,0.00319
2303.27243,0.00310
2301.21225,0.00284
2299.15208,0.00247
2297.09191,0.00217
2295.03174,0.00215
2292.97157,0.00246
2290.91139,0.00294
2288.85122,0.00331
2286.79105,0.00337
2284.73088,0.00313
2282.67071,0.00287
2280.61053,0.00281
2278.55036,0.00294
2276.49019,0.00309
2274.43002,0.00316
2272.36984,0.00306
2270.30967,0.00274
2268.24950,0.00224
2266.18933,0.00178
2264.12916,0.00163
2262.06898,0.00191
2260.00881,0.00247
2257.94864,0.00305
2255.88847,0.00336
2253.82830,0.00325
2251.76812,0.00278
2249.70795,0.00236
2247.64778,0.00228
2245.58761,0.00222
2243.52744,0.00187
2241.46726,0.00139
2239.40709,0.00107
2237.34692,0.00107
2235.28675,0.00152
2233.22657,0.00250
2231.16640,0.00315
2229.10623,0.00281
2227.04606,0.00223
2224.98589,0.00213
2222.92571,0.00218
2220.86554,0.00212
2218.80537,0.00213
2216.74520,0.00231
2214.68503,0.00264
2212.62485,0.00306
2210.56468,0.00301
2208.50451,0.00205
2206.44434,0.00096
2204.38417,0.00071
2202.32399,0.00109
2200.26382,0.00141
2198.20365,0.00165
2196.14348,0.00220
2194.08330,0.00267
2192.02313,0.00241
2189.96296,0.00202
2187.90279,0.00225
2185.84262,0.00264
2183.78244,0.00285
2181.72227,0.00289
2179.66210,0.00245
2177.60193,0.00162
2175.54176,0.00111
2173.48158,0.00129
2171.42141,0.00189
2169.36124,0.00210
2167.30107,0.00154
2165.24089,0.00116
2163.18072,0.00133
2161.12055,0.00117
2159.06038,0.00092
2157.00021,0.00144
2154.94003,0.00201
2152.87986,0.00161
2150.81969,0.00083
2148.75952,0.00064
2146.69935,0.00080
2144.63917,0.00077
2142.57900,0.00098
2140.51883,0.00177
2138.45866,0.00244
2136.39849,0.00231
2134.33831,0.00174
2132.27814,0.00155
2130.21797,0.00195
2128.15780,0.00247
2126.09762,0.00273
2124.03745,0.00256
2121.97728,0.00197
2119.91711,0.00158
2117.85694,0.00176
2115.79676,0.00203
2113.73659,0.00207
2111.67642,0.00212
2109.61625,0.00219
2107.55608,0.00207
2105.49590,0.00198
2103.43573,0.00219
2101.37556,0.00250
2099.31539,0.00270
2097.25521,0.00285
2095.19504,0.00298
2093.13487,0.00299
2091.07470,0.00291
2089.01453,0.00285
2086.95435,0.00288
2084.89418,0.00296
2082.83401,0.00296
2080.77384,0.00285
2078.71367,0.00273
2076.65349,0.00272
2074.59332,0.00279
2072.53315,0.00280
2070.47298,0.00258
2068.41281,0.00210
2066.35263,0.00161
2064.29246,0.00135
2062.23229,0.00139
2060.17212,0.00171
2058.11194,0.00214
2056.05177,0.00235
2053.99160,0.00216
2051.93143,0.00176
2049.87126,0.00143
2047.81108,0.00139
2045.75091,0.00168
2043.69074,0.00208
2041.63057,0.00232
2039.57040,0.00237
2037.51022,0.00236
2035.45005,0.00232
2033.38988,0.00220
2031.32971,0.00192
2029.26954,0.00150
2027.20936,0.00123
2025.14919,0.00149
2023.08902,0.00220
2021.02885,0.00277
2018.96867,0.00272
2016.90850,0.00222
2014.84833,0.00176
2012.78816,0.00160
2010.72799,0.00169
2008.66781,0.00190
2006.60764,0.00211
2004.54747,0.00211
2002.48730,0.00182
2000.42713,0.00140
1998.36695,0.00116
1996.30678,0.00118
1994.24661,0.00133
1992.18644,0.00151
1990.12626,0.00172
1988.06609,0.00186
1986.00592,0.00180
1983.94575,0.00161
1981.88558,0.00144
1979.82540,0.00126
1977.76523,0.00105
1975.70506,0.00093
1973.64489,0.00091
1971.58472,0.00091
1969.52454,0.00100
1967.46437,0.00126
1965.40420,0.00139
1963.34403,0.00110
1961.28386,0.00051
1959.22368,0.00003
1957.16351,0.00000
1955.10334,0.00030
1953.04317,0.00061
1950.98299,0.00066
1948.92282,0.00041
1946.86265,0.00006
1944.80248,-0.00001
1942.74231,0.00038
1940.68213,0.00103
1938.62196,0.00160
1936.56179,0.00181
1934.50162,0.00167
1932.44145,0.00137
1930.38127,0.00114
1928.32110,0.00103
1926.26093,0.00109
1924.20076,0.00131
1922.14059,0.00164
1920.08041,0.00202
1918.02024,0.00230
1915.96007,0.00230
1913.89990,0.00198
1911.83972,0.00147
1909.77955,0.00095
1907.71938,0.00057
1905.65921,0.00044
1903.59904,0.00056
1901.53886,0.00078
1899.47869,0.00096
1897.41852,0.00110
1895.35835,0.00121
1893.29818,0.00128
1891.23800,0.00131
1889.17783,0.00132
1887.11766,0.00133
1885.05749,0.00136
1882.99731,0.00143
1880.93714,0.00150
1878.87697,0.00153
1876.81680,0.00154
1874.75663,0.00156
1872.69645,0.00160
1870.63628,0.00155
1868.57611,0.00135
1866.51594,0.00109
1864.45577,0.00096
1862.39559,0.00104
1860.33542,0.00124
1858.27525,0.00132
1856.21508,0.00117
1854.15491,0.00082
1852.09473,0.00047
1850.03456,0.00026
1847.97439,0.00022
1845.91422,0.00032
1843.85404,0.00047
1841.79387,0.00056
1839.73370,0.00063
1837.67353,0.00068
1835.61336,0.00064
1833.55318,0.00054
1831.49301,0.00052
1829.43284,0.00062
1827.37267,0.00074
1825.31250,0.00076
1823.25232,0.00068
1821.19215,0.00057
1819.13198,0.00051
1817.07181,0.00059
1815.01163,0.00080
1812.95146,0.00109
1810.89129,0.00139
1808.83112,0.00158
1806.77095,0.00159
1804.71077,0.00148
1802.65060,0.00136
1800.59043,0.00128
1798.53026,0.00123
1796.47009,0.00125
1794.40991,0.00134
1792.34974,0.00136
1790.28957,0.00122
1788.22940,0.00101
1786.16923,0.00092
1784.10905,0.00100
1782.04888,0.00120
1779.98871,0.00137
1777.92854,0.00145
1775.86836,0.00146
1773.80819,0.00147
1771.74802,0.00147
1769.68785,0.00145
1767.62768,0.00143
1765.56750,0.00147
1763.50733,0.00157
1761.44716,0.00165
1759.38699,0.00169
1757.32682,0.00180
1755.26664,0.00211
1753.20647,0.00263
1751.14630,0.00320
1749.08613,0.00369
1747.02596,0.00405
1744.96578,0.00435
1742.90561,0.00461
1740.84544,0.00484
1738.78527,0.00505
1736.72509,0.00527
1734.66492,0.00541
1732.60475,0.00535
1730.54458,0.00506
1728.48441,0.00469
1726.42423,0.00436
1724.36406,0.00415
1722.30389,0.00409
1720.24372,0.00414
1718.18355,0.00422
1716.12337,0.00415
1714.06320,0.00391
1712.00303,0.00364
1709.94286,0.00347
1707.88268,0.00336
1705.82251,0.00321
1703.76234,0.00300
1701.70217,0.00280
1699.64200,0.00267
1697.58182,0.00261
1695.52165,0.00258
1693.46148,0.00258
1691.40131,0.00270
1689.34114,0.00299
1687.28096,0.00341
1685.22079,0.00384
1683.16062,0.00411
1681.10045,0.00413
1679.04028,0.00402
1676.98010,0.00399
1674.91993,0.00419
1672.85976,0.00456
1670.79959,0.00498
1668.73941,0.00534
1666.67924,0.00561
1664.61907,0.00588
1662.55890,0.00617
1660.49873,0.00644
1658.43855,0.00673
1656.37838,0.00715
1654.31821,0.00770
1652.25804,0.00823
1650.19787,0.00860
1648.13769,0.00884
1646.07752,0.00895
1644.01735,0.00889
1641.95718,0.00880
1639.89701,0.00888
1637.83683,0.00917
1635.77666,0.00950
1633.71649,0.00964
1631.65632,0.00963
1629.59614,0.00960
1627.53597,0.00964
1625.47580,0.00973
1623.41563,0.00981
1621.35546,0.00982
1619.29528,0.00980
1617.23511,0.00973
1615.17494,0.00958
1613.11477,0.00935
1611.05460,0.00915
1608.99442,0.00898
1606.93425,0.00877
1604.87408,0.00843
1602.81391,0.00798
1600.75373,0.00749
1598.69356,0.00703
1596.63339,0.00662
1594.57322,0.00618
1592.51305,0.00564
1590.45287,0.00500
1588.39270,0.00436
1586.33253,0.00384
1584.27236,0.00348
1582.21219,0.00321
1580.15201,0.00295
1578.09184,0.00270
1576.03167,0.00247
1573.97150,0.00228
1571.91133,0.00218
1569.85115,0.00216
1567.79098,0.00214
1565.73081,0.00210
1563.67064,0.00214
1561.61046,0.00233
1559.55029,0.00260
1557.49012,0.00264
1555.42995,0.00233
1553.36978,0.00181
1551.30960,0.00138
1549.24943,0.00124
1547.18926,0.00148
1545.12909,0.00202
1543.06892,0.00257
1541.00874,0.00273
1538.94857,0.00233
1536.88840,0.00169
1534.82823,0.00115
1532.76805,0.00079
1530.70788,0.00058
1528.64771,0.00053
1526.58754,0.00068
1524.52737,0.00096
1522.46719,0.00127
1520.40702,0.00143
1518.34685,0.00137
1516.28668,0.00116
1514.22651,0.00095
1512.16633,0.00088
1510.10616,0.00098
1508.04599,0.00112
1505.98582,0.00109
1503.92565,0.00090
1501.86547,0.00076
1499.80530,0.00076
1497.74513,0.00081
1495.68496,0.00083
1493.62478,0.00086
1491.56461,0.00098
1489.50444,0.00110
1487.44427,0.00112
1485.38410,0.00107
1483.32392,0.00108
1481.26375,0.00124
1479.20358,0.00154
1477.14341,0.00195
1475.08324,0.00241
1473.02306,0.00282
1470.96289,0.00311
1468.90272,0.00330
1466.84255,0.00349
1464.78238,0.00373
1462.72220,0.00403
1460.66203,0.00441
1458.60186,0.00479
1456.54169,0.00499
1454.48151,0.00498
1452.42134,0.00497
1450.36117,0.00508
1448.30100,0.00525
1446.24083,0.00538
1444.18065,0.00549
1442.12048,0.00562
1440.06031,0.00581
1438.00014,0.00607
1435.93997,0.00635
1433.87979,0.00658
1431.81962,0.00678
1429.75945,0.00699
1427.69928,0.00720
1425.63910,0.00741
1423.57893,0.00763
1421.51876,0.00787
1419.45859,0.00809
1417.39842,0.00823
1415.33824,0.00829
1413.27807,0.00831
1411.21790,0.00830
1409.15773,0.00826
1407.09756,0.00818
1405.03738,0.00804
1402.97721,0.00783
1400.91704,0.00759
1398.85687,0.00741
1396.79670,0.00728
1394.73652,0.00714
1392.67635,0.00698
1390.61618,0.00689
1388.55601,0.00692
1386.49583,0.00702
1384.43566,0.00715
1382.37549,0.00729
1380.31532,0.00748
1378.25515,0.00771
1376.19497,0.00794
1374.13480,0.00812
1372.07463,0.00818
1370.01446,0.00813
1367.95429,0.00803
1365.89411,0.00794
1363.83394,0.00787
1361.77377,0.00782
1359.71360,0.00776
1357.65343,0.00768
1355.59325,0.00760
1353.53308,0.00750
1351.47291,0.00733
1349.41274,0.00710
1347.35256,0.00683
1345.29239,0.00662
1343.23222,0.00652
1341.17205,0.00652
1339.11188,0.00658
1337.05170,0.00662
1334.99153,0.00664
1332.93136,0.00664
1330.87119,0.00665
1328.81102,0.00667
1326.75084,0.00668
1324.69067,0.00665
1322.63050,0.00662
1320.57033,0.00663
1318.51015,0.00667
1316.44998,0.00672
1314.38981,0.00672
1312.32964,0.00663
1310.26947,0.00648
1308.20929,0.00634
1306.14912,0.00622
1304.08895,0.00611
1302.02878,0.00600
1299.96861,0.00591
1297.90843,0.00585
1295.84826,0.00582
1293.78809,0.00577
1291.72792,0.00567
1289.66775,0.00554
1287.60757,0.00543
1285.54740,0.00539
1283.48723,0.00543
1281.42706,0.00554
1279.36688,0.00565
1277.30671,0.00573
1275.24654,0.00579
1273.18637,0.00586
1271.12620,0.00602
1269.06602,0.00630
1267.00585,0.00667
1264.94568,0.00707
1262.88551,0.00740
1260.82534,0.00764
1258.76516,0.00782
1256.70499,0.00798
1254.64482,0.00813
1252.58465,0.00823
1250.52447,0.00828
1248.46430,0.00833
1246.40413,0.00841
1244.34396,0.00844
1242.28379,0.00839
1240.22361,0.00828
1238.16344,0.00813
1236.10327,0.00799
1234.04310,0.00781
1231.98293,0.00755
1229.92275,0.00722
1227.86258,0.00686
1225.80241,0.00650
1223.74224,0.00613
1221.68207,0.00577
1219.62189,0.00546
1217.56172,0.00525
1215.50155,0.00512
1213.44138,0.00500
1211.38120,0.00473
1209.32103,0.00428
1207.26086,0.00368
1205.20069,0.00304
1203.14052,0.00247
1201.08034,0.00200
1199.02017,0.00159
1196.96000,0.00121
1194.89983,0.00080
1192.83966,0.00044
1190.77948,0.00022
1188.71931,0.00008
1186.65914,0.00000
1184.59897,-0.00003
1182.53880,0.00011
1180.47862,0.00041
1178.41845,0.00083
1176.35828,0.00140
1174.29811,0.00211
1172.23793,0.00283
1170.17776,0.00346
1168.11759,0.00404
1166.05742,0.00463
1163.99725,0.00525
1161.93707,0.00587
1159.87690,0.00644
1157.81673,0.00688
1155.75656,0.00721
1153.69639,0.00765
1151.63621,0.00817
1149.57604,0.00857
1147.51587,0.00876
1145.45570,0.00889
1143.39552,0.00911
1141.33535,0.00937
1139.27518,0.00955
1137.21501,0.00962
1135.15484,0.00972
1133.09466,0.01003
1131.03449,0.01049
1128.97432,0.01087
1126.91415,0.01120
1124.85398,0.01167
1122.79380,0.01230
1120.73363,0.01290
1118.67346,0.01338
1116.61329,0.01375
1114.55312,0.01415
1112.49294,0.01468
1110.43277,0.01520
1108.37260,0.01564
1106.31243,0.01611
1104.25225,0.01663
1102.19208,0.01708
1100.13191,0.01751
1098.07174,0.01818
1096.01157,0.01914
1093.95139,0.02011
1091.89122,0.02085
1089.83105,0.02141
1087.77088,0.02197
1085.71071,0.02254
1083.65053,0.02311
1081.59036,0.02376
1079.53019,0.02446
1077.47002,0.02513
1075.40985,0.02577
1073.34967,0.02645
1071.28950,0.02714
1069.22933,0.02767
1067.16916,0.02799
1065.10898,0.02828
1063.04881,0.02857
1060.98864,0.02882
1058.92847,0.02902
1056.86830,0.02924
1054.80812,0.02957
1052.74795,0.03002
1050.68778,0.03046
1048.62761,0.03087
1046.56744,0.03131
1044.50726,0.03182
1042.44709,0.03241
1040.38692,0.03287
1038.32675,0.03306
1036.26657,0.03321
1034.20640,0.03353
1032.14623,0.03392
1030.08606,0.03413
1028.02589,0.03416
1025.96571,0.03416
1023.90554,0.03426
1021.84537,0.03443
1019.78520,0.03450
1017.72503,0.03440
1015.66485,0.03423
1013.60468,0.03413
1011.54451,0.03407
1009.48434,0.03406
1007.42417,0.03412
1005.36399,0.03421
1003.30382,0.03419
1001.24365,0.03390
999.18348,0.03342
997.12330,0.03291
995.06313,0.03253
993.00296,0.03229
990.94279,0.03204
988.88262,0.03166
986.82244,0.03115
984.76227,0.03054
982.70210,0.02994
980.64193,0.02957
978.58176,0.02947
976.52158,0.02941
974.46141,0.02914
972.40124,0.02867
970.34107,0.02821
968.28089,0.02780
966.22072,0.02734
964.16055,0.02679
962.10038,0.02623
960.04021,0.02577
957.98003,0.02538
955.91986,0.02495
953.85969,0.02451
951.79952,0.02410
949.73935,0.02379
947.67917,0.02346
945.61900,0.02282
943.55883,0.02180
941.49866,0.02053
939.43849,0.01909
937.37831,0.01763
935.31814,0.01623
933.25797,0.01488
931.19780,0.01358
929.13762,0.01243
927.07745,0.01147
925.01728,0.01058
922.95711,0.00969
920.89694,0.00887
918.83676,0.00825
916.77659,0.00786
914.71642,0.00753
912.65625,0.00713
910.59608,0.00683
908.53590,0.00668
906.47573,0.00647
904.41556,0.00620
902.35539,0.00613
900.29522,0.00624
898.23504,0.00630
896.17487,0.00627
894.11470,0.00617
892.05453,0.00596
889.99435,0.00571
887.93418,0.00554
885.87401,0.00534
883.81384,0.00502
881.75367,0.00466
879.69349,0.00439
877.63332,0.00417
875.57315,0.00380
873.51298,0.00330
871.45281,0.00304
869.39263,0.00302
867.33246,0.00297
865.27229,0.00293
863.21212,0.00289
861.15194,0.00259
859.09177,0.00212
857.03160,0.00190
854.97143,0.00206
852.91126,0.00222
850.85108,0.00195
848.79091,0.00143
846.73074,0.00124
844.67057,0.00154
842.61040,0.00179
840.55022,0.00141
838.49005,0.00059
836.42988,0.00000
834.36971,-0.00002
832.30954,0.00030
830.24936,0.00066
828.18919,0.00105
826.12902,0.00131
824.06885,0.00127
822.00867,0.00106
819.94850,0.00084
817.88833,0.00058
815.82816,0.00050
813.76799,0.00070
811.70781,0.00083
809.64764,0.00078
807.58747,0.00097
805.52730,0.00153
803.46713,0.00188
801.40695,0.00162
799.34678,0.00110
797.28661,0.00084
795.22644,0.00087
793.16627,0.00091
791.10609,0.00080
789.04592,0.00058
786.98575,0.00026
784.92558,0.00000
782.86540,0.00007
780.80523,0.00039
778.74506,0.00061
776.68489,0.00068
774.62472,0.00079
772.56454,0.00088
770.50437,0.00099
768.44420,0.00131
766.38403,0.00165
764.32386,0.00160
762.26368,0.00113
760.20351,0.00069
758.14334,0.00078
756.08317,0.00127
754.02299,0.00157
751.96282,0.00143
749.90265,0.00111
747.84248,0.00084
745.78231,0.00071
743.72213,0.00073
741.66196,0.00071
739.60179,0.00038
737.54162,0.00000
735.48145,0.00002
733.42127,0.00029
731.36110,0.00021
729.30093,-0.00015
727.24076,-0.00050
725.18059,-0.00059
723.12041,-0.00021
721.06024,0.00045
719.00007,0.00108
716.93990,0.00139
714.87972,0.00138
712.81955,0.00133
710.75938,0.00154
708.69921,0.00202
706.63904,0.00249
704.57886,0.00270
702.51869,0.00262
700.45852,0.00238
698.39835,0.00212
696.33818,0.00200
694.27800,0.00217
692.21783,0.00266
690.15766,0.00335
688.09749,0.00397
686.03731,0.00422
683.97714,0.00403
681.91697,0.00367
679.85680,0.00336
677.79663,0.00316
675.73645,0.00296
673.67628,0.00274
671.61611,0.00255
669.55594,0.00244
667.49577,0.00236
665.43559,0.00232
663.37542,0.00223
661.31525,0.00196
659.25508,0.00161
657.19491,0.00146
655.13473,0.00161
653.07456,0.00190
651.01439,0.00213
648.95422,0.00209
646.89404,0.00180
644.83387,0.00173
642.77370,0.00233
640.71353,0.00338
638.65336,0.00422
636.59318,0.00436
634.53301,0.00379
632.47284,0.00288
630.41267,0.00193
628.35250,0.00091
626.29232,0.00000
624.23215,-0.00016
622.17198,0.00061
620.11181,0.00149
618.05164,0.00183
615.99146,0.00205
613.93129,0.00248
611.87112,0.00233
609.81095,0.00129
607.75077,0.00063
605.69060,0.00139
603.63043,0.00245
601.57026,0.00196
599.51009,0.00000
