3996.73391,0.00013
3994.67373,0.00015
3992.61356,0.00017
3990.55339,0.00020
3988.49322,0.00019
3986.43305,0.00012
3984.37287,0.00002
3982.31270,0.00000
3980.25253,0.00014
3978.19236,0.00039
3976.13219,0.00060
3974.07201,0.00063
3972.01184,0.00050
3969.95167,0.00036
3967.89150,0.00038
3965.83133,0.00056
3963.77115,0.00071
3961.71098,0.00072
3959.65081,0.00060
3957.59064,0.00044
3955.53046,0.00029
3953.47029,0.00022
3951.41012,0.00024
3949.34995,0.00032
3947.28978,0.00038
3945.22960,0.00039
3943.16943,0.00033
3941.10926,0.00021
3939.04909,0.00011
3936.98892,0.00011
3934.92874,0.00021
3932.86857,0.00028
3930.80840,0.00028
3928.74823,0.00032
3926.68805,0.00043
3924.62788,0.00055
3922.56771,0.00056
3920.50754,0.00047
3918.44737,0.00033
3916.38719,0.00021
3914.32702,0.00014
3912.26685,0.00010
3910.20668,0.00012
3908.14651,0.00024
3906.08633,0.00042
3904.02616,0.00060
3901.96599,0.00068
3899.90582,0.00066
3897.84565,0.00055
3895.78547,0.00041
3893.72530,0.00028
3891.66513,0.00014
3889.60496,0.00006
3887.54478,0.00010
3885.48461,0.00024
3883.42444,0.00038
3881.36427,0.00045
3879.30410,0.00042
3877.24392,0.00036
3875.18375,0.00036
3873.12358,0.00041
3871.06341,0.00051
3869.00324,0.00062
3866.94306,0.00071
3864.88289,0.00072
3862.82272,0.00062
3860.76255,0.00051
3858.70237,0.00055
3856.64220,0.00076
3854.58203,0.00093
3852.52186,0.00086
3850.46169,0.00060
3848.40151,0.00034
3846.34134,0.00022
3844.28117,0.00029
3842.22100,0.00050
3840.16083,0.00077
3838.10065,0.00093
3836.04048,0.00091
3833.98031,0.00078
3831.92014,0.00072
3829.85997,0.00079
3827.79979,0.00091
3825.73962,0.00099
3823.67945,0.00101
3821.61928,0.00097
3819.55910,0.00091
3817.49893,0.00080
3815.43876,0.00054
3813.37859,0.00020
3811.31842,0.00000
3809.25824,0.00005
3807.19807,0.00029
3805.13790,0.00052
3803.07773,0.00060
3801.01756,0.00048
3798.95738,0.00028
3796.89721,0.00019
3794.83704,0.00024
3792.77687,0.00031
3790.71670,0.00031
3788.65652,0.00029
3786.59635,0.00029
3784.53618,0.00027
3782.47601,0.00018
3780.41583,0.00005
3778.35566,0.00001
3776.29549,0.00015
3774.23532,0.00041
3772.17515,0.00060
3770.11497,0.00059
3768.05480,0.00037
3765.99463,0.00017
3763.93446,0.00019
3761.87429,0.00047
3759.81411,0.00086
3757.75394,0.00112
3755.69377,0.00118
3753.63360,0.00117
3751.57342,0.00124
3749.51325,0.00134
3747.45308,0.00134
3745.39291,0.00114
3743.33274,0.00079
3741.27256,0.00058
3739.21239,0.00072
3737.15222,0.00109
3735.09205,0.00131
3733.03188,0.00123
3730.97170,0.00102
3728.91153,0.00086
3726.85136,0.00074
3724.79119,0.00054
3722.73102,0.00028
3720.67084,0.00012
3718.61067,0.00014
3716.55050,0.00034
3714.49033,0.00063
3712.43015,0.00091
3710.36998,0.00108
3708.30981,0.00109
3706.24964,0.00095
3704.18947,0.00074
3702.12929,0.00062
3700.06912,0.00063
3698.00895,0.00067
3695.94878,0.00071
3693.88861,0.00078
3691.82843,0.00086
3689.76826,0.00076
3687.70809,0.00048
3685.64792,0.00022
3683.58775,0.00017
3681.52757,0.00043
3679.46740,0.00096
3677.40723,0.00153
3675.34706,0.00181
3673.28688,0.00168
3671.22671,0.00138
3669.16654,0.00114
3667.10637,0.00099
3665.04620,0.00090
3662.98602,0.00084
3660.92585,0.00083
3658.86568,0.00086
3656.80551,0.00091
3654.74534,0.00096
3652.68516,0.00112
3650.62499,0.00143
3648.56482,0.00175
3646.50465,0.00191
3644.44447,0.00187
3642.38430,0.00179
3640.32413,0.00187
3638.26396,0.00220
3636.20379,0.00272
3634.14361,0.00331
3632.08344,0.00380
3630.02327,0.00399
3627.96310,0.00382
3625.90293,0.00347
3623.84275,0.00323
3621.78258,0.00321
3619.72241,0.00331
3617.66224,0.00342
3615.60207,0.00351
3613.54189,0.00364
3611.48172,0.00383
3609.42155,0.00399
3607.36138,0.00410
3605.30120,0.00426
3603.24103,0.00453
3601.18086,0.00484
3599.12069,0.00506
3597.06052,0.00514
3595.00034,0.00515
3592.94017,0.00527
3590.88000,0.00558
3588.81983,0.00601
3586.75966,0.00643
3584.69948,0.00684
3582.63931,0.00724
3580.57914,0.00756
3578.51897,0.00779
3576.45879,0.00799
3574.39862,0.00809
3572.33845,0.00804
3570.27828,0.00792
3568.21811,0.00784
3566.15793,0.00783
3564.09776,0.00795
3562.03759,0.00823
3559.97742,0.00865
3557.91725,0.00908
3555.85707,0.00932
3553.79690,0.00930
3551.73673,0.00913
3549.67656,0.00901
3547.61639,0.00909
3545.55621,0.00942
3543.49604,0.00989
3541.43587,0.01035
3539.37570,0.01063
3537.31552,0.01071
3535.25535,0.01073
3533.19518,0.01084
3531.13501,0.01101
3529.07484,0.01117
3527.01466,0.01133
3524.95449,0.01155
3522.89432,0.01183
3520.83415,0.01210
3518.77398,0.01231
3516.71380,0.01245
3514.65363,0.01252
3512.59346,0.01258
3510.53329,0.01270
3508.47312,0.01292
3506.41294,0.01319
3504.35277,0.01343
3502.29260,0.01365
3500.23243,0.01388
3498.17225,0.01411
3496.11208,0.01431
3494.05191,0.01443
3491.99174,0.01454
3489.93157,0.01468
3487.87139,0.01486
3485.81122,0.01501
3483.75105,0.01507
3481.69088,0.01506
3479.63071,0.01513
3477.57053,0.01536
3475.51036,0.01567
3473.45019,0.01593
3471.39002,0.01608
3469.32984,0.01619
3467.26967,0.01631
3465.20950,0.01646
3463.14933,0.01661
3461.08916,0.01671
3459.02898,0.01679
3456.96881,0.01689
3454.90864,0.01701
3452.84847,0.01718
3450.78830,0.01750
3448.72812,0.01795
3446.66795,0.01836
3444.60778,0.01855
3442.54761,0.01854
3440.48744,0.01847
3438.42726,0.01840
3436.36709,0.01834
3434.30692,0.01833
3432.24675,0.01841
3430.18657,0.01855
3428.12640,0.01869
3426.06623,0.01880
3424.00606,0.01890
3421.94589,0.01904
3419.88571,0.01930
3417.82554,0.01964
3415.76537,0.01990
3413.70520,0.01993
3411.64503,0.01975
3409.58485,0.01956
3407.52468,0.01951
3405.46451,0.01966
3403.40434,0.01995
3401.34416,0.02026
3399.28399,0.02047
3397.22382,0.02054
3395.16365,0.02058
3393.10348,0.02075
3391.04330,0.02106
3388.98313,0.02135
3386.92296,0.02146
3384.86279,0.02139
3382.80262,0.02123
3380.74244,0.02112
3378.68227,0.02111
3376.62210,0.02120
3374.56193,0.02140
3372.50176,0.02166
3370.44158,0.02185
3368.38141,0.02190
3366.32124,0.02186
3364.26107,0.02184
3362.20089,0.02194
3360.14072,0.02210
3358.08055,0.02222
3356.02038,0.02226
3353.96021,0.02229
3351.90003,0.02237
3349.83986,0.02249
3347.77969,0.02262
3345.71952,0.02274
3343.65935,0.02284
3341.59917,0.02293
3339.53900,0.02300
3337.47883,0.02295
3335.41866,0.02277
3333.35849,0.02254
3331.29831,0.02240
3329.23814,0.02241
3327.17797,0.02257
3325.11780,0.02285
3323.05762,0.02319
3320.99745,0.02352
3318.93728,0.02377
3316.87711,0.02388
3314.81694,0.02383
3312.75676,0.02368
3310.69659,0.02353
3308.63642,0.02345
3306.57625,0.02342
3304.51608,0.02340
3302.45590,0.02332
3300.39573,0.02319
3298.33556,0.02308
3296.27539,0.02305
3294.21521,0.02313
3292.15504,0.02332
3290.09487,0.02355
3288.03470,0.02376
3285.97453,0.02388
3283.91435,0.02389
3281.85418,0.02379
3279.79401,0.02369
3277.73384,0.02365
3275.67367,0.02368
3273.61349,0.02368
3271.55332,0.02357
3269.49315,0.02339
3267.43298,0.02326
3265.37281,0.02325
3263.31263,0.02335
3261.25246,0.02346
3259.19229,0.02352
3257.13212,0.02355
3255.07194,0.02358
3253.01177,0.02359
3250.95160,0.02354
3248.89143,0.02344
3246.83126,0.02324
3244.77108,0.02297
3242.71091,0.02274
3240.65074,0.02270
3238.59057,0.02287
3236.53040,0.02307
3234.47022,0.02314
3232.41005,0.02300
3230.34988,0.02270
3228.28971,0.02236
3226.22954,0.02211
3224.16936,0.02197
3222.10919,0.02192
3220.04902,0.02186
3217.98885,0.02176
3215.92867,0.02164
3213.86850,0.02155
3211.80833,0.02149
3209.74816,0.02144
3207.68799,0.02138
3205.62781,0.02131
3203.56764,0.02124
3201.50747,0.02114
3199.44730,0.02096
3197.38713,0.02067
3195.32695,0.02038
3193.26678,0.02021
3191.20661,0.02021
3189.14644,0.02028
3187.08626,0.02032
3185.02609,0.02028
3182.96592,0.02016
3180.90575,0.01994
3178.84558,0.01962
3176.78540,0.01928
3174.72523,0.01901
3172.66506,0.01885
3170.60489,0.01879
3168.54472,0.01873
3166.48454,0.01858
3164.42437,0.01834
3162.36420,0.01807
3160.30403,0.01782
3158.24386,0.01760
3156.18368,0.01742
3154.12351,0.01730
3152.06334,0.01726
3150.00317,0.01725
3147.94299,0.01724
3145.88282,0.01717
3143.82265,0.01700
3141.76248,0.01675
3139.70231,0.01644
3137.64213,0.01613
3135.58196,0.01591
3133.52179,0.01582
3131.46162,0.01578
3129.40145,0.01568
3127.34127,0.01549
3125.28110,0.01528
3123.22093,0.01512
3121.16076,0.01501
3119.10058,0.01489
3117.04041,0.01470
3114.98024,0.01442
3112.92007,0.01414
3110.85990,0.01390
3108.79972,0.01368
3106.73955,0.01345
3104.67938,0.01325
3102.61921,0.01308
3100.55904,0.01293
3098.49886,0.01278
3096.43869,0.01264
3094.37852,0.01249
3092.31835,0.01235
3090.25818,0.01224
3088.19800,0.01213
3086.13783,0.01204
3084.07766,0.01201
3082.01749,0.01200
3079.95731,0.01195
3077.89714,0.01180
3075.83697,0.01158
3073.77680,0.01135
3071.71663,0.01113
3069.65645,0.01091
3067.59628,0.01072
3065.53611,0.01054
3063.47594,0.01034
3061.41577,0.01010
3059.35559,0.00984
3057.29542,0.00961
3055.23525,0.00944
3053.17508,0.00933
3051.11491,0.00925
3049.05473,0.00922
3046.99456,0.00918
3044.93439,0.00908
3042.87422,0.00889
3040.81404,0.00869
3038.75387,0.00855
3036.69370,0.00846
3034.63353,0.00841
3032.57336,0.00842
3030.51318,0.00848
3028.45301,0.00851
3026.39284,0.00851
3024.33267,0.00846
3022.27250,0.00832
3020.21232,0.00808
3018.15215,0.00782
3016.09198,0.00762
3014.03181,0.00750
3011.97163,0.00747
3009.91146,0.00750
3007.85129,0.00759
3005.79112,0.00766
3003.73095,0.00764
3001.67077,0.00753
2999.61060,0.00740
2997.55043,0.00734
2995.49026,0.00734
2993.43009,0.00730
2991.36991,0.00725
2989.30974,0.00725
2987.24957,0.00737
2985.18940,0.00767
2983.12923,0.00803
2981.06905,0.00821
2979.00888,0.00820
2976.94871,0.00804
2974.88854,0.00787
2972.82836,0.00792
2970.76819,0.00818
2968.70802,0.00841
2966.64785,0.00853
2964.58768,0.00865
2962.52750,0.00884
2960.46733,0.00909
2958.40716,0.00940
2956.34699,0.00969
2954.28682,0.00986
2952.22664,0.00999
2950.16647,0.01015
2948.10630,0.01026
2946.04613,0.01033
2943.98596,0.01046
2941.92578,0.01066
2939.86561,0.01085
2937.80544,0.01102
2935.74527,0.01112
2933.68509,0.01116
2931.62492,0.01125
2929.56475,0.01138
2927.50458,0.01144
2925.44441,0.01133
2923.38423,0.01108
2921.32406,0.01086
2919.26389,0.01082
2917.20372,0.01085
2915.14355,0.01071
2913.08337,0.01052
2911.02320,0.01046
2908.96303,0.01052
2906.90286,0.01050
2904.84268,0.01027
2902.78251,0.00991
2900.72234,0.00966
2898.66217,0.00970
2896.60200,0.00994
2894.54182,0.01009
2892.48165,0.01002
2890.42148,0.00989
2888.36131,0.00973
2886.30114,0.00952
2884.24096,0.00938
2882.18079,0.00937
2880.12062,0.00929
2878.06045,0.00912
2876.00028,0.00902
2873.94010,0.00900
2871.87993,0.00897
2869.81976,0.00891
2867.75959,0.00876
2865.69941,0.00851
2863.63924,0.00825
2861.57907,0.00808
2859.51890,0.00800
2857.45873,0.00796
2855.39855,0.00791
2853.33838,0.00776
2851.27821,0.00745
2849.21804,0.00715
2847.15787,0.00706
2845.09769,0.00715
2843.03752,0.00722
2840.97735,0.00714
2838.91718,0.00695
2836.85700,0.00669
2834.79683,0.00641
2832.73666,0.00628
2830.67649,0.00636
2828.61632,0.00654
2826.55614,0.00665
2824.49597,0.00661
2822.43580,0.00653
2820.37563,0.00655
2818.31546,0.00664
2816.25528,0.00662
2814.19511,0.00645
2812.13494,0.00625
2810.07477,0.00603
2808.01460,0.00578
2805.95442,0.00557
2803.89425,0.00554
2801.83408,0.00567
2799.77391,0.00578
2797.71373,0.00577
2795.65356,0.00567
2793.59339,0.00562
2791.53322,0.00569
2789.47305,0.00584
2787.41287,0.00595
2785.35270,0.00592
2783.29253,0.00579
2781.23236,0.00567
2779.17219,0.00559
2777.11201,0.00550
2775.05184,0.00536
2772.99167,0.00521
2770.93150,0.00512
2768.87133,0.00513
2766.81115,0.00519
2764.75098,0.00526
2762.69081,0.00531
2760.63064,0.00531
2758.57046,0.00521
2756.51029,0.00507
2754.45012,0.00499
2752.38995,0.00501
2750.32978,0.00510
2748.26960,0.00518
2746.20943,0.00520
2744.14926,0.00513
2742.08909,0.00495
2740.02892,0.00479
2737.96874,0.00472
2735.90857,0.00467
2733.84840,0.00464
2731.78823,0.00466
2729.72805,0.00474
2727.66788,0.00484
2725.60771,0.00493
2723.54754,0.00494
2721.48737,0.00490
2719.42719,0.00480
2717.36702,0.00465
2715.30685,0.00451
2713.24668,0.00443
2711.18651,0.00439
2709.12633,0.00433
2707.06616,0.00432
2705.00599,0.00438
2702.94582,0.00452
2700.88565,0.00467
2698.82547,0.00474
2696.76530,0.00462
2694.70513,0.00439
2692.64496,0.00419
2690.58478,0.00416
2688.52461,0.00429
2686.46444,0.00445
2684.40427,0.00453
2682.34410,0.00452
2680.28392,0.00447
2678.22375,0.00433
2676.16358,0.00414
2674.10341,0.00411
2672.04324,0.00423
2669.98306,0.00423
2667.92289,0.00402
2665.86272,0.00383
2663.80255,0.00385
2661.74238,0.00404
2659.68220,0.00425
2657.62203,0.00432
2655.56186,0.00418
2653.50169,0.00397
2651.44151,0.00389
2649.38134,0.00390
2647.32117,0.00389
2645.26100,0.00380
2643.20083,0.00368
2641.14065,0.00361
2639.08048,0.00361
2637.02031,0.00368
2634.96014,0.00378
2632.89997,0.00385
2630.83979,0.00387
2628.77962,0.00390
2626.71945,0.00393
2624.65928,0.00382
2622.59910,0.00357
2620.53893,0.00338
2618.47876,0.00332
2616.41859,0.00336
2614.35842,0.00350
2612.29824,0.00363
2610.23807,0.00359
2608.17790,0.00343
2606.11773,0.00330
2604.05756,0.00330
2601.99738,0.00336
2599.93721,0.00337
2597.87704,0.00324
2595.81687,0.00301
2593.75670,0.00286
2591.69652,0.00292
2589.63635,0.00310
2587.57618,0.00326
2585.51601,0.00332
2583.45583,0.00328
2581.39566,0.00319
2579.33549,0.00314
2577.27532,0.00314
2575.21515,0.00304
2573.15497,0.00280
2571.09480,0.00257
2569.03463,0.00250
2566.97446,0.00259
2564.91429,0.00268
2562.85411,0.00267
2560.79394,0.00274
2558.73377,0.00300
2556.67360,0.00315
2554.61342,0.00303
2552.55325,0.00283
2550.49308,0.00266
2548.43291,0.00250
2546.37274,0.00249
2544.31256,0.00268
2542.25239,0.00291
2540.19222,0.00308
2538.13205,0.00306
2536.07188,0.00282
2534.01170,0.00248
2531.95153,0.00234
2529.89136,0.00256
2527.83119,0.00288
2525.77102,0.00307
2523.71084,0.00311
2521.65067,0.00301
2519.59050,0.00283
2517.53033,0.00273
2515.47015,0.00270
2513.40998,0.00264
2511.34981,0.00245
2509.28964,0.00212
2507.22947,0.00188
2505.16929,0.00193
2503.10912,0.00220
2501.04895,0.00253
2498.98878,0.00269
2496.92861,0.00259
2494.86843,0.00240
2492.80826,0.00230
2490.74809,0.00224
2488.68792,0.00224
2486.62775,0.00224
2484.56757,0.00212
2482.50740,0.00201
2480.44723,0.00217
2478.38706,0.00251
2476.32688,0.00279
2474.26671,0.00285
2472.20654,0.00267
2470.14637,0.00242
2468.08620,0.00229
2466.02602,0.00222
2463.96585,0.00229
2461.90568,0.00254
2459.84551,0.00274
2457.78534,0.00278
2455.72516,0.00279
2453.66499,0.00281
2451.60482,0.00271
2449.54465,0.00245
2447.48447,0.00224
2445.42430,0.00223
2443.36413,0.00227
2441.30396,0.00224
2439.24379,0.00210
2437.18361,0.00189
2435.12344,0.00178
2433.06327,0.00172
2431.00310,0.00163
2428.94293,0.00166
2426.88275,0.00184
2424.82258,0.00198
2422.76241,0.00204
2420.70224,0.00213
2418.64207,0.00218
2416.58189,0.00208
2414.52172,0.00188
2412.46155,0.00174
2410.40138,0.00174
2408.34120,0.00183
2406.28103,0.00195
2404.22086,0.00202
2402.16069,0.00206
2400.10052,0.00212
2398.04034,0.00218
2395.98017,0.00221
2393.92000,0.00220
2391.85983,0.00213
2389.79966,0.00209
2387.73948,0.00213
2385.67931,0.00225
2383.61914,0.00230
2381.55897,0.00214
2379.49880,0.00175
2377.43862,0.00130
2375.37845,0.00103
2373.31828,0.00108
2371.25811,0.00143
2369.19793,0.00190
2367.13776,0.00233
2365.07759,0.00276
2363.01742,0.00324
2360.95725,0.00354
2358.89707,0.00331
2356.83690,0.00258
2354.77673,0.00187
2352.71656,0.00160
2350.65639,0.00170
2348.59621,0.00190
2346.53604,0.00193
2344.47587,0.00174
2342.41570,0.00138
2340.35552,0.00093
2338.29535,0.00064
2336.23518,0.00076
2334.17501,0.00122
2332.11484,0.00178
2330.05466,0.00238
2327.99449,0.00304
2325.93432,0.00366
2323.87415,0.00400
2321.81398,0.00402
2319.75380,0.00387
2317.69363,0.00362
2315.63346,0.00328
2313.57329,0.00295
2311.51312,0.00270
2309.45294,0.00259
2307.39277,0.00266
2305.33260,0.00284
2303.27243,0.00288
2301.21225,0.00264
2299.15208,0.00225
2297.09191,0.00199
2295.03174,0.00207
2292.97157,0.00244
2290.91139,0.00287
2288.85122,0.00310
2286.79105,0.00301
2284.73088,0.00267
2282.67071,0.00228
2280.61053,0.00205
2278.55036,0.00202
2276.49019,0.00213
2274.43002,0.00231
2272.36984,0.00249
2270.30967,0.00249
2268.24950,0.00212
2266.18933,0.00153
2264.12916,0.00114
2262.06898,0.00123
2260.00881,0.00171
2257.94864,0.00224
2255.88847,0.00250
2253.82830,0.00239
2251.76812,0.00211
2249.70795,0.00207
2247.64778,0.00235
2245.58761,0.00232
2243.52744,0.00187
2241.46726,0.00128
2239.40709,0.00093
2237.34692,0.00118
2235.28675,0.00207
2233.22657,0.00277
2231.16640,0.00248
2229.10623,0.00189
2227.04606,0.00198
2224.98589,0.00228
2222.92571,0.00217
2220.86554,0.00190
2218.80537,0.00172
2216.74520,0.00179
2214.68503,0.00225
2212.62485,0.00283
2210.56468,0.00302
2208.50451,0.00257
2206.44434,0.00152
2204.38417,0.00038
2202.32399,0.00000
2200.26382,0.00082
2198.20365,0.00246
2196.14348,0.00401
2194.08330,0.00455
2192.02313,0.00374
2189.96296,0.00210
2187.90279,0.00061
2185.84262,0.00006
2183.78244,0.00054
2181.72227,0.00135
2179.66210,0.00166
2177.60193,0.00127
2175.54176,0.00060
2173.48158,0.00040
2171.42141,0.00093
2169.36124,0.00150
2167.30107,0.00168
2165.24089,0.00194
2163.18072,0.00204
2161.12055,0.00123
2159.06038,0.00023
2157.00021,0.00052
2154.94003,0.00178
2152.87986,0.00220
2150.81969,0.00133
2148.75952,0.00059
2146.69935,0.00072
2144.63917,0.00110
2142.57900,0.00139
2140.51883,0.00179
2138.45866,0.00204
2136.39849,0.00179
2134.33831,0.00120
2132.27814,0.00085
2130.21797,0.00103
2128.15780,0.00146
2126.09762,0.00175
2124.03745,0.00179
2121.97728,0.00183
2119.91711,0.00218
2117.85694,0.00258
2115.79676,0.00261
2113.73659,0.00236
2111.67642,0.00209
2109.61625,0.00186
2107.55608,0.00185
2105.49590,0.00227
2103.43573,0.00299
2101.37556,0.00350
2099.31539,0.00352
2097.25521,0.00320
2095.19504,0.00279
2093.13487,0.00241
2091.07470,0.00218
2089.01453,0.00216
2086.95435,0.00232
2084.89418,0.00257
2082.83401,0.00281
2080.77384,0.00297
2078.71367,0.00304
2076.65349,0.00308
2074.59332,0.00306
2072.53315,0.00292
2070.47298,0.00262
2068.41281,0.00228
2066.35263,0.00210
2064.29246,0.00220
2062.23229,0.00238
2060.17212,0.00242
2058.11194,0.00231
2056.05177,0.00214
2053.99160,0.00205
2051.93143,0.00204
2049.87126,0.00190
2047.81108,0.00159
2045.75091,0.00127
2043.69074,0.00100
2041.63057,0.00069
2039.57040,0.00040
2037.51022,0.00029
2035.45005,0.00038
2033.38988,0.00053
2031.32971,0.00068
2029.26954,0.00085
2027.20936,0.00110
2025.14919,0.00153
2023.08902,0.00210
2021.02885,0.00249
2018.96867,0.00239
2016.90850,0.00186
2014.84833,0.00121
2012.78816,0.00068
2010.72799,0.00039
2008.66781,0.00038
2006.60764,0.00053
2004.54747,0.00066
2002.48730,0.00067
2000.42713,0.00069
1998.36695,0.00096
1996.30678,0.00157
1994.24661,0.00230
1992.18644,0.00288
1990.12626,0.00328
1988.06609,0.00357
1986.00592,0.00367
1983.94575,0.00348
1981.88558,0.00315
1979.82540,0.00282
1977.76523,0.00246
1975.70506,0.00219
1973.64489,0.00228
1971.58472,0.00273
1969.52454,0.00325
1967.46437,0.00336
1965.40420,0.00276
1963.34403,0.00166
1961.28386,0.00061
1959.22368,0.00007
1957.16351,0.00000
1955.10334,0.00008
1953.04317,0.00018
1950.98299,0.00039
1948.92282,0.00066
1946.86265,0.00077
1944.80248,0.00068
1942.74231,0.00061
1940.68213,0.00088
1938.62196,0.00150
1936.56179,0.00204
1934.50162,0.00207
1932.44145,0.00169
1930.38127,0.00125
1928.32110,0.00102
1926.26093,0.00111
1924.20076,0.00142
1922.14059,0.00177
1920.08041,0.00201
1918.02024,0.00211
1915.96007,0.00200
1913.89990,0.00173
1911.83972,0.00139
1909.77955,0.00106
1907.71938,0.00078
1905.65921,0.00064
1903.59904,0.00073
1901.53886,0.00097
1899.47869,0.00115
1897.41852,0.00121
1895.35835,0.00117
1893.29818,0.00110
1891.23800,0.00105
1889.17783,0.00107
1887.11766,0.00109
1885.05749,0.00110
1882.99731,0.00112
1880.93714,0.00120
1878.87697,0.00134
1876.81680,0.00155
1874.75663,0.00178
1872.69645,0.00192
1870.63628,0.00183
1868.57611,0.00148
1866.51594,0.00105
1864.45577,0.00076
1862.39559,0.00071
1860.33542,0.00085
1858.27525,0.00095
1856.21508,0.00085
1854.15491,0.00055
1852.09473,0.00021
1850.03456,0.00000
1847.97439,0.00002
1845.91422,0.00023
1843.85404,0.00050
1841.79387,0.00073
1839.73370,0.00087
1837.67353,0.00095
1835.61336,0.00094
1833.55318,0.00088
1831.49301,0.00079
1829.43284,0.00064
1827.37267,0.00046
1825.31250,0.00031
1823.25232,0.00025
1821.19215,0.00023
1819.13198,0.00020
1817.07181,0.00016
1815.01163,0.00019
1812.95146,0.00031
1810.89129,0.00043
1808.83112,0.00053
1806.77095,0.00064
1804.71077,0.00078
1802.65060,0.00084
1800.59043,0.00076
1798.53026,0.00058
1796.47009,0.00040
1794.40991,0.00024
1792.34974,0.00007
1790.28957,-0.00007
1788.22940,-0.00005
1786.16923,0.00011
1784.10905,0.00031
1782.04888,0.00047
1779.98871,0.00059
1777.92854,0.00067
1775.86836,0.00076
1773.80819,0.00085
1771.74802,0.00091
1769.68785,0.00088
1767.62768,0.00083
1765.56750,0.00089
1763.50733,0.00106
1761.44716,0.00125
1759.38699,0.00138
1757.32682,0.00155
1755.26664,0.00188
1753.20647,0.00238
1751.14630,0.00292
1749.08613,0.00334
1747.02596,0.00361
1744.96578,0.00382
1742.90561,0.00406
1740.84544,0.00436
1738.78527,0.00467
1736.72509,0.00490
1734.66492,0.00499
1732.60475,0.00491
1730.54458,0.00473
1728.48441,0.00456
1726.42423,0.00443
1724.36406,0.00435
1722.30389,0.00431
1720.24372,0.00426
1718.18355,0.00410
1716.12337,0.00376
1714.06320,0.00336
1712.00303,0.00302
1709.94286,0.00278
1707.88268,0.00264
1705.82251,0.00253
1703.76234,0.00238
1701.70217,0.00221
1699.64200,0.00214
1697.58182,0.00221
1695.52165,0.00234
1693.46148,0.00241
1691.40131,0.00244
1689.34114,0.00250
1687.28096,0.00266
1685.22079,0.00288
1683.16062,0.00308
1681.10045,0.00317
1679.04028,0.00318
1676.98010,0.00329
1674.91993,0.00361
1672.85976,0.00408
1670.79959,0.00460
1668.73941,0.00504
1666.67924,0.00534
1664.61907,0.00559
1662.55890,0.00587
1660.49873,0.00622
1658.43855,0.00665
1656.37838,0.00712
1654.31821,0.00760
1652.25804,0.00803
1650.19787,0.00839
1648.13769,0.00867
1646.07752,0.00884
1644.01735,0.00889
1641.95718,0.00893
1639.89701,0.00907
1637.83683,0.00932
1635.77666,0.00955
1633.71649,0.00968
1631.65632,0.00972
1629.59614,0.00976
1627.53597,0.00986
1625.47580,0.01000
1623.41563,0.01014
1621.35546,0.01027
1619.29528,0.01036
1617.23511,0.01039
1615.17494,0.01031
1613.11477,0.01013
1611.05460,0.00988
1608.99442,0.00961
1606.93425,0.00929
1604.87408,0.00889
1602.81391,0.00843
1600.75373,0.00793
1598.69356,0.00742
1596.63339,0.00690
1594.57322,0.00635
1592.51305,0.00575
1590.45287,0.00511
1588.39270,0.00451
1586.33253,0.00401
1584.27236,0.00359
1582.21219,0.00316
1580.15201,0.00270
1578.09184,0.00228
1576.03167,0.00199
1573.97150,0.00188
1571.91133,0.00186
1569.85115,0.00181
1567.79098,0.00170
1565.73081,0.00159
1563.67064,0.00151
1561.61046,0.00149
1559.55029,0.00148
1557.49012,0.00140
1555.42995,0.00119
1553.36978,0.00087
1551.30960,0.00059
1549.24943,0.00046
1547.18926,0.00050
1545.12909,0.00067
1543.06892,0.00085
1541.00874,0.00091
1538.94857,0.00078
1536.88840,0.00054
1534.82823,0.00035
1532.76805,0.00022
1530.70788,0.00012
1528.64771,0.00004
1526.58754,0.00000
1524.52737,0.00004
1522.46719,0.00012
1520.40702,0.00013
1518.34685,0.00006
1516.28668,-0.00004
1514.22651,-0.00010
1512.16633,-0.00008
1510.10616,0.00006
1508.04599,0.00026
1505.98582,0.00038
1503.92565,0.00035
1501.86547,0.00029
1499.80530,0.00033
1497.74513,0.00047
1495.68496,0.00062
1493.62478,0.00070
1491.56461,0.00073
1489.50444,0.00072
1487.44427,0.00065
1485.38410,0.00059
1483.32392,0.00060
1481.26375,0.00076
1479.20358,0.00105
1477.14341,0.00143
1475.08324,0.00185
1473.02306,0.00225
1470.96289,0.00263
1468.90272,0.00297
1466.84255,0.00329
1464.78238,0.00358
1462.72220,0.00383
1460.66203,0.00406
1458.60186,0.00428
1456.54169,0.00447
1454.48151,0.00462
1452.42134,0.00479
1450.36117,0.00498
1448.30100,0.00521
1446.24083,0.00544
1444.18065,0.00564
1442.12048,0.00582
1440.06031,0.00600
1438.00014,0.00621
1435.93997,0.00643
1433.87979,0.00666
1431.81962,0.00690
1429.75945,0.00714
1427.69928,0.00738
1425.63910,0.00760
1423.57893,0.00783
1421.51876,0.00810
1419.45859,0.00840
1417.39842,0.00865
1415.33824,0.00880
1413.27807,0.00885
1411.21790,0.00882
1409.15773,0.00870
1407.09756,0.00853
1405.03738,0.00833
1402.97721,0.00811
1400.91704,0.00786
1398.85687,0.00765
1396.79670,0.00748
1394.73652,0.00735
1392.67635,0.00722
1390.61618,0.00711
1388.55601,0.00708
1386.49583,0.00717
1384.43566,0.00735
1382.37549,0.00758
1380.31532,0.00781
1378.25515,0.00801
1376.19497,0.00820
1374.13480,0.00837
1372.07463,0.00847
1370.01446,0.00845
1367.95429,0.00828
1365.89411,0.00804
1363.83394,0.00781
1361.77377,0.00767
1359.71360,0.00761
1357.65343,0.00761
1355.59325,0.00762
1353.53308,0.00763
1351.47291,0.00758
1349.41274,0.00743
1347.35256,0.00721
1345.29239,0.00699
1343.23222,0.00684
1341.17205,0.00679
1339.11188,0.00679
1337.05170,0.00680
1334.99153,0.00680
1332.93136,0.00680
1330.87119,0.00679
1328.81102,0.00680
1326.75084,0.00681
1324.69067,0.00680
1322.63050,0.00679
1320.57033,0.00680
1318.51015,0.00685
1316.44998,0.00692
1314.38981,0.00697
1312.32964,0.00698
1310.26947,0.00695
1308.20929,0.00687
1306.14912,0.00674
1304.08895,0.00660
1302.02878,0.00645
1299.96861,0.00631
1297.90843,0.00619
1295.84826,0.00609
1293.78809,0.00599
1291.72792,0.00589
1289.66775,0.00576
1287.60757,0.00565
1285.54740,0.00561
1283.48723,0.00562
1281.42706,0.00564
1279.36688,0.00565
1277.30671,0.00566
1275.24654,0.00573
1273.18637,0.00590
1271.12620,0.00617
1269.06602,0.00651
1267.00585,0.00684
1264.94568,0.00716
1262.88551,0.00745
1260.82534,0.00770
1258.76516,0.00796
1256.70499,0.00827
1254.64482,0.00862
1252.58465,0.00891
1250.52447,0.00908
1248.46430,0.00911
1246.40413,0.00902
1244.34396,0.00886
1242.28379,0.00868
1240.22361,0.00851
1238.16344,0.00837
1236.10327,0.00821
1234.04310,0.00802
1231.98293,0.00775
1229.92275,0.00742
1227.86258,0.00708
1225.80241,0.00677
1223.74224,0.00651
1221.68207,0.00628
1219.62189,0.00603
1217.56172,0.00575
1215.50155,0.00541
1213.44138,0.00500
1211.38120,0.00451
1209.32103,0.00397
1207.26086,0.00343
1205.20069,0.00291
1203.14052,0.00240
1201.08034,0.00188
1199.02017,0.00132
1196.96000,0.00076
1194.89983,0.00032
1192.83966,0.00006
1190.77948,0.00000
1188.71931,0.00007
1186.65914,0.00018
1184.59897,0.00022
1182.53880,0.00029
1180.47862,0.00054
1178.41845,0.00099
1176.35828,0.00158
1174.29811,0.00222
1172.23793,0.00281
1170.17776,0.00335
1168.11759,0.00390
1166.05742,0.00451
1163.99725,0.00507
1161.93707,0.00553
1159.87690,0.00604
1157.81673,0.00665
1155.75656,0.00729
1153.69639,0.00783
1151.63621,0.00824
1149.57604,0.00852
1147.51587,0.00878
1145.45570,0.00910
1143.39552,0.00940
1141.33535,0.00960
1139.27518,0.00975
1137.21501,0.00993
1135.15484,0.01014
1133.09466,0.01043
1131.03449,0.01085
1128.97432,0.01131
1126.91415,0.01176
1124.85398,0.01225
1122.79380,0.01281
1120.73363,0.01335
1118.67346,0.01381
1116.61329,0.01420
1114.55312,0.01457
1112.49294,0.01503
1110.43277,0.01557
1108.37260,0.01622
1106.31243,0.01695
1104.25225,0.01759
1102.19208,0.01802
1100.13191,0.01848
1098.07174,0.01924
1096.01157,0.02026
1093.95139,0.02127
1091.89122,0.02210
1089.83105,0.02275
1087.77088,0.02334
1085.71071,0.02393
1083.65053,0.02446
1081.59036,0.02499
1079.53019,0.02561
1077.47002,0.02629
1075.40985,0.02704
1073.34967,0.02786
1071.28950,0.02860
1069.22933,0.02908
1067.16916,0.02930
1065.10898,0.02942
1063.04881,0.02963
1060.98864,0.02995
1058.92847,0.03028
1056.86830,0.03051
1054.80812,0.03077
1052.74795,0.03118
1050.68778,0.03170
1048.62761,0.03214
1046.56744,0.03248
1044.50726,0.03296
1042.44709,0.03364
1040.38692,0.03420
1038.32675,0.03442
1036.26657,0.03452
1034.20640,0.03479
1032.14623,0.03515
1030.08606,0.03534
1028.02589,0.03532
1025.96571,0.03529
1023.90554,0.03540
1021.84537,0.03558
1019.78520,0.03567
1017.72503,0.03565
1015.66485,0.03562
1013.60468,0.03564
1011.54451,0.03562
1009.48434,0.03557
1007.42417,0.03560
1005.36399,0.03562
1003.30382,0.03542
1001.24365,0.03501
999.18348,0.03456
997.12330,0.03411
995.06313,0.03363
993.00296,0.03323
990.94279,0.03298
988.88262,0.03280
986.82244,0.03255
984.76227,0.03211
982.70210,0.03155
980.64193,0.03110
978.58176,0.03082
976.52158,0.03065
974.46141,0.03045
972.40124,0.03017
970.34107,0.02980
968.28089,0.02931
966.22072,0.02862
964.16055,0.02782
962.10038,0.02718
960.04021,0.02683
957.98003,0.02668
955.91986,0.02647
953.85969,0.02608
951.79952,0.02562
949.73935,0.02528
947.67917,0.02488
945.61900,0.02409
943.55883,0.02297
941.49866,0.02172
939.43849,0.02035
937.37831,0.01884
935.31814,0.01735
933.25797,0.01599
931.19780,0.01467
929.13762,0.01340
927.07745,0.01236
925.01728,0.01155
922.95711,0.01080
920.89694,0.01010
918.83676,0.00947
916.77659,0.00881
914.71642,0.00807
912.65625,0.00730
910.59608,0.00668
908.53590,0.00636
906.47573,0.00623
904.41556,0.00612
902.35539,0.00620
900.29522,0.00654
898.23504,0.00684
896.17487,0.00690
894.11470,0.00667
892.05453,0.00621
889.99435,0.00578
887.93418,0.00556
885.87401,0.00536
883.81384,0.00506
881.75367,0.00480
879.69349,0.00463
877.63332,0.00454
875.57315,0.00440
873.51298,0.00408
871.45281,0.00375
869.39263,0.00357
867.33246,0.00345
865.27229,0.00335
863.21212,0.00325
861.15194,0.00300
859.09177,0.00267
857.03160,0.00243
854.97143,0.00236
852.91126,0.00243
850.85108,0.00238
848.79091,0.00201
846.73074,0.00163
844.67057,0.00168
842.61040,0.00196
840.55022,0.00188
838.49005,0.00137
836.42988,0.00078
834.36971,0.00045
832.30954,0.00043
830.24936,0.00060
828.18919,0.00092
826.12902,0.00129
824.06885,0.00139
822.00867,0.00118
819.94850,0.00101
817.88833,0.00108
815.82816,0.00136
813.76799,0.00165
811.70781,0.00167
809.64764,0.00153
807.58747,0.00174
805.52730,0.00233
803.46713,0.00261
801.40695,0.00226
799.34678,0.00166
797.28661,0.00126
795.22644,0.00112
793.16627,0.00120
791.10609,0.00138
789.04592,0.00142
786.98575,0.00122
784.92558,0.00104
782.86540,0.00110
780.80523,0.00119
778.74506,0.00104
776.68489,0.00077
774.62472,0.00069
772.56454,0.00096
770.50437,0.00149
768.44420,0.00199
766.38403,0.00227
764.32386,0.00238
762.26368,0.00228
760.20351,0.00201
758.14334,0.00175
756.08317,0.00172
754.02299,0.00193
751.96282,0.00217
749.90265,0.00204
747.84248,0.00147
745.78231,0.00092
743.72213,0.00083
741.66196,0.00108
739.60179,0.00130
737.54162,0.00134
735.48145,0.00128
733.42127,0.00108
731.36110,0.00055
729.30093,0.00000
727.24076,-0.00009
725.18059,0.00054
723.12041,0.00135
721.06024,0.00197
719.00007,0.00224
716.93990,0.00224
714.87972,0.00216
712.81955,0.00223
710.75938,0.00246
708.69921,0.00276
706.63904,0.00314
704.57886,0.00361
702.51869,0.00407
700.45852,0.00429
698.39835,0.00418
696.33818,0.00388
694.27800,0.00359
692.21783,0.00339
690.15766,0.00326
688.09749,0.00311
686.03731,0.00287
683.97714,0.00264
681.91697,0.00266
679.85680,0.00292
677.79663,0.00320
675.73645,0.00321
673.67628,0.00288
671.61611,0.00235
669.55594,0.00186
667.49577,0.00158
665.43559,0.00161
663.37542,0.00171
661.31525,0.00171
659.25508,0.00180
657.19491,0.00226
655.13473,0.00286
653.07456,0.00304
651.01439,0.00245
648.95422,0.00146
646.89404,0.00079
644.83387,0.00083
642.77370,0.00138
640.71353,0.00201
638.65336,0.00243
636.59318,0.00239
634.53301,0.00191
632.47284,0.00133
630.41267,0.00100
628.35250,0.00109
626.29232,0.00165
624.23215,0.00248
622.17198,0.00345
620.11181,0.00415
618.05164,0.00404
615.99146,0.00331
613.93129,0.00216
611.87112,0.00086
609.81095,0.00018
607.75077,0.00013
605.69060,0.00048
603.63043,0.00100
601.57026,0.00089
599.51009,0.00000
