3996.73391,0.00018
3994.67373,0.00021
3992.61356,0.00024
3990.55339,0.00014
3988.49322,0.00011
3986.43305,0.00031
3984.37287,0.00044
3982.31270,0.00044
3980.25253,0.00052
3978.19236,0.00058
3976.13219,0.00044
3974.07201,0.00018
3972.01184,0.00000
3969.95167,0.00003
3967.89150,0.00019
3965.83133,0.00032
3963.77115,0.00028
3961.71098,0.00024
3959.65081,0.00045
3957.59064,0.00065
3955.53046,0.00052
3953.47029,0.00028
3951.41012,0.00016
3949.34995,0.00019
3947.28978,0.00033
3945.22960,0.00035
3943.16943,0.00012
3941.10926,0.00000
3939.04909,0.00020
3936.98892,0.00043
3934.92874,0.00061
3932.86857,0.00082
3930.80840,0.00089
3928.74823,0.00077
3926.68805,0.00065
3924.62788,0.00067
3922.56771,0.00073
3920.50754,0.00073
3918.44737,0.00066
3916.38719,0.00058
3914.32702,0.00052
3912.26685,0.00055
3910.20668,0.00065
3908.14651,0.00076
3906.08633,0.00089
3904.02616,0.00110
3901.96599,0.00122
3899.90582,0.00101
3897.84565,0.00067
3895.78547,0.00041
3893.72530,0.00017
3891.66513,0.00006
3889.60496,0.00028
3887.54478,0.00066
3885.48461,0.00077
3883.42444,0.00057
3881.36427,0.00047
3879.30410,0.00060
3877.24392,0.00079
3875.18375,0.00076
3873.12358,0.00052
3871.06341,0.00039
3869.00324,0.00043
3866.94306,0.00052
3864.88289,0.00075
3862.82272,0.00094
3860.76255,0.00087
3858.70237,0.00075
3856.64220,0.00082
3854.58203,0.00089
3852.52186,0.00073
3850.46169,0.00057
3848.40151,0.00077
3846.34134,0.00126
3844.28117,0.00154
3842.22100,0.00129
3840.16083,0.00085
3838.10065,0.00046
3836.04048,0.00013
3833.98031,0.00000
3831.92014,0.00007
3829.85997,0.00018
3827.79979,0.00033
3825.73962,0.00061
3823.67945,0.00086
3821.61928,0.00080
3819.55910,0.00057
3817.49893,0.00046
3815.43876,0.00031
3813.37859,0.00017
3811.31842,0.00029
3809.25824,0.00056
3807.19807,0.00068
3805.13790,0.00056
3803.07773,0.00038
3801.01756,0.00029
3798.95738,0.00040
3796.89721,0.00047
3794.83704,0.00032
3792.77687,0.00021
3790.71670,0.00027
3788.65652,0.00035
3786.59635,0.00041
3784.53618,0.00063
3782.47601,0.00099
3780.41583,0.00118
3778.35566,0.00112
3776.29549,0.00096
3774.23532,0.00081
3772.17515,0.00079
3770.11497,0.00081
3768.05480,0.00082
3765.99463,0.00090
3763.93446,0.00089
3761.87429,0.00074
3759.81411,0.00049
3757.75394,0.00031
3755.69377,0.00040
3753.63360,0.00067
3751.57342,0.00089
3749.51325,0.00092
3747.45308,0.00082
3745.39291,0.00076
3743.33274,0.00086
3741.27256,0.00101
3739.21239,0.00123
3737.15222,0.00166
3735.09205,0.00173
3733.03188,0.00105
3730.97170,0.00031
3728.91153,0.00009
3726.85136,0.00015
3724.79119,0.00024
3722.73102,0.00055
3720.67084,0.00088
3718.61067,0.00086
3716.55050,0.00050
3714.49033,0.00030
3712.43015,0.00045
3710.36998,0.00056
3708.30981,0.00070
3706.24964,0.00111
3704.18947,0.00148
3702.12929,0.00129
3700.06912,0.00082
3698.00895,0.00070
3695.94878,0.00080
3693.88861,0.00091
3691.82843,0.00115
3689.76826,0.00145
3687.70809,0.00146
3685.64792,0.00133
3683.58775,0.00118
3681.52757,0.00108
3679.46740,0.00110
3677.40723,0.00114
3675.34706,0.00099
3673.28688,0.00101
3671.22671,0.00140
3669.16654,0.00150
3667.10637,0.00119
3665.04620,0.00122
3662.98602,0.00161
3660.92585,0.00179
3658.86568,0.00166
3656.80551,0.00162
3654.74534,0.00167
3652.68516,0.00171
3650.62499,0.00182
3648.56482,0.00189
3646.50465,0.00188
3644.44447,0.00207
3642.38430,0.00237
3640.32413,0.00252
3638.26396,0.00244
3636.20379,0.00233
3634.14361,0.00261
3632.08344,0.00333
3630.02327,0.00392
3627.96310,0.00383
3625.90293,0.00347
3623.84275,0.00332
3621.78258,0.00359
3619.72241,0.00424
3617.66224,0.00473
3615.60207,0.00474
3613.54189,0.00445
3611.48172,0.00440
3609.42155,0.00472
3607.36138,0.00511
3605.30120,0.00533
3603.24103,0.00544
3601.18086,0.00544
3599.12069,0.00524
3597.06052,0.00520
3595.00034,0.00548
3592.94017,0.00595
3590.88000,0.00653
3588.81983,0.00721
3586.75966,0.00741
3584.69948,0.00698
3582.63931,0.00667
3580.57914,0.00689
3578.51897,0.00719
3576.45879,0.00726
3574.39862,0.00738
3572.33845,0.00773
3570.27828,0.00808
3568.21811,0.00819
3566.15793,0.00829
3564.09776,0.00868
3562.03759,0.00920
3559.97742,0.00948
3557.91725,0.00943
3555.85707,0.00928
3553.79690,0.00936
3551.73673,0.00969
3549.67656,0.01004
3547.61639,0.01028
3545.55621,0.01045
3543.49604,0.01057
3541.43587,0.01082
3539.37570,0.01117
3537.31552,0.01138
3535.25535,0.01155
3533.19518,0.01176
3531.13501,0.01183
3529.07484,0.01181
3527.01466,0.01196
3524.95449,0.01228
3522.89432,0.01246
3520.83415,0.01248
3518.77398,0.01253
3516.71380,0.01265
3514.65363,0.01291
3512.59346,0.01329
3510.53329,0.01358
3508.47312,0.01382
3506.41294,0.01412
3504.35277,0.01426
3502.29260,0.01404
3500.23243,0.01378
3498.17225,0.01390
3496.11208,0.01432
3494.05191,0.01468
3491.99174,0.01485
3489.93157,0.01495
3487.87139,0.01513
3485.81122,0.01522
3483.75105,0.01525
3481.69088,0.01553
3479.63071,0.01594
3477.57053,0.01607
3475.51036,0.01589
3473.45019,0.01595
3471.39002,0.01651
3469.32984,0.01698
3467.26967,0.01717
3465.20950,0.01740
3463.14933,0.01767
3461.08916,0.01769
3459.02898,0.01744
3456.96881,0.01733
3454.90864,0.01750
3452.84847,0.01760
3450.78830,0.01758
3448.72812,0.01788
3446.66795,0.01840
3444.60778,0.01865
3442.54761,0.01879
3440.48744,0.01898
3438.42726,0.01896
3436.36709,0.01890
3434.30692,0.01913
3432.24675,0.01955
3430.18657,0.01992
3428.12640,0.01997
3426.06623,0.01979
3424.00606,0.01978
3421.94589,0.02001
3419.88571,0.02017
3417.82554,0.02011
3415.76537,0.02003
3413.70520,0.02014
3411.64503,0.02038
3409.58485,0.02055
3407.52468,0.02069
3405.46451,0.02097
3403.40434,0.02112
3401.34416,0.02093
3399.28399,0.02071
3397.22382,0.02077
3395.16365,0.02116
3393.10348,0.02158
3391.04330,0.02181
3388.98313,0.02192
3386.92296,0.02190
3384.86279,0.02181
3382.80262,0.02179
3380.74244,0.02184
3378.68227,0.02192
3376.62210,0.02196
3374.56193,0.02200
3372.50176,0.02222
3370.44158,0.02248
3368.38141,0.02245
3366.32124,0.02233
3364.26107,0.02239
3362.20089,0.02247
3360.14072,0.02250
3358.08055,0.02252
3356.02038,0.02255
3353.96021,0.02260
3351.90003,0.02271
3349.83986,0.02285
3347.77969,0.02301
3345.71952,0.02315
3343.65935,0.02302
3341.59917,0.02280
3339.53900,0.02292
3337.47883,0.02328
3335.41866,0.02362
3333.35849,0.02374
3331.29831,0.02364
3329.23814,0.02367
3327.17797,0.02383
3325.11780,0.02388
3323.05762,0.02380
3320.99745,0.02368
3318.93728,0.02345
3316.87711,0.02326
3314.81694,0.02339
3312.75676,0.02370
3310.69659,0.02374
3308.63642,0.02360
3306.57625,0.02365
3304.51608,0.02376
3302.45590,0.02368
3300.39573,0.02363
3298.33556,0.02378
3296.27539,0.02388
3294.21521,0.02385
3292.15504,0.02380
3290.09487,0.02379
3288.03470,0.02381
3285.97453,0.02389
3283.91435,0.02399
3281.85418,0.02379
3279.79401,0.02343
3277.73384,0.02347
3275.67367,0.02372
3273.61349,0.02366
3271.55332,0.02355
3269.49315,0.02368
3267.43298,0.02383
3265.37281,0.02386
3263.31263,0.02389
3261.25246,0.02396
3259.19229,0.02394
3257.13212,0.02393
3255.07194,0.02390
3253.01177,0.02365
3250.95160,0.02347
3248.89143,0.02368
3246.83126,0.02393
3244.77108,0.02380
3242.71091,0.02347
3240.65074,0.02330
3238.59057,0.02325
3236.53040,0.02306
3234.47022,0.02282
3232.41005,0.02267
3230.34988,0.02257
3228.28971,0.02249
3226.22954,0.02233
3224.16936,0.02224
3222.10919,0.02235
3220.04902,0.02245
3217.98885,0.02242
3215.92867,0.02231
3213.86850,0.02220
3211.80833,0.02207
3209.74816,0.02189
3207.68799,0.02182
3205.62781,0.02187
3203.56764,0.02175
3201.50747,0.02122
3199.44730,0.02069
3197.38713,0.02071
3195.32695,0.02093
3193.26678,0.02082
3191.20661,0.02067
3189.14644,0.02069
3187.08626,0.02064
3185.02609,0.02044
3182.96592,0.02033
3180.90575,0.02034
3178.84558,0.02026
3176.78540,0.02004
3174.72523,0.01980
3172.66506,0.01955
3170.60489,0.01941
3168.54472,0.01944
3166.48454,0.01950
3164.42437,0.01952
3162.36420,0.01939
3160.30403,0.01902
3158.24386,0.01858
3156.18368,0.01835
3154.12351,0.01824
3152.06334,0.01804
3150.00317,0.01777
3147.94299,0.01757
3145.88282,0.01754
3143.82265,0.01755
3141.76248,0.01746
3139.70231,0.01726
3137.64213,0.01697
3135.58196,0.01670
3133.52179,0.01653
3131.46162,0.01636
3129.40145,0.01620
3127.34127,0.01618
3125.28110,0.01620
3123.22093,0.01608
3121.16076,0.01584
3119.10058,0.01561
3117.04041,0.01533
3114.98024,0.01494
3112.92007,0.01469
3110.85990,0.01481
3108.79972,0.01496
3106.73955,0.01489
3104.67938,0.01476
3102.61921,0.01460
3100.55904,0.01435
3098.49886,0.01400
3096.43869,0.01360
3094.37852,0.01338
3092.31835,0.01333
3090.25818,0.01330
3088.19800,0.01327
3086.13783,0.01325
3084.07766,0.01329
3082.01749,0.01336
3079.95731,0.01340
3077.89714,0.01339
3075.83697,0.01314
3073.77680,0.01272
3071.71663,0.01242
3069.65645,0.01225
3067.59628,0.01208
3065.53611,0.01188
3063.47594,0.01171
3061.41577,0.01156
3059.35559,0.01134
3057.29542,0.01108
3055.23525,0.01099
3053.17508,0.01105
3051.11491,0.01105
3049.05473,0.01090
3046.99456,0.01067
3044.93439,0.01049
3042.87422,0.01033
3040.81404,0.01008
3038.75387,0.00984
3036.69370,0.00968
3034.63353,0.00963
3032.57336,0.00963
3030.51318,0.00961
3028.45301,0.00962
3026.39284,0.00957
3024.33267,0.00934
3022.27250,0.00904
3020.21232,0.00885
3018.15215,0.00886
3016.09198,0.00900
3014.03181,0.00906
3011.97163,0.00898
3009.91146,0.00880
3007.85129,0.00862
3005.79112,0.00854
3003.73095,0.00855
3001.67077,0.00858
2999.61060,0.00856
2997.55043,0.00852
2995.49026,0.00863
2993.43009,0.00881
2991.36991,0.00887
2989.30974,0.00888
2987.24957,0.00875
2985.18940,0.00843
2983.12923,0.00818
2981.06905,0.00823
2979.00888,0.00848
2976.94871,0.00867
2974.88854,0.00876
2972.82836,0.00895
2970.76819,0.00912
2968.70802,0.00911
2966.64785,0.00920
2964.58768,0.00952
2962.52750,0.00979
2960.46733,0.00994
2958.40716,0.01017
2956.34699,0.01058
2954.28682,0.01099
2952.22664,0.01111
2950.16647,0.01118
2948.10630,0.01142
2946.04613,0.01161
2943.98596,0.01160
2941.92578,0.01161
2939.86561,0.01168
2937.80544,0.01184
2935.74527,0.01207
2933.68509,0.01219
2931.62492,0.01214
2929.56475,0.01202
2927.50458,0.01183
2925.44441,0.01161
2923.38423,0.01154
2921.32406,0.01161
2919.26389,0.01157
2917.20372,0.01153
2915.14355,0.01153
2913.08337,0.01143
2911.02320,0.01129
2908.96303,0.01121
2906.90286,0.01114
2904.84268,0.01103
2902.78251,0.01098
2900.72234,0.01100
2898.66217,0.01080
2896.60200,0.01042
2894.54182,0.01022
2892.48165,0.01030
2890.42148,0.01043
2888.36131,0.01046
2886.30114,0.01048
2884.24096,0.01055
2882.18079,0.01052
2880.12062,0.01042
2878.06045,0.01040
2876.00028,0.01041
2873.94010,0.01029
2871.87993,0.01004
2869.81976,0.00973
2867.75959,0.00947
2865.69941,0.00934
2863.63924,0.00934
2861.57907,0.00937
2859.51890,0.00931
2857.45873,0.00913
2855.39855,0.00890
2853.33838,0.00863
2851.27821,0.00835
2849.21804,0.00808
2847.15787,0.00784
2845.09769,0.00768
2843.03752,0.00764
2840.97735,0.00767
2838.91718,0.00778
2836.85700,0.00790
2834.79683,0.00790
2832.73666,0.00782
2830.67649,0.00767
2828.61632,0.00755
2826.55614,0.00752
2824.49597,0.00750
2822.43580,0.00735
2820.37563,0.00719
2818.31546,0.00713
2816.25528,0.00700
2814.19511,0.00681
2812.13494,0.00676
2810.07477,0.00682
2808.01460,0.00674
2805.95442,0.00655
2803.89425,0.00640
2801.83408,0.00643
2799.77391,0.00662
2797.71373,0.00675
2795.65356,0.00667
2793.59339,0.00650
2791.53322,0.00635
2789.47305,0.00624
2787.41287,0.00623
2785.35270,0.00619
2783.29253,0.00611
2781.23236,0.00612
2779.17219,0.00607
2777.11201,0.00593
2775.05184,0.00588
2772.99167,0.00591
2770.93150,0.00600
2768.87133,0.00605
2766.81115,0.00598
2764.75098,0.00589
2762.69081,0.00584
2760.63064,0.00585
2758.57046,0.00586
2756.51029,0.00583
2754.45012,0.00586
2752.38995,0.00585
2750.32978,0.00580
2748.26960,0.00585
2746.20943,0.00587
2744.14926,0.00563
2742.08909,0.00537
2740.02892,0.00534
2737.96874,0.00541
2735.90857,0.00543
2733.84840,0.00552
2731.78823,0.00578
2729.72805,0.00594
2727.66788,0.00582
2725.60771,0.00562
2723.54754,0.00546
2721.48737,0.00527
2719.42719,0.00514
2717.36702,0.00518
2715.30685,0.00527
2713.24668,0.00531
2711.18651,0.00541
2709.12633,0.00551
2707.06616,0.00549
2705.00599,0.00538
2702.94582,0.00525
2700.88565,0.00526
2698.82547,0.00536
2696.76530,0.00535
2694.70513,0.00523
2692.64496,0.00514
2690.58478,0.00507
2688.52461,0.00498
2686.46444,0.00496
2684.40427,0.00502
2682.34410,0.00507
2680.28392,0.00508
2678.22375,0.00494
2676.16358,0.00470
2674.10341,0.00454
2672.04324,0.00460
2669.98306,0.00479
2667.92289,0.00487
2665.86272,0.00476
2663.80255,0.00461
2661.74238,0.00465
2659.68220,0.00492
2657.62203,0.00509
2655.56186,0.00486
2653.50169,0.00459
2651.44151,0.00461
2649.38134,0.00462
2647.32117,0.00451
2645.26100,0.00449
2643.20083,0.00452
2641.14065,0.00453
2639.08048,0.00451
2637.02031,0.00445
2634.96014,0.00436
2632.89997,0.00431
2630.83979,0.00426
2628.77962,0.00426
2626.71945,0.00442
2624.65928,0.00458
2622.59910,0.00460
2620.53893,0.00451
2618.47876,0.00438
2616.41859,0.00433
2614.35842,0.00431
2612.29824,0.00430
2610.23807,0.00434
2608.17790,0.00423
2606.11773,0.00395
2604.05756,0.00392
2601.99738,0.00412
2599.93721,0.00420
2597.87704,0.00415
2595.81687,0.00407
2593.75670,0.00402
2591.69652,0.00390
2589.63635,0.00381
2587.57618,0.00384
2585.51601,0.00384
2583.45583,0.00381
2581.39566,0.00374
2579.33549,0.00365
2577.27532,0.00367
2575.21515,0.00376
2573.15497,0.00386
2571.09480,0.00388
2569.03463,0.00370
2566.97446,0.00355
2564.91429,0.00359
2562.85411,0.00355
2560.79394,0.00349
2558.73377,0.00355
2556.67360,0.00354
2554.61342,0.00363
2552.55325,0.00383
2550.49308,0.00374
2548.43291,0.00350
2546.37274,0.00350
2544.31256,0.00360
2542.25239,0.00350
2540.19222,0.00336
2538.13205,0.00346
2536.07188,0.00351
2534.01170,0.00337
2531.95153,0.00326
2529.89136,0.00323
2527.83119,0.00321
2525.77102,0.00307
2523.71084,0.00307
2521.65067,0.00336
2519.59050,0.00342
2517.53033,0.00327
2515.47015,0.00352
2513.40998,0.00399
2511.34981,0.00413
2509.28964,0.00395
2507.22947,0.00370
2505.16929,0.00343
2503.10912,0.00317
2501.04895,0.00313
2498.98878,0.00325
2496.92861,0.00324
2494.86843,0.00308
2492.80826,0.00300
2490.74809,0.00312
2488.68792,0.00331
2486.62775,0.00343
2484.56757,0.00334
2482.50740,0.00314
2480.44723,0.00303
2478.38706,0.00300
2476.32688,0.00299
2474.26671,0.00303
2472.20654,0.00323
2470.14637,0.00342
2468.08620,0.00335
2466.02602,0.00315
2463.96585,0.00297
2461.90568,0.00291
2459.84551,0.00301
2457.78534,0.00308
2455.72516,0.00295
2453.66499,0.00293
2451.60482,0.00320
2449.54465,0.00349
2447.48447,0.00363
2445.42430,0.00352
2443.36413,0.00317
2441.30396,0.00292
2439.24379,0.00302
2437.18361,0.00314
2435.12344,0.00308
2433.06327,0.00308
2431.00310,0.00314
2428.94293,0.00300
2426.88275,0.00277
2424.82258,0.00256
2422.76241,0.00245
2420.70224,0.00254
2418.64207,0.00266
2416.58189,0.00273
2414.52172,0.00290
2412.46155,0.00320
2410.40138,0.00321
2408.34120,0.00273
2406.28103,0.00242
2404.22086,0.00263
2402.16069,0.00284
2400.10052,0.00283
2398.04034,0.00293
2395.98017,0.00301
2393.92000,0.00299
2391.85983,0.00302
2389.79966,0.00310
2387.73948,0.00307
2385.67931,0.00282
2383.61914,0.00252
2381.55897,0.00237
2379.49880,0.00239
2377.43862,0.00243
2375.37845,0.00279
2373.31828,0.00293
2371.25811,0.00260
2369.19793,0.00253
2367.13776,0.00240
2365.07759,0.00218
2363.01742,0.00315
2360.95725,0.00258
2358.89707,0.00232
2356.83690,0.00301
2354.77673,0.00432
2352.71656,0.00452
2350.65639,0.00152
2348.59621,0.00031
2346.53604,0.00483
2344.47587,0.00576
2342.41570,0.00507
2340.35552,0.00512
2338.29535,0.00441
2336.23518,0.00371
2334.17501,0.00339
2332.11484,0.00341
2330.05466,0.00335
2327.99449,0.00378
2325.93432,0.00334
2323.87415,0.00344
2321.81398,0.00400
2319.75380,0.00436
2317.69363,0.00320
2315.63346,0.00276
2313.57329,0.00313
2311.51312,0.00331
2309.45294,0.00356
2307.39277,0.00379
2305.33260,0.00357
2303.27243,0.00314
2301.21225,0.00302
2299.15208,0.00287
2297.09191,0.00295
2295.03174,0.00345
2292.97157,0.00374
2290.91139,0.00353
2288.85122,0.00331
2286.79105,0.00344
2284.73088,0.00378
2282.67071,0.00389
2280.61053,0.00368
2278.55036,0.00343
2276.49019,0.00339
2274.43002,0.00358
2272.36984,0.00369
2270.30967,0.00330
2268.24950,0.00267
2266.18933,0.00219
2264.12916,0.00200
2262.06898,0.00230
2260.00881,0.00288
2257.94864,0.00307
2255.88847,0.00290
2253.82830,0.00267
2251.76812,0.00249
2249.70795,0.00247
2247.64778,0.00255
2245.58761,0.00271
2243.52744,0.00303
2241.46726,0.00302
2239.40709,0.00223
2237.34692,0.00184
2235.28675,0.00278
2233.22657,0.00378
2231.16640,0.00366
2229.10623,0.00300
2227.04606,0.00257
2224.98589,0.00224
2222.92571,0.00218
2220.86554,0.00264
2218.80537,0.00309
2216.74520,0.00354
2214.68503,0.00426
2212.62485,0.00468
2210.56468,0.00447
2208.50451,0.00409
2206.44434,0.00376
2204.38417,0.00359
2202.32399,0.00400
2200.26382,0.00434
2198.20365,0.00373
2196.14348,0.00298
2194.08330,0.00280
2192.02313,0.00250
2189.96296,0.00212
2187.90279,0.00267
2185.84262,0.00372
2183.78244,0.00395
2181.72227,0.00297
2179.66210,0.00138
2177.60193,0.00067
2175.54176,0.00116
2173.48158,0.00181
2171.42141,0.00253
2169.36124,0.00354
2167.30107,0.00501
2165.24089,0.00610
2163.18072,0.00516
2161.12055,0.00319
2159.06038,0.00206
2157.00021,0.00139
2154.94003,0.00085
2152.87986,0.00069
2150.81969,0.00044
2148.75952,0.00000
2146.69935,0.00005
2144.63917,0.00089
2142.57900,0.00163
2140.51883,0.00154
2138.45866,0.00108
2136.39849,0.00072
2134.33831,0.00086
2132.27814,0.00127
2130.21797,0.00136
2128.15780,0.00162
2126.09762,0.00226
2124.03745,0.00253
2121.97728,0.00240
2119.91711,0.00242
2117.85694,0.00248
2115.79676,0.00261
2113.73659,0.00288
2111.67642,0.00310
2109.61625,0.00302
2107.55608,0.00277
2105.49590,0.00298
2103.43573,0.00356
2101.37556,0.00397
2099.31539,0.00420
2097.25521,0.00397
2095.19504,0.00324
2093.13487,0.00260
2091.07470,0.00236
2089.01453,0.00269
2086.95435,0.00332
2084.89418,0.00362
2082.83401,0.00378
2080.77384,0.00397
2078.71367,0.00381
2076.65349,0.00332
2074.59332,0.00298
2072.53315,0.00274
2070.47298,0.00249
2068.41281,0.00249
2066.35263,0.00283
2064.29246,0.00323
2062.23229,0.00338
2060.17212,0.00364
2058.11194,0.00405
2056.05177,0.00399
2053.99160,0.00399
2051.93143,0.00444
2049.87126,0.00442
2047.81108,0.00343
2045.75091,0.00208
2043.69074,0.00130
2041.63057,0.00171
2039.57040,0.00224
2037.51022,0.00173
2035.45005,0.00078
2033.38988,0.00047
2031.32971,0.00125
2029.26954,0.00216
2027.20936,0.00202
2025.14919,0.00121
2023.08902,0.00064
2021.02885,0.00082
2018.96867,0.00156
2016.90850,0.00195
2014.84833,0.00177
2012.78816,0.00185
2010.72799,0.00219
2008.66781,0.00206
2006.60764,0.00165
2004.54747,0.00127
2002.48730,0.00089
2000.42713,0.00081
1998.36695,0.00098
1996.30678,0.00096
1994.24661,0.00049
1992.18644,0.00000
1990.12626,0.00026
1988.06609,0.00117
1986.00592,0.00203
1983.94575,0.00250
1981.88558,0.00259
1979.82540,0.00216
1977.76523,0.00146
1975.70506,0.00161
1973.64489,0.00230
1971.58472,0.00222
1969.52454,0.00157
1967.46437,0.00104
1965.40420,0.00068
1963.34403,0.00042
1961.28386,0.00028
1959.22368,0.00032
1957.16351,0.00066
1955.10334,0.00117
1953.04317,0.00146
1950.98299,0.00129
1948.92282,0.00085
1946.86265,0.00059
1944.80248,0.00065
1942.74231,0.00074
1940.68213,0.00051
1938.62196,0.00017
1936.56179,0.00037
1934.50162,0.00128
1932.44145,0.00203
1930.38127,0.00175
1928.32110,0.00093
1926.26093,0.00057
1924.20076,0.00080
1922.14059,0.00120
1920.08041,0.00142
1918.02024,0.00118
1915.96007,0.00074
1913.89990,0.00064
1911.83972,0.00086
1909.77955,0.00095
1907.71938,0.00090
1905.65921,0.00102
1903.59904,0.00113
1901.53886,0.00093
1899.47869,0.00061
1897.41852,0.00052
1895.35835,0.00051
1893.29818,0.00045
1891.23800,0.00052
1889.17783,0.00064
1887.11766,0.00058
1885.05749,0.00051
1882.99731,0.00057
1880.93714,0.00063
1878.87697,0.00063
1876.81680,0.00073
1874.75663,0.00090
1872.69645,0.00095
1870.63628,0.00084
1868.57611,0.00076
1866.51594,0.00085
1864.45577,0.00097
1862.39559,0.00084
1860.33542,0.00041
1858.27525,0.00016
1856.21508,0.00030
1854.15491,0.00043
1852.09473,0.00042
1850.03456,0.00051
1847.97439,0.00067
1845.91422,0.00076
1843.85404,0.00072
1841.79387,0.00053
1839.73370,0.00035
1837.67353,0.00025
1835.61336,0.00025
1833.55318,0.00043
1831.49301,0.00074
1829.43284,0.00088
1827.37267,0.00080
1825.31250,0.00068
1823.25232,0.00048
1821.19215,0.00028
1819.13198,0.00020
1817.07181,0.00013
1815.01163,0.00000
1812.95146,-0.00003
1810.89129,0.00008
1808.83112,0.00018
1806.77095,0.00020
1804.71077,0.00026
1802.65060,0.00041
1800.59043,0.00051
1798.53026,0.00045
1796.47009,0.00036
1794.40991,0.00046
1792.34974,0.00060
1790.28957,0.00054
1788.22940,0.00035
1786.16923,0.00018
1784.10905,0.00006
1782.04888,0.00005
1779.98871,0.00014
1777.92854,0.00025
1775.86836,0.00046
1773.80819,0.00080
1771.74802,0.00095
1769.68785,0.00077
1767.62768,0.00064
1765.56750,0.00078
1763.50733,0.00107
1761.44716,0.00129
1759.38699,0.00150
1757.32682,0.00182
1755.26664,0.00213
1753.20647,0.00245
1751.14630,0.00294
1749.08613,0.00343
1747.02596,0.00367
1744.96578,0.00375
1742.90561,0.00390
1740.84544,0.00413
1738.78527,0.00426
1736.72509,0.00429
1734.66492,0.00440
1732.60475,0.00461
1730.54458,0.00475
1728.48441,0.00468
1726.42423,0.00447
1724.36406,0.00423
1722.30389,0.00407
1720.24372,0.00402
1718.18355,0.00393
1716.12337,0.00362
1714.06320,0.00329
1712.00303,0.00312
1709.94286,0.00308
1707.88268,0.00306
1705.82251,0.00294
1703.76234,0.00271
1701.70217,0.00255
1699.64200,0.00259
1697.58182,0.00266
1695.52165,0.00254
1693.46148,0.00237
1691.40131,0.00238
1689.34114,0.00261
1687.28096,0.00296
1685.22079,0.00335
1683.16062,0.00370
1681.10045,0.00393
1679.04028,0.00410
1676.98010,0.00431
1674.91993,0.00453
1672.85976,0.00471
1670.79959,0.00504
1668.73941,0.00557
1666.67924,0.00607
1664.61907,0.00654
1662.55890,0.00704
1660.49873,0.00732
1658.43855,0.00743
1656.37838,0.00772
1654.31821,0.00844
1652.25804,0.00917
1650.19787,0.00937
1648.13769,0.00938
1646.07752,0.00951
1644.01735,0.00964
1641.95718,0.00971
1639.89701,0.00981
1637.83683,0.01001
1635.77666,0.01020
1633.71649,0.01028
1631.65632,0.01036
1629.59614,0.01038
1627.53597,0.01023
1625.47580,0.01018
1623.41563,0.01043
1621.35546,0.01061
1619.29528,0.01046
1617.23511,0.01027
1615.17494,0.01027
1613.11477,0.01023
1611.05460,0.01003
1608.99442,0.00979
1606.93425,0.00957
1604.87408,0.00924
1602.81391,0.00872
1600.75373,0.00816
1598.69356,0.00772
1596.63339,0.00731
1594.57322,0.00683
1592.51305,0.00627
1590.45287,0.00568
1588.39270,0.00513
1586.33253,0.00466
1584.27236,0.00423
1582.21219,0.00383
1580.15201,0.00350
1578.09184,0.00313
1576.03167,0.00272
1573.97150,0.00249
1571.91133,0.00247
1569.85115,0.00243
1567.79098,0.00216
1565.73081,0.00178
1563.67064,0.00155
1561.61046,0.00154
1559.55029,0.00161
1557.49012,0.00149
1555.42995,0.00119
1553.36978,0.00100
1551.30960,0.00096
1549.24943,0.00088
1547.18926,0.00081
1545.12909,0.00090
1543.06892,0.00101
1541.00874,0.00093
1538.94857,0.00076
1536.88840,0.00064
1534.82823,0.00053
1532.76805,0.00039
1530.70788,0.00032
1528.64771,0.00038
1526.58754,0.00046
1524.52737,0.00048
1522.46719,0.00051
1520.40702,0.00045
1518.34685,0.00039
1516.28668,0.00044
1514.22651,0.00047
1512.16633,0.00045
1510.10616,0.00047
1508.04599,0.00040
1505.98582,0.00013
1503.92565,0.00000
1501.86547,0.00011
1499.80530,0.00026
1497.74513,0.00035
1495.68496,0.00044
1493.62478,0.00054
1491.56461,0.00069
1489.50444,0.00087
1487.44427,0.00097
1485.38410,0.00101
1483.32392,0.00105
1481.26375,0.00119
1479.20358,0.00148
1477.14341,0.00190
1475.08324,0.00234
1473.02306,0.00266
1470.96289,0.00284
1468.90272,0.00303
1466.84255,0.00336
1464.78238,0.00381
1462.72220,0.00412
1460.66203,0.00425
1458.60186,0.00450
1456.54169,0.00492
1454.48151,0.00526
1452.42134,0.00545
1450.36117,0.00559
1448.30100,0.00569
1446.24083,0.00570
1444.18065,0.00563
1442.12048,0.00567
1440.06031,0.00594
1438.00014,0.00641
1435.93997,0.00686
1433.87979,0.00700
1431.81962,0.00704
1429.75945,0.00719
1427.69928,0.00739
1425.63910,0.00764
1423.57893,0.00788
1421.51876,0.00804
1419.45859,0.00827
1417.39842,0.00865
1415.33824,0.00890
1413.27807,0.00892
1411.21790,0.00879
1409.15773,0.00854
1407.09756,0.00822
1405.03738,0.00795
1402.97721,0.00774
1400.91704,0.00757
1398.85687,0.00747
1396.79670,0.00739
1394.73652,0.00727
1392.67635,0.00708
1390.61618,0.00689
1388.55601,0.00689
1386.49583,0.00714
1384.43566,0.00743
1382.37549,0.00761
1380.31532,0.00775
1378.25515,0.00791
1376.19497,0.00811
1374.13480,0.00835
1372.07463,0.00851
1370.01446,0.00856
1367.95429,0.00852
1365.89411,0.00840
1363.83394,0.00824
1361.77377,0.00804
1359.71360,0.00785
1357.65343,0.00775
1355.59325,0.00767
1353.53308,0.00748
1351.47291,0.00716
1349.41274,0.00689
1347.35256,0.00678
1345.29239,0.00679
1343.23222,0.00682
1341.17205,0.00685
1339.11188,0.00684
1337.05170,0.00676
1334.99153,0.00665
1332.93136,0.00660
1330.87119,0.00660
1328.81102,0.00667
1326.75084,0.00674
1324.69067,0.00674
1322.63050,0.00670
1320.57033,0.00672
1318.51015,0.00678
1316.44998,0.00682
1314.38981,0.00692
1312.32964,0.00705
1310.26947,0.00712
1308.20929,0.00714
1306.14912,0.00707
1304.08895,0.00688
1302.02878,0.00661
1299.96861,0.00633
1297.90843,0.00613
1295.84826,0.00606
1293.78809,0.00604
1291.72792,0.00602
1289.66775,0.00589
1287.60757,0.00567
1285.54740,0.00553
1283.48723,0.00554
1281.42706,0.00560
1279.36688,0.00561
1277.30671,0.00560
1275.24654,0.00570
1273.18637,0.00592
1271.12620,0.00613
1269.06602,0.00636
1267.00585,0.00665
1264.94568,0.00699
1262.88551,0.00734
1260.82534,0.00772
1258.76516,0.00819
1256.70499,0.00858
1254.64482,0.00878
1252.58465,0.00891
1250.52447,0.00898
1248.46430,0.00892
1246.40413,0.00881
1244.34396,0.00868
1242.28379,0.00860
1240.22361,0.00854
1238.16344,0.00831
1236.10327,0.00793
1234.04310,0.00763
1231.98293,0.00748
1229.92275,0.00735
1227.86258,0.00714
1225.80241,0.00688
1223.74224,0.00651
1221.68207,0.00607
1219.62189,0.00572
1217.56172,0.00546
1215.50155,0.00511
1213.44138,0.00468
1211.38120,0.00422
1209.32103,0.00370
1207.26086,0.00318
1205.20069,0.00267
1203.14052,0.00216
1201.08034,0.00174
1199.02017,0.00138
1196.96000,0.00095
1194.89983,0.00050
1192.83966,0.00015
1190.77948,0.00000
1188.71931,-0.00006
1186.65914,-0.00013
1184.59897,-0.00024
1182.53880,-0.00014
1180.47862,0.00023
1178.41845,0.00064
1176.35828,0.00112
1174.29811,0.00183
1172.23793,0.00261
1170.17776,0.00320
1168.11759,0.00363
1166.05742,0.00423
1163.99725,0.00504
1161.93707,0.00580
1159.87690,0.00636
1157.81673,0.00679
1155.75656,0.00730
1153.69639,0.00782
1151.63621,0.00821
1149.57604,0.00856
1147.51587,0.00890
1145.45570,0.00919
1143.39552,0.00943
1141.33535,0.00966
1139.27518,0.00989
1137.21501,0.01013
1135.15484,0.01037
1133.09466,0.01061
1131.03449,0.01094
1128.97432,0.01142
1126.91415,0.01190
1124.85398,0.01240
1122.79380,0.01296
1120.73363,0.01352
1118.67346,0.01404
1116.61329,0.01445
1114.55312,0.01489
1112.49294,0.01554
1110.43277,0.01619
1108.37260,0.01672
1106.31243,0.01721
1104.25225,0.01785
1102.19208,0.01877
1100.13191,0.01968
1098.07174,0.02037
1096.01157,0.02114
1093.95139,0.02203
1091.89122,0.02271
1089.83105,0.02329
1087.77088,0.02401
1085.71071,0.02477
1083.65053,0.02546
1081.59036,0.02608
1079.53019,0.02673
1077.47002,0.02739
1075.40985,0.02794
1073.34967,0.02853
1071.28950,0.02932
1069.22933,0.03007
1067.16916,0.03063
1065.10898,0.03103
1063.04881,0.03122
1060.98864,0.03129
1058.92847,0.03146
1056.86830,0.03178
1054.80812,0.03209
1052.74795,0.03232
1050.68778,0.03264
1048.62761,0.03321
1046.56744,0.03391
1044.50726,0.03441
1042.44709,0.03473
1040.38692,0.03506
1038.32675,0.03546
1036.26657,0.03591
1034.20640,0.03619
1032.14623,0.03622
1030.08606,0.03620
1028.02589,0.03633
1025.96571,0.03656
1023.90554,0.03658
1021.84537,0.03642
1019.78520,0.03631
1017.72503,0.03625
1015.66485,0.03616
1013.60468,0.03597
1011.54451,0.03570
1009.48434,0.03549
1007.42417,0.03532
1005.36399,0.03514
1003.30382,0.03489
1001.24365,0.03440
999.18348,0.03371
997.12330,0.03311
995.06313,0.03257
993.00296,0.03195
990.94279,0.03130
988.88262,0.03079
986.82244,0.03044
984.76227,0.03020
982.70210,0.03003
980.64193,0.02964
978.58176,0.02898
976.52158,0.02848
974.46141,0.02809
972.40124,0.02767
970.34107,0.02728
968.28089,0.02682
966.22072,0.02619
964.16055,0.02543
962.10038,0.02474
960.04021,0.02435
957.98003,0.02409
955.91986,0.02361
953.85969,0.02286
951.79952,0.02213
949.73935,0.02155
947.67917,0.02089
945.61900,0.01998
943.55883,0.01870
941.49866,0.01730
939.43849,0.01598
937.37831,0.01460
935.31814,0.01315
933.25797,0.01176
931.19780,0.01058
929.13762,0.00968
927.07745,0.00893
925.01728,0.00832
922.95711,0.00795
920.89694,0.00764
918.83676,0.00709
916.77659,0.00634
914.71642,0.00575
912.65625,0.00541
910.59608,0.00511
908.53590,0.00474
906.47573,0.00448
904.41556,0.00455
902.35539,0.00479
900.29522,0.00502
898.23504,0.00513
896.17487,0.00510
894.11470,0.00523
892.05453,0.00537
889.99435,0.00521
887.93418,0.00495
885.87401,0.00473
883.81384,0.00429
881.75367,0.00367
879.69349,0.00346
877.63332,0.00370
875.57315,0.00386
873.51298,0.00387
871.45281,0.00385
869.39263,0.00375
867.33246,0.00342
865.27229,0.00308
863.21212,0.00298
861.15194,0.00296
859.09177,0.00300
857.03160,0.00319
854.97143,0.00326
852.91126,0.00309
850.85108,0.00306
848.79091,0.00319
846.73074,0.00320
844.67057,0.00303
842.61040,0.00270
840.55022,0.00223
838.49005,0.00180
836.42988,0.00159
834.36971,0.00118
832.30954,0.00044
830.24936,0.00000
828.18919,-0.00003
826.12902,-0.00011
824.06885,-0.00020
822.00867,0.00020
819.94850,0.00074
817.88833,0.00072
815.82816,0.00053
813.76799,0.00058
811.70781,0.00067
809.64764,0.00087
807.58747,0.00137
805.52730,0.00176
803.46713,0.00164
801.40695,0.00100
799.34678,0.00035
797.28661,0.00004
795.22644,-0.00003
793.16627,-0.00005
791.10609,-0.00020
789.04592,-0.00035
786.98575,-0.00027
784.92558,-0.00014
782.86540,-0.00011
780.80523,0.00004
778.74506,0.00045
776.68489,0.00059
774.62472,0.00037
772.56454,0.00040
770.50437,0.00059
768.44420,0.00059
766.38403,0.00038
764.32386,0.00027
762.26368,0.00060
760.20351,0.00093
758.14334,0.00095
756.08317,0.00110
754.02299,0.00136
751.96282,0.00153
749.90265,0.00166
747.84248,0.00161
745.78231,0.00138
743.72213,0.00128
741.66196,0.00120
739.60179,0.00123
737.54162,0.00145
735.48145,0.00131
733.42127,0.00097
731.36110,0.00102
729.30093,0.00132
727.24076,0.00164
725.18059,0.00215
723.12041,0.00255
721.06024,0.00324
719.00007,0.00295
716.93990,0.00271
714.87972,0.00317
712.81955,0.00367
710.75938,0.00391
708.69921,0.00401
706.63904,0.00426
704.57886,0.00456
702.51869,0.00463
700.45852,0.00452
698.39835,0.00436
696.33818,0.00407
694.27800,0.00340
692.21783,0.00245
690.15766,0.00191
688.09749,0.00236
686.03731,0.00328
683.97714,0.00357
681.91697,0.00300
679.85680,0.00242
677.79663,0.00258
675.73645,0.00330
673.67628,0.00282
671.61611,0.00086
669.55594,0.00466
667.49577,0.00805
665.43559,0.00000
663.37542,0.00134
661.31525,0.00393
659.25508,0.00392
657.19491,0.00292
655.13473,0.00228
653.07456,0.00219
651.01439,0.00224
648.95422,0.00240
646.89404,0.00247
644.83387,0.00253
642.77370,0.00229
640.71353,0.00207
638.65336,0.00162
636.59318,0.00080
634.53301,0.00033
632.47284,0.00019
630.41267,-0.00007
628.35250,-0.00022
626.29232,-0.00016
624.23215,0.00021
622.17198,0.00009
620.11181,-0.00142
618.05164,-0.00256
615.99146,-0.00186
613.93129,-0.00014
611.87112,0.00072
609.81095,-0.00051
607.75077,-0.00238
605.69060,-0.00211
603.63043,0.00021
601.57026,0.00114
599.51009,0.00000
