3996.73391,0.00044
3994.67373,0.00022
3992.61356,0.00000
3990.55339,0.00000
3988.49322,0.00017
3986.43305,0.00038
3984.37287,0.00055
3982.31270,0.00052
3980.25253,0.00032
3978.19236,0.00023
3976.13219,0.00027
3974.07201,0.00026
3972.01184,0.00028
3969.95167,0.00040
3967.89150,0.00058
3965.83133,0.00074
3963.77115,0.00079
3961.71098,0.00065
3959.65081,0.00045
3957.59064,0.00042
3955.53046,0.00061
3953.47029,0.00079
3951.41012,0.00085
3949.34995,0.00092
3947.28978,0.00101
3945.22960,0.00091
3943.16943,0.00059
3941.10926,0.00043
3939.04909,0.00060
3936.98892,0.00096
3934.92874,0.00120
3932.86857,0.00113
3930.80840,0.00092
3928.74823,0.00094
3926.68805,0.00127
3924.62788,0.00167
3922.56771,0.00182
3920.50754,0.00167
3918.44737,0.00140
3916.38719,0.00112
3914.32702,0.00086
3912.26685,0.00079
3910.20668,0.00095
3908.14651,0.00107
3906.08633,0.00099
3904.02616,0.00081
3901.96599,0.00082
3899.90582,0.00100
3897.84565,0.00111
3895.78547,0.00126
3893.72530,0.00149
3891.66513,0.00158
3889.60496,0.00160
3887.54478,0.00172
3885.48461,0.00168
3883.42444,0.00140
3881.36427,0.00124
3879.30410,0.00126
3877.24392,0.00139
3875.18375,0.00155
3873.12358,0.00159
3871.06341,0.00136
3869.00324,0.00107
3866.94306,0.00111
3864.88289,0.00122
3862.82272,0.00118
3860.76255,0.00138
3858.70237,0.00189
3856.64220,0.00230
3854.58203,0.00210
3852.52186,0.00113
3850.46169,0.00055
3848.40151,0.00076
3846.34134,0.00115
3844.28117,0.00143
3842.22100,0.00160
3840.16083,0.00141
3838.10065,0.00084
3836.04048,0.00063
3833.98031,0.00095
3831.92014,0.00125
3829.85997,0.00135
3827.79979,0.00132
3825.73962,0.00120
3823.67945,0.00118
3821.61928,0.00121
3819.55910,0.00104
3817.49893,0.00096
3815.43876,0.00118
3813.37859,0.00144
3811.31842,0.00150
3809.25824,0.00143
3807.19807,0.00139
3805.13790,0.00140
3803.07773,0.00135
3801.01756,0.00113
3798.95738,0.00096
3796.89721,0.00099
3794.83704,0.00113
3792.77687,0.00132
3790.71670,0.00152
3788.65652,0.00170
3786.59635,0.00171
3784.53618,0.00147
3782.47601,0.00123
3780.41583,0.00120
3778.35566,0.00122
3776.29549,0.00116
3774.23532,0.00105
3772.17515,0.00100
3770.11497,0.00112
3768.05480,0.00139
3765.99463,0.00159
3763.93446,0.00157
3761.87429,0.00156
3759.81411,0.00167
3757.75394,0.00176
3755.69377,0.00182
3753.63360,0.00188
3751.57342,0.00172
3749.51325,0.00141
3747.45308,0.00142
3745.39291,0.00145
3743.33274,0.00132
3741.27256,0.00143
3739.21239,0.00165
3737.15222,0.00159
3735.09205,0.00115
3733.03188,0.00082
3730.97170,0.00088
3728.91153,0.00111
3726.85136,0.00127
3724.79119,0.00138
3722.73102,0.00150
3720.67084,0.00156
3718.61067,0.00142
3716.55050,0.00127
3714.49033,0.00113
3712.43015,0.00076
3710.36998,0.00049
3708.30981,0.00082
3706.24964,0.00132
3704.18947,0.00163
3702.12929,0.00166
3700.06912,0.00147
3698.00895,0.00130
3695.94878,0.00122
3693.88861,0.00132
3691.82843,0.00147
3689.76826,0.00122
3687.70809,0.00076
3685.64792,0.00087
3683.58775,0.00148
3681.52757,0.00204
3679.46740,0.00219
3677.40723,0.00195
3675.34706,0.00161
3673.28688,0.00158
3671.22671,0.00171
3669.16654,0.00162
3667.10637,0.00152
3665.04620,0.00159
3662.98602,0.00166
3660.92585,0.00169
3658.86568,0.00173
3656.80551,0.00181
3654.74534,0.00207
3652.68516,0.00257
3650.62499,0.00288
3648.56482,0.00258
3646.50465,0.00212
3644.44447,0.00207
3642.38430,0.00226
3640.32413,0.00235
3638.26396,0.00226
3636.20379,0.00214
3634.14361,0.00222
3632.08344,0.00256
3630.02327,0.00275
3627.96310,0.00253
3625.90293,0.00242
3623.84275,0.00262
3621.78258,0.00286
3619.72241,0.00289
3617.66224,0.00280
3615.60207,0.00292
3613.54189,0.00305
3611.48172,0.00294
3609.42155,0.00282
3607.36138,0.00281
3605.30120,0.00294
3603.24103,0.00334
3601.18086,0.00375
3599.12069,0.00375
3597.06052,0.00345
3595.00034,0.00320
3592.94017,0.00322
3590.88000,0.00351
3588.81983,0.00390
3586.75966,0.00407
3584.69948,0.00395
3582.63931,0.00382
3580.57914,0.00381
3578.51897,0.00385
3576.45879,0.00401
3574.39862,0.00434
3572.33845,0.00464
3570.27828,0.00472
3568.21811,0.00461
3566.15793,0.00455
3564.09776,0.00466
3562.03759,0.00482
3559.97742,0.00495
3557.91725,0.00501
3555.85707,0.00491
3553.79690,0.00482
3551.73673,0.00505
3549.67656,0.00559
3547.61639,0.00602
3545.55621,0.00592
3543.49604,0.00554
3541.43587,0.00540
3539.37570,0.00540
3537.31552,0.00538
3535.25535,0.00562
3533.19518,0.00602
3531.13501,0.00622
3529.07484,0.00621
3527.01466,0.00622
3524.95449,0.00639
3522.89432,0.00658
3520.83415,0.00662
3518.77398,0.00672
3516.71380,0.00689
3514.65363,0.00695
3512.59346,0.00692
3510.53329,0.00688
3508.47312,0.00695
3506.41294,0.00705
3504.35277,0.00699
3502.29260,0.00689
3500.23243,0.00698
3498.17225,0.00712
3496.11208,0.00712
3494.05191,0.00727
3491.99174,0.00757
3489.93157,0.00760
3487.87139,0.00742
3485.81122,0.00747
3483.75105,0.00782
3481.69088,0.00817
3479.63071,0.00823
3477.57053,0.00814
3475.51036,0.00810
3473.45019,0.00806
3471.39002,0.00804
3469.32984,0.00812
3467.26967,0.00826
3465.20950,0.00840
3463.14933,0.00851
3461.08916,0.00861
3459.02898,0.00869
3456.96881,0.00872
3454.90864,0.00862
3452.84847,0.00851
3450.78830,0.00854
3448.72812,0.00861
3446.66795,0.00860
3444.60778,0.00864
3442.54761,0.00885
3440.48744,0.00914
3438.42726,0.00934
3436.36709,0.00931
3434.30692,0.00916
3432.24675,0.00916
3430.18657,0.00935
3428.12640,0.00947
3426.06623,0.00956
3424.00606,0.00969
3421.94589,0.00961
3419.88571,0.00938
3417.82554,0.00939
3415.76537,0.00966
3413.70520,0.00975
3411.64503,0.00965
3409.58485,0.00967
3407.52468,0.00970
3405.46451,0.00977
3403.40434,0.00996
3401.34416,0.01009
3399.28399,0.01012
3397.22382,0.01017
3395.16365,0.01006
3393.10348,0.00995
3391.04330,0.01007
3388.98313,0.01021
3386.92296,0.01033
3384.86279,0.01063
3382.80262,0.01090
3380.74244,0.01088
3378.68227,0.01064
3376.62210,0.01050
3374.56193,0.01055
3372.50176,0.01058
3370.44158,0.01054
3368.38141,0.01061
3366.32124,0.01075
3364.26107,0.01077
3362.20089,0.01070
3360.14072,0.01081
3358.08055,0.01104
3356.02038,0.01099
3353.96021,0.01077
3351.90003,0.01073
3349.83986,0.01080
3347.77969,0.01083
3345.71952,0.01092
3343.65935,0.01107
3341.59917,0.01111
3339.53900,0.01118
3337.47883,0.01138
3335.41866,0.01144
3333.35849,0.01131
3331.29831,0.01130
3329.23814,0.01138
3327.17797,0.01132
3325.11780,0.01115
3323.05762,0.01109
3320.99745,0.01129
3318.93728,0.01154
3316.87711,0.01162
3314.81694,0.01154
3312.75676,0.01141
3310.69659,0.01135
3308.63642,0.01136
3306.57625,0.01148
3304.51608,0.01164
3302.45590,0.01160
3300.39573,0.01135
3298.33556,0.01123
3296.27539,0.01137
3294.21521,0.01162
3292.15504,0.01167
3290.09487,0.01144
3288.03470,0.01120
3285.97453,0.01118
3283.91435,0.01131
3281.85418,0.01150
3279.79401,0.01167
3277.73384,0.01156
3275.67367,0.01133
3273.61349,0.01138
3271.55332,0.01161
3269.49315,0.01174
3267.43298,0.01177
3265.37281,0.01167
3263.31263,0.01142
3261.25246,0.01129
3259.19229,0.01143
3257.13212,0.01159
3255.07194,0.01157
3253.01177,0.01147
3250.95160,0.01137
3248.89143,0.01131
3246.83126,0.01127
3244.77108,0.01125
3242.71091,0.01127
3240.65074,0.01132
3238.59057,0.01139
3236.53040,0.01139
3234.47022,0.01121
3232.41005,0.01102
3230.34988,0.01106
3228.28971,0.01120
3226.22954,0.01116
3224.16936,0.01103
3222.10919,0.01097
3220.04902,0.01093
3217.98885,0.01086
3215.92867,0.01072
3213.86850,0.01058
3211.80833,0.01061
3209.74816,0.01075
3207.68799,0.01079
3205.62781,0.01076
3203.56764,0.01077
3201.50747,0.01075
3199.44730,0.01062
3197.38713,0.01049
3195.32695,0.01044
3193.26678,0.01050
3191.20661,0.01060
3189.14644,0.01058
3187.08626,0.01052
3185.02609,0.01056
3182.96592,0.01055
3180.90575,0.01045
3178.84558,0.01034
3176.78540,0.01025
3174.72523,0.01015
3172.66506,0.01002
3170.60489,0.00993
3168.54472,0.00994
3166.48454,0.00999
3164.42437,0.00991
3162.36420,0.00969
3160.30403,0.00952
3158.24386,0.00959
3156.18368,0.00980
3154.12351,0.00984
3152.06334,0.00964
3150.00317,0.00946
3147.94299,0.00936
3145.88282,0.00921
3143.82265,0.00905
3141.76248,0.00888
3139.70231,0.00874
3137.64213,0.00876
3135.58196,0.00890
3133.52179,0.00895
3131.46162,0.00880
3129.40145,0.00865
3127.34127,0.00860
3125.28110,0.00854
3123.22093,0.00842
3121.16076,0.00824
3119.10058,0.00804
3117.04041,0.00799
3114.98024,0.00813
3112.92007,0.00823
3110.85990,0.00812
3108.79972,0.00789
3106.73955,0.00771
3104.67938,0.00766
3102.61921,0.00757
3100.55904,0.00742
3098.49886,0.00738
3096.43869,0.00744
3094.37852,0.00744
3092.31835,0.00734
3090.25818,0.00715
3088.19800,0.00707
3086.13783,0.00717
3084.07766,0.00725
3082.01749,0.00728
3079.95731,0.00735
3077.89714,0.00733
3075.83697,0.00711
3073.77680,0.00683
3071.71663,0.00667
3069.65645,0.00658
3067.59628,0.00652
3065.53611,0.00655
3063.47594,0.00661
3061.41577,0.00659
3059.35559,0.00648
3057.29542,0.00635
3055.23525,0.00626
3053.17508,0.00624
3051.11491,0.00631
3049.05473,0.00632
3046.99456,0.00627
3044.93439,0.00627
3042.87422,0.00628
3040.81404,0.00625
3038.75387,0.00622
3036.69370,0.00618
3034.63353,0.00608
3032.57336,0.00589
3030.51318,0.00566
3028.45301,0.00552
3026.39284,0.00555
3024.33267,0.00566
3022.27250,0.00567
3020.21232,0.00560
3018.15215,0.00558
3016.09198,0.00554
3014.03181,0.00543
3011.97163,0.00541
3009.91146,0.00550
3007.85129,0.00550
3005.79112,0.00540
3003.73095,0.00545
3001.67077,0.00569
2999.61060,0.00581
2997.55043,0.00561
2995.49026,0.00538
2993.43009,0.00543
2991.36991,0.00552
2989.30974,0.00542
2987.24957,0.00533
2985.18940,0.00546
2983.12923,0.00560
2981.06905,0.00559
2979.00888,0.00561
2976.94871,0.00574
2974.88854,0.00584
2972.82836,0.00585
2970.76819,0.00583
2968.70802,0.00578
2966.64785,0.00572
2964.58768,0.00573
2962.52750,0.00582
2960.46733,0.00591
2958.40716,0.00593
2956.34699,0.00602
2954.28682,0.00631
2952.22664,0.00660
2950.16647,0.00672
2948.10630,0.00680
2946.04613,0.00692
2943.98596,0.00700
2941.92578,0.00713
2939.86561,0.00729
2937.80544,0.00733
2935.74527,0.00725
2933.68509,0.00710
2931.62492,0.00714
2929.56475,0.00734
2927.50458,0.00736
2925.44441,0.00716
2923.38423,0.00693
2921.32406,0.00678
2919.26389,0.00664
2917.20372,0.00650
2915.14355,0.00652
2913.08337,0.00665
2911.02320,0.00670
2908.96303,0.00668
2906.90286,0.00664
2904.84268,0.00661
2902.78251,0.00662
2900.72234,0.00659
2898.66217,0.00649
2896.60200,0.00642
2894.54182,0.00645
2892.48165,0.00651
2890.42148,0.00651
2888.36131,0.00653
2886.30114,0.00659
2884.24096,0.00659
2882.18079,0.00652
2880.12062,0.00642
2878.06045,0.00626
2876.00028,0.00611
2873.94010,0.00597
2871.87993,0.00592
2869.81976,0.00603
2867.75959,0.00617
2865.69941,0.00618
2863.63924,0.00609
2861.57907,0.00600
2859.51890,0.00586
2857.45873,0.00565
2855.39855,0.00549
2853.33838,0.00541
2851.27821,0.00537
2849.21804,0.00535
2847.15787,0.00530
2845.09769,0.00521
2843.03752,0.00518
2840.97735,0.00526
2838.91718,0.00530
2836.85700,0.00523
2834.79683,0.00516
2832.73666,0.00510
2830.67649,0.00506
2828.61632,0.00511
2826.55614,0.00515
2824.49597,0.00514
2822.43580,0.00512
2820.37563,0.00504
2818.31546,0.00496
2816.25528,0.00499
2814.19511,0.00505
2812.13494,0.00502
2810.07477,0.00498
2808.01460,0.00497
2805.95442,0.00495
2803.89425,0.00490
2801.83408,0.00478
2799.77391,0.00470
2797.71373,0.00475
2795.65356,0.00491
2793.59339,0.00504
2791.53322,0.00507
2789.47305,0.00507
2787.41287,0.00493
2785.35270,0.00476
2783.29253,0.00474
2781.23236,0.00472
2779.17219,0.00460
2777.11201,0.00454
2775.05184,0.00465
2772.99167,0.00485
2770.93150,0.00491
2768.87133,0.00479
2766.81115,0.00468
2764.75098,0.00469
2762.69081,0.00476
2760.63064,0.00475
2758.57046,0.00462
2756.51029,0.00445
2754.45012,0.00438
2752.38995,0.00443
2750.32978,0.00455
2748.26960,0.00465
2746.20943,0.00467
2744.14926,0.00465
2742.08909,0.00461
2740.02892,0.00448
2737.96874,0.00432
2735.90857,0.00429
2733.84840,0.00439
2731.78823,0.00445
2729.72805,0.00436
2727.66788,0.00427
2725.60771,0.00435
2723.54754,0.00449
2721.48737,0.00454
2719.42719,0.00446
2717.36702,0.00431
2715.30685,0.00422
2713.24668,0.00421
2711.18651,0.00429
2709.12633,0.00442
2707.06616,0.00447
2705.00599,0.00444
2702.94582,0.00438
2700.88565,0.00428
2698.82547,0.00424
2696.76530,0.00435
2694.70513,0.00442
2692.64496,0.00432
2690.58478,0.00416
2688.52461,0.00415
2686.46444,0.00427
2684.40427,0.00433
2682.34410,0.00435
2680.28392,0.00438
2678.22375,0.00443
2676.16358,0.00438
2674.10341,0.00411
2672.04324,0.00387
2669.98306,0.00391
2667.92289,0.00408
2665.86272,0.00415
2663.80255,0.00415
2661.74238,0.00418
2659.68220,0.00417
2657.62203,0.00415
2655.56186,0.00421
2653.50169,0.00427
2651.44151,0.00424
2649.38134,0.00426
2647.32117,0.00440
2645.26100,0.00451
2643.20083,0.00454
2641.14065,0.00454
2639.08048,0.00450
2637.02031,0.00434
2634.96014,0.00417
2632.89997,0.00418
2630.83979,0.00426
2628.77962,0.00432
2626.71945,0.00441
2624.65928,0.00448
2622.59910,0.00444
2620.53893,0.00436
2618.47876,0.00432
2616.41859,0.00433
2614.35842,0.00428
2612.29824,0.00408
2610.23807,0.00385
2608.17790,0.00382
2606.11773,0.00395
2604.05756,0.00406
2601.99738,0.00407
2599.93721,0.00399
2597.87704,0.00393
2595.81687,0.00393
2593.75670,0.00395
2591.69652,0.00396
2589.63635,0.00391
2587.57618,0.00383
2585.51601,0.00385
2583.45583,0.00388
2581.39566,0.00378
2579.33549,0.00378
2577.27532,0.00390
2575.21515,0.00397
2573.15497,0.00395
2571.09480,0.00373
2569.03463,0.00344
2566.97446,0.00349
2564.91429,0.00380
2562.85411,0.00391
2560.79394,0.00378
2558.73377,0.00374
2556.67360,0.00378
2554.61342,0.00379
2552.55325,0.00384
2550.49308,0.00389
2548.43291,0.00395
2546.37274,0.00408
2544.31256,0.00420
2542.25239,0.00430
2540.19222,0.00422
2538.13205,0.00390
2536.07188,0.00370
2534.01170,0.00376
2531.95153,0.00370
2529.89136,0.00351
2527.83119,0.00357
2525.77102,0.00372
2523.71084,0.00364
2521.65067,0.00357
2519.59050,0.00366
2517.53033,0.00377
2515.47015,0.00377
2513.40998,0.00350
2511.34981,0.00313
2509.28964,0.00306
2507.22947,0.00329
2505.16929,0.00352
2503.10912,0.00361
2501.04895,0.00354
2498.98878,0.00348
2496.92861,0.00350
2494.86843,0.00343
2492.80826,0.00331
2490.74809,0.00334
2488.68792,0.00347
2486.62775,0.00353
2484.56757,0.00343
2482.50740,0.00334
2480.44723,0.00355
2478.38706,0.00387
2476.32688,0.00399
2474.26671,0.00392
2472.20654,0.00380
2470.14637,0.00376
2468.08620,0.00372
2466.02602,0.00368
2463.96585,0.00378
2461.90568,0.00398
2459.84551,0.00412
2457.78534,0.00413
2455.72516,0.00396
2453.66499,0.00370
2451.60482,0.00362
2449.54465,0.00375
2447.48447,0.00375
2445.42430,0.00344
2443.36413,0.00335
2441.30396,0.00367
2439.24379,0.00379
2437.18361,0.00364
2435.12344,0.00353
2433.06327,0.00366
2431.00310,0.00385
2428.94293,0.00387
2426.88275,0.00391
2424.82258,0.00399
2422.76241,0.00381
2420.70224,0.00356
2418.64207,0.00356
2416.58189,0.00371
2414.52172,0.00371
2412.46155,0.00360
2410.40138,0.00371
2408.34120,0.00388
2406.28103,0.00377
2404.22086,0.00358
2402.16069,0.00362
2400.10052,0.00367
2398.04034,0.00353
2395.98017,0.00334
2393.92000,0.00320
2391.85983,0.00316
2389.79966,0.00320
2387.73948,0.00324
2385.67931,0.00327
2383.61914,0.00337
2381.55897,0.00353
2379.49880,0.00358
2377.43862,0.00348
2375.37845,0.00350
2373.31828,0.00380
2371.25811,0.00382
2369.19793,0.00281
2367.13776,0.00135
2365.07759,0.00086
2363.01742,0.00168
2360.95725,0.00279
2358.89707,0.00297
2356.83690,0.00275
2354.77673,0.00294
2352.71656,0.00310
2350.65639,0.00319
2348.59621,0.00336
2346.53604,0.00336
2344.47587,0.00300
2342.41570,0.00254
2340.35552,0.00238
2338.29535,0.00260
2336.23518,0.00298
2334.17501,0.00326
2332.11484,0.00326
2330.05466,0.00314
2327.99449,0.00321
2325.93432,0.00342
2323.87415,0.00353
2321.81398,0.00353
2319.75380,0.00362
2317.69363,0.00379
2315.63346,0.00383
2313.57329,0.00365
2311.51312,0.00351
2309.45294,0.00354
2307.39277,0.00374
2305.33260,0.00394
2303.27243,0.00389
2301.21225,0.00370
2299.15208,0.00360
2297.09191,0.00351
2295.03174,0.00334
2292.97157,0.00329
2290.91139,0.00351
2288.85122,0.00388
2286.79105,0.00422
2284.73088,0.00444
2282.67071,0.00449
2280.61053,0.00437
2278.55036,0.00407
2276.49019,0.00364
2274.43002,0.00322
2272.36984,0.00305
2270.30967,0.00325
2268.24950,0.00375
2266.18933,0.00423
2264.12916,0.00427
2262.06898,0.00385
2260.00881,0.00348
2257.94864,0.00339
2255.88847,0.00354
2253.82830,0.00376
2251.76812,0.00381
2249.70795,0.00376
2247.64778,0.00388
2245.58761,0.00388
2243.52744,0.00366
2241.46726,0.00363
2239.40709,0.00374
2237.34692,0.00352
2235.28675,0.00295
2233.22657,0.00238
2231.16640,0.00222
2229.10623,0.00271
2227.04606,0.00330
2224.98589,0.00304
2222.92571,0.00238
2220.86554,0.00242
2218.80537,0.00268
2216.74520,0.00270
2214.68503,0.00282
2212.62485,0.00293
2210.56468,0.00331
2208.50451,0.00371
2206.44434,0.00345
2204.38417,0.00294
2202.32399,0.00255
2200.26382,0.00267
2198.20365,0.00364
2196.14348,0.00447
2194.08330,0.00460
2192.02313,0.00434
2189.96296,0.00359
2187.90279,0.00286
2185.84262,0.00290
2183.78244,0.00324
2181.72227,0.00321
2179.66210,0.00306
2177.60193,0.00296
2175.54176,0.00257
2173.48158,0.00206
2171.42141,0.00213
2169.36124,0.00303
2167.30107,0.00385
2165.24089,0.00390
2163.18072,0.00367
2161.12055,0.00331
2159.06038,0.00269
2157.00021,0.00166
2154.94003,0.00092
2152.87986,0.00138
2150.81969,0.00206
2148.75952,0.00226
2146.69935,0.00226
2144.63917,0.00229
2142.57900,0.00266
2140.51883,0.00328
2138.45866,0.00378
2136.39849,0.00379
2134.33831,0.00317
2132.27814,0.00242
2130.21797,0.00199
2128.15780,0.00211
2126.09762,0.00291
2124.03745,0.00391
2121.97728,0.00436
2119.91711,0.00408
2117.85694,0.00348
2115.79676,0.00294
2113.73659,0.00258
2111.67642,0.00264
2109.61625,0.00302
2107.55608,0.00331
2105.49590,0.00359
2103.43573,0.00366
2101.37556,0.00329
2099.31539,0.00294
2097.25521,0.00269
2095.19504,0.00260
2093.13487,0.00277
2091.07470,0.00284
2089.01453,0.00263
2086.95435,0.00252
2084.89418,0.00291
2082.83401,0.00338
2080.77384,0.00333
2078.71367,0.00309
2076.65349,0.00300
2074.59332,0.00274
2072.53315,0.00256
2070.47298,0.00262
2068.41281,0.00258
2066.35263,0.00255
2064.29246,0.00267
2062.23229,0.00285
2060.17212,0.00304
2058.11194,0.00322
2056.05177,0.00337
2053.99160,0.00322
2051.93143,0.00273
2049.87126,0.00257
2047.81108,0.00332
2045.75091,0.00416
2043.69074,0.00387
2041.63057,0.00265
2039.57040,0.00161
2037.51022,0.00154
2035.45005,0.00216
2033.38988,0.00230
2031.32971,0.00172
2029.26954,0.00134
2027.20936,0.00168
2025.14919,0.00230
2023.08902,0.00265
2021.02885,0.00281
2018.96867,0.00286
2016.90850,0.00257
2014.84833,0.00231
2012.78816,0.00274
2010.72799,0.00320
2008.66781,0.00268
2006.60764,0.00178
2004.54747,0.00167
2002.48730,0.00197
2000.42713,0.00206
1998.36695,0.00216
1996.30678,0.00211
1994.24661,0.00152
1992.18644,0.00096
1990.12626,0.00124
1988.06609,0.00190
1986.00592,0.00212
1983.94575,0.00234
1981.88558,0.00309
1979.82540,0.00393
1977.76523,0.00379
1975.70506,0.00272
1973.64489,0.00221
1971.58472,0.00243
1969.52454,0.00278
1967.46437,0.00299
1965.40420,0.00240
1963.34403,0.00137
1961.28386,0.00098
1959.22368,0.00137
1957.16351,0.00186
1955.10334,0.00177
1953.04317,0.00133
1950.98299,0.00125
1948.92282,0.00157
1946.86265,0.00202
1944.80248,0.00262
1942.74231,0.00303
1940.68213,0.00290
1938.62196,0.00243
1936.56179,0.00193
1934.50162,0.00182
1932.44145,0.00195
1930.38127,0.00183
1928.32110,0.00175
1926.26093,0.00195
1924.20076,0.00221
1922.14059,0.00228
1920.08041,0.00216
1918.02024,0.00203
1915.96007,0.00214
1913.89990,0.00244
1911.83972,0.00252
1909.77955,0.00219
1907.71938,0.00179
1905.65921,0.00156
1903.59904,0.00154
1901.53886,0.00165
1899.47869,0.00179
1897.41852,0.00192
1895.35835,0.00195
1893.29818,0.00190
1891.23800,0.00185
1889.17783,0.00174
1887.11766,0.00168
1885.05749,0.00188
1882.99731,0.00221
1880.93714,0.00235
1878.87697,0.00214
1876.81680,0.00180
1874.75663,0.00164
1872.69645,0.00162
1870.63628,0.00154
1868.57611,0.00139
1866.51594,0.00139
1864.45577,0.00165
1862.39559,0.00197
1860.33542,0.00199
1858.27525,0.00170
1856.21508,0.00145
1854.15491,0.00153
1852.09473,0.00194
1850.03456,0.00231
1847.97439,0.00223
1845.91422,0.00180
1843.85404,0.00152
1841.79387,0.00161
1839.73370,0.00175
1837.67353,0.00177
1835.61336,0.00177
1833.55318,0.00182
1831.49301,0.00177
1829.43284,0.00156
1827.37267,0.00148
1825.31250,0.00168
1823.25232,0.00189
1821.19215,0.00186
1819.13198,0.00162
1817.07181,0.00143
1815.01163,0.00144
1812.95146,0.00153
1810.89129,0.00149
1808.83112,0.00143
1806.77095,0.00157
1804.71077,0.00179
1802.65060,0.00181
1800.59043,0.00170
1798.53026,0.00171
1796.47009,0.00182
1794.40991,0.00185
1792.34974,0.00169
1790.28957,0.00151
1788.22940,0.00152
1786.16923,0.00172
1784.10905,0.00198
1782.04888,0.00212
1779.98871,0.00204
1777.92854,0.00183
1775.86836,0.00173
1773.80819,0.00177
1771.74802,0.00173
1769.68785,0.00159
1767.62768,0.00158
1765.56750,0.00173
1763.50733,0.00187
1761.44716,0.00189
1759.38699,0.00196
1757.32682,0.00218
1755.26664,0.00240
1753.20647,0.00262
1751.14630,0.00289
1749.08613,0.00306
1747.02596,0.00310
1744.96578,0.00318
1742.90561,0.00330
1740.84544,0.00334
1738.78527,0.00333
1736.72509,0.00344
1734.66492,0.00362
1732.60475,0.00371
1730.54458,0.00365
1728.48441,0.00353
1726.42423,0.00345
1724.36406,0.00338
1722.30389,0.00338
1720.24372,0.00346
1718.18355,0.00342
1716.12337,0.00316
1714.06320,0.00289
1712.00303,0.00282
1709.94286,0.00289
1707.88268,0.00287
1705.82251,0.00264
1703.76234,0.00241
1701.70217,0.00235
1699.64200,0.00234
1697.58182,0.00229
1695.52165,0.00217
1693.46148,0.00218
1691.40131,0.00239
1689.34114,0.00260
1687.28096,0.00264
1685.22079,0.00252
1683.16062,0.00244
1681.10045,0.00264
1679.04028,0.00294
1676.98010,0.00313
1674.91993,0.00318
1672.85976,0.00323
1670.79959,0.00335
1668.73941,0.00356
1666.67924,0.00382
1664.61907,0.00403
1662.55890,0.00410
1660.49873,0.00408
1658.43855,0.00419
1656.37838,0.00461
1654.31821,0.00516
1652.25804,0.00532
1650.19787,0.00509
1648.13769,0.00485
1646.07752,0.00484
1644.01735,0.00496
1641.95718,0.00507
1639.89701,0.00521
1637.83683,0.00537
1635.77666,0.00546
1633.71649,0.00549
1631.65632,0.00551
1629.59614,0.00556
1627.53597,0.00561
1625.47580,0.00571
1623.41563,0.00586
1621.35546,0.00591
1619.29528,0.00587
1617.23511,0.00588
1615.17494,0.00594
1613.11477,0.00598
1611.05460,0.00595
1608.99442,0.00585
1606.93425,0.00570
1604.87408,0.00551
1602.81391,0.00528
1600.75373,0.00507
1598.69356,0.00489
1596.63339,0.00465
1594.57322,0.00434
1592.51305,0.00409
1590.45287,0.00391
1588.39270,0.00372
1586.33253,0.00347
1584.27236,0.00320
1582.21219,0.00301
1580.15201,0.00287
1578.09184,0.00275
1576.03167,0.00257
1573.97150,0.00239
1571.91133,0.00230
1569.85115,0.00223
1567.79098,0.00212
1565.73081,0.00205
1563.67064,0.00207
1561.61046,0.00220
1559.55029,0.00217
1557.49012,0.00185
1555.42995,0.00163
1553.36978,0.00150
1551.30960,0.00134
1549.24943,0.00124
1547.18926,0.00133
1545.12909,0.00162
1543.06892,0.00188
1541.00874,0.00171
1538.94857,0.00124
1536.88840,0.00109
1534.82823,0.00121
1532.76805,0.00123
1530.70788,0.00119
1528.64771,0.00128
1526.58754,0.00150
1524.52737,0.00167
1522.46719,0.00159
1520.40702,0.00130
1518.34685,0.00109
1516.28668,0.00108
1514.22651,0.00123
1512.16633,0.00150
1510.10616,0.00179
1508.04599,0.00185
1505.98582,0.00165
1503.92565,0.00149
1501.86547,0.00145
1499.80530,0.00144
1497.74513,0.00142
1495.68496,0.00141
1493.62478,0.00147
1491.56461,0.00154
1489.50444,0.00157
1487.44427,0.00163
1485.38410,0.00178
1483.32392,0.00189
1481.26375,0.00191
1479.20358,0.00197
1477.14341,0.00211
1475.08324,0.00222
1473.02306,0.00222
1470.96289,0.00231
1468.90272,0.00255
1466.84255,0.00277
1464.78238,0.00289
1462.72220,0.00310
1460.66203,0.00342
1458.60186,0.00371
1456.54169,0.00386
1454.48151,0.00388
1452.42134,0.00383
1450.36117,0.00376
1448.30100,0.00378
1446.24083,0.00390
1444.18065,0.00402
1442.12048,0.00411
1440.06031,0.00419
1438.00014,0.00427
1435.93997,0.00435
1433.87979,0.00452
1431.81962,0.00476
1429.75945,0.00494
1427.69928,0.00502
1425.63910,0.00507
1423.57893,0.00513
1421.51876,0.00515
1419.45859,0.00511
1417.39842,0.00509
1415.33824,0.00510
1413.27807,0.00514
1411.21790,0.00521
1409.15773,0.00524
1407.09756,0.00519
1405.03738,0.00511
1402.97721,0.00507
1400.91704,0.00511
1398.85687,0.00507
1396.79670,0.00488
1394.73652,0.00464
1392.67635,0.00452
1390.61618,0.00459
1388.55601,0.00471
1386.49583,0.00478
1384.43566,0.00484
1382.37549,0.00494
1380.31532,0.00506
1378.25515,0.00517
1376.19497,0.00524
1374.13480,0.00529
1372.07463,0.00533
1370.01446,0.00531
1367.95429,0.00530
1365.89411,0.00531
1363.83394,0.00529
1361.77377,0.00520
1359.71360,0.00508
1357.65343,0.00496
1355.59325,0.00489
1353.53308,0.00484
1351.47291,0.00479
1349.41274,0.00474
1347.35256,0.00471
1345.29239,0.00470
1343.23222,0.00471
1341.17205,0.00470
1339.11188,0.00462
1337.05170,0.00448
1334.99153,0.00439
1332.93136,0.00436
1330.87119,0.00432
1328.81102,0.00433
1326.75084,0.00448
1324.69067,0.00467
1322.63050,0.00476
1320.57033,0.00478
1318.51015,0.00484
1316.44998,0.00491
1314.38981,0.00495
1312.32964,0.00489
1310.26947,0.00474
1308.20929,0.00460
1306.14912,0.00457
1304.08895,0.00457
1302.02878,0.00454
1299.96861,0.00452
1297.90843,0.00454
1295.84826,0.00454
1293.78809,0.00448
1291.72792,0.00437
1289.66775,0.00423
1287.60757,0.00411
1285.54740,0.00405
1283.48723,0.00405
1281.42706,0.00405
1279.36688,0.00401
1277.30671,0.00394
1275.24654,0.00393
1273.18637,0.00402
1271.12620,0.00416
1269.06602,0.00435
1267.00585,0.00463
1264.94568,0.00497
1262.88551,0.00517
1260.82534,0.00524
1258.76516,0.00534
1256.70499,0.00549
1254.64482,0.00558
1252.58465,0.00556
1250.52447,0.00553
1248.46430,0.00555
1246.40413,0.00556
1244.34396,0.00557
1242.28379,0.00555
1240.22361,0.00545
1238.16344,0.00535
1236.10327,0.00528
1234.04310,0.00515
1231.98293,0.00503
1229.92275,0.00498
1227.86258,0.00486
1225.80241,0.00464
1223.74224,0.00444
1221.68207,0.00434
1219.62189,0.00422
1217.56172,0.00401
1215.50155,0.00381
1213.44138,0.00363
1211.38120,0.00340
1209.32103,0.00317
1207.26086,0.00290
1205.20069,0.00253
1203.14052,0.00221
1201.08034,0.00203
1199.02017,0.00186
1196.96000,0.00170
1194.89983,0.00159
1192.83966,0.00155
1190.77948,0.00152
1188.71931,0.00134
1186.65914,0.00118
1184.59897,0.00121
1182.53880,0.00141
1180.47862,0.00153
1178.41845,0.00161
1176.35828,0.00179
1174.29811,0.00205
1172.23793,0.00234
1170.17776,0.00272
1168.11759,0.00313
1166.05742,0.00356
1163.99725,0.00396
1161.93707,0.00425
1159.87690,0.00440
1157.81673,0.00454
1155.75656,0.00478
1153.69639,0.00508
1151.63621,0.00531
1149.57604,0.00542
1147.51587,0.00553
1145.45570,0.00579
1143.39552,0.00608
1141.33535,0.00623
1139.27518,0.00629
1137.21501,0.00632
1135.15484,0.00638
1133.09466,0.00658
1131.03449,0.00685
1128.97432,0.00711
1126.91415,0.00732
1124.85398,0.00750
1122.79380,0.00774
1120.73363,0.00808
1118.67346,0.00840
1116.61329,0.00866
1114.55312,0.00894
1112.49294,0.00929
1110.43277,0.00956
1108.37260,0.00968
1106.31243,0.00980
1104.25225,0.01009
1102.19208,0.01056
1100.13191,0.01112
1098.07174,0.01166
1096.01157,0.01213
1093.95139,0.01248
1091.89122,0.01274
1089.83105,0.01312
1087.77088,0.01363
1085.71071,0.01411
1083.65053,0.01443
1081.59036,0.01474
1079.53019,0.01510
1077.47002,0.01549
1075.40985,0.01588
1073.34967,0.01627
1071.28950,0.01675
1069.22933,0.01717
1067.16916,0.01720
1065.10898,0.01716
1063.04881,0.01734
1060.98864,0.01752
1058.92847,0.01759
1056.86830,0.01766
1054.80812,0.01780
1052.74795,0.01803
1050.68778,0.01824
1048.62761,0.01842
1046.56744,0.01868
1044.50726,0.01908
1042.44709,0.01949
1040.38692,0.01978
1038.32675,0.01996
1036.26657,0.02017
1034.20640,0.02037
1032.14623,0.02034
1030.08606,0.02009
1028.02589,0.01982
1025.96571,0.01969
1023.90554,0.01968
1021.84537,0.01967
1019.78520,0.01955
1017.72503,0.01946
1015.66485,0.01955
1013.60468,0.01970
1011.54451,0.01961
1009.48434,0.01931
1007.42417,0.01904
1005.36399,0.01884
1003.30382,0.01861
1001.24365,0.01837
999.18348,0.01806
997.12330,0.01766
995.06313,0.01743
993.00296,0.01742
990.94279,0.01728
988.88262,0.01699
986.82244,0.01684
984.76227,0.01679
982.70210,0.01662
980.64193,0.01643
978.58176,0.01637
976.52158,0.01618
974.46141,0.01566
972.40124,0.01523
970.34107,0.01510
968.28089,0.01494
966.22072,0.01461
964.16055,0.01432
962.10038,0.01412
960.04021,0.01390
957.98003,0.01370
955.91986,0.01358
953.85969,0.01351
951.79952,0.01334
949.73935,0.01297
947.67917,0.01240
945.61900,0.01165
943.55883,0.01090
941.49866,0.01031
939.43849,0.00973
937.37831,0.00907
935.31814,0.00845
933.25797,0.00785
931.19780,0.00724
929.13762,0.00674
927.07745,0.00633
925.01728,0.00604
922.95711,0.00596
920.89694,0.00583
918.83676,0.00554
916.77659,0.00530
914.71642,0.00500
912.65625,0.00455
910.59608,0.00420
908.53590,0.00401
906.47573,0.00397
904.41556,0.00408
902.35539,0.00414
900.29522,0.00407
898.23504,0.00406
896.17487,0.00420
894.11470,0.00434
892.05453,0.00447
889.99435,0.00470
887.93418,0.00485
885.87401,0.00472
883.81384,0.00435
881.75367,0.00391
879.69349,0.00356
877.63332,0.00347
875.57315,0.00357
873.51298,0.00368
871.45281,0.00364
869.39263,0.00357
867.33246,0.00353
865.27229,0.00337
863.21212,0.00324
861.15194,0.00334
859.09177,0.00346
857.03160,0.00344
854.97143,0.00354
852.91126,0.00370
850.85108,0.00361
848.79091,0.00335
846.73074,0.00316
844.67057,0.00309
842.61040,0.00301
840.55022,0.00286
838.49005,0.00271
836.42988,0.00247
834.36971,0.00214
832.30954,0.00193
830.24936,0.00184
828.18919,0.00183
826.12902,0.00180
824.06885,0.00176
822.00867,0.00188
819.94850,0.00208
817.88833,0.00212
815.82816,0.00189
813.76799,0.00180
811.70781,0.00204
809.64764,0.00231
807.58747,0.00266
805.52730,0.00299
803.46713,0.00308
801.40695,0.00291
799.34678,0.00252
797.28661,0.00211
795.22644,0.00174
793.16627,0.00138
791.10609,0.00129
789.04592,0.00149
786.98575,0.00188
784.92558,0.00216
782.86540,0.00221
780.80523,0.00226
778.74506,0.00239
776.68489,0.00224
774.62472,0.00185
772.56454,0.00185
770.50437,0.00226
768.44420,0.00249
766.38403,0.00233
764.32386,0.00170
762.26368,0.00107
760.20351,0.00137
758.14334,0.00210
756.08317,0.00233
754.02299,0.00226
751.96282,0.00212
749.90265,0.00172
747.84248,0.00131
745.78231,0.00140
743.72213,0.00182
741.66196,0.00198
739.60179,0.00175
737.54162,0.00148
735.48145,0.00128
733.42127,0.00116
731.36110,0.00128
729.30093,0.00157
727.24076,0.00161
725.18059,0.00135
723.12041,0.00138
721.06024,0.00153
719.00007,0.00158
716.93990,0.00170
714.87972,0.00194
712.81955,0.00203
710.75938,0.00191
708.69921,0.00189
706.63904,0.00206
704.57886,0.00222
702.51869,0.00241
700.45852,0.00265
698.39835,0.00259
696.33818,0.00234
694.27800,0.00233
692.21783,0.00261
690.15766,0.00300
688.09749,0.00337
686.03731,0.00321
683.97714,0.00229
681.91697,0.00146
679.85680,0.00132
677.79663,0.00126
675.73645,0.00111
673.67628,0.00119
671.61611,0.00135
669.55594,0.00172
667.49577,0.00240
665.43559,0.00256
663.37542,0.00225
661.31525,0.00189
659.25508,0.00186
657.19491,0.00224
655.13473,0.00241
653.07456,0.00208
651.01439,0.00188
648.95422,0.00207
646.89404,0.00213
644.83387,0.00199
642.77370,0.00197
640.71353,0.00202
638.65336,0.00208
636.59318,0.00243
634.53301,0.00289
632.47284,0.00262
630.41267,0.00165
628.35250,0.00112
626.29232,0.00124
624.23215,0.00084
622.17198,0.00087
620.11181,0.00203
618.05164,0.00250
615.99146,0.00134
613.93129,0.00000
611.87112,0.00060
609.81095,0.00287
607.75077,0.00380
605.69060,0.00274
603.63043,0.00153
601.57026,0.00115
599.51009,0.00000
