3996.73391,-0.00029
3994.67373,0.00003
3992.61356,0.00020
3990.55339,0.00011
3988.49322,-0.00023
3986.43305,-0.00037
3984.37287,-0.00001
3982.31270,0.00038
3980.25253,0.00019
3978.19236,-0.00013
3976.13219,0.00020
3974.07201,0.00079
3972.01184,0.00079
3969.95167,0.00023
3967.89150,-0.00019
3965.83133,-0.00004
3963.77115,0.00037
3961.71098,0.00046
3959.65081,0.00020
3957.59064,0.00000
3955.53046,0.00000
3953.47029,0.00017
3951.41012,0.00036
3949.34995,0.00035
3947.28978,0.00030
3945.22960,0.00047
3943.16943,0.00052
3941.10926,0.00020
3939.04909,0.00003
3936.98892,0.00033
3934.92874,0.00079
3932.86857,0.00122
3930.80840,0.00155
3928.74823,0.00170
3926.68805,0.00172
3924.62788,0.00156
3922.56771,0.00116
3920.50754,0.00093
3918.44737,0.00106
3916.38719,0.00108
3914.32702,0.00082
3912.26685,0.00081
3910.20668,0.00123
3908.14651,0.00164
3906.08633,0.00184
3904.02616,0.00193
3901.96599,0.00199
3899.90582,0.00217
3897.84565,0.00222
3895.78547,0.00209
3893.72530,0.00203
3891.66513,0.00193
3889.60496,0.00180
3887.54478,0.00210
3885.48461,0.00249
3883.42444,0.00241
3881.36427,0.00193
3879.30410,0.00113
3877.24392,0.00039
3875.18375,0.00028
3873.12358,0.00099
3871.06341,0.00167
3869.00324,0.00128
3866.94306,0.00052
3864.88289,0.00031
3862.82272,0.00053
3860.76255,0.00104
3858.70237,0.00157
3856.64220,0.00175
3854.58203,0.00145
3852.52186,0.00073
3850.46169,0.00005
3848.40151,0.00000
3846.34134,0.00050
3844.28117,0.00098
3842.22100,0.00123
3840.16083,0.00172
3838.10065,0.00237
3836.04048,0.00187
3833.98031,0.00047
3831.92014,0.00000
3829.85997,0.00070
3827.79979,0.00150
3825.73962,0.00204
3823.67945,0.00230
3821.61928,0.00201
3819.55910,0.00145
3817.49893,0.00122
3815.43876,0.00106
3813.37859,0.00102
3811.31842,0.00166
3809.25824,0.00262
3807.19807,0.00283
3805.13790,0.00219
3803.07773,0.00179
3801.01756,0.00192
3798.95738,0.00191
3796.89721,0.00151
3794.83704,0.00126
3792.77687,0.00152
3790.71670,0.00197
3788.65652,0.00218
3786.59635,0.00196
3784.53618,0.00147
3782.47601,0.00127
3780.41583,0.00135
3778.35566,0.00115
3776.29549,0.00057
3774.23532,0.00009
3772.17515,0.00006
3770.11497,0.00069
3768.05480,0.00170
3765.99463,0.00217
3763.93446,0.00194
3761.87429,0.00168
3759.81411,0.00162
3757.75394,0.00155
3755.69377,0.00166
3753.63360,0.00226
3751.57342,0.00329
3749.51325,0.00408
3747.45308,0.00383
3745.39291,0.00295
3743.33274,0.00254
3741.27256,0.00266
3739.21239,0.00252
3737.15222,0.00189
3735.09205,0.00073
3733.03188,0.00000
3730.97170,0.00082
3728.91153,0.00228
3726.85136,0.00315
3724.79119,0.00322
3722.73102,0.00289
3720.67084,0.00241
3718.61067,0.00192
3716.55050,0.00136
3714.49033,0.00086
3712.43015,0.00102
3710.36998,0.00186
3708.30981,0.00240
3706.24964,0.00234
3704.18947,0.00198
3702.12929,0.00154
3700.06912,0.00148
3698.00895,0.00182
3695.94878,0.00207
3693.88861,0.00189
3691.82843,0.00115
3689.76826,0.00018
3687.70809,0.00000
3685.64792,0.00105
3683.58775,0.00243
3681.52757,0.00345
3679.46740,0.00413
3677.40723,0.00431
3675.34706,0.00356
3673.28688,0.00235
3671.22671,0.00165
3669.16654,0.00183
3667.10637,0.00242
3665.04620,0.00292
3662.98602,0.00313
3660.92585,0.00278
3658.86568,0.00218
3656.80551,0.00220
3654.74534,0.00301
3652.68516,0.00368
3650.62499,0.00342
3648.56482,0.00282
3646.50465,0.00286
3644.44447,0.00328
3642.38430,0.00396
3640.32413,0.00455
3638.26396,0.00437
3636.20379,0.00406
3634.14361,0.00481
3632.08344,0.00614
3630.02327,0.00694
3627.96310,0.00708
3625.90293,0.00671
3623.84275,0.00583
3621.78258,0.00484
3619.72241,0.00424
3617.66224,0.00443
3615.60207,0.00535
3613.54189,0.00637
3611.48172,0.00713
3609.42155,0.00746
3607.36138,0.00741
3605.30120,0.00737
3603.24103,0.00767
3601.18086,0.00828
3599.12069,0.00899
3597.06052,0.00957
3595.00034,0.01007
3592.94017,0.01075
3590.88000,0.01125
3588.81983,0.01139
3586.75966,0.01152
3584.69948,0.01195
3582.63931,0.01240
3580.57914,0.01261
3578.51897,0.01274
3576.45879,0.01288
3574.39862,0.01288
3572.33845,0.01286
3570.27828,0.01333
3568.21811,0.01466
3566.15793,0.01580
3564.09776,0.01548
3562.03759,0.01473
3559.97742,0.01489
3557.91725,0.01574
3555.85707,0.01657
3553.79690,0.01719
3551.73673,0.01778
3549.67656,0.01854
3547.61639,0.01957
3545.55621,0.02037
3543.49604,0.02028
3541.43587,0.01970
3539.37570,0.01938
3537.31552,0.01971
3535.25535,0.02060
3533.19518,0.02145
3531.13501,0.02217
3529.07484,0.02309
3527.01466,0.02408
3524.95449,0.02471
3522.89432,0.02488
3520.83415,0.02496
3518.77398,0.02511
3516.71380,0.02513
3514.65363,0.02527
3512.59346,0.02583
3510.53329,0.02655
3508.47312,0.02727
3506.41294,0.02803
3504.35277,0.02872
3502.29260,0.02917
3500.23243,0.02948
3498.17225,0.02993
3496.11208,0.03062
3494.05191,0.03123
3491.99174,0.03147
3489.93157,0.03155
3487.87139,0.03164
3485.81122,0.03182
3483.75105,0.03251
3481.69088,0.03366
3479.63071,0.03450
3477.57053,0.03452
3475.51036,0.03409
3473.45019,0.03414
3471.39002,0.03506
3469.32984,0.03610
3467.26967,0.03660
3465.20950,0.03681
3463.14933,0.03699
3461.08916,0.03711
3459.02898,0.03732
3456.96881,0.03776
3454.90864,0.03836
3452.84847,0.03892
3450.78830,0.03944
3448.72812,0.04001
3446.66795,0.04049
3444.60778,0.04071
3442.54761,0.04108
3440.48744,0.04198
3438.42726,0.04289
3436.36709,0.04345
3434.30692,0.04369
3432.24675,0.04397
3430.18657,0.04445
3428.12640,0.04467
3426.06623,0.04466
3424.00606,0.04492
3421.94589,0.04567
3419.88571,0.04653
3417.82554,0.04696
3415.76537,0.04691
3413.70520,0.04680
3411.64503,0.04703
3409.58485,0.04737
3407.52468,0.04775
3405.46451,0.04821
3403.40434,0.04884
3401.34416,0.04967
3399.28399,0.05018
3397.22382,0.05043
3395.16365,0.05069
3393.10348,0.05069
3391.04330,0.05057
3388.98313,0.05101
3386.92296,0.05186
3384.86279,0.05234
3382.80262,0.05234
3380.74244,0.05223
3378.68227,0.05233
3376.62210,0.05277
3374.56193,0.05313
3372.50176,0.05327
3370.44158,0.05354
3368.38141,0.05398
3366.32124,0.05453
3364.26107,0.05522
3362.20089,0.05583
3360.14072,0.05597
3358.08055,0.05570
3356.02038,0.05535
3353.96021,0.05518
3351.90003,0.05548
3349.83986,0.05595
3347.77969,0.05614
3345.71952,0.05619
3343.65935,0.05587
3341.59917,0.05506
3339.53900,0.05471
3337.47883,0.05525
3335.41866,0.05612
3333.35849,0.05700
3331.29831,0.05743
3329.23814,0.05706
3327.17797,0.05636
3325.11780,0.05595
3323.05762,0.05602
3320.99745,0.05614
3318.93728,0.05608
3316.87711,0.05619
3314.81694,0.05638
3312.75676,0.05637
3310.69659,0.05646
3308.63642,0.05696
3306.57625,0.05755
3304.51608,0.05778
3302.45590,0.05759
3300.39573,0.05735
3298.33556,0.05737
3296.27539,0.05734
3294.21521,0.05706
3292.15504,0.05705
3290.09487,0.05745
3288.03470,0.05765
3285.97453,0.05756
3283.91435,0.05772
3281.85418,0.05792
3279.79401,0.05771
3277.73384,0.05732
3275.67367,0.05691
3273.61349,0.05651
3271.55332,0.05634
3269.49315,0.05634
3267.43298,0.05612
3265.37281,0.05556
3263.31263,0.05531
3261.25246,0.05575
3259.19229,0.05647
3257.13212,0.05722
3255.07194,0.05775
3253.01177,0.05725
3250.95160,0.05611
3248.89143,0.05600
3246.83126,0.05658
3244.77108,0.05620
3242.71091,0.05532
3240.65074,0.05508
3238.59057,0.05532
3236.53040,0.05561
3234.47022,0.05581
3232.41005,0.05545
3230.34988,0.05462
3228.28971,0.05429
3226.22954,0.05469
3224.16936,0.05513
3222.10919,0.05503
3220.04902,0.05446
3217.98885,0.05407
3215.92867,0.05419
3213.86850,0.05428
3211.80833,0.05409
3209.74816,0.05410
3207.68799,0.05400
3205.62781,0.05331
3203.56764,0.05250
3201.50747,0.05219
3199.44730,0.05241
3197.38713,0.05269
3195.32695,0.05259
3193.26678,0.05215
3191.20661,0.05151
3189.14644,0.05094
3187.08626,0.05074
3185.02609,0.05056
3182.96592,0.05022
3180.90575,0.04988
3178.84558,0.04937
3176.78540,0.04880
3174.72523,0.04859
3172.66506,0.04846
3170.60489,0.04824
3168.54472,0.04837
3166.48454,0.04856
3164.42437,0.04813
3162.36420,0.04737
3160.30403,0.04705
3158.24386,0.04699
3156.18368,0.04640
3154.12351,0.04557
3152.06334,0.04533
3150.00317,0.04532
3147.94299,0.04501
3145.88282,0.04473
3143.82265,0.04471
3141.76248,0.04445
3139.70231,0.04378
3137.64213,0.04321
3135.58196,0.04296
3133.52179,0.04290
3131.46162,0.04269
3129.40145,0.04220
3127.34127,0.04162
3125.28110,0.04139
3123.22093,0.04146
3121.16076,0.04120
3119.10058,0.04071
3117.04041,0.04065
3114.98024,0.04054
3112.92007,0.03994
3110.85990,0.03953
3108.79972,0.03945
3106.73955,0.03932
3104.67938,0.03914
3102.61921,0.03896
3100.55904,0.03859
3098.49886,0.03808
3096.43869,0.03765
3094.37852,0.03728
3092.31835,0.03691
3090.25818,0.03672
3088.19800,0.03637
3086.13783,0.03559
3084.07766,0.03504
3082.01749,0.03522
3079.95731,0.03546
3077.89714,0.03505
3075.83697,0.03458
3073.77680,0.03469
3071.71663,0.03488
3069.65645,0.03465
3067.59628,0.03411
3065.53611,0.03360
3063.47594,0.03325
3061.41577,0.03291
3059.35559,0.03273
3057.29542,0.03279
3055.23525,0.03262
3053.17508,0.03202
3051.11491,0.03133
3049.05473,0.03074
3046.99456,0.03026
3044.93439,0.02987
3042.87422,0.02958
3040.81404,0.02916
3038.75387,0.02870
3036.69370,0.02849
3034.63353,0.02845
3032.57336,0.02844
3030.51318,0.02836
3028.45301,0.02836
3026.39284,0.02860
3024.33267,0.02861
3022.27250,0.02825
3020.21232,0.02817
3018.15215,0.02859
3016.09198,0.02892
3014.03181,0.02861
3011.97163,0.02770
3009.91146,0.02675
3007.85129,0.02637
3005.79112,0.02653
3003.73095,0.02643
3001.67077,0.02597
2999.61060,0.02575
2997.55043,0.02563
2995.49026,0.02536
2993.43009,0.02536
2991.36991,0.02553
2989.30974,0.02581
2987.24957,0.02627
2985.18940,0.02652
2983.12923,0.02661
2981.06905,0.02680
2979.00888,0.02702
2976.94871,0.02734
2974.88854,0.02793
2972.82836,0.02871
2970.76819,0.02961
2968.70802,0.03094
2966.64785,0.03257
2964.58768,0.03379
2962.52750,0.03480
2960.46733,0.03641
2958.40716,0.03818
2956.34699,0.03956
2954.28682,0.04104
2952.22664,0.04274
2950.16647,0.04430
2948.10630,0.04608
2946.04613,0.04867
2943.98596,0.05189
2941.92578,0.05498
2939.86561,0.05762
2937.80544,0.06020
2935.74527,0.06292
2933.68509,0.06531
2931.62492,0.06714
2929.56475,0.06903
2927.50458,0.07139
2925.44441,0.07340
2923.38423,0.07407
2921.32406,0.07384
2919.26389,0.07364
2917.20372,0.07288
2915.14355,0.07054
2913.08337,0.06745
2911.02320,0.06474
2908.96303,0.06249
2906.90286,0.06060
2904.84268,0.05885
2902.78251,0.05704
2900.72234,0.05529
2898.66217,0.05349
2896.60200,0.05172
2894.54182,0.05053
2892.48165,0.04958
2890.42148,0.04837
2888.36131,0.04730
2886.30114,0.04639
2884.24096,0.04548
2882.18079,0.04497
2880.12062,0.04471
2878.06045,0.04446
2876.00028,0.04447
2873.94010,0.04469
2871.87993,0.04508
2869.81976,0.04575
2867.75959,0.04658
2865.69941,0.04756
2863.63924,0.04881
2861.57907,0.05033
2859.51890,0.05187
2857.45873,0.05344
2855.39855,0.05527
2853.33838,0.05691
2851.27821,0.05754
2849.21804,0.05666
2847.15787,0.05414
2845.09769,0.05042
2843.03752,0.04643
2840.97735,0.04313
2838.91718,0.04096
2836.85700,0.03953
2834.79683,0.03814
2832.73666,0.03645
2830.67649,0.03487
2828.61632,0.03386
2826.55614,0.03319
2824.49597,0.03256
2822.43580,0.03195
2820.37563,0.03144
2818.31546,0.03113
2816.25528,0.03095
2814.19511,0.03070
2812.13494,0.03035
2810.07477,0.02989
2808.01460,0.02929
2805.95442,0.02868
2803.89425,0.02830
2801.83408,0.02823
2799.77391,0.02838
2797.71373,0.02845
2795.65356,0.02809
2793.59339,0.02742
2791.53322,0.02674
2789.47305,0.02630
2787.41287,0.02614
2785.35270,0.02599
2783.29253,0.02567
2781.23236,0.02527
2779.17219,0.02498
2777.11201,0.02484
2775.05184,0.02497
2772.99167,0.02521
2770.93150,0.02505
2768.87133,0.02460
2766.81115,0.02436
2764.75098,0.02432
2762.69081,0.02410
2760.63064,0.02376
2758.57046,0.02364
2756.51029,0.02383
2754.45012,0.02411
2752.38995,0.02420
2750.32978,0.02417
2748.26960,0.02428
2746.20943,0.02429
2744.14926,0.02401
2742.08909,0.02352
2740.02892,0.02301
2737.96874,0.02296
2735.90857,0.02323
2733.84840,0.02327
2731.78823,0.02322
2729.72805,0.02308
2727.66788,0.02294
2725.60771,0.02299
2723.54754,0.02286
2721.48737,0.02259
2719.42719,0.02256
2717.36702,0.02273
2715.30685,0.02298
2713.24668,0.02312
2711.18651,0.02283
2709.12633,0.02243
2707.06616,0.02238
2705.00599,0.02236
2702.94582,0.02217
2700.88565,0.02206
2698.82547,0.02203
2696.76530,0.02196
2694.70513,0.02212
2692.64496,0.02250
2690.58478,0.02246
2688.52461,0.02194
2686.46444,0.02171
2684.40427,0.02192
2682.34410,0.02197
2680.28392,0.02194
2678.22375,0.02227
2676.16358,0.02239
2674.10341,0.02197
2672.04324,0.02159
2669.98306,0.02153
2667.92289,0.02162
2665.86272,0.02170
2663.80255,0.02169
2661.74238,0.02168
2659.68220,0.02164
2657.62203,0.02143
2655.56186,0.02119
2653.50169,0.02115
2651.44151,0.02115
2649.38134,0.02093
2647.32117,0.02069
2645.26100,0.02059
2643.20083,0.02042
2641.14065,0.02029
2639.08048,0.02030
2637.02031,0.02027
2634.96014,0.02021
2632.89997,0.02006
2630.83979,0.01967
2628.77962,0.01937
2626.71945,0.01953
2624.65928,0.01957
2622.59910,0.01907
2620.53893,0.01855
2618.47876,0.01854
2616.41859,0.01887
2614.35842,0.01884
2612.29824,0.01834
2610.23807,0.01800
2608.17790,0.01809
2606.11773,0.01820
2604.05756,0.01801
2601.99738,0.01791
2599.93721,0.01815
2597.87704,0.01831
2595.81687,0.01821
2593.75670,0.01790
2591.69652,0.01763
2589.63635,0.01763
2587.57618,0.01779
2585.51601,0.01813
2583.45583,0.01828
2581.39566,0.01782
2579.33549,0.01724
2577.27532,0.01701
2575.21515,0.01682
2573.15497,0.01687
2571.09480,0.01746
2569.03463,0.01780
2566.97446,0.01758
2564.91429,0.01726
2562.85411,0.01688
2560.79394,0.01658
2558.73377,0.01651
2556.67360,0.01632
2554.61342,0.01603
2552.55325,0.01607
2550.49308,0.01628
2548.43291,0.01631
2546.37274,0.01616
2544.31256,0.01611
2542.25239,0.01614
2540.19222,0.01605
2538.13205,0.01598
2536.07188,0.01559
2534.01170,0.01488
2531.95153,0.01450
2529.89136,0.01439
2527.83119,0.01428
2525.77102,0.01442
2523.71084,0.01489
2521.65067,0.01521
2519.59050,0.01534
2517.53033,0.01555
2515.47015,0.01549
2513.40998,0.01506
2511.34981,0.01489
2509.28964,0.01528
2507.22947,0.01579
2505.16929,0.01619
2503.10912,0.01642
2501.04895,0.01597
2498.98878,0.01529
2496.92861,0.01537
2494.86843,0.01574
2492.80826,0.01582
2490.74809,0.01570
2488.68792,0.01550
2486.62775,0.01522
2484.56757,0.01459
2482.50740,0.01396
2480.44723,0.01383
2478.38706,0.01393
2476.32688,0.01382
2474.26671,0.01350
2472.20654,0.01401
2470.14637,0.01537
2468.08620,0.01596
2466.02602,0.01524
2463.96585,0.01394
2461.90568,0.01306
2459.84551,0.01320
2457.78534,0.01378
2455.72516,0.01370
2453.66499,0.01323
2451.60482,0.01329
2449.54465,0.01377
2447.48447,0.01413
2445.42430,0.01410
2443.36413,0.01382
2441.30396,0.01369
2439.24379,0.01384
2437.18361,0.01382
2435.12344,0.01327
2433.06327,0.01301
2431.00310,0.01345
2428.94293,0.01360
2426.88275,0.01306
2424.82258,0.01279
2422.76241,0.01302
2420.70224,0.01294
2418.64207,0.01260
2416.58189,0.01246
2414.52172,0.01260
2412.46155,0.01272
2410.40138,0.01239
2408.34120,0.01203
2406.28103,0.01224
2404.22086,0.01267
2402.16069,0.01306
2400.10052,0.01323
2398.04034,0.01305
2395.98017,0.01275
2393.92000,0.01277
2391.85983,0.01318
2389.79966,0.01348
2387.73948,0.01337
2385.67931,0.01308
2383.61914,0.01283
2381.55897,0.01257
2379.49880,0.01220
2377.43862,0.01192
2375.37845,0.01207
2373.31828,0.01224
2371.25811,0.01295
2369.19793,0.01498
2367.13776,0.01597
2365.07759,0.01477
2363.01742,0.01509
2360.95725,0.01657
2358.89707,0.01765
2356.83690,0.01671
2354.77673,0.01537
2352.71656,0.01507
2350.65639,0.01331
2348.59621,0.01168
2346.53604,0.01358
2344.47587,0.01388
2342.41570,0.01259
2340.35552,0.01161
2338.29535,0.01250
2336.23518,0.01456
2334.17501,0.01468
2332.11484,0.01324
2330.05466,0.01186
2327.99449,0.01145
2325.93432,0.01132
2323.87415,0.01208
2321.81398,0.01284
2319.75380,0.01286
2317.69363,0.01211
2315.63346,0.01207
2313.57329,0.01235
2311.51312,0.01227
2309.45294,0.01190
2307.39277,0.01146
2305.33260,0.01140
2303.27243,0.01175
2301.21225,0.01217
2299.15208,0.01226
2297.09191,0.01223
2295.03174,0.01232
2292.97157,0.01255
2290.91139,0.01295
2288.85122,0.01344
2286.79105,0.01366
2284.73088,0.01307
2282.67071,0.01212
2280.61053,0.01152
2278.55036,0.01104
2276.49019,0.01080
2274.43002,0.01151
2272.36984,0.01270
2270.30967,0.01262
2268.24950,0.01129
2266.18933,0.01082
2264.12916,0.01154
2262.06898,0.01198
2260.00881,0.01074
2257.94864,0.00845
2255.88847,0.00784
2253.82830,0.00928
2251.76812,0.01029
2249.70795,0.01011
2247.64778,0.00968
2245.58761,0.00952
2243.52744,0.00980
2241.46726,0.01058
2239.40709,0.01148
2237.34692,0.01178
2235.28675,0.01203
2233.22657,0.01201
2231.16640,0.01070
2229.10623,0.00947
2227.04606,0.00968
2224.98589,0.00982
2222.92571,0.00890
2220.86554,0.00905
2218.80537,0.01130
2216.74520,0.01299
2214.68503,0.01227
2212.62485,0.01204
2210.56468,0.01295
2208.50451,0.01282
2206.44434,0.01327
2204.38417,0.01369
2202.32399,0.01145
2200.26382,0.00913
2198.20365,0.00880
2196.14348,0.00881
2194.08330,0.00876
2192.02313,0.00947
2189.96296,0.01011
2187.90279,0.00914
2185.84262,0.00817
2183.78244,0.00866
2181.72227,0.01016
2179.66210,0.01188
2177.60193,0.01026
2175.54176,0.00676
2173.48158,0.00690
2171.42141,0.00966
2169.36124,0.01193
2167.30107,0.01224
2165.24089,0.00888
2163.18072,0.00333
2161.12055,0.00000
2159.06038,0.00076
2157.00021,0.00286
2154.94003,0.00308
2152.87986,0.00289
2150.81969,0.00422
2148.75952,0.00582
2146.69935,0.00624
2144.63917,0.00588
2142.57900,0.00576
2140.51883,0.00617
2138.45866,0.00664
2136.39849,0.00646
2134.33831,0.00666
2132.27814,0.00800
2130.21797,0.00871
2128.15780,0.00821
2126.09762,0.00810
2124.03745,0.00887
2121.97728,0.00947
2119.91711,0.00995
2117.85694,0.01007
2115.79676,0.00964
2113.73659,0.00997
2111.67642,0.01058
2109.61625,0.00990
2107.55608,0.00848
2105.49590,0.00791
2103.43573,0.00842
2101.37556,0.00943
2099.31539,0.00965
2097.25521,0.00825
2095.19504,0.00636
2093.13487,0.00522
2091.07470,0.00518
2089.01453,0.00560
2086.95435,0.00536
2084.89418,0.00478
2082.83401,0.00509
2080.77384,0.00626
2078.71367,0.00747
2076.65349,0.00849
2074.59332,0.00922
2072.53315,0.00930
2070.47298,0.00849
2068.41281,0.00792
2066.35263,0.00848
2064.29246,0.00842
2062.23229,0.00678
2060.17212,0.00565
2058.11194,0.00683
2056.05177,0.00897
2053.99160,0.00941
2051.93143,0.00834
2049.87126,0.00792
2047.81108,0.00872
2045.75091,0.01003
2043.69074,0.01029
2041.63057,0.00851
2039.57040,0.00726
2037.51022,0.00738
2035.45005,0.00503
2033.38988,0.00096
2031.32971,0.00114
2029.26954,0.00417
2027.20936,0.00407
2025.14919,0.00223
2023.08902,0.00174
2021.02885,0.00243
2018.96867,0.00473
2016.90850,0.00705
2014.84833,0.00657
2012.78816,0.00463
2010.72799,0.00377
2008.66781,0.00476
2006.60764,0.00692
2004.54747,0.00856
2002.48730,0.00906
2000.42713,0.00843
1998.36695,0.00653
1996.30678,0.00494
1994.24661,0.00557
1992.18644,0.00766
1990.12626,0.00941
1988.06609,0.01023
1986.00592,0.00927
1983.94575,0.00672
1981.88558,0.00500
1979.82540,0.00564
1977.76523,0.00784
1975.70506,0.00988
1973.64489,0.00988
1971.58472,0.00765
1969.52454,0.00537
1967.46437,0.00375
1965.40420,0.00285
1963.34403,0.00246
1961.28386,0.00107
1959.22368,0.00000
1957.16351,0.00140
1955.10334,0.00393
1953.04317,0.00541
1950.98299,0.00520
1948.92282,0.00396
1946.86265,0.00287
1944.80248,0.00296
1942.74231,0.00469
1940.68213,0.00597
1938.62196,0.00514
1936.56179,0.00413
1934.50162,0.00437
1932.44145,0.00473
1930.38127,0.00399
1928.32110,0.00273
1926.26093,0.00243
1924.20076,0.00328
1922.14059,0.00411
1920.08041,0.00439
1918.02024,0.00446
1915.96007,0.00462
1913.89990,0.00516
1911.83972,0.00586
1909.77955,0.00609
1907.71938,0.00554
1905.65921,0.00453
1903.59904,0.00349
1901.53886,0.00285
1899.47869,0.00310
1897.41852,0.00413
1895.35835,0.00502
1893.29818,0.00494
1891.23800,0.00374
1889.17783,0.00218
1887.11766,0.00173
1885.05749,0.00234
1882.99731,0.00303
1880.93714,0.00345
1878.87697,0.00338
1876.81680,0.00307
1874.75663,0.00297
1872.69645,0.00291
1870.63628,0.00293
1868.57611,0.00322
1866.51594,0.00323
1864.45577,0.00281
1862.39559,0.00252
1860.33542,0.00236
1858.27525,0.00238
1856.21508,0.00281
1854.15491,0.00309
1852.09473,0.00292
1850.03456,0.00255
1847.97439,0.00204
1845.91422,0.00167
1843.85404,0.00153
1841.79387,0.00132
1839.73370,0.00109
1837.67353,0.00095
1835.61336,0.00083
1833.55318,0.00087
1831.49301,0.00125
1829.43284,0.00173
1827.37267,0.00204
1825.31250,0.00220
1823.25232,0.00209
1821.19215,0.00165
1819.13198,0.00127
1817.07181,0.00134
1815.01163,0.00169
1812.95146,0.00176
1810.89129,0.00112
1808.83112,0.00023
1806.77095,0.00000
1804.71077,0.00027
1802.65060,0.00043
1800.59043,0.00037
1798.53026,0.00035
1796.47009,0.00041
1794.40991,0.00051
1792.34974,0.00056
1790.28957,0.00035
1788.22940,0.00008
1786.16923,-0.00007
1784.10905,-0.00010
1782.04888,0.00000
1779.98871,0.00017
1777.92854,0.00038
1775.86836,0.00071
1773.80819,0.00100
1771.74802,0.00080
1769.68785,0.00034
1767.62768,0.00030
1765.56750,0.00073
1763.50733,0.00165
1761.44716,0.00310
1759.38699,0.00453
1757.32682,0.00575
1755.26664,0.00710
1753.20647,0.00888
1751.14630,0.01140
1749.08613,0.01396
1747.02596,0.01559
1744.96578,0.01668
1742.90561,0.01754
1740.84544,0.01810
1738.78527,0.01839
1736.72509,0.01858
1734.66492,0.01885
1732.60475,0.01905
1730.54458,0.01871
1728.48441,0.01805
1726.42423,0.01755
1724.36406,0.01731
1722.30389,0.01714
1720.24372,0.01700
1718.18355,0.01705
1716.12337,0.01746
1714.06320,0.01787
1712.00303,0.01791
1709.94286,0.01785
1707.88268,0.01794
1705.82251,0.01791
1703.76234,0.01746
1701.70217,0.01687
1699.64200,0.01656
1697.58182,0.01684
1695.52165,0.01768
1693.46148,0.01851
1691.40131,0.01911
1689.34114,0.01998
1687.28096,0.02140
1685.22079,0.02379
1683.16062,0.02716
1681.10045,0.02959
1679.04028,0.03074
1676.98010,0.03190
1674.91993,0.03357
1672.85976,0.03471
1670.79959,0.03468
1668.73941,0.03396
1666.67924,0.03311
1664.61907,0.03249
1662.55890,0.03197
1660.49873,0.03120
1658.43855,0.03045
1656.37838,0.03021
1654.31821,0.03070
1652.25804,0.03135
1650.19787,0.03123
1648.13769,0.03103
1646.07752,0.03123
1644.01735,0.03116
1641.95718,0.03085
1639.89701,0.03073
1637.83683,0.03118
1635.77666,0.03259
1633.71649,0.03409
1631.65632,0.03463
1629.59614,0.03479
1627.53597,0.03507
1625.47580,0.03531
1623.41563,0.03535
1621.35546,0.03517
1619.29528,0.03504
1617.23511,0.03564
1615.17494,0.03682
1613.11477,0.03789
1611.05460,0.03919
1608.99442,0.04089
1606.93425,0.04227
1604.87408,0.04269
1602.81391,0.04219
1600.75373,0.04096
1598.69356,0.03928
1596.63339,0.03755
1594.57322,0.03598
1592.51305,0.03456
1590.45287,0.03323
1588.39270,0.03203
1586.33253,0.03095
1584.27236,0.02983
1582.21219,0.02861
1580.15201,0.02741
1578.09184,0.02638
1576.03167,0.02591
1573.97150,0.02591
1571.91133,0.02562
1569.85115,0.02465
1567.79098,0.02320
1565.73081,0.02192
1563.67064,0.02113
1561.61046,0.02064
1559.55029,0.01992
1557.49012,0.01872
1555.42995,0.01739
1553.36978,0.01611
1551.30960,0.01498
1549.24943,0.01388
1547.18926,0.01284
1545.12909,0.01234
1543.06892,0.01249
1541.00874,0.01205
1538.94857,0.01048
1536.88840,0.00925
1534.82823,0.00855
1532.76805,0.00788
1530.70788,0.00726
1528.64771,0.00684
1526.58754,0.00672
1524.52737,0.00731
1522.46719,0.00884
1520.40702,0.01071
1518.34685,0.01219
1516.28668,0.01322
1514.22651,0.01347
1512.16633,0.01289
1510.10616,0.01209
1508.04599,0.01092
1505.98582,0.00848
1503.92565,0.00596
1501.86547,0.00462
1499.80530,0.00405
1497.74513,0.00327
1495.68496,0.00208
1493.62478,0.00120
1491.56461,0.00093
1489.50444,0.00101
1487.44427,0.00102
1485.38410,0.00088
1483.32392,0.00088
1481.26375,0.00120
1479.20358,0.00175
1477.14341,0.00266
1475.08324,0.00443
1473.02306,0.00710
1470.96289,0.00966
1468.90272,0.01149
1466.84255,0.01340
1464.78238,0.01565
1462.72220,0.01725
1460.66203,0.01796
1458.60186,0.01900
1456.54169,0.02091
1454.48151,0.02233
1452.42134,0.02293
1450.36117,0.02344
1448.30100,0.02408
1446.24083,0.02475
1444.18065,0.02558
1442.12048,0.02661
1440.06031,0.02750
1438.00014,0.02823
1435.93997,0.02914
1433.87979,0.02981
1431.81962,0.02997
1429.75945,0.03008
1427.69928,0.03025
1425.63910,0.03044
1423.57893,0.03072
1421.51876,0.03088
1419.45859,0.03105
1417.39842,0.03138
1415.33824,0.03151
1413.27807,0.03129
1411.21790,0.03067
1409.15773,0.02970
1407.09756,0.02864
1405.03738,0.02764
1402.97721,0.02663
1400.91704,0.02564
1398.85687,0.02486
1396.79670,0.02434
1394.73652,0.02388
1392.67635,0.02338
1390.61618,0.02314
1388.55601,0.02343
1386.49583,0.02396
1384.43566,0.02437
1382.37549,0.02493
1380.31532,0.02578
1378.25515,0.02666
1376.19497,0.02735
1374.13480,0.02776
1372.07463,0.02773
1370.01446,0.02734
1367.95429,0.02698
1365.89411,0.02690
1363.83394,0.02697
1361.77377,0.02682
1359.71360,0.02626
1357.65343,0.02550
1355.59325,0.02493
1353.53308,0.02485
1351.47291,0.02503
1349.41274,0.02503
1347.35256,0.02478
1345.29239,0.02451
1343.23222,0.02435
1341.17205,0.02430
1339.11188,0.02439
1337.05170,0.02451
1334.99153,0.02446
1332.93136,0.02434
1330.87119,0.02449
1328.81102,0.02493
1326.75084,0.02526
1324.69067,0.02517
1322.63050,0.02479
1320.57033,0.02442
1318.51015,0.02441
1316.44998,0.02456
1314.38981,0.02442
1312.32964,0.02403
1310.26947,0.02350
1308.20929,0.02285
1306.14912,0.02215
1304.08895,0.02144
1302.02878,0.02071
1299.96861,0.02000
1297.90843,0.01934
1295.84826,0.01909
1293.78809,0.01933
1291.72792,0.01951
1289.66775,0.01952
1287.60757,0.01977
1285.54740,0.02039
1283.48723,0.02098
1281.42706,0.02134
1279.36688,0.02164
1277.30671,0.02183
1275.24654,0.02183
1273.18637,0.02182
1271.12620,0.02219
1269.06602,0.02314
1267.00585,0.02426
1264.94568,0.02518
1262.88551,0.02615
1260.82534,0.02741
1258.76516,0.02828
1256.70499,0.02828
1254.64482,0.02823
1252.58465,0.02892
1250.52447,0.02988
1248.46430,0.03050
1246.40413,0.03089
1244.34396,0.03097
1242.28379,0.03067
1240.22361,0.03060
1238.16344,0.03082
1236.10327,0.03050
1234.04310,0.02957
1231.98293,0.02875
1229.92275,0.02810
1227.86258,0.02714
1225.80241,0.02594
1223.74224,0.02461
1221.68207,0.02283
1219.62189,0.02092
1217.56172,0.01932
1215.50155,0.01778
1213.44138,0.01623
1211.38120,0.01500
1209.32103,0.01393
1207.26086,0.01263
1205.20069,0.01124
1203.14052,0.00974
1201.08034,0.00801
1199.02017,0.00614
1196.96000,0.00427
1194.89983,0.00261
1192.83966,0.00122
1190.77948,0.00027
1188.71931,0.00000
1186.65914,-0.00006
1184.59897,0.00001
1182.53880,0.00050
1180.47862,0.00120
1178.41845,0.00200
1176.35828,0.00337
1174.29811,0.00550
1172.23793,0.00820
1170.17776,0.01092
1168.11759,0.01305
1166.05742,0.01440
1163.99725,0.01532
1161.93707,0.01604
1159.87690,0.01656
1157.81673,0.01706
1155.75656,0.01764
1153.69639,0.01850
1151.63621,0.01999
1149.57604,0.02163
1147.51587,0.02281
1145.45570,0.02402
1143.39552,0.02539
1141.33535,0.02627
1139.27518,0.02674
1137.21501,0.02742
1135.15484,0.02864
1133.09466,0.03026
1131.03449,0.03158
1128.97432,0.03236
1126.91415,0.03330
1124.85398,0.03486
1122.79380,0.03657
1120.73363,0.03802
1118.67346,0.03934
1116.61329,0.04056
1114.55312,0.04168
1112.49294,0.04294
1110.43277,0.04416
1108.37260,0.04541
1106.31243,0.04721
1104.25225,0.04902
1102.19208,0.05030
1100.13191,0.05170
1098.07174,0.05371
1096.01157,0.05614
1093.95139,0.05881
1091.89122,0.06139
1089.83105,0.06319
1087.77088,0.06459
1085.71071,0.06653
1083.65053,0.06887
1081.59036,0.07146
1079.53019,0.07406
1077.47002,0.07636
1075.40985,0.07859
1073.34967,0.08102
1071.28950,0.08386
1069.22933,0.08667
1067.16916,0.08866
1065.10898,0.08972
1063.04881,0.09071
1060.98864,0.09225
1058.92847,0.09390
1056.86830,0.09570
1054.80812,0.09798
1052.74795,0.10045
1050.68778,0.10311
1048.62761,0.10620
1046.56744,0.10917
1044.50726,0.11157
1042.44709,0.11399
1040.38692,0.11675
1038.32675,0.11933
1036.26657,0.12118
1034.20640,0.12203
1032.14623,0.12247
1030.08606,0.12295
1028.02589,0.12299
1025.96571,0.12258
1023.90554,0.12199
1021.84537,0.12132
1019.78520,0.12042
1017.72503,0.11924
1015.66485,0.11868
1013.60468,0.11924
1011.54451,0.12024
1009.48434,0.12089
1007.42417,0.12114
1005.36399,0.12127
1003.30382,0.12057
1001.24365,0.11880
999.18348,0.11685
997.12330,0.11499
995.06313,0.11320
993.00296,0.11142
990.94279,0.10949
988.88262,0.10734
986.82244,0.10485
984.76227,0.10261
982.70210,0.10135
980.64193,0.10034
978.58176,0.09876
976.52158,0.09687
974.46141,0.09490
972.40124,0.09277
970.34107,0.09082
968.28089,0.08903
966.22072,0.08703
964.16055,0.08478
962.10038,0.08231
960.04021,0.07995
957.98003,0.07796
955.91986,0.07615
953.85969,0.07438
951.79952,0.07284
949.73935,0.07127
947.67917,0.06932
945.61900,0.06686
943.55883,0.06394
941.49866,0.06140
939.43849,0.05920
937.37831,0.05611
935.31814,0.05157
933.25797,0.04641
931.19780,0.04243
929.13762,0.04004
927.07745,0.03806
925.01728,0.03579
922.95711,0.03339
920.89694,0.03103
918.83676,0.02881
916.77659,0.02713
914.71642,0.02581
912.65625,0.02384
910.59608,0.02136
908.53590,0.01996
906.47573,0.01973
904.41556,0.01896
902.35539,0.01740
900.29522,0.01681
898.23504,0.01768
896.17487,0.01840
894.11470,0.01827
892.05453,0.01823
889.99435,0.01840
887.93418,0.01814
885.87401,0.01724
883.81384,0.01593
881.75367,0.01457
879.69349,0.01315
877.63332,0.01177
875.57315,0.01057
873.51298,0.00929
871.45281,0.00829
869.39263,0.00756
867.33246,0.00678
865.27229,0.00630
863.21212,0.00581
861.15194,0.00535
859.09177,0.00559
857.03160,0.00639
854.97143,0.00692
852.91126,0.00660
850.85108,0.00616
848.79091,0.00599
846.73074,0.00604
844.67057,0.00646
842.61040,0.00640
840.55022,0.00582
838.49005,0.00606
836.42988,0.00672
834.36971,0.00623
832.30954,0.00495
830.24936,0.00437
828.18919,0.00399
826.12902,0.00255
824.06885,0.00106
822.00867,0.00113
819.94850,0.00241
817.88833,0.00278
815.82816,0.00200
813.76799,0.00208
811.70781,0.00285
809.64764,0.00287
807.58747,0.00248
805.52730,0.00215
803.46713,0.00212
801.40695,0.00318
799.34678,0.00408
797.28661,0.00330
795.22644,0.00242
793.16627,0.00224
791.10609,0.00160
789.04592,0.00099
786.98575,0.00079
784.92558,0.00034
782.86540,0.00015
780.80523,0.00048
778.74506,0.00145
776.68489,0.00296
774.62472,0.00346
772.56454,0.00232
770.50437,0.00122
768.44420,0.00198
766.38403,0.00345
764.32386,0.00407
762.26368,0.00429
760.20351,0.00414
758.14334,0.00287
756.08317,0.00050
754.02299,-0.00107
751.96282,0.00000
749.90265,0.00262
747.84248,0.00484
745.78231,0.00482
743.72213,0.00321
741.66196,0.00205
739.60179,0.00121
737.54162,0.00027
735.48145,0.00044
733.42127,0.00145
731.36110,0.00098
729.30093,-0.00042
727.24076,0.00040
725.18059,0.00233
723.12041,0.00238
721.06024,0.00211
719.00007,0.00222
716.93990,0.00341
714.87972,0.00521
712.81955,0.00608
710.75938,0.00559
708.69921,0.00495
706.63904,0.00545
704.57886,0.00700
702.51869,0.00873
700.45852,0.01011
698.39835,0.01092
696.33818,0.01052
694.27800,0.00849
692.21783,0.00598
690.15766,0.00458
688.09749,0.00446
686.03731,0.00459
683.97714,0.00381
681.91697,0.00295
679.85680,0.00359
677.79663,0.00465
675.73645,0.00422
673.67628,0.00229
671.61611,0.00054
669.55594,0.00382
667.49577,0.00672
665.43559,0.00052
663.37542,-0.00004
661.31525,0.00324
659.25508,0.00885
657.19491,0.01346
655.13473,0.01287
653.07456,0.00763
651.01439,0.00333
648.95422,0.00285
646.89404,0.00325
644.83387,0.00270
642.77370,0.00236
640.71353,0.00359
638.65336,0.00481
636.59318,0.00503
634.53301,0.00520
632.47284,0.00478
630.41267,0.00419
628.35250,0.00582
626.29232,0.01003
624.23215,0.01414
622.17198,0.01579
620.11181,0.01595
618.05164,0.01756
615.99146,0.02203
613.93129,0.02582
611.87112,0.02319
609.81095,0.01898
607.75077,0.01861
605.69060,0.01818
603.63043,0.01380
601.57026,0.00669
599.51009,0.00000
