3996.73391,0.00107
3994.67373,0.00132
3992.61356,0.00117
3990.55339,0.00058
3988.49322,-0.00004
3986.43305,-0.00011
3984.37287,0.00036
3982.31270,0.00074
3980.25253,0.00054
3978.19236,0.00007
3976.13219,0.00000
3974.07201,0.00034
3972.01184,0.00050
3969.95167,0.00032
3967.89150,0.00027
3965.83133,0.00076
3963.77115,0.00145
3961.71098,0.00167
3959.65081,0.00128
3957.59064,0.00069
3955.53046,0.00039
3953.47029,0.00062
3951.41012,0.00109
3949.34995,0.00134
3947.28978,0.00137
3945.22960,0.00130
3943.16943,0.00097
3941.10926,0.00051
3939.04909,0.00033
3936.98892,0.00051
3934.92874,0.00087
3932.86857,0.00117
3930.80840,0.00133
3928.74823,0.00157
3926.68805,0.00198
3924.62788,0.00214
3922.56771,0.00187
3920.50754,0.00158
3918.44737,0.00133
3916.38719,0.00091
3914.32702,0.00048
3912.26685,0.00044
3910.20668,0.00091
3908.14651,0.00144
3906.08633,0.00165
3904.02616,0.00160
3901.96599,0.00134
3899.90582,0.00113
3897.84565,0.00135
3895.78547,0.00160
3893.72530,0.00137
3891.66513,0.00074
3889.60496,0.00035
3887.54478,0.00042
3885.48461,0.00063
3883.42444,0.00096
3881.36427,0.00123
3879.30410,0.00094
3877.24392,0.00027
3875.18375,0.00000
3873.12358,0.00038
3871.06341,0.00074
3869.00324,0.00066
3866.94306,0.00067
3864.88289,0.00109
3862.82272,0.00158
3860.76255,0.00177
3858.70237,0.00147
3856.64220,0.00080
3854.58203,0.00042
3852.52186,0.00070
3850.46169,0.00066
3848.40151,0.00035
3846.34134,0.00032
3844.28117,0.00047
3842.22100,0.00072
3840.16083,0.00120
3838.10065,0.00139
3836.04048,0.00076
3833.98031,0.00000
3831.92014,0.00012
3829.85997,0.00100
3827.79979,0.00169
3825.73962,0.00184
3823.67945,0.00163
3821.61928,0.00109
3819.55910,0.00064
3817.49893,0.00093
3815.43876,0.00154
3813.37859,0.00186
3811.31842,0.00204
3809.25824,0.00212
3807.19807,0.00173
3805.13790,0.00117
3803.07773,0.00137
3801.01756,0.00226
3798.95738,0.00272
3796.89721,0.00252
3794.83704,0.00230
3792.77687,0.00228
3790.71670,0.00223
3788.65652,0.00205
3786.59635,0.00181
3784.53618,0.00154
3782.47601,0.00128
3780.41583,0.00099
3778.35566,0.00056
3776.29549,0.00026
3774.23532,0.00035
3772.17515,0.00067
3770.11497,0.00115
3768.05480,0.00164
3765.99463,0.00171
3763.93446,0.00141
3761.87429,0.00126
3759.81411,0.00133
3757.75394,0.00123
3755.69377,0.00112
3753.63360,0.00152
3751.57342,0.00238
3749.51325,0.00265
3747.45308,0.00160
3745.39291,0.00054
3743.33274,0.00111
3741.27256,0.00234
3739.21239,0.00299
3737.15222,0.00335
3735.09205,0.00317
3733.03188,0.00242
3730.97170,0.00204
3728.91153,0.00185
3726.85136,0.00169
3724.79119,0.00180
3722.73102,0.00172
3720.67084,0.00111
3718.61067,0.00058
3716.55050,0.00038
3714.49033,0.00013
3712.43015,0.00000
3710.36998,0.00048
3708.30981,0.00136
3706.24964,0.00209
3704.18947,0.00236
3702.12929,0.00222
3700.06912,0.00194
3698.00895,0.00172
3695.94878,0.00168
3693.88861,0.00187
3691.82843,0.00202
3689.76826,0.00174
3687.70809,0.00147
3685.64792,0.00195
3683.58775,0.00260
3681.52757,0.00273
3679.46740,0.00254
3677.40723,0.00228
3675.34706,0.00174
3673.28688,0.00120
3671.22671,0.00129
3669.16654,0.00179
3667.10637,0.00211
3665.04620,0.00210
3662.98602,0.00191
3660.92585,0.00167
3658.86568,0.00158
3656.80551,0.00185
3654.74534,0.00249
3652.68516,0.00311
3650.62499,0.00358
3648.56482,0.00382
3646.50465,0.00349
3644.44447,0.00290
3642.38430,0.00286
3640.32413,0.00336
3638.26396,0.00369
3636.20379,0.00377
3634.14361,0.00407
3632.08344,0.00441
3630.02327,0.00431
3627.96310,0.00415
3625.90293,0.00444
3623.84275,0.00484
3621.78258,0.00501
3619.72241,0.00507
3617.66224,0.00542
3615.60207,0.00593
3613.54189,0.00625
3611.48172,0.00652
3609.42155,0.00692
3607.36138,0.00719
3605.30120,0.00732
3603.24103,0.00793
3601.18086,0.00904
3599.12069,0.00985
3597.06052,0.00993
3595.00034,0.00985
3592.94017,0.01009
3590.88000,0.01024
3588.81983,0.01025
3586.75966,0.01088
3584.69948,0.01215
3582.63931,0.01286
3580.57914,0.01265
3578.51897,0.01224
3576.45879,0.01217
3574.39862,0.01242
3572.33845,0.01290
3570.27828,0.01370
3568.21811,0.01485
3566.15793,0.01567
3564.09776,0.01549
3562.03759,0.01517
3559.97742,0.01553
3557.91725,0.01617
3555.85707,0.01674
3553.79690,0.01739
3551.73673,0.01807
3549.67656,0.01854
3547.61639,0.01887
3545.55621,0.01906
3543.49604,0.01916
3541.43587,0.01947
3539.37570,0.01990
3537.31552,0.02030
3535.25535,0.02084
3533.19518,0.02155
3531.13501,0.02230
3529.07484,0.02310
3527.01466,0.02390
3524.95449,0.02438
3522.89432,0.02449
3520.83415,0.02453
3518.77398,0.02462
3516.71380,0.02491
3514.65363,0.02552
3512.59346,0.02629
3510.53329,0.02703
3508.47312,0.02786
3506.41294,0.02862
3504.35277,0.02908
3502.29260,0.02931
3500.23243,0.02950
3498.17225,0.02994
3496.11208,0.03071
3494.05191,0.03143
3491.99174,0.03191
3489.93157,0.03230
3487.87139,0.03243
3485.81122,0.03236
3483.75105,0.03284
3481.69088,0.03399
3479.63071,0.03482
3477.57053,0.03480
3475.51036,0.03451
3473.45019,0.03462
3471.39002,0.03525
3469.32984,0.03617
3467.26967,0.03703
3465.20950,0.03764
3463.14933,0.03807
3461.08916,0.03861
3459.02898,0.03918
3456.96881,0.03962
3454.90864,0.03992
3452.84847,0.04000
3450.78830,0.03996
3448.72812,0.04028
3446.66795,0.04123
3444.60778,0.04228
3442.54761,0.04281
3440.48744,0.04304
3438.42726,0.04347
3436.36709,0.04407
3434.30692,0.04435
3432.24675,0.04435
3430.18657,0.04464
3428.12640,0.04521
3426.06623,0.04589
3424.00606,0.04671
3421.94589,0.04722
3419.88571,0.04728
3417.82554,0.04744
3415.76537,0.04776
3413.70520,0.04802
3411.64503,0.04830
3409.58485,0.04853
3407.52468,0.04895
3405.46451,0.04985
3403.40434,0.05074
3401.34416,0.05119
3399.28399,0.05125
3397.22382,0.05121
3395.16365,0.05139
3393.10348,0.05175
3391.04330,0.05194
3388.98313,0.05208
3386.92296,0.05260
3384.86279,0.05321
3382.80262,0.05340
3380.74244,0.05345
3378.68227,0.05366
3376.62210,0.05384
3374.56193,0.05403
3372.50176,0.05431
3370.44158,0.05456
3368.38141,0.05483
3366.32124,0.05546
3364.26107,0.05634
3362.20089,0.05679
3360.14072,0.05662
3358.08055,0.05639
3356.02038,0.05632
3353.96021,0.05619
3351.90003,0.05626
3349.83986,0.05667
3347.77969,0.05687
3345.71952,0.05669
3343.65935,0.05642
3341.59917,0.05633
3339.53900,0.05665
3337.47883,0.05723
3335.41866,0.05774
3333.35849,0.05803
3331.29831,0.05802
3329.23814,0.05768
3327.17797,0.05718
3325.11780,0.05680
3323.05762,0.05693
3320.99745,0.05751
3318.93728,0.05792
3316.87711,0.05816
3314.81694,0.05861
3312.75676,0.05894
3310.69659,0.05887
3308.63642,0.05870
3306.57625,0.05853
3304.51608,0.05832
3302.45590,0.05840
3300.39573,0.05864
3298.33556,0.05876
3296.27539,0.05875
3294.21521,0.05860
3292.15504,0.05853
3290.09487,0.05883
3288.03470,0.05903
3285.97453,0.05873
3283.91435,0.05859
3281.85418,0.05875
3279.79401,0.05853
3277.73384,0.05816
3275.67367,0.05817
3273.61349,0.05827
3271.55332,0.05808
3269.49315,0.05787
3267.43298,0.05780
3265.37281,0.05779
3263.31263,0.05794
3261.25246,0.05814
3259.19229,0.05813
3257.13212,0.05810
3255.07194,0.05803
3253.01177,0.05748
3250.95160,0.05692
3248.89143,0.05718
3246.83126,0.05762
3244.77108,0.05746
3242.71091,0.05706
3240.65074,0.05677
3238.59057,0.05670
3236.53040,0.05692
3234.47022,0.05714
3232.41005,0.05672
3230.34988,0.05578
3228.28971,0.05546
3226.22954,0.05578
3224.16936,0.05584
3222.10919,0.05550
3220.04902,0.05526
3217.98885,0.05522
3215.92867,0.05500
3213.86850,0.05464
3211.80833,0.05456
3209.74816,0.05484
3207.68799,0.05496
3205.62781,0.05448
3203.56764,0.05367
3201.50747,0.05297
3199.44730,0.05269
3197.38713,0.05279
3195.32695,0.05285
3193.26678,0.05268
3191.20661,0.05231
3189.14644,0.05186
3187.08626,0.05160
3185.02609,0.05137
3182.96592,0.05087
3180.90575,0.05030
3178.84558,0.04995
3176.78540,0.04979
3174.72523,0.04962
3172.66506,0.04915
3170.60489,0.04856
3168.54472,0.04844
3166.48454,0.04850
3164.42437,0.04806
3162.36420,0.04748
3160.30403,0.04718
3158.24386,0.04683
3156.18368,0.04630
3154.12351,0.04596
3152.06334,0.04576
3150.00317,0.04556
3147.94299,0.04538
3145.88282,0.04508
3143.82265,0.04459
3141.76248,0.04407
3139.70231,0.04361
3137.64213,0.04326
3135.58196,0.04304
3133.52179,0.04285
3131.46162,0.04260
3129.40145,0.04218
3127.34127,0.04172
3125.28110,0.04155
3123.22093,0.04159
3121.16076,0.04135
3119.10058,0.04089
3117.04041,0.04058
3114.98024,0.04037
3112.92007,0.04004
3110.85990,0.03979
3108.79972,0.03979
3106.73955,0.03976
3104.67938,0.03945
3102.61921,0.03895
3100.55904,0.03838
3098.49886,0.03774
3096.43869,0.03728
3094.37852,0.03705
3092.31835,0.03662
3090.25818,0.03608
3088.19800,0.03577
3086.13783,0.03552
3084.07766,0.03529
3082.01749,0.03531
3079.95731,0.03538
3077.89714,0.03509
3075.83697,0.03466
3073.77680,0.03437
3071.71663,0.03416
3069.65645,0.03401
3067.59628,0.03378
3065.53611,0.03344
3063.47594,0.03302
3061.41577,0.03241
3059.35559,0.03187
3057.29542,0.03178
3055.23525,0.03188
3053.17508,0.03178
3051.11491,0.03153
3049.05473,0.03120
3046.99456,0.03060
3044.93439,0.02979
3042.87422,0.02927
3040.81404,0.02911
3038.75387,0.02893
3036.69370,0.02865
3034.63353,0.02850
3032.57336,0.02859
3030.51318,0.02869
3028.45301,0.02868
3026.39284,0.02858
3024.33267,0.02837
3022.27250,0.02823
3020.21232,0.02822
3018.15215,0.02824
3016.09198,0.02820
3014.03181,0.02799
3011.97163,0.02763
3009.91146,0.02712
3007.85129,0.02676
3005.79112,0.02681
3003.73095,0.02669
3001.67077,0.02629
2999.61060,0.02608
2997.55043,0.02583
2995.49026,0.02532
2993.43009,0.02509
2991.36991,0.02526
2989.30974,0.02563
2987.24957,0.02596
2985.18940,0.02613
2983.12923,0.02643
2981.06905,0.02689
2979.00888,0.02718
2976.94871,0.02749
2974.88854,0.02827
2972.82836,0.02939
2970.76819,0.03031
2968.70802,0.03116
2966.64785,0.03227
2964.58768,0.03350
2962.52750,0.03499
2960.46733,0.03682
2958.40716,0.03851
2956.34699,0.04011
2954.28682,0.04196
2952.22664,0.04389
2950.16647,0.04571
2948.10630,0.04768
2946.04613,0.05011
2943.98596,0.05295
2941.92578,0.05585
2939.86561,0.05857
2937.80544,0.06143
2935.74527,0.06449
2933.68509,0.06715
2931.62492,0.06920
2929.56475,0.07117
2927.50458,0.07329
2925.44441,0.07509
2923.38423,0.07593
2921.32406,0.07585
2919.26389,0.07553
2917.20372,0.07474
2915.14355,0.07283
2913.08337,0.06999
2911.02320,0.06685
2908.96303,0.06406
2906.90286,0.06195
2904.84268,0.06017
2902.78251,0.05838
2900.72234,0.05665
2898.66217,0.05495
2896.60200,0.05322
2894.54182,0.05194
2892.48165,0.05104
2890.42148,0.04983
2888.36131,0.04840
2886.30114,0.04722
2884.24096,0.04640
2882.18079,0.04597
2880.12062,0.04570
2878.06045,0.04538
2876.00028,0.04521
2873.94010,0.04522
2871.87993,0.04538
2869.81976,0.04590
2867.75959,0.04684
2865.69941,0.04811
2863.63924,0.04977
2861.57907,0.05176
2859.51890,0.05360
2857.45873,0.05522
2855.39855,0.05698
2853.33838,0.05850
2851.27821,0.05897
2849.21804,0.05788
2847.15787,0.05509
2845.09769,0.05116
2843.03752,0.04706
2840.97735,0.04358
2838.91718,0.04109
2836.85700,0.03944
2834.79683,0.03805
2832.73666,0.03648
2830.67649,0.03507
2828.61632,0.03417
2826.55614,0.03355
2824.49597,0.03303
2822.43580,0.03235
2820.37563,0.03156
2818.31546,0.03108
2816.25528,0.03072
2814.19511,0.03017
2812.13494,0.02976
2810.07477,0.02948
2808.01460,0.02910
2805.95442,0.02869
2803.89425,0.02829
2801.83408,0.02794
2799.77391,0.02775
2797.71373,0.02751
2795.65356,0.02700
2793.59339,0.02651
2791.53322,0.02611
2789.47305,0.02577
2787.41287,0.02558
2785.35270,0.02551
2783.29253,0.02536
2781.23236,0.02507
2779.17219,0.02481
2777.11201,0.02474
2775.05184,0.02477
2772.99167,0.02469
2770.93150,0.02443
2768.87133,0.02420
2766.81115,0.02416
2764.75098,0.02404
2762.69081,0.02372
2760.63064,0.02350
2758.57046,0.02345
2756.51029,0.02348
2754.45012,0.02359
2752.38995,0.02374
2750.32978,0.02375
2748.26960,0.02355
2746.20943,0.02329
2744.14926,0.02304
2742.08909,0.02273
2740.02892,0.02250
2737.96874,0.02252
2735.90857,0.02262
2733.84840,0.02256
2731.78823,0.02241
2729.72805,0.02236
2727.66788,0.02255
2725.60771,0.02274
2723.54754,0.02259
2721.48737,0.02232
2719.42719,0.02225
2717.36702,0.02244
2715.30685,0.02267
2713.24668,0.02259
2711.18651,0.02222
2709.12633,0.02197
2707.06616,0.02190
2705.00599,0.02183
2702.94582,0.02169
2700.88565,0.02148
2698.82547,0.02134
2696.76530,0.02141
2694.70513,0.02160
2692.64496,0.02172
2690.58478,0.02152
2688.52461,0.02108
2686.46444,0.02097
2684.40427,0.02129
2682.34410,0.02149
2680.28392,0.02144
2678.22375,0.02152
2676.16358,0.02147
2674.10341,0.02090
2672.04324,0.02036
2669.98306,0.02034
2667.92289,0.02050
2665.86272,0.02061
2663.80255,0.02069
2661.74238,0.02072
2659.68220,0.02083
2657.62203,0.02085
2655.56186,0.02055
2653.50169,0.02024
2651.44151,0.02021
2649.38134,0.02025
2647.32117,0.02011
2645.26100,0.01982
2643.20083,0.01981
2641.14065,0.02003
2639.08048,0.01982
2637.02031,0.01918
2634.96014,0.01871
2632.89997,0.01868
2630.83979,0.01889
2628.77962,0.01892
2626.71945,0.01878
2624.65928,0.01851
2622.59910,0.01809
2620.53893,0.01797
2618.47876,0.01830
2616.41859,0.01868
2614.35842,0.01866
2612.29824,0.01834
2610.23807,0.01818
2608.17790,0.01799
2606.11773,0.01765
2604.05756,0.01737
2601.99738,0.01708
2599.93721,0.01712
2597.87704,0.01725
2595.81687,0.01691
2593.75670,0.01649
2591.69652,0.01648
2589.63635,0.01664
2587.57618,0.01686
2585.51601,0.01725
2583.45583,0.01709
2581.39566,0.01627
2579.33549,0.01590
2577.27532,0.01617
2575.21515,0.01623
2573.15497,0.01610
2571.09480,0.01622
2569.03463,0.01639
2566.97446,0.01655
2564.91429,0.01681
2562.85411,0.01669
2560.79394,0.01600
2558.73377,0.01528
2556.67360,0.01482
2554.61342,0.01467
2552.55325,0.01474
2550.49308,0.01472
2548.43291,0.01449
2546.37274,0.01417
2544.31256,0.01402
2542.25239,0.01426
2540.19222,0.01464
2538.13205,0.01481
2536.07188,0.01464
2534.01170,0.01416
2531.95153,0.01383
2529.89136,0.01388
2527.83119,0.01387
2525.77102,0.01366
2523.71084,0.01383
2521.65067,0.01441
2519.59050,0.01463
2517.53033,0.01457
2515.47015,0.01443
2513.40998,0.01415
2511.34981,0.01407
2509.28964,0.01409
2507.22947,0.01375
2505.16929,0.01335
2503.10912,0.01351
2501.04895,0.01394
2498.98878,0.01395
2496.92861,0.01391
2494.86843,0.01417
2492.80826,0.01413
2490.74809,0.01367
2488.68792,0.01342
2486.62775,0.01333
2484.56757,0.01309
2482.50740,0.01311
2480.44723,0.01331
2478.38706,0.01322
2476.32688,0.01295
2474.26671,0.01251
2472.20654,0.01224
2470.14637,0.01258
2468.08620,0.01279
2466.02602,0.01239
2463.96585,0.01195
2461.90568,0.01220
2459.84551,0.01299
2457.78534,0.01322
2455.72516,0.01249
2453.66499,0.01174
2451.60482,0.01170
2449.54465,0.01217
2447.48447,0.01253
2445.42430,0.01255
2443.36413,0.01267
2441.30396,0.01282
2439.24379,0.01274
2437.18361,0.01258
2435.12344,0.01219
2433.06327,0.01158
2431.00310,0.01114
2428.94293,0.01113
2426.88275,0.01139
2424.82258,0.01150
2422.76241,0.01153
2420.70224,0.01165
2418.64207,0.01166
2416.58189,0.01151
2414.52172,0.01156
2412.46155,0.01163
2410.40138,0.01137
2408.34120,0.01131
2406.28103,0.01167
2404.22086,0.01177
2402.16069,0.01171
2400.10052,0.01205
2398.04034,0.01251
2395.98017,0.01258
2393.92000,0.01224
2391.85983,0.01171
2389.79966,0.01126
2387.73948,0.01119
2385.67931,0.01152
2383.61914,0.01197
2381.55897,0.01239
2379.49880,0.01280
2377.43862,0.01316
2375.37845,0.01327
2373.31828,0.01302
2371.25811,0.01303
2369.19793,0.01368
2367.13776,0.01364
2365.07759,0.01242
2363.01742,0.01234
2360.95725,0.01404
2358.89707,0.01537
2356.83690,0.01539
2354.77673,0.01501
2352.71656,0.01462
2350.65639,0.01396
2348.59621,0.01307
2346.53604,0.01245
2344.47587,0.01232
2342.41570,0.01206
2340.35552,0.01150
2338.29535,0.01144
2336.23518,0.01199
2334.17501,0.01242
2332.11484,0.01280
2330.05466,0.01324
2327.99449,0.01322
2325.93432,0.01296
2323.87415,0.01294
2321.81398,0.01281
2319.75380,0.01240
2317.69363,0.01218
2315.63346,0.01196
2313.57329,0.01166
2311.51312,0.01161
2309.45294,0.01167
2307.39277,0.01144
2305.33260,0.01078
2303.27243,0.01017
2301.21225,0.01018
2299.15208,0.01083
2297.09191,0.01147
2295.03174,0.01159
2292.97157,0.01161
2290.91139,0.01196
2288.85122,0.01211
2286.79105,0.01174
2284.73088,0.01111
2282.67071,0.01051
2280.61053,0.01019
2278.55036,0.01010
2276.49019,0.01009
2274.43002,0.01013
2272.36984,0.01013
2270.30967,0.00977
2268.24950,0.00910
2266.18933,0.00882
2264.12916,0.00950
2262.06898,0.01042
2260.00881,0.00994
2257.94864,0.00829
2255.88847,0.00776
2253.82830,0.00884
2251.76812,0.00941
2249.70795,0.00855
2247.64778,0.00796
2245.58761,0.00904
2243.52744,0.01013
2241.46726,0.00965
2239.40709,0.00878
2237.34692,0.00900
2235.28675,0.00937
2233.22657,0.00853
2231.16640,0.00705
2229.10623,0.00667
2227.04606,0.00843
2224.98589,0.01007
2222.92571,0.00953
2220.86554,0.00876
2218.80537,0.00948
2216.74520,0.01027
2214.68503,0.00948
2212.62485,0.00885
2210.56468,0.00942
2208.50451,0.00949
2206.44434,0.00939
2204.38417,0.00945
2202.32399,0.00885
2200.26382,0.00825
2198.20365,0.00726
2196.14348,0.00499
2194.08330,0.00313
2192.02313,0.00327
2189.96296,0.00447
2187.90279,0.00493
2185.84262,0.00471
2183.78244,0.00482
2181.72227,0.00619
2179.66210,0.00836
2177.60193,0.00791
2175.54176,0.00518
2173.48158,0.00438
2171.42141,0.00550
2169.36124,0.00702
2167.30107,0.00770
2165.24089,0.00516
2163.18072,0.00121
2161.12055,0.00005
2159.06038,0.00151
2157.00021,0.00248
2154.94003,0.00206
2152.87986,0.00222
2150.81969,0.00345
2148.75952,0.00480
2146.69935,0.00608
2144.63917,0.00690
2142.57900,0.00657
2140.51883,0.00567
2138.45866,0.00505
2136.39849,0.00433
2134.33831,0.00423
2132.27814,0.00543
2130.21797,0.00625
2128.15780,0.00599
2126.09762,0.00630
2124.03745,0.00740
2121.97728,0.00779
2119.91711,0.00787
2117.85694,0.00842
2115.79676,0.00889
2113.73659,0.00908
2111.67642,0.00907
2109.61625,0.00848
2107.55608,0.00727
2105.49590,0.00685
2103.43573,0.00813
2101.37556,0.00936
2099.31539,0.00842
2097.25521,0.00634
2095.19504,0.00507
2093.13487,0.00478
2091.07470,0.00528
2089.01453,0.00650
2086.95435,0.00722
2084.89418,0.00684
2082.83401,0.00616
2080.77384,0.00601
2078.71367,0.00685
2076.65349,0.00824
2074.59332,0.00936
2072.53315,0.00998
2070.47298,0.00988
2068.41281,0.00915
2066.35263,0.00836
2064.29246,0.00734
2062.23229,0.00642
2060.17212,0.00607
2058.11194,0.00602
2056.05177,0.00696
2053.99160,0.00850
2051.93143,0.00904
2049.87126,0.00831
2047.81108,0.00699
2045.75091,0.00624
2043.69074,0.00675
2041.63057,0.00707
2039.57040,0.00587
2037.51022,0.00431
2035.45005,0.00310
2033.38988,0.00245
2031.32971,0.00309
2029.26954,0.00314
2027.20936,0.00129
2025.14919,0.00000
2023.08902,0.00061
2021.02885,0.00259
2018.96867,0.00466
2016.90850,0.00505
2014.84833,0.00406
2012.78816,0.00322
2010.72799,0.00301
2008.66781,0.00402
2006.60764,0.00602
2004.54747,0.00694
2002.48730,0.00595
2000.42713,0.00450
1998.36695,0.00369
1996.30678,0.00422
1994.24661,0.00609
1992.18644,0.00713
1990.12626,0.00629
1988.06609,0.00542
1986.00592,0.00490
1983.94575,0.00408
1981.88558,0.00337
1979.82540,0.00286
1977.76523,0.00357
1975.70506,0.00674
1973.64489,0.00949
1971.58472,0.00882
1969.52454,0.00570
1967.46437,0.00269
1965.40420,0.00207
1963.34403,0.00322
1961.28386,0.00309
1959.22368,0.00183
1957.16351,0.00249
1955.10334,0.00505
1953.04317,0.00706
1950.98299,0.00689
1948.92282,0.00477
1946.86265,0.00255
1944.80248,0.00214
1942.74231,0.00378
1940.68213,0.00496
1938.62196,0.00428
1936.56179,0.00352
1934.50162,0.00358
1932.44145,0.00352
1930.38127,0.00286
1928.32110,0.00250
1926.26093,0.00315
1924.20076,0.00439
1922.14059,0.00525
1920.08041,0.00506
1918.02024,0.00428
1915.96007,0.00406
1913.89990,0.00476
1911.83972,0.00560
1909.77955,0.00575
1907.71938,0.00516
1905.65921,0.00447
1903.59904,0.00407
1901.53886,0.00381
1899.47869,0.00347
1897.41852,0.00314
1895.35835,0.00308
1893.29818,0.00329
1891.23800,0.00348
1889.17783,0.00347
1887.11766,0.00328
1885.05749,0.00309
1882.99731,0.00312
1880.93714,0.00346
1878.87697,0.00375
1876.81680,0.00354
1874.75663,0.00291
1872.69645,0.00234
1870.63628,0.00219
1868.57611,0.00225
1866.51594,0.00211
1864.45577,0.00184
1862.39559,0.00166
1860.33542,0.00162
1858.27525,0.00177
1856.21508,0.00212
1854.15491,0.00222
1852.09473,0.00185
1850.03456,0.00132
1847.97439,0.00105
1845.91422,0.00122
1843.85404,0.00149
1841.79387,0.00154
1839.73370,0.00146
1837.67353,0.00131
1835.61336,0.00121
1833.55318,0.00129
1831.49301,0.00145
1829.43284,0.00155
1827.37267,0.00165
1825.31250,0.00168
1823.25232,0.00151
1821.19215,0.00124
1819.13198,0.00099
1817.07181,0.00092
1815.01163,0.00104
1812.95146,0.00098
1810.89129,0.00056
1808.83112,0.00017
1806.77095,0.00015
1804.71077,0.00040
1802.65060,0.00067
1800.59043,0.00083
1798.53026,0.00077
1796.47009,0.00071
1794.40991,0.00082
1792.34974,0.00095
1790.28957,0.00094
1788.22940,0.00080
1786.16923,0.00047
1784.10905,0.00010
1782.04888,0.00000
1779.98871,0.00015
1777.92854,0.00055
1775.86836,0.00098
1773.80819,0.00112
1771.74802,0.00097
1769.68785,0.00095
1767.62768,0.00122
1765.56750,0.00161
1763.50733,0.00228
1761.44716,0.00355
1759.38699,0.00515
1757.32682,0.00677
1755.26664,0.00844
1753.20647,0.01019
1751.14630,0.01237
1749.08613,0.01478
1747.02596,0.01659
1744.96578,0.01773
1742.90561,0.01841
1740.84544,0.01884
1738.78527,0.01924
1736.72509,0.01944
1734.66492,0.01941
1732.60475,0.01939
1730.54458,0.01921
1728.48441,0.01884
1726.42423,0.01855
1724.36406,0.01838
1722.30389,0.01826
1720.24372,0.01810
1718.18355,0.01803
1716.12337,0.01830
1714.06320,0.01875
1712.00303,0.01896
1709.94286,0.01890
1707.88268,0.01880
1705.82251,0.01861
1703.76234,0.01795
1701.70217,0.01695
1699.64200,0.01654
1697.58182,0.01734
1695.52165,0.01852
1693.46148,0.01938
1691.40131,0.02013
1689.34114,0.02129
1687.28096,0.02301
1685.22079,0.02579
1683.16062,0.02948
1681.10045,0.03190
1679.04028,0.03293
1676.98010,0.03387
1674.91993,0.03518
1672.85976,0.03616
1670.79959,0.03626
1668.73941,0.03580
1666.67924,0.03509
1664.61907,0.03416
1662.55890,0.03316
1660.49873,0.03223
1658.43855,0.03128
1656.37838,0.03044
1654.31821,0.03038
1652.25804,0.03114
1650.19787,0.03127
1648.13769,0.03083
1646.07752,0.03084
1644.01735,0.03121
1641.95718,0.03143
1639.89701,0.03150
1637.83683,0.03192
1635.77666,0.03341
1633.71649,0.03512
1631.65632,0.03580
1629.59614,0.03592
1627.53597,0.03616
1625.47580,0.03649
1623.41563,0.03678
1621.35546,0.03689
1619.29528,0.03688
1617.23511,0.03735
1615.17494,0.03851
1613.11477,0.03980
1611.05460,0.04123
1608.99442,0.04288
1606.93425,0.04421
1604.87408,0.04469
1602.81391,0.04417
1600.75373,0.04274
1598.69356,0.04078
1596.63339,0.03887
1594.57322,0.03733
1592.51305,0.03597
1590.45287,0.03461
1588.39270,0.03340
1586.33253,0.03237
1584.27236,0.03128
1582.21219,0.03008
1580.15201,0.02887
1578.09184,0.02780
1576.03167,0.02704
1573.97150,0.02661
1571.91133,0.02603
1569.85115,0.02498
1567.79098,0.02368
1565.73081,0.02250
1563.67064,0.02146
1561.61046,0.02032
1559.55029,0.01901
1557.49012,0.01797
1555.42995,0.01720
1553.36978,0.01636
1551.30960,0.01541
1549.24943,0.01434
1547.18926,0.01328
1545.12909,0.01256
1543.06892,0.01225
1541.00874,0.01174
1538.94857,0.01049
1536.88840,0.00937
1534.82823,0.00859
1532.76805,0.00785
1530.70788,0.00712
1528.64771,0.00658
1526.58754,0.00633
1524.52737,0.00663
1522.46719,0.00782
1520.40702,0.00972
1518.34685,0.01148
1516.28668,0.01290
1514.22651,0.01354
1512.16633,0.01304
1510.10616,0.01176
1508.04599,0.00991
1505.98582,0.00756
1503.92565,0.00566
1501.86547,0.00448
1499.80530,0.00365
1497.74513,0.00277
1495.68496,0.00172
1493.62478,0.00081
1491.56461,0.00027
1489.50444,0.00020
1487.44427,0.00046
1485.38410,0.00070
1483.32392,0.00085
1481.26375,0.00107
1479.20358,0.00158
1477.14341,0.00269
1475.08324,0.00467
1473.02306,0.00739
1470.96289,0.01014
1468.90272,0.01238
1466.84255,0.01457
1464.78238,0.01684
1462.72220,0.01829
1460.66203,0.01875
1458.60186,0.01954
1456.54169,0.02149
1454.48151,0.02307
1452.42134,0.02369
1450.36117,0.02431
1448.30100,0.02542
1446.24083,0.02660
1444.18065,0.02746
1442.12048,0.02818
1440.06031,0.02878
1438.00014,0.02940
1435.93997,0.03044
1433.87979,0.03131
1431.81962,0.03154
1429.75945,0.03155
1427.69928,0.03153
1425.63910,0.03153
1423.57893,0.03173
1421.51876,0.03192
1419.45859,0.03209
1417.39842,0.03238
1415.33824,0.03249
1413.27807,0.03230
1411.21790,0.03175
1409.15773,0.03076
1407.09756,0.02953
1405.03738,0.02836
1402.97721,0.02736
1400.91704,0.02647
1398.85687,0.02573
1396.79670,0.02512
1394.73652,0.02458
1392.67635,0.02416
1390.61618,0.02391
1388.55601,0.02400
1386.49583,0.02453
1384.43566,0.02531
1382.37549,0.02619
1380.31532,0.02700
1378.25515,0.02761
1376.19497,0.02818
1374.13480,0.02879
1372.07463,0.02919
1370.01446,0.02925
1367.95429,0.02909
1365.89411,0.02872
1363.83394,0.02804
1361.77377,0.02720
1359.71360,0.02660
1357.65343,0.02641
1355.59325,0.02647
1353.53308,0.02657
1351.47291,0.02655
1349.41274,0.02640
1347.35256,0.02614
1345.29239,0.02584
1343.23222,0.02558
1341.17205,0.02528
1339.11188,0.02496
1337.05170,0.02472
1334.99153,0.02467
1332.93136,0.02493
1330.87119,0.02548
1328.81102,0.02607
1326.75084,0.02636
1324.69067,0.02629
1322.63050,0.02597
1320.57033,0.02557
1318.51015,0.02530
1316.44998,0.02520
1314.38981,0.02515
1312.32964,0.02493
1310.26947,0.02436
1308.20929,0.02366
1306.14912,0.02314
1304.08895,0.02251
1302.02878,0.02155
1299.96861,0.02058
1297.90843,0.01998
1295.84826,0.01988
1293.78809,0.02008
1291.72792,0.02018
1289.66775,0.02026
1287.60757,0.02074
1285.54740,0.02150
1283.48723,0.02197
1281.42706,0.02206
1279.36688,0.02233
1277.30671,0.02280
1275.24654,0.02287
1273.18637,0.02264
1271.12620,0.02279
1269.06602,0.02355
1267.00585,0.02461
1264.94568,0.02573
1262.88551,0.02690
1260.82534,0.02806
1258.76516,0.02895
1256.70499,0.02946
1254.64482,0.02997
1252.58465,0.03068
1250.52447,0.03126
1248.46430,0.03158
1246.40413,0.03184
1244.34396,0.03199
1242.28379,0.03202
1240.22361,0.03206
1238.16344,0.03202
1236.10327,0.03156
1234.04310,0.03070
1231.98293,0.02981
1229.92275,0.02894
1227.86258,0.02787
1225.80241,0.02665
1223.74224,0.02521
1221.68207,0.02345
1219.62189,0.02160
1217.56172,0.01988
1215.50155,0.01829
1213.44138,0.01684
1211.38120,0.01557
1209.32103,0.01429
1207.26086,0.01279
1205.20069,0.01126
1203.14052,0.00971
1201.08034,0.00798
1199.02017,0.00614
1196.96000,0.00426
1194.89983,0.00261
1192.83966,0.00145
1190.77948,0.00057
1188.71931,0.00000
1186.65914,-0.00020
1184.59897,-0.00014
1182.53880,0.00012
1180.47862,0.00086
1178.41845,0.00210
1176.35828,0.00364
1174.29811,0.00578
1172.23793,0.00865
1170.17776,0.01165
1168.11759,0.01389
1166.05742,0.01516
1163.99725,0.01606
1161.93707,0.01699
1159.87690,0.01785
1157.81673,0.01872
1155.75656,0.01953
1153.69639,0.02028
1151.63621,0.02123
1149.57604,0.02245
1147.51587,0.02379
1145.45570,0.02529
1143.39552,0.02675
1141.33535,0.02781
1139.27518,0.02857
1137.21501,0.02920
1135.15484,0.02993
1133.09466,0.03109
1131.03449,0.03241
1128.97432,0.03356
1126.91415,0.03480
1124.85398,0.03636
1122.79380,0.03793
1120.73363,0.03938
1118.67346,0.04102
1116.61329,0.04257
1114.55312,0.04377
1112.49294,0.04503
1110.43277,0.04637
1108.37260,0.04756
1106.31243,0.04882
1104.25225,0.05030
1102.19208,0.05200
1100.13191,0.05402
1098.07174,0.05627
1096.01157,0.05863
1093.95139,0.06111
1091.89122,0.06365
1089.83105,0.06603
1087.77088,0.06815
1085.71071,0.07013
1083.65053,0.07220
1081.59036,0.07466
1079.53019,0.07742
1077.47002,0.08021
1075.40985,0.08294
1073.34967,0.08552
1071.28950,0.08797
1069.22933,0.09024
1067.16916,0.09214
1065.10898,0.09380
1063.04881,0.09532
1060.98864,0.09671
1058.92847,0.09833
1056.86830,0.10047
1054.80812,0.10276
1052.74795,0.10474
1050.68778,0.10703
1048.62761,0.11033
1046.56744,0.11385
1044.50726,0.11683
1042.44709,0.11956
1040.38692,0.12208
1038.32675,0.12411
1036.26657,0.12577
1034.20640,0.12722
1032.14623,0.12846
1030.08606,0.12932
1028.02589,0.12917
1025.96571,0.12803
1023.90554,0.12683
1021.84537,0.12619
1019.78520,0.12580
1017.72503,0.12536
1015.66485,0.12514
1013.60468,0.12539
1011.54451,0.12600
1009.48434,0.12647
1007.42417,0.12639
1005.36399,0.12597
1003.30382,0.12524
1001.24365,0.12400
999.18348,0.12249
997.12330,0.12085
995.06313,0.11880
993.00296,0.11659
990.94279,0.11481
988.88262,0.11312
986.82244,0.11095
984.76227,0.10875
982.70210,0.10681
980.64193,0.10488
978.58176,0.10294
976.52158,0.10085
974.46141,0.09878
972.40124,0.09703
970.34107,0.09528
968.28089,0.09332
966.22072,0.09124
964.16055,0.08898
962.10038,0.08671
960.04021,0.08481
957.98003,0.08308
955.91986,0.08096
953.85969,0.07851
951.79952,0.07647
949.73935,0.07492
947.67917,0.07338
945.61900,0.07148
943.55883,0.06891
941.49866,0.06577
939.43849,0.06228
937.37831,0.05850
935.31814,0.05427
933.25797,0.04983
931.19780,0.04608
929.13762,0.04318
927.07745,0.04048
925.01728,0.03786
922.95711,0.03555
920.89694,0.03340
918.83676,0.03133
916.77659,0.02965
914.71642,0.02810
912.65625,0.02581
910.59608,0.02297
908.53590,0.02112
906.47573,0.02057
904.41556,0.02003
902.35539,0.01899
900.29522,0.01834
898.23504,0.01860
896.17487,0.01908
894.11470,0.01927
892.05453,0.01935
889.99435,0.01904
887.93418,0.01826
885.87401,0.01729
883.81384,0.01606
881.75367,0.01450
879.69349,0.01273
877.63332,0.01125
875.57315,0.01021
873.51298,0.00932
871.45281,0.00882
869.39263,0.00892
867.33246,0.00895
865.27229,0.00852
863.21212,0.00801
861.15194,0.00757
859.09177,0.00768
857.03160,0.00865
854.97143,0.00912
852.91126,0.00842
850.85108,0.00774
848.79091,0.00741
846.73074,0.00686
844.67057,0.00661
842.61040,0.00673
840.55022,0.00681
838.49005,0.00718
836.42988,0.00754
834.36971,0.00735
832.30954,0.00713
830.24936,0.00663
828.18919,0.00510
826.12902,0.00336
824.06885,0.00269
822.00867,0.00299
819.94850,0.00323
817.88833,0.00288
815.82816,0.00265
813.76799,0.00258
811.70781,0.00202
809.64764,0.00142
807.58747,0.00126
805.52730,0.00143
803.46713,0.00207
801.40695,0.00301
799.34678,0.00302
797.28661,0.00219
795.22644,0.00202
793.16627,0.00206
791.10609,0.00128
789.04592,0.00049
786.98575,0.00023
784.92558,0.00000
782.86540,-0.00023
780.80523,-0.00001
778.74506,0.00028
776.68489,0.00040
774.62472,0.00008
772.56454,-0.00081
770.50437,-0.00138
768.44420,-0.00088
766.38403,0.00031
764.32386,0.00143
762.26368,0.00173
760.20351,0.00167
758.14334,0.00164
756.08317,0.00075
754.02299,-0.00030
751.96282,0.00000
749.90265,0.00064
747.84248,0.00051
745.78231,-0.00029
743.72213,-0.00141
741.66196,-0.00203
739.60179,-0.00164
737.54162,-0.00122
735.48145,-0.00081
733.42127,-0.00027
731.36110,-0.00105
729.30093,-0.00259
727.24076,-0.00275
725.18059,-0.00174
723.12041,-0.00095
721.06024,-0.00047
719.00007,-0.00020
716.93990,-0.00018
714.87972,-0.00017
712.81955,-0.00002
710.75938,0.00010
708.69921,0.00061
706.63904,0.00215
704.57886,0.00440
702.51869,0.00624
700.45852,0.00715
698.39835,0.00788
696.33818,0.00864
694.27800,0.00771
692.21783,0.00477
690.15766,0.00255
688.09749,0.00228
686.03731,0.00256
683.97714,0.00257
681.91697,0.00261
679.85680,0.00293
677.79663,0.00338
675.73645,0.00403
673.67628,0.00462
671.61611,0.00389
669.55594,0.00169
667.49577,0.00019
665.43559,-0.00011
663.37542,-0.00041
661.31525,0.00081
659.25508,0.00343
657.19491,0.00446
655.13473,0.00214
653.07456,-0.00187
651.01439,-0.00313
648.95422,0.00000
646.89404,0.00375
644.83387,0.00423
642.77370,0.00187
640.71353,0.00026
638.65336,0.00070
636.59318,0.00139
634.53301,0.00129
632.47284,0.00107
630.41267,0.00129
628.35250,0.00169
626.29232,0.00207
624.23215,0.00224
622.17198,0.00177
620.11181,0.00184
618.05164,0.00498
615.99146,0.01052
613.93129,0.01343
611.87112,0.00980
609.81095,0.00328
607.75077,0.00164
605.69060,0.00432
603.63043,0.00416
601.57026,0.00103
599.51009,0.00000
