3996.73391,0.00017
3994.67373,0.00032
3992.61356,0.00027
3990.55339,-0.00006
3988.49322,-0.00038
3986.43305,-0.00040
3984.37287,-0.00003
3982.31270,0.00045
3980.25253,0.00048
3978.19236,0.00010
3976.13219,-0.00001
3974.07201,0.00025
3972.01184,0.00025
3969.95167,0.00000
3967.89150,0.00014
3965.83133,0.00076
3963.77115,0.00125
3961.71098,0.00131
3959.65081,0.00104
3957.59064,0.00059
3955.53046,0.00046
3953.47029,0.00089
3951.41012,0.00121
3949.34995,0.00110
3947.28978,0.00118
3945.22960,0.00129
3943.16943,0.00099
3941.10926,0.00080
3939.04909,0.00067
3936.98892,0.00054
3934.92874,0.00034
3932.86857,0.00004
3930.80840,0.00049
3928.74823,0.00177
3926.68805,0.00258
3924.62788,0.00272
3922.56771,0.00286
3920.50754,0.00252
3918.44737,0.00171
3916.38719,0.00137
3914.32702,0.00170
3912.26685,0.00202
3910.20668,0.00241
3908.14651,0.00261
3906.08633,0.00187
3904.02616,0.00116
3901.96599,0.00134
3899.90582,0.00164
3897.84565,0.00268
3895.78547,0.00359
3893.72530,0.00273
3891.66513,0.00158
3889.60496,0.00230
3887.54478,0.00257
3885.48461,0.00207
3883.42444,0.00237
3881.36427,0.00185
3879.30410,0.00182
3877.24392,0.00240
3875.18375,0.00203
3873.12358,0.00196
3871.06341,0.00161
3869.00324,0.00192
3866.94306,0.00292
3864.88289,0.00264
3862.82272,0.00283
3860.76255,0.00398
3858.70237,0.00468
3856.64220,0.00331
3854.58203,0.00022
3852.52186,0.00000
3850.46169,0.00238
3848.40151,0.00330
3846.34134,0.00290
3844.28117,0.00234
3842.22100,0.00226
3840.16083,0.00202
3838.10065,0.00184
3836.04048,0.00221
3833.98031,0.00210
3831.92014,0.00197
3829.85997,0.00259
3827.79979,0.00293
3825.73962,0.00339
3823.67945,0.00313
3821.61928,0.00174
3819.55910,0.00225
3817.49893,0.00237
3815.43876,0.00219
3813.37859,0.00359
3811.31842,0.00441
3809.25824,0.00371
3807.19807,0.00264
3805.13790,0.00279
3803.07773,0.00228
3801.01756,0.00236
3798.95738,0.00367
3796.89721,0.00332
3794.83704,0.00328
3792.77687,0.00386
3790.71670,0.00379
3788.65652,0.00332
3786.59635,0.00280
3784.53618,0.00276
3782.47601,0.00299
3780.41583,0.00242
3778.35566,0.00209
3776.29549,0.00242
3774.23532,0.00243
3772.17515,0.00195
3770.11497,0.00188
3768.05480,0.00292
3765.99463,0.00347
3763.93446,0.00362
3761.87429,0.00326
3759.81411,0.00274
3757.75394,0.00348
3755.69377,0.00437
3753.63360,0.00374
3751.57342,0.00297
3749.51325,0.00434
3747.45308,0.00459
3745.39291,0.00179
3743.33274,0.00156
3741.27256,0.00383
3739.21239,0.00435
3737.15222,0.00333
3735.09205,0.00254
3733.03188,0.00292
3730.97170,0.00411
3728.91153,0.00445
3726.85136,0.00348
3724.79119,0.00310
3722.73102,0.00314
3720.67084,0.00283
3718.61067,0.00264
3716.55050,0.00277
3714.49033,0.00181
3712.43015,0.00000
3710.36998,0.00046
3708.30981,0.00275
3706.24964,0.00394
3704.18947,0.00320
3702.12929,0.00209
3700.06912,0.00244
3698.00895,0.00309
3695.94878,0.00342
3693.88861,0.00384
3691.82843,0.00333
3689.76826,0.00190
3687.70809,0.00200
3685.64792,0.00342
3683.58775,0.00417
3681.52757,0.00435
3679.46740,0.00438
3677.40723,0.00361
3675.34706,0.00324
3673.28688,0.00447
3671.22671,0.00336
3669.16654,0.00247
3667.10637,0.00387
3665.04620,0.00423
3662.98602,0.00369
3660.92585,0.00347
3658.86568,0.00316
3656.80551,0.00317
3654.74534,0.00483
3652.68516,0.00533
3650.62499,0.00333
3648.56482,0.00276
3646.50465,0.00438
3644.44447,0.00534
3642.38430,0.00519
3640.32413,0.00516
3638.26396,0.00513
3636.20379,0.00507
3634.14361,0.00571
3632.08344,0.00625
3630.02327,0.00473
3627.96310,0.00432
3625.90293,0.00659
3623.84275,0.00790
3621.78258,0.00704
3619.72241,0.00562
3617.66224,0.00622
3615.60207,0.00729
3613.54189,0.00732
3611.48172,0.00768
3609.42155,0.00802
3607.36138,0.00829
3605.30120,0.00909
3603.24103,0.00968
3601.18086,0.01003
3599.12069,0.01054
3597.06052,0.01073
3595.00034,0.01104
3592.94017,0.01232
3590.88000,0.01296
3588.81983,0.01188
3586.75966,0.01184
3584.69948,0.01361
3582.63931,0.01433
3580.57914,0.01384
3578.51897,0.01355
3576.45879,0.01374
3574.39862,0.01421
3572.33845,0.01485
3570.27828,0.01496
3568.21811,0.01464
3566.15793,0.01536
3564.09776,0.01658
3562.03759,0.01707
3559.97742,0.01749
3557.91725,0.01802
3555.85707,0.01809
3553.79690,0.01786
3551.73673,0.01822
3549.67656,0.01911
3547.61639,0.01958
3545.55621,0.01983
3543.49604,0.02036
3541.43587,0.02098
3539.37570,0.02135
3537.31552,0.02156
3535.25535,0.02227
3533.19518,0.02332
3531.13501,0.02404
3529.07484,0.02456
3527.01466,0.02512
3524.95449,0.02544
3522.89432,0.02562
3520.83415,0.02595
3518.77398,0.02621
3516.71380,0.02657
3514.65363,0.02727
3512.59346,0.02784
3510.53329,0.02808
3508.47312,0.02877
3506.41294,0.02976
3504.35277,0.03016
3502.29260,0.03056
3500.23243,0.03119
3498.17225,0.03162
3496.11208,0.03219
3494.05191,0.03311
3491.99174,0.03389
3489.93157,0.03410
3487.87139,0.03377
3485.81122,0.03353
3483.75105,0.03386
3481.69088,0.03486
3479.63071,0.03599
3477.57053,0.03628
3475.51036,0.03600
3473.45019,0.03619
3471.39002,0.03702
3469.32984,0.03793
3467.26967,0.03857
3465.20950,0.03890
3463.14933,0.03915
3461.08916,0.03966
3459.02898,0.04028
3456.96881,0.04073
3454.90864,0.04114
3452.84847,0.04142
3450.78830,0.04159
3448.72812,0.04179
3446.66795,0.04255
3444.60778,0.04369
3442.54761,0.04428
3440.48744,0.04466
3438.42726,0.04498
3436.36709,0.04519
3434.30692,0.04537
3432.24675,0.04559
3430.18657,0.04605
3428.12640,0.04657
3426.06623,0.04715
3424.00606,0.04785
3421.94589,0.04823
3419.88571,0.04838
3417.82554,0.04884
3415.76537,0.04943
3413.70520,0.04984
3411.64503,0.05003
3409.58485,0.05008
3407.52468,0.05036
3405.46451,0.05107
3403.40434,0.05179
3401.34416,0.05228
3399.28399,0.05233
3397.22382,0.05217
3395.16365,0.05225
3393.10348,0.05256
3391.04330,0.05294
3388.98313,0.05330
3386.92296,0.05372
3384.86279,0.05401
3382.80262,0.05410
3380.74244,0.05437
3378.68227,0.05480
3376.62210,0.05501
3374.56193,0.05505
3372.50176,0.05520
3370.44158,0.05549
3368.38141,0.05586
3366.32124,0.05636
3364.26107,0.05695
3362.20089,0.05746
3360.14072,0.05776
3358.08055,0.05780
3356.02038,0.05768
3353.96021,0.05753
3351.90003,0.05735
3349.83986,0.05732
3347.77969,0.05749
3345.71952,0.05779
3343.65935,0.05799
3341.59917,0.05769
3339.53900,0.05733
3337.47883,0.05767
3335.41866,0.05835
3333.35849,0.05876
3331.29831,0.05878
3329.23814,0.05851
3327.17797,0.05834
3325.11780,0.05855
3323.05762,0.05893
3320.99745,0.05911
3318.93728,0.05911
3316.87711,0.05933
3314.81694,0.05986
3312.75676,0.06023
3310.69659,0.05988
3308.63642,0.05938
3306.57625,0.05944
3304.51608,0.05969
3302.45590,0.05972
3300.39573,0.05965
3298.33556,0.05974
3296.27539,0.05985
3294.21521,0.05973
3292.15504,0.05950
3290.09487,0.05948
3288.03470,0.05960
3285.97453,0.05969
3283.91435,0.05998
3281.85418,0.06013
3279.79401,0.05974
3277.73384,0.05941
3275.67367,0.05940
3273.61349,0.05929
3271.55332,0.05903
3269.49315,0.05875
3267.43298,0.05843
3265.37281,0.05822
3263.31263,0.05824
3261.25246,0.05850
3259.19229,0.05888
3257.13212,0.05917
3255.07194,0.05919
3253.01177,0.05884
3250.95160,0.05848
3248.89143,0.05858
3246.83126,0.05865
3244.77108,0.05835
3242.71091,0.05796
3240.65074,0.05772
3238.59057,0.05766
3236.53040,0.05773
3234.47022,0.05775
3232.41005,0.05740
3230.34988,0.05677
3228.28971,0.05652
3226.22954,0.05666
3224.16936,0.05657
3222.10919,0.05628
3220.04902,0.05610
3217.98885,0.05612
3215.92867,0.05616
3213.86850,0.05603
3211.80833,0.05581
3209.74816,0.05574
3207.68799,0.05562
3205.62781,0.05503
3203.56764,0.05431
3201.50747,0.05374
3199.44730,0.05328
3197.38713,0.05316
3195.32695,0.05334
3193.26678,0.05330
3191.20661,0.05285
3189.14644,0.05243
3187.08626,0.05227
3185.02609,0.05192
3182.96592,0.05128
3180.90575,0.05085
3178.84558,0.05058
3176.78540,0.05028
3174.72523,0.05023
3172.66506,0.05007
3170.60489,0.04951
3168.54472,0.04919
3166.48454,0.04911
3164.42437,0.04856
3162.36420,0.04782
3160.30403,0.04746
3158.24386,0.04729
3156.18368,0.04698
3154.12351,0.04666
3152.06334,0.04643
3150.00317,0.04615
3147.94299,0.04587
3145.88282,0.04557
3143.82265,0.04525
3141.76248,0.04506
3139.70231,0.04491
3137.64213,0.04448
3135.58196,0.04381
3133.52179,0.04327
3131.46162,0.04297
3129.40145,0.04267
3127.34127,0.04236
3125.28110,0.04224
3123.22093,0.04221
3121.16076,0.04201
3119.10058,0.04169
3117.04041,0.04143
3114.98024,0.04109
3112.92007,0.04058
3110.85990,0.04016
3108.79972,0.04001
3106.73955,0.03994
3104.67938,0.03969
3102.61921,0.03921
3100.55904,0.03870
3098.49886,0.03828
3096.43869,0.03802
3094.37852,0.03781
3092.31835,0.03735
3090.25818,0.03674
3088.19800,0.03624
3086.13783,0.03585
3084.07766,0.03562
3082.01749,0.03565
3079.95731,0.03560
3077.89714,0.03522
3075.83697,0.03496
3073.77680,0.03499
3071.71663,0.03490
3069.65645,0.03461
3067.59628,0.03420
3065.53611,0.03370
3063.47594,0.03329
3061.41577,0.03295
3059.35559,0.03269
3057.29542,0.03254
3055.23525,0.03234
3053.17508,0.03205
3051.11491,0.03172
3049.05473,0.03136
3046.99456,0.03080
3044.93439,0.03005
3042.87422,0.02956
3040.81404,0.02944
3038.75387,0.02936
3036.69370,0.02920
3034.63353,0.02903
3032.57336,0.02899
3030.51318,0.02893
3028.45301,0.02876
3026.39284,0.02862
3024.33267,0.02858
3022.27250,0.02855
3020.21232,0.02850
3018.15215,0.02844
3016.09198,0.02838
3014.03181,0.02834
3011.97163,0.02811
3009.91146,0.02752
3007.85129,0.02699
3005.79112,0.02689
3003.73095,0.02678
3001.67077,0.02639
2999.61060,0.02612
2997.55043,0.02588
2995.49026,0.02548
2993.43009,0.02535
2991.36991,0.02549
2989.30974,0.02572
2987.24957,0.02596
2985.18940,0.02604
2983.12923,0.02621
2981.06905,0.02672
2979.00888,0.02719
2976.94871,0.02751
2974.88854,0.02822
2972.82836,0.02929
2970.76819,0.03036
2968.70802,0.03157
2966.64785,0.03281
2964.58768,0.03383
2962.52750,0.03508
2960.46733,0.03687
2958.40716,0.03881
2956.34699,0.04067
2954.28682,0.04236
2952.22664,0.04400
2950.16647,0.04585
2948.10630,0.04792
2946.04613,0.05019
2943.98596,0.05281
2941.92578,0.05579
2939.86561,0.05876
2937.80544,0.06162
2935.74527,0.06457
2933.68509,0.06736
2931.62492,0.06958
2929.56475,0.07156
2927.50458,0.07380
2925.44441,0.07571
2923.38423,0.07647
2921.32406,0.07641
2919.26389,0.07624
2917.20372,0.07547
2915.14355,0.07339
2913.08337,0.07025
2911.02320,0.06687
2908.96303,0.06408
2906.90286,0.06206
2904.84268,0.06028
2902.78251,0.05855
2900.72234,0.05692
2898.66217,0.05518
2896.60200,0.05335
2894.54182,0.05191
2892.48165,0.05086
2890.42148,0.04973
2888.36131,0.04852
2886.30114,0.04754
2884.24096,0.04683
2882.18079,0.04630
2880.12062,0.04590
2878.06045,0.04555
2876.00028,0.04542
2873.94010,0.04564
2871.87993,0.04601
2869.81976,0.04638
2867.75959,0.04710
2865.69941,0.04838
2863.63924,0.05005
2861.57907,0.05197
2859.51890,0.05384
2857.45873,0.05550
2855.39855,0.05721
2853.33838,0.05878
2851.27821,0.05939
2849.21804,0.05826
2847.15787,0.05521
2845.09769,0.05103
2843.03752,0.04705
2840.97735,0.04400
2838.91718,0.04167
2836.85700,0.03973
2834.79683,0.03800
2832.73666,0.03632
2830.67649,0.03493
2828.61632,0.03402
2826.55614,0.03338
2824.49597,0.03285
2822.43580,0.03223
2820.37563,0.03153
2818.31546,0.03104
2816.25528,0.03070
2814.19511,0.03028
2812.13494,0.02985
2810.07477,0.02939
2808.01460,0.02882
2805.95442,0.02832
2803.89425,0.02791
2801.83408,0.02757
2799.77391,0.02747
2797.71373,0.02738
2795.65356,0.02692
2793.59339,0.02629
2791.53322,0.02579
2789.47305,0.02547
2787.41287,0.02530
2785.35270,0.02522
2783.29253,0.02506
2781.23236,0.02483
2779.17219,0.02464
2777.11201,0.02454
2775.05184,0.02437
2772.99167,0.02409
2770.93150,0.02391
2768.87133,0.02396
2766.81115,0.02410
2764.75098,0.02400
2762.69081,0.02373
2760.63064,0.02354
2758.57046,0.02341
2756.51029,0.02332
2754.45012,0.02334
2752.38995,0.02335
2750.32978,0.02333
2748.26960,0.02326
2746.20943,0.02312
2744.14926,0.02299
2742.08909,0.02281
2740.02892,0.02261
2737.96874,0.02260
2735.90857,0.02270
2733.84840,0.02258
2731.78823,0.02228
2729.72805,0.02210
2727.66788,0.02217
2725.60771,0.02231
2723.54754,0.02210
2721.48737,0.02172
2719.42719,0.02162
2717.36702,0.02178
2715.30685,0.02209
2713.24668,0.02231
2711.18651,0.02205
2709.12633,0.02153
2707.06616,0.02126
2705.00599,0.02118
2702.94582,0.02116
2700.88565,0.02120
2698.82547,0.02120
2696.76530,0.02110
2694.70513,0.02109
2692.64496,0.02125
2690.58478,0.02127
2688.52461,0.02108
2686.46444,0.02100
2684.40427,0.02110
2682.34410,0.02108
2680.28392,0.02101
2678.22375,0.02107
2676.16358,0.02094
2674.10341,0.02044
2672.04324,0.02000
2669.98306,0.01979
2667.92289,0.01976
2665.86272,0.02003
2663.80255,0.02035
2661.74238,0.02046
2659.68220,0.02054
2657.62203,0.02045
2655.56186,0.02012
2653.50169,0.02000
2651.44151,0.02007
2649.38134,0.01989
2647.32117,0.01954
2645.26100,0.01931
2643.20083,0.01929
2641.14065,0.01933
2639.08048,0.01912
2637.02031,0.01877
2634.96014,0.01855
2632.89997,0.01853
2630.83979,0.01864
2628.77962,0.01875
2626.71945,0.01882
2624.65928,0.01876
2622.59910,0.01843
2620.53893,0.01799
2618.47876,0.01778
2616.41859,0.01795
2614.35842,0.01810
2612.29824,0.01785
2610.23807,0.01740
2608.17790,0.01702
2606.11773,0.01694
2604.05756,0.01697
2601.99738,0.01688
2599.93721,0.01708
2597.87704,0.01732
2595.81687,0.01706
2593.75670,0.01664
2591.69652,0.01651
2589.63635,0.01649
2587.57618,0.01649
2585.51601,0.01672
2583.45583,0.01668
2581.39566,0.01592
2579.33549,0.01540
2577.27532,0.01564
2575.21515,0.01579
2573.15497,0.01559
2571.09480,0.01558
2569.03463,0.01575
2566.97446,0.01589
2564.91429,0.01601
2562.85411,0.01583
2560.79394,0.01530
2558.73377,0.01493
2556.67360,0.01466
2554.61342,0.01429
2552.55325,0.01429
2550.49308,0.01465
2548.43291,0.01463
2546.37274,0.01419
2544.31256,0.01401
2542.25239,0.01415
2540.19222,0.01411
2538.13205,0.01417
2536.07188,0.01439
2534.01170,0.01399
2531.95153,0.01332
2529.89136,0.01331
2527.83119,0.01362
2525.77102,0.01362
2523.71084,0.01344
2521.65067,0.01334
2519.59050,0.01319
2517.53033,0.01293
2515.47015,0.01269
2513.40998,0.01266
2511.34981,0.01296
2509.28964,0.01318
2507.22947,0.01303
2505.16929,0.01287
2503.10912,0.01296
2501.04895,0.01318
2498.98878,0.01339
2496.92861,0.01359
2494.86843,0.01369
2492.80826,0.01351
2490.74809,0.01306
2488.68792,0.01260
2486.62775,0.01231
2484.56757,0.01214
2482.50740,0.01230
2480.44723,0.01247
2478.38706,0.01212
2476.32688,0.01179
2474.26671,0.01161
2472.20654,0.01154
2470.14637,0.01182
2468.08620,0.01194
2466.02602,0.01162
2463.96585,0.01125
2461.90568,0.01131
2459.84551,0.01192
2457.78534,0.01236
2455.72516,0.01208
2453.66499,0.01172
2451.60482,0.01178
2449.54465,0.01197
2447.48447,0.01198
2445.42430,0.01183
2443.36413,0.01170
2441.30396,0.01170
2439.24379,0.01194
2437.18361,0.01226
2435.12344,0.01187
2433.06327,0.01094
2431.00310,0.01062
2428.94293,0.01100
2426.88275,0.01110
2424.82258,0.01073
2422.76241,0.01067
2420.70224,0.01097
2418.64207,0.01117
2416.58189,0.01134
2414.52172,0.01156
2412.46155,0.01156
2410.40138,0.01124
2408.34120,0.01092
2406.28103,0.01096
2404.22086,0.01120
2402.16069,0.01142
2400.10052,0.01167
2398.04034,0.01179
2395.98017,0.01158
2393.92000,0.01125
2391.85983,0.01107
2389.79966,0.01091
2387.73948,0.01070
2385.67931,0.01074
2383.61914,0.01099
2381.55897,0.01126
2379.49880,0.01181
2377.43862,0.01273
2375.37845,0.01298
2373.31828,0.01208
2371.25811,0.01118
2369.19793,0.01077
2367.13776,0.00991
2365.07759,0.00916
2363.01742,0.01005
2360.95725,0.01282
2358.89707,0.01438
2356.83690,0.01411
2354.77673,0.01352
2352.71656,0.01344
2350.65639,0.01407
2348.59621,0.01400
2346.53604,0.01246
2344.47587,0.01286
2342.41570,0.01346
2340.35552,0.01289
2338.29535,0.01229
2336.23518,0.01246
2334.17501,0.01310
2332.11484,0.01316
2330.05466,0.01255
2327.99449,0.01154
2325.93432,0.01130
2323.87415,0.01154
2321.81398,0.01160
2319.75380,0.01091
2317.69363,0.01089
2315.63346,0.01131
2313.57329,0.01131
2311.51312,0.01089
2309.45294,0.01051
2307.39277,0.01036
2305.33260,0.01011
2303.27243,0.00970
2301.21225,0.00957
2299.15208,0.01012
2297.09191,0.01063
2295.03174,0.01046
2292.97157,0.01033
2290.91139,0.01065
2288.85122,0.01080
2286.79105,0.01074
2284.73088,0.01063
2282.67071,0.01006
2280.61053,0.00913
2278.55036,0.00857
2276.49019,0.00858
2274.43002,0.00869
2272.36984,0.00862
2270.30967,0.00811
2268.24950,0.00741
2266.18933,0.00754
2264.12916,0.00860
2262.06898,0.00946
2260.00881,0.00905
2257.94864,0.00779
2255.88847,0.00728
2253.82830,0.00797
2251.76812,0.00804
2249.70795,0.00671
2247.64778,0.00604
2245.58761,0.00720
2243.52744,0.00836
2241.46726,0.00844
2239.40709,0.00836
2237.34692,0.00880
2235.28675,0.00928
2233.22657,0.00882
2231.16640,0.00687
2229.10623,0.00498
2227.04606,0.00579
2224.98589,0.00788
2222.92571,0.00811
2220.86554,0.00756
2218.80537,0.00819
2216.74520,0.00926
2214.68503,0.00952
2212.62485,0.00966
2210.56468,0.00979
2208.50451,0.00918
2206.44434,0.00868
2204.38417,0.00852
2202.32399,0.00822
2200.26382,0.00823
2198.20365,0.00795
2196.14348,0.00587
2194.08330,0.00330
2192.02313,0.00287
2189.96296,0.00306
2187.90279,0.00206
2185.84262,0.00214
2183.78244,0.00398
2181.72227,0.00584
2179.66210,0.00701
2177.60193,0.00617
2175.54176,0.00433
2173.48158,0.00486
2171.42141,0.00704
2169.36124,0.00898
2167.30107,0.00975
2165.24089,0.00718
2163.18072,0.00250
2161.12055,0.00024
2159.06038,0.00130
2157.00021,0.00265
2154.94003,0.00311
2152.87986,0.00372
2150.81969,0.00426
2148.75952,0.00502
2146.69935,0.00676
2144.63917,0.00794
2142.57900,0.00710
2140.51883,0.00560
2138.45866,0.00467
2136.39849,0.00361
2134.33831,0.00328
2132.27814,0.00450
2130.21797,0.00537
2128.15780,0.00516
2126.09762,0.00550
2124.03745,0.00650
2121.97728,0.00668
2119.91711,0.00667
2117.85694,0.00729
2115.79676,0.00770
2113.73659,0.00792
2111.67642,0.00786
2109.61625,0.00680
2107.55608,0.00571
2105.49590,0.00613
2103.43573,0.00749
2101.37556,0.00801
2099.31539,0.00715
2097.25521,0.00601
2095.19504,0.00533
2093.13487,0.00498
2091.07470,0.00516
2089.01453,0.00599
2086.95435,0.00652
2084.89418,0.00624
2082.83401,0.00587
2080.77384,0.00604
2078.71367,0.00691
2076.65349,0.00771
2074.59332,0.00775
2072.53315,0.00786
2070.47298,0.00801
2068.41281,0.00757
2066.35263,0.00725
2064.29246,0.00697
2062.23229,0.00635
2060.17212,0.00591
2058.11194,0.00600
2056.05177,0.00638
2053.99160,0.00664
2051.93143,0.00674
2049.87126,0.00658
2047.81108,0.00612
2045.75091,0.00647
2043.69074,0.00745
2041.63057,0.00696
2039.57040,0.00493
2037.51022,0.00327
2035.45005,0.00224
2033.38988,0.00188
2031.32971,0.00341
2029.26954,0.00484
2027.20936,0.00324
2025.14919,0.00053
2023.08902,0.00000
2021.02885,0.00215
2018.96867,0.00471
2016.90850,0.00531
2014.84833,0.00408
2012.78816,0.00236
2010.72799,0.00193
2008.66781,0.00365
2006.60764,0.00599
2004.54747,0.00660
2002.48730,0.00543
2000.42713,0.00418
1998.36695,0.00336
1996.30678,0.00318
1994.24661,0.00359
1992.18644,0.00397
1990.12626,0.00477
1988.06609,0.00535
1986.00592,0.00440
1983.94575,0.00294
1981.88558,0.00333
1979.82540,0.00492
1977.76523,0.00604
1975.70506,0.00682
1973.64489,0.00655
1971.58472,0.00511
1969.52454,0.00327
1967.46437,0.00175
1965.40420,0.00211
1963.34403,0.00332
1961.28386,0.00271
1959.22368,0.00088
1957.16351,0.00055
1955.10334,0.00235
1953.04317,0.00468
1950.98299,0.00531
1948.92282,0.00370
1946.86265,0.00186
1944.80248,0.00177
1942.74231,0.00333
1940.68213,0.00465
1938.62196,0.00422
1936.56179,0.00349
1934.50162,0.00355
1932.44145,0.00368
1930.38127,0.00373
1928.32110,0.00379
1926.26093,0.00386
1924.20076,0.00407
1922.14059,0.00501
1920.08041,0.00570
1918.02024,0.00510
1915.96007,0.00452
1913.89990,0.00434
1911.83972,0.00435
1909.77955,0.00441
1907.71938,0.00441
1905.65921,0.00399
1903.59904,0.00315
1901.53886,0.00275
1899.47869,0.00304
1897.41852,0.00324
1895.35835,0.00315
1893.29818,0.00309
1891.23800,0.00252
1889.17783,0.00200
1887.11766,0.00220
1885.05749,0.00215
1882.99731,0.00210
1880.93714,0.00250
1878.87697,0.00289
1876.81680,0.00295
1874.75663,0.00281
1872.69645,0.00257
1870.63628,0.00190
1868.57611,0.00142
1866.51594,0.00197
1864.45577,0.00243
1862.39559,0.00213
1860.33542,0.00155
1858.27525,0.00121
1856.21508,0.00141
1854.15491,0.00187
1852.09473,0.00205
1850.03456,0.00183
1847.97439,0.00143
1845.91422,0.00068
1843.85404,0.00033
1841.79387,0.00133
1839.73370,0.00186
1837.67353,0.00142
1835.61336,0.00118
1833.55318,0.00122
1831.49301,0.00076
1829.43284,0.00073
1827.37267,0.00149
1825.31250,0.00158
1823.25232,0.00152
1821.19215,0.00133
1819.13198,0.00081
1817.07181,0.00074
1815.01163,0.00116
1812.95146,0.00093
1810.89129,0.00014
1808.83112,0.00000
1806.77095,0.00042
1804.71077,0.00075
1802.65060,0.00062
1800.59043,0.00048
1798.53026,0.00082
1796.47009,0.00101
1794.40991,0.00034
1792.34974,-0.00042
1790.28957,0.00022
1788.22940,0.00077
1786.16923,0.00025
1784.10905,-0.00009
1782.04888,0.00000
1779.98871,0.00042
1777.92854,0.00137
1775.86836,0.00168
1773.80819,0.00070
1771.74802,0.00005
1769.68785,0.00080
1767.62768,0.00160
1765.56750,0.00226
1763.50733,0.00232
1761.44716,0.00300
1759.38699,0.00478
1757.32682,0.00628
1755.26664,0.00842
1753.20647,0.01026
1751.14630,0.01146
1749.08613,0.01372
1747.02596,0.01635
1744.96578,0.01804
1742.90561,0.01883
1740.84544,0.01916
1738.78527,0.02008
1736.72509,0.02034
1734.66492,0.01874
1732.60475,0.01908
1730.54458,0.02005
1728.48441,0.01979
1726.42423,0.01929
1724.36406,0.01884
1722.30389,0.01891
1720.24372,0.01824
1718.18355,0.01673
1716.12337,0.01744
1714.06320,0.01936
1712.00303,0.02018
1709.94286,0.01981
1707.88268,0.01880
1705.82251,0.01837
1703.76234,0.01896
1701.70217,0.01765
1699.64200,0.01627
1697.58182,0.01705
1695.52165,0.01821
1693.46148,0.02047
1691.40131,0.02167
1689.34114,0.02254
1687.28096,0.02375
1685.22079,0.02422
1683.16062,0.02757
1681.10045,0.03219
1679.04028,0.03419
1676.98010,0.03465
1674.91993,0.03586
1672.85976,0.03744
1670.79959,0.03648
1668.73941,0.03578
1666.67924,0.03650
1664.61907,0.03519
1662.55890,0.03301
1660.49873,0.03289
1658.43855,0.03318
1656.37838,0.03152
1654.31821,0.02857
1652.25804,0.03042
1650.19787,0.03385
1648.13769,0.03210
1646.07752,0.03068
1644.01735,0.03246
1641.95718,0.03340
1639.89701,0.03300
1637.83683,0.03185
1635.77666,0.03206
1633.71649,0.03555
1631.65632,0.03759
1629.59614,0.03701
1627.53597,0.03683
1625.47580,0.03720
1623.41563,0.03727
1621.35546,0.03824
1619.29528,0.03816
1617.23511,0.03721
1615.17494,0.03900
1613.11477,0.04140
1611.05460,0.04240
1608.99442,0.04352
1606.93425,0.04505
1604.87408,0.04572
1602.81391,0.04501
1600.75373,0.04354
1598.69356,0.04169
1596.63339,0.03966
1594.57322,0.03794
1592.51305,0.03667
1590.45287,0.03544
1588.39270,0.03425
1586.33253,0.03313
1584.27236,0.03190
1582.21219,0.03089
1580.15201,0.03007
1578.09184,0.02825
1576.03167,0.02707
1573.97150,0.02845
1571.91133,0.02789
1569.85115,0.02520
1567.79098,0.02438
1565.73081,0.02429
1563.67064,0.02411
1561.61046,0.02204
1559.55029,0.01751
1557.49012,0.01761
1555.42995,0.01884
1553.36978,0.01789
1551.30960,0.01639
1549.24943,0.01536
1547.18926,0.01480
1545.12909,0.01375
1543.06892,0.01247
1541.00874,0.01032
1538.94857,0.01002
1536.88840,0.01146
1534.82823,0.00988
1532.76805,0.00803
1530.70788,0.00837
1528.64771,0.00795
1526.58754,0.00740
1524.52737,0.00793
1522.46719,0.00848
1520.40702,0.01064
1518.34685,0.01296
1516.28668,0.01406
1514.22651,0.01528
1512.16633,0.01530
1510.10616,0.01297
1508.04599,0.00810
1505.98582,0.00570
1503.92565,0.00708
1501.86547,0.00688
1499.80530,0.00480
1497.74513,0.00292
1495.68496,0.00277
1493.62478,0.00307
1491.56461,0.00147
1489.50444,0.00000
1487.44427,0.00086
1485.38410,0.00205
1483.32392,0.00227
1481.26375,0.00243
1479.20358,0.00336
1477.14341,0.00429
1475.08324,0.00518
1473.02306,0.00701
1470.96289,0.01100
1468.90272,0.01456
1466.84255,0.01585
1464.78238,0.01736
1462.72220,0.02031
1460.66203,0.02139
1458.60186,0.02007
1456.54169,0.02091
1454.48151,0.02425
1452.42134,0.02571
1450.36117,0.02569
1448.30100,0.02600
1446.24083,0.02733
1444.18065,0.02864
1442.12048,0.02944
1440.06031,0.02994
1438.00014,0.02971
1435.93997,0.03063
1433.87979,0.03265
1431.81962,0.03283
1429.75945,0.03241
1427.69928,0.03281
1425.63910,0.03290
1423.57893,0.03312
1421.51876,0.03327
1419.45859,0.03267
1417.39842,0.03335
1415.33824,0.03420
1413.27807,0.03377
1411.21790,0.03290
1409.15773,0.03214
1407.09756,0.03094
1405.03738,0.02959
1402.97721,0.02884
1400.91704,0.02763
1398.85687,0.02620
1396.79670,0.02539
1394.73652,0.02484
1392.67635,0.02519
1390.61618,0.02538
1388.55601,0.02481
1386.49583,0.02511
1384.43566,0.02641
1382.37549,0.02734
1380.31532,0.02793
1378.25515,0.02848
1376.19497,0.02869
1374.13480,0.02892
1372.07463,0.02975
1370.01446,0.03000
1367.95429,0.02979
1365.89411,0.02955
1363.83394,0.02859
1361.77377,0.02778
1359.71360,0.02774
1357.65343,0.02760
1355.59325,0.02723
1353.53308,0.02708
1351.47291,0.02704
1349.41274,0.02691
1347.35256,0.02683
1345.29239,0.02682
1343.23222,0.02658
1341.17205,0.02577
1339.11188,0.02512
1337.05170,0.02541
1334.99153,0.02586
1332.93136,0.02599
1330.87119,0.02612
1328.81102,0.02650
1326.75084,0.02684
1324.69067,0.02689
1322.63050,0.02659
1320.57033,0.02603
1318.51015,0.02581
1316.44998,0.02601
1314.38981,0.02596
1312.32964,0.02570
1310.26947,0.02522
1308.20929,0.02437
1306.14912,0.02358
1304.08895,0.02290
1302.02878,0.02207
1299.96861,0.02124
1297.90843,0.02068
1295.84826,0.02056
1293.78809,0.02081
1291.72792,0.02105
1289.66775,0.02116
1287.60757,0.02150
1285.54740,0.02212
1283.48723,0.02253
1281.42706,0.02267
1279.36688,0.02297
1277.30671,0.02345
1275.24654,0.02371
1273.18637,0.02362
1271.12620,0.02366
1269.06602,0.02423
1267.00585,0.02506
1264.94568,0.02604
1262.88551,0.02723
1260.82534,0.02841
1258.76516,0.02930
1256.70499,0.02988
1254.64482,0.03047
1252.58465,0.03122
1250.52447,0.03180
1248.46430,0.03213
1246.40413,0.03237
1244.34396,0.03254
1242.28379,0.03258
1240.22361,0.03254
1238.16344,0.03246
1236.10327,0.03204
1234.04310,0.03128
1231.98293,0.03050
1229.92275,0.02960
1227.86258,0.02830
1225.80241,0.02691
1223.74224,0.02558
1221.68207,0.02400
1219.62189,0.02218
1217.56172,0.02035
1215.50155,0.01867
1213.44138,0.01717
1211.38120,0.01576
1209.32103,0.01447
1207.26086,0.01328
1205.20069,0.01198
1203.14052,0.01032
1201.08034,0.00837
1199.02017,0.00647
1196.96000,0.00462
1194.89983,0.00303
1192.83966,0.00190
1190.77948,0.00103
1188.71931,0.00034
1186.65914,0.00000
1184.59897,-0.00006
1182.53880,0.00017
1180.47862,0.00091
1178.41845,0.00225
1176.35828,0.00406
1174.29811,0.00641
1172.23793,0.00934
1170.17776,0.01229
1168.11759,0.01448
1166.05742,0.01575
1163.99725,0.01674
1161.93707,0.01760
1159.87690,0.01817
1157.81673,0.01877
1155.75656,0.01954
1153.69639,0.02049
1151.63621,0.02171
1149.57604,0.02307
1147.51587,0.02437
1145.45570,0.02570
1143.39552,0.02715
1141.33535,0.02836
1139.27518,0.02917
1137.21501,0.02975
1135.15484,0.03050
1133.09466,0.03171
1131.03449,0.03305
1128.97432,0.03421
1126.91415,0.03538
1124.85398,0.03678
1122.79380,0.03836
1120.73363,0.03998
1118.67346,0.04157
1116.61329,0.04312
1114.55312,0.04448
1112.49294,0.04564
1110.43277,0.04679
1108.37260,0.04805
1106.31243,0.04960
1104.25225,0.05124
1102.19208,0.05279
1100.13191,0.05468
1098.07174,0.05688
1096.01157,0.05917
1093.95139,0.06171
1091.89122,0.06442
1089.83105,0.06687
1087.77088,0.06890
1085.71071,0.07081
1083.65053,0.07304
1081.59036,0.07564
1079.53019,0.07823
1077.47002,0.08084
1075.40985,0.08363
1073.34967,0.08632
1071.28950,0.08886
1069.22933,0.09118
1067.16916,0.09309
1065.10898,0.09469
1063.04881,0.09621
1060.98864,0.09769
1058.92847,0.09927
1056.86830,0.10133
1054.80812,0.10374
1052.74795,0.10593
1050.68778,0.10830
1048.62761,0.11152
1046.56744,0.11490
1044.50726,0.11780
1042.44709,0.12041
1040.38692,0.12288
1038.32675,0.12528
1036.26657,0.12736
1034.20640,0.12860
1032.14623,0.12922
1030.08606,0.12951
1028.02589,0.12920
1025.96571,0.12851
1023.90554,0.12788
1021.84537,0.12745
1019.78520,0.12694
1017.72503,0.12626
1015.66485,0.12586
1013.60468,0.12602
1011.54451,0.12660
1009.48434,0.12690
1007.42417,0.12661
1005.36399,0.12626
1003.30382,0.12566
1001.24365,0.12444
999.18348,0.12312
997.12330,0.12173
995.06313,0.11971
993.00296,0.11745
990.94279,0.11559
988.88262,0.11379
986.82244,0.11161
984.76227,0.10949
982.70210,0.10771
980.64193,0.10606
978.58176,0.10435
976.52158,0.10235
974.46141,0.10023
972.40124,0.09817
970.34107,0.09599
968.28089,0.09390
966.22072,0.09198
964.16055,0.08974
962.10038,0.08731
960.04021,0.08530
957.98003,0.08340
955.91986,0.08120
953.85969,0.07903
951.79952,0.07731
949.73935,0.07575
947.67917,0.07381
945.61900,0.07154
943.55883,0.06898
941.49866,0.06615
939.43849,0.06303
937.37831,0.05925
935.31814,0.05475
933.25797,0.05011
931.19780,0.04616
929.13762,0.04300
927.07745,0.04025
925.01728,0.03775
922.95711,0.03547
920.89694,0.03319
918.83676,0.03088
916.77659,0.02900
914.71642,0.02742
912.65625,0.02522
910.59608,0.02252
908.53590,0.02074
906.47573,0.02034
904.41556,0.02002
902.35539,0.01898
900.29522,0.01820
898.23504,0.01853
896.17487,0.01930
894.11470,0.01954
892.05453,0.01931
889.99435,0.01902
887.93418,0.01864
885.87401,0.01767
883.81384,0.01625
881.75367,0.01497
879.69349,0.01376
877.63332,0.01250
875.57315,0.01122
873.51298,0.01008
871.45281,0.00950
869.39263,0.00936
867.33246,0.00914
865.27229,0.00890
863.21212,0.00868
861.15194,0.00825
859.09177,0.00801
857.03160,0.00809
854.97143,0.00793
852.91126,0.00743
850.85108,0.00715
848.79091,0.00724
846.73074,0.00702
844.67057,0.00653
842.61040,0.00631
840.55022,0.00629
838.49005,0.00664
836.42988,0.00704
834.36971,0.00675
832.30954,0.00610
830.24936,0.00551
828.18919,0.00462
826.12902,0.00370
824.06885,0.00332
822.00867,0.00322
819.94850,0.00300
817.88833,0.00255
815.82816,0.00228
813.76799,0.00219
811.70781,0.00169
809.64764,0.00123
807.58747,0.00153
805.52730,0.00221
803.46713,0.00296
801.40695,0.00370
799.34678,0.00365
797.28661,0.00300
795.22644,0.00314
793.16627,0.00350
791.10609,0.00250
789.04592,0.00119
786.98575,0.00075
784.92558,0.00048
782.86540,0.00000
780.80523,-0.00027
778.74506,0.00047
776.68489,0.00173
774.62472,0.00197
772.56454,0.00105
770.50437,0.00066
768.44420,0.00153
766.38403,0.00265
764.32386,0.00320
762.26368,0.00303
760.20351,0.00238
758.14334,0.00135
756.08317,-0.00009
754.02299,-0.00078
751.96282,0.00000
749.90265,0.00102
747.84248,0.00184
745.78231,0.00186
743.72213,0.00081
741.66196,-0.00005
739.60179,-0.00012
737.54162,0.00018
735.48145,0.00126
733.42127,0.00196
731.36110,0.00038
729.30093,-0.00132
727.24076,-0.00063
725.18059,0.00114
723.12041,0.00241
721.06024,0.00278
719.00007,0.00288
716.93990,0.00282
714.87972,0.00266
712.81955,0.00250
710.75938,0.00257
708.69921,0.00320
706.63904,0.00453
704.57886,0.00640
702.51869,0.00790
700.45852,0.00847
698.39835,0.00900
696.33818,0.00991
694.27800,0.00961
692.21783,0.00734
690.15766,0.00515
688.09749,0.00478
686.03731,0.00537
683.97714,0.00563
681.91697,0.00547
679.85680,0.00521
677.79663,0.00532
675.73645,0.00581
673.67628,0.00663
671.61611,0.00773
669.55594,0.00690
667.49577,0.00583
665.43559,0.00781
663.37542,0.00580
661.31525,0.00530
659.25508,0.00802
657.19491,0.01021
655.13473,0.00888
653.07456,0.00542
651.01439,0.00369
648.95422,0.00469
646.89404,0.00618
644.83387,0.00611
642.77370,0.00485
640.71353,0.00381
638.65336,0.00326
636.59318,0.00344
634.53301,0.00408
632.47284,0.00372
630.41267,0.00268
628.35250,0.00212
626.29232,0.00230
624.23215,0.00317
622.17198,0.00378
620.11181,0.00388
618.05164,0.00510
615.99146,0.00872
613.93129,0.01235
611.87112,0.01138
609.81095,0.00831
607.75077,0.00951
605.69060,0.01379
603.63043,0.01356
601.57026,0.00641
599.51009,0.00000
