3996.73391,0.00048
3994.67373,0.00052
3992.61356,0.00047
3990.55339,0.00027
3988.49322,-0.00019
3986.43305,-0.00016
3984.37287,0.00064
3982.31270,0.00126
3980.25253,0.00093
3978.19236,0.00020
3976.13219,-0.00005
3974.07201,0.00008
3972.01184,0.00007
3969.95167,0.00000
3967.89150,0.00017
3965.83133,0.00074
3963.77115,0.00151
3961.71098,0.00181
3959.65081,0.00145
3957.59064,0.00106
3955.53046,0.00093
3953.47029,0.00105
3951.41012,0.00139
3949.34995,0.00153
3947.28978,0.00104
3945.22960,0.00080
3943.16943,0.00118
3941.10926,0.00096
3939.04909,0.00034
3936.98892,0.00006
3934.92874,0.00030
3932.86857,0.00096
3930.80840,0.00133
3928.74823,0.00143
3926.68805,0.00205
3924.62788,0.00255
3922.56771,0.00217
3920.50754,0.00201
3918.44737,0.00209
3916.38719,0.00168
3914.32702,0.00115
3912.26685,0.00116
3910.20668,0.00116
3908.14651,0.00090
3906.08633,0.00103
3904.02616,0.00128
3901.96599,0.00151
3899.90582,0.00222
3897.84565,0.00219
3895.78547,0.00171
3893.72530,0.00218
3891.66513,0.00260
3889.60496,0.00175
3887.54478,0.00176
3885.48461,0.00218
3883.42444,0.00171
3881.36427,0.00224
3879.30410,0.00199
3877.24392,0.00095
3875.18375,0.00120
3873.12358,0.00165
3871.06341,0.00218
3869.00324,0.00160
3866.94306,0.00098
3864.88289,0.00242
3862.82272,0.00318
3860.76255,0.00245
3858.70237,0.00166
3856.64220,0.00238
3854.58203,0.00437
3852.52186,0.00343
3850.46169,0.00053
3848.40151,0.00000
3846.34134,0.00101
3844.28117,0.00166
3842.22100,0.00158
3840.16083,0.00242
3838.10065,0.00357
3836.04048,0.00282
3833.98031,0.00159
3831.92014,0.00138
3829.85997,0.00156
3827.79979,0.00183
3825.73962,0.00158
3823.67945,0.00192
3821.61928,0.00305
3819.55910,0.00222
3817.49893,0.00240
3815.43876,0.00332
3813.37859,0.00255
3811.31842,0.00227
3809.25824,0.00322
3807.19807,0.00349
3805.13790,0.00210
3803.07773,0.00275
3801.01756,0.00400
3798.95738,0.00320
3796.89721,0.00300
3794.83704,0.00308
3792.77687,0.00318
3790.71670,0.00325
3788.65652,0.00304
3786.59635,0.00302
3784.53618,0.00263
3782.47601,0.00204
3780.41583,0.00238
3778.35566,0.00225
3776.29549,0.00126
3774.23532,0.00091
3772.17515,0.00164
3770.11497,0.00251
3768.05480,0.00246
3765.99463,0.00217
3763.93446,0.00144
3761.87429,0.00151
3759.81411,0.00248
3757.75394,0.00199
3755.69377,0.00087
3753.63360,0.00180
3751.57342,0.00383
3749.51325,0.00316
3747.45308,0.00147
3745.39291,0.00224
3743.33274,0.00226
3741.27256,0.00102
3739.21239,0.00120
3737.15222,0.00261
3735.09205,0.00330
3733.03188,0.00272
3730.97170,0.00223
3728.91153,0.00245
3726.85136,0.00283
3724.79119,0.00223
3722.73102,0.00150
3720.67084,0.00097
3718.61067,0.00053
3716.55050,0.00016
3714.49033,0.00062
3712.43015,0.00209
3710.36998,0.00275
3708.30981,0.00230
3706.24964,0.00189
3704.18947,0.00212
3702.12929,0.00255
3700.06912,0.00228
3698.00895,0.00202
3695.94878,0.00200
3693.88861,0.00199
3691.82843,0.00277
3689.76826,0.00373
3687.70809,0.00324
3685.64792,0.00249
3683.58775,0.00257
3681.52757,0.00271
3679.46740,0.00277
3677.40723,0.00357
3675.34706,0.00332
3673.28688,0.00084
3671.22671,0.00120
3669.16654,0.00268
3667.10637,0.00247
3665.04620,0.00246
3662.98602,0.00253
3660.92585,0.00219
3658.86568,0.00239
3656.80551,0.00301
3654.74534,0.00243
3652.68516,0.00266
3650.62499,0.00471
3648.56482,0.00511
3646.50465,0.00350
3644.44447,0.00295
3642.38430,0.00408
3640.32413,0.00493
3638.26396,0.00455
3636.20379,0.00387
3634.14361,0.00386
3632.08344,0.00459
3630.02327,0.00634
3627.96310,0.00656
3625.90293,0.00505
3623.84275,0.00462
3621.78258,0.00534
3619.72241,0.00599
3617.66224,0.00558
3615.60207,0.00551
3613.54189,0.00616
3611.48172,0.00642
3609.42155,0.00692
3607.36138,0.00716
3605.30120,0.00695
3603.24103,0.00771
3601.18086,0.00886
3599.12069,0.00909
3597.06052,0.00919
3595.00034,0.00987
3592.94017,0.01030
3590.88000,0.01047
3588.81983,0.01133
3586.75966,0.01202
3584.69948,0.01209
3582.63931,0.01251
3580.57914,0.01299
3578.51897,0.01318
3576.45879,0.01330
3574.39862,0.01339
3572.33845,0.01345
3570.27828,0.01402
3568.21811,0.01537
3566.15793,0.01600
3564.09776,0.01535
3562.03759,0.01538
3559.97742,0.01650
3557.91725,0.01745
3555.85707,0.01775
3553.79690,0.01787
3551.73673,0.01772
3549.67656,0.01768
3547.61639,0.01852
3545.55621,0.01943
3543.49604,0.01966
3541.43587,0.01987
3539.37570,0.02036
3537.31552,0.02094
3535.25535,0.02131
3533.19518,0.02160
3531.13501,0.02226
3529.07484,0.02338
3527.01466,0.02435
3524.95449,0.02477
3522.89432,0.02497
3520.83415,0.02529
3518.77398,0.02568
3516.71380,0.02583
3514.65363,0.02615
3512.59346,0.02701
3510.53329,0.02794
3508.47312,0.02827
3506.41294,0.02837
3504.35277,0.02904
3502.29260,0.02965
3500.23243,0.02987
3498.17225,0.03060
3496.11208,0.03175
3494.05191,0.03248
3491.99174,0.03265
3489.93157,0.03263
3487.87139,0.03254
3485.81122,0.03247
3483.75105,0.03315
3481.69088,0.03436
3479.63071,0.03514
3477.57053,0.03549
3475.51036,0.03548
3473.45019,0.03518
3471.39002,0.03545
3469.32984,0.03655
3467.26967,0.03759
3465.20950,0.03808
3463.14933,0.03843
3461.08916,0.03878
3459.02898,0.03921
3456.96881,0.03983
3454.90864,0.04048
3452.84847,0.04065
3450.78830,0.04032
3448.72812,0.04055
3446.66795,0.04141
3444.60778,0.04202
3442.54761,0.04262
3440.48744,0.04337
3438.42726,0.04420
3436.36709,0.04498
3434.30692,0.04531
3432.24675,0.04535
3430.18657,0.04570
3428.12640,0.04623
3426.06623,0.04660
3424.00606,0.04710
3421.94589,0.04775
3419.88571,0.04798
3417.82554,0.04783
3415.76537,0.04791
3413.70520,0.04832
3411.64503,0.04879
3409.58485,0.04902
3407.52468,0.04934
3405.46451,0.05002
3403.40434,0.05079
3401.34416,0.05139
3399.28399,0.05159
3397.22382,0.05145
3395.16365,0.05140
3393.10348,0.05158
3391.04330,0.05175
3388.98313,0.05207
3386.92296,0.05259
3384.86279,0.05281
3382.80262,0.05275
3380.74244,0.05307
3378.68227,0.05346
3376.62210,0.05331
3374.56193,0.05328
3372.50176,0.05392
3370.44158,0.05459
3368.38141,0.05498
3366.32124,0.05540
3364.26107,0.05598
3362.20089,0.05645
3360.14072,0.05649
3358.08055,0.05650
3356.02038,0.05667
3353.96021,0.05662
3351.90003,0.05648
3349.83986,0.05648
3347.77969,0.05649
3345.71952,0.05664
3343.65935,0.05675
3341.59917,0.05646
3339.53900,0.05633
3337.47883,0.05684
3335.41866,0.05744
3333.35849,0.05765
3331.29831,0.05754
3329.23814,0.05749
3327.17797,0.05765
3325.11780,0.05773
3323.05762,0.05775
3320.99745,0.05802
3318.93728,0.05835
3316.87711,0.05853
3314.81694,0.05863
3312.75676,0.05863
3310.69659,0.05866
3308.63642,0.05876
3306.57625,0.05856
3304.51608,0.05833
3302.45590,0.05870
3300.39573,0.05942
3298.33556,0.05980
3296.27539,0.05973
3294.21521,0.05950
3292.15504,0.05916
3290.09487,0.05881
3288.03470,0.05876
3285.97453,0.05886
3283.91435,0.05907
3281.85418,0.05929
3279.79401,0.05908
3277.73384,0.05867
3275.67367,0.05849
3273.61349,0.05844
3271.55332,0.05833
3269.49315,0.05807
3267.43298,0.05766
3265.37281,0.05742
3263.31263,0.05747
3261.25246,0.05766
3259.19229,0.05815
3257.13212,0.05898
3255.07194,0.05944
3253.01177,0.05867
3250.95160,0.05751
3248.89143,0.05733
3246.83126,0.05757
3244.77108,0.05725
3242.71091,0.05665
3240.65074,0.05644
3238.59057,0.05653
3236.53040,0.05659
3234.47022,0.05664
3232.41005,0.05642
3230.34988,0.05564
3228.28971,0.05501
3226.22954,0.05508
3224.16936,0.05534
3222.10919,0.05521
3220.04902,0.05481
3217.98885,0.05458
3215.92867,0.05477
3213.86850,0.05498
3211.80833,0.05483
3209.74816,0.05469
3207.68799,0.05450
3205.62781,0.05401
3203.56764,0.05334
3201.50747,0.05265
3199.44730,0.05227
3197.38713,0.05240
3195.32695,0.05240
3193.26678,0.05204
3191.20661,0.05184
3189.14644,0.05176
3187.08626,0.05136
3185.02609,0.05084
3182.96592,0.05048
3180.90575,0.05019
3178.84558,0.04993
3176.78540,0.04981
3174.72523,0.04971
3172.66506,0.04923
3170.60489,0.04846
3168.54472,0.04810
3166.48454,0.04810
3164.42437,0.04786
3162.36420,0.04734
3160.30403,0.04689
3158.24386,0.04659
3156.18368,0.04634
3154.12351,0.04613
3152.06334,0.04595
3150.00317,0.04576
3147.94299,0.04555
3145.88282,0.04527
3143.82265,0.04492
3141.76248,0.04454
3139.70231,0.04416
3137.64213,0.04356
3135.58196,0.04285
3133.52179,0.04237
3131.46162,0.04211
3129.40145,0.04192
3127.34127,0.04170
3125.28110,0.04155
3123.22093,0.04153
3121.16076,0.04118
3119.10058,0.04059
3117.04041,0.04029
3114.98024,0.04016
3112.92007,0.03986
3110.85990,0.03961
3108.79972,0.03962
3106.73955,0.03958
3104.67938,0.03912
3102.61921,0.03849
3100.55904,0.03804
3098.49886,0.03775
3096.43869,0.03757
3094.37852,0.03721
3092.31835,0.03657
3090.25818,0.03608
3088.19800,0.03590
3086.13783,0.03565
3084.07766,0.03531
3082.01749,0.03522
3079.95731,0.03518
3077.89714,0.03473
3075.83697,0.03433
3073.77680,0.03438
3071.71663,0.03449
3069.65645,0.03442
3067.59628,0.03405
3065.53611,0.03345
3063.47594,0.03297
3061.41577,0.03253
3059.35559,0.03215
3057.29542,0.03220
3055.23525,0.03233
3053.17508,0.03206
3051.11491,0.03150
3049.05473,0.03093
3046.99456,0.03037
3044.93439,0.02979
3042.87422,0.02934
3040.81404,0.02906
3038.75387,0.02879
3036.69370,0.02851
3034.63353,0.02838
3032.57336,0.02843
3030.51318,0.02837
3028.45301,0.02812
3026.39284,0.02796
3024.33267,0.02798
3022.27250,0.02818
3020.21232,0.02844
3018.15215,0.02846
3016.09198,0.02820
3014.03181,0.02776
3011.97163,0.02736
3009.91146,0.02705
3007.85129,0.02689
3005.79112,0.02690
3003.73095,0.02673
3001.67077,0.02617
2999.61060,0.02558
2997.55043,0.02523
2995.49026,0.02513
2993.43009,0.02518
2991.36991,0.02514
2989.30974,0.02512
2987.24957,0.02524
2985.18940,0.02540
2983.12923,0.02571
2981.06905,0.02621
2979.00888,0.02679
2976.94871,0.02731
2974.88854,0.02796
2972.82836,0.02884
2970.76819,0.02982
2968.70802,0.03109
2966.64785,0.03257
2964.58768,0.03391
2962.52750,0.03520
2960.46733,0.03666
2958.40716,0.03824
2956.34699,0.03989
2954.28682,0.04167
2952.22664,0.04350
2950.16647,0.04527
2948.10630,0.04713
2946.04613,0.04936
2943.98596,0.05201
2941.92578,0.05487
2939.86561,0.05780
2937.80544,0.06089
2935.74527,0.06397
2933.68509,0.06653
2931.62492,0.06843
2929.56475,0.07027
2927.50458,0.07232
2925.44441,0.07404
2923.38423,0.07487
2921.32406,0.07504
2919.26389,0.07509
2917.20372,0.07445
2915.14355,0.07241
2913.08337,0.06940
2911.02320,0.06611
2908.96303,0.06330
2906.90286,0.06141
2904.84268,0.05973
2902.78251,0.05778
2900.72234,0.05607
2898.66217,0.05443
2896.60200,0.05254
2894.54182,0.05113
2892.48165,0.05023
2890.42148,0.04902
2888.36131,0.04767
2886.30114,0.04685
2884.24096,0.04632
2882.18079,0.04581
2880.12062,0.04546
2878.06045,0.04525
2876.00028,0.04520
2873.94010,0.04521
2871.87993,0.04523
2869.81976,0.04555
2867.75959,0.04649
2865.69941,0.04788
2863.63924,0.04946
2861.57907,0.05116
2859.51890,0.05287
2857.45873,0.05452
2855.39855,0.05623
2853.33838,0.05777
2851.27821,0.05835
2849.21804,0.05728
2847.15787,0.05457
2845.09769,0.05080
2843.03752,0.04682
2840.97735,0.04356
2838.91718,0.04123
2836.85700,0.03933
2834.79683,0.03759
2832.73666,0.03596
2830.67649,0.03453
2828.61632,0.03357
2826.55614,0.03309
2824.49597,0.03267
2822.43580,0.03188
2820.37563,0.03101
2818.31546,0.03048
2816.25528,0.03007
2814.19511,0.02956
2812.13494,0.02932
2810.07477,0.02919
2808.01460,0.02871
2805.95442,0.02806
2803.89425,0.02749
2801.83408,0.02722
2799.77391,0.02747
2797.71373,0.02768
2795.65356,0.02711
2793.59339,0.02612
2791.53322,0.02538
2789.47305,0.02518
2787.41287,0.02529
2785.35270,0.02523
2783.29253,0.02490
2781.23236,0.02462
2779.17219,0.02444
2777.11201,0.02429
2775.05184,0.02427
2772.99167,0.02426
2770.93150,0.02409
2768.87133,0.02391
2766.81115,0.02393
2764.75098,0.02394
2762.69081,0.02377
2760.63064,0.02352
2758.57046,0.02326
2756.51029,0.02308
2754.45012,0.02302
2752.38995,0.02298
2750.32978,0.02302
2748.26960,0.02304
2746.20943,0.02282
2744.14926,0.02257
2742.08909,0.02248
2740.02892,0.02228
2737.96874,0.02210
2735.90857,0.02227
2733.84840,0.02237
2731.78823,0.02211
2729.72805,0.02196
2727.66788,0.02205
2725.60771,0.02206
2723.54754,0.02184
2721.48737,0.02162
2719.42719,0.02151
2717.36702,0.02148
2715.30685,0.02176
2713.24668,0.02214
2711.18651,0.02199
2709.12633,0.02149
2707.06616,0.02123
2705.00599,0.02112
2702.94582,0.02099
2700.88565,0.02094
2698.82547,0.02100
2696.76530,0.02110
2694.70513,0.02127
2692.64496,0.02152
2690.58478,0.02143
2688.52461,0.02097
2686.46444,0.02076
2684.40427,0.02086
2682.34410,0.02082
2680.28392,0.02062
2678.22375,0.02067
2676.16358,0.02064
2674.10341,0.02009
2672.04324,0.01973
2669.98306,0.01983
2667.92289,0.01994
2665.86272,0.02018
2663.80255,0.02047
2661.74238,0.02052
2659.68220,0.02052
2657.62203,0.02044
2655.56186,0.02011
2653.50169,0.01975
2651.44151,0.01966
2649.38134,0.01974
2647.32117,0.01969
2645.26100,0.01945
2643.20083,0.01930
2641.14065,0.01926
2639.08048,0.01908
2637.02031,0.01884
2634.96014,0.01869
2632.89997,0.01857
2630.83979,0.01848
2628.77962,0.01854
2626.71945,0.01867
2624.65928,0.01852
2622.59910,0.01802
2620.53893,0.01755
2618.47876,0.01754
2616.41859,0.01791
2614.35842,0.01805
2612.29824,0.01776
2610.23807,0.01733
2608.17790,0.01687
2606.11773,0.01656
2604.05756,0.01640
2601.99738,0.01639
2599.93721,0.01695
2597.87704,0.01744
2595.81687,0.01703
2593.75670,0.01645
2591.69652,0.01632
2589.63635,0.01641
2587.57618,0.01665
2585.51601,0.01685
2583.45583,0.01660
2581.39566,0.01599
2579.33549,0.01572
2577.27532,0.01595
2575.21515,0.01596
2573.15497,0.01572
2571.09480,0.01588
2569.03463,0.01629
2566.97446,0.01667
2564.91429,0.01671
2562.85411,0.01599
2560.79394,0.01504
2558.73377,0.01470
2556.67360,0.01497
2554.61342,0.01524
2552.55325,0.01543
2550.49308,0.01529
2548.43291,0.01474
2546.37274,0.01444
2544.31256,0.01464
2542.25239,0.01488
2540.19222,0.01475
2538.13205,0.01460
2536.07188,0.01443
2534.01170,0.01367
2531.95153,0.01305
2529.89136,0.01329
2527.83119,0.01365
2525.77102,0.01356
2523.71084,0.01345
2521.65067,0.01357
2519.59050,0.01358
2517.53033,0.01331
2515.47015,0.01297
2513.40998,0.01293
2511.34981,0.01319
2509.28964,0.01333
2507.22947,0.01323
2505.16929,0.01327
2503.10912,0.01357
2501.04895,0.01381
2498.98878,0.01382
2496.92861,0.01377
2494.86843,0.01364
2492.80826,0.01319
2490.74809,0.01261
2488.68792,0.01239
2486.62775,0.01255
2484.56757,0.01255
2482.50740,0.01246
2480.44723,0.01248
2478.38706,0.01220
2476.32688,0.01182
2474.26671,0.01160
2472.20654,0.01186
2470.14637,0.01237
2468.08620,0.01229
2466.02602,0.01190
2463.96585,0.01168
2461.90568,0.01182
2459.84551,0.01250
2457.78534,0.01310
2455.72516,0.01302
2453.66499,0.01267
2451.60482,0.01248
2449.54465,0.01237
2447.48447,0.01236
2445.42430,0.01227
2443.36413,0.01192
2441.30396,0.01161
2439.24379,0.01160
2437.18361,0.01163
2435.12344,0.01121
2433.06327,0.01091
2431.00310,0.01119
2428.94293,0.01155
2426.88275,0.01150
2424.82258,0.01087
2422.76241,0.01022
2420.70224,0.01036
2418.64207,0.01112
2416.58189,0.01158
2414.52172,0.01154
2412.46155,0.01125
2410.40138,0.01084
2408.34120,0.01052
2406.28103,0.01060
2404.22086,0.01098
2402.16069,0.01122
2400.10052,0.01144
2398.04034,0.01169
2395.98017,0.01155
2393.92000,0.01110
2391.85983,0.01070
2389.79966,0.01037
2387.73948,0.01013
2385.67931,0.01020
2383.61914,0.01073
2381.55897,0.01152
2379.49880,0.01217
2377.43862,0.01244
2375.37845,0.01243
2373.31828,0.01167
2371.25811,0.01127
2369.19793,0.01267
2367.13776,0.01306
2365.07759,0.01105
2363.01742,0.01101
2360.95725,0.01210
2358.89707,0.01317
2356.83690,0.01282
2354.77673,0.01197
2352.71656,0.01160
2350.65639,0.00940
2348.59621,0.00793
2346.53604,0.01087
2344.47587,0.01180
2342.41570,0.01079
2340.35552,0.00949
2338.29535,0.00874
2336.23518,0.00920
2334.17501,0.00974
2332.11484,0.01010
2330.05466,0.01046
2327.99449,0.01104
2325.93432,0.01080
2323.87415,0.01077
2321.81398,0.01049
2319.75380,0.01030
2317.69363,0.00974
2315.63346,0.00947
2313.57329,0.00929
2311.51312,0.00932
2309.45294,0.00981
2307.39277,0.01022
2305.33260,0.01007
2303.27243,0.00954
2301.21225,0.00948
2299.15208,0.00999
2297.09191,0.01038
2295.03174,0.01013
2292.97157,0.00980
2290.91139,0.01007
2288.85122,0.01054
2286.79105,0.01079
2284.73088,0.01081
2282.67071,0.01049
2280.61053,0.00995
2278.55036,0.00961
2276.49019,0.00950
2274.43002,0.00936
2272.36984,0.00906
2270.30967,0.00828
2268.24950,0.00730
2266.18933,0.00717
2264.12916,0.00825
2262.06898,0.00921
2260.00881,0.00856
2257.94864,0.00714
2255.88847,0.00706
2253.82830,0.00798
2251.76812,0.00808
2249.70795,0.00743
2247.64778,0.00755
2245.58761,0.00873
2243.52744,0.00942
2241.46726,0.00883
2239.40709,0.00839
2237.34692,0.00893
2235.28675,0.00976
2233.22657,0.01002
2231.16640,0.00842
2229.10623,0.00599
2227.04606,0.00585
2224.98589,0.00719
2222.92571,0.00723
2220.86554,0.00716
2218.80537,0.00868
2216.74520,0.00981
2214.68503,0.00935
2212.62485,0.00920
2210.56468,0.00925
2208.50451,0.00853
2206.44434,0.00910
2204.38417,0.01042
2202.32399,0.00947
2200.26382,0.00768
2198.20365,0.00698
2196.14348,0.00652
2194.08330,0.00608
2192.02313,0.00515
2189.96296,0.00324
2187.90279,0.00197
2185.84262,0.00286
2183.78244,0.00455
2181.72227,0.00560
2179.66210,0.00665
2177.60193,0.00679
2175.54176,0.00578
2173.48158,0.00565
2171.42141,0.00633
2169.36124,0.00741
2167.30107,0.00791
2165.24089,0.00544
2163.18072,0.00181
2161.12055,0.00094
2159.06038,0.00227
2157.00021,0.00300
2154.94003,0.00331
2152.87986,0.00385
2150.81969,0.00390
2148.75952,0.00488
2146.69935,0.00744
2144.63917,0.00851
2142.57900,0.00709
2140.51883,0.00539
2138.45866,0.00396
2136.39849,0.00294
2134.33831,0.00381
2132.27814,0.00596
2130.21797,0.00704
2128.15780,0.00683
2126.09762,0.00678
2124.03745,0.00695
2121.97728,0.00671
2119.91711,0.00662
2117.85694,0.00693
2115.79676,0.00728
2113.73659,0.00772
2111.67642,0.00799
2109.61625,0.00769
2107.55608,0.00682
2105.49590,0.00652
2103.43573,0.00786
2101.37556,0.00913
2099.31539,0.00836
2097.25521,0.00640
2095.19504,0.00496
2093.13487,0.00426
2091.07470,0.00423
2089.01453,0.00524
2086.95435,0.00627
2084.89418,0.00604
2082.83401,0.00550
2080.77384,0.00614
2078.71367,0.00754
2076.65349,0.00832
2074.59332,0.00824
2072.53315,0.00820
2070.47298,0.00825
2068.41281,0.00813
2066.35263,0.00792
2064.29246,0.00687
2062.23229,0.00556
2060.17212,0.00546
2058.11194,0.00610
2056.05177,0.00688
2053.99160,0.00746
2051.93143,0.00734
2049.87126,0.00662
2047.81108,0.00634
2045.75091,0.00732
2043.69074,0.00796
2041.63057,0.00646
2039.57040,0.00410
2037.51022,0.00280
2035.45005,0.00198
2033.38988,0.00112
2031.32971,0.00189
2029.26954,0.00340
2027.20936,0.00226
2025.14919,0.00000
2023.08902,0.00033
2021.02885,0.00312
2018.96867,0.00604
2016.90850,0.00690
2014.84833,0.00581
2012.78816,0.00501
2010.72799,0.00460
2008.66781,0.00393
2006.60764,0.00420
2004.54747,0.00563
2002.48730,0.00640
2000.42713,0.00620
1998.36695,0.00606
1996.30678,0.00611
1994.24661,0.00620
1992.18644,0.00609
1990.12626,0.00601
1988.06609,0.00646
1986.00592,0.00599
1983.94575,0.00452
1981.88558,0.00382
1979.82540,0.00375
1977.76523,0.00368
1975.70506,0.00410
1973.64489,0.00461
1971.58472,0.00454
1969.52454,0.00378
1967.46437,0.00282
1965.40420,0.00264
1963.34403,0.00293
1961.28386,0.00175
1959.22368,0.00000
1957.16351,0.00057
1955.10334,0.00312
1953.04317,0.00571
1950.98299,0.00674
1948.92282,0.00525
1946.86265,0.00304
1944.80248,0.00351
1942.74231,0.00625
1940.68213,0.00713
1938.62196,0.00573
1936.56179,0.00416
1934.50162,0.00344
1932.44145,0.00382
1930.38127,0.00456
1928.32110,0.00475
1926.26093,0.00482
1924.20076,0.00567
1922.14059,0.00613
1920.08041,0.00552
1918.02024,0.00467
1915.96007,0.00364
1913.89990,0.00342
1911.83972,0.00412
1909.77955,0.00470
1907.71938,0.00416
1905.65921,0.00300
1903.59904,0.00255
1901.53886,0.00290
1899.47869,0.00337
1897.41852,0.00369
1895.35835,0.00360
1893.29818,0.00290
1891.23800,0.00254
1889.17783,0.00264
1887.11766,0.00272
1885.05749,0.00307
1882.99731,0.00350
1880.93714,0.00403
1878.87697,0.00439
1876.81680,0.00412
1874.75663,0.00323
1872.69645,0.00221
1870.63628,0.00215
1868.57611,0.00268
1866.51594,0.00238
1864.45577,0.00212
1862.39559,0.00257
1860.33542,0.00282
1858.27525,0.00260
1856.21508,0.00255
1854.15491,0.00273
1852.09473,0.00263
1850.03456,0.00212
1847.97439,0.00150
1845.91422,0.00162
1843.85404,0.00190
1841.79387,0.00131
1839.73370,0.00135
1837.67353,0.00177
1835.61336,0.00146
1833.55318,0.00118
1831.49301,0.00192
1829.43284,0.00248
1827.37267,0.00241
1825.31250,0.00282
1823.25232,0.00265
1821.19215,0.00201
1819.13198,0.00178
1817.07181,0.00180
1815.01163,0.00182
1812.95146,0.00192
1810.89129,0.00173
1808.83112,0.00104
1806.77095,0.00052
1804.71077,0.00047
1802.65060,0.00090
1800.59043,0.00127
1798.53026,0.00075
1796.47009,0.00000
1794.40991,0.00035
1792.34974,0.00151
1790.28957,0.00149
1788.22940,0.00096
1786.16923,0.00078
1784.10905,0.00043
1782.04888,0.00037
1779.98871,0.00051
1777.92854,0.00024
1775.86836,0.00028
1773.80819,0.00093
1771.74802,0.00113
1769.68785,0.00077
1767.62768,0.00090
1765.56750,0.00111
1763.50733,0.00225
1761.44716,0.00375
1759.38699,0.00468
1757.32682,0.00609
1755.26664,0.00725
1753.20647,0.00902
1751.14630,0.01215
1749.08613,0.01458
1747.02596,0.01584
1744.96578,0.01702
1742.90561,0.01823
1740.84544,0.01909
1738.78527,0.01874
1736.72509,0.01844
1734.66492,0.01976
1732.60475,0.01956
1730.54458,0.01861
1728.48441,0.01845
1726.42423,0.01849
1724.36406,0.01855
1722.30389,0.01787
1720.24372,0.01770
1718.18355,0.01894
1716.12337,0.01922
1714.06320,0.01856
1712.00303,0.01809
1709.94286,0.01794
1707.88268,0.01820
1705.82251,0.01810
1703.76234,0.01676
1701.70217,0.01653
1699.64200,0.01668
1697.58182,0.01688
1695.52165,0.01839
1693.46148,0.01865
1691.40131,0.01940
1689.34114,0.02071
1687.28096,0.02219
1685.22079,0.02601
1683.16062,0.02933
1681.10045,0.03022
1679.04028,0.03136
1676.98010,0.03376
1674.91993,0.03576
1672.85976,0.03575
1670.79959,0.03617
1668.73941,0.03599
1666.67924,0.03435
1664.61907,0.03396
1662.55890,0.03391
1660.49873,0.03206
1658.43855,0.02994
1656.37838,0.02955
1654.31821,0.03171
1652.25804,0.03163
1650.19787,0.02930
1648.13769,0.03056
1646.07752,0.03204
1644.01735,0.03098
1641.95718,0.03029
1639.89701,0.03041
1637.83683,0.03210
1635.77666,0.03494
1633.71649,0.03508
1631.65632,0.03438
1629.59614,0.03514
1627.53597,0.03597
1625.47580,0.03650
1623.41563,0.03699
1621.35546,0.03604
1619.29528,0.03602
1617.23511,0.03813
1615.17494,0.03898
1613.11477,0.03917
1611.05460,0.04075
1608.99442,0.04282
1606.93425,0.04415
1604.87408,0.04461
1602.81391,0.04424
1600.75373,0.04284
1598.69356,0.04086
1596.63339,0.03908
1594.57322,0.03762
1592.51305,0.03627
1590.45287,0.03508
1588.39270,0.03404
1586.33253,0.03305
1584.27236,0.03179
1582.21219,0.02999
1580.15201,0.02822
1578.09184,0.02801
1576.03167,0.02803
1573.97150,0.02596
1571.91133,0.02505
1569.85115,0.02535
1567.79098,0.02373
1565.73081,0.02182
1563.67064,0.02025
1561.61046,0.02005
1559.55029,0.02116
1557.49012,0.01798
1555.42995,0.01518
1553.36978,0.01491
1551.30960,0.01481
1549.24943,0.01362
1547.18926,0.01180
1545.12909,0.01109
1543.06892,0.01119
1541.00874,0.01149
1538.94857,0.00943
1536.88840,0.00678
1534.82823,0.00749
1532.76805,0.00802
1530.70788,0.00640
1528.64771,0.00588
1526.58754,0.00577
1524.52737,0.00549
1522.46719,0.00723
1520.40702,0.00905
1518.34685,0.01035
1516.28668,0.01216
1514.22651,0.01247
1512.16633,0.01148
1510.10616,0.01044
1508.04599,0.01036
1505.98582,0.00805
1503.92565,0.00404
1501.86547,0.00277
1499.80530,0.00345
1497.74513,0.00366
1495.68496,0.00199
1493.62478,0.00000
1491.56461,0.00024
1489.50444,0.00124
1487.44427,0.00089
1485.38410,0.00031
1483.32392,0.00051
1481.26375,0.00100
1479.20358,0.00117
1477.14341,0.00205
1475.08324,0.00447
1473.02306,0.00796
1470.96289,0.00987
1468.90272,0.01098
1466.84255,0.01384
1464.78238,0.01680
1462.72220,0.01735
1460.66203,0.01780
1458.60186,0.02049
1456.54169,0.02269
1454.48151,0.02227
1452.42134,0.02230
1450.36117,0.02359
1448.30100,0.02529
1446.24083,0.02638
1444.18065,0.02704
1442.12048,0.02767
1440.06031,0.02830
1438.00014,0.02978
1435.93997,0.03085
1433.87979,0.03063
1431.81962,0.03119
1429.75945,0.03188
1427.69928,0.03164
1425.63910,0.03161
1423.57893,0.03161
1421.51876,0.03180
1419.45859,0.03291
1417.39842,0.03288
1415.33824,0.03220
1413.27807,0.03218
1411.21790,0.03198
1409.15773,0.03097
1407.09756,0.02996
1405.03738,0.02894
1402.97721,0.02722
1400.91704,0.02610
1398.85687,0.02573
1396.79670,0.02515
1394.73652,0.02456
1392.67635,0.02366
1390.61618,0.02332
1388.55601,0.02419
1386.49583,0.02505
1384.43566,0.02552
1382.37549,0.02640
1380.31532,0.02739
1378.25515,0.02803
1376.19497,0.02868
1374.13480,0.02921
1372.07463,0.02898
1370.01446,0.02880
1367.95429,0.02859
1365.89411,0.02819
1363.83394,0.02822
1361.77377,0.02782
1359.71360,0.02688
1357.65343,0.02642
1355.59325,0.02633
1353.53308,0.02631
1351.47291,0.02651
1349.41274,0.02671
1347.35256,0.02652
1345.29239,0.02610
1343.23222,0.02575
1341.17205,0.02574
1339.11188,0.02563
1337.05170,0.02515
1334.99153,0.02492
1332.93136,0.02504
1330.87119,0.02532
1328.81102,0.02578
1326.75084,0.02629
1324.69067,0.02643
1322.63050,0.02608
1320.57033,0.02558
1318.51015,0.02526
1316.44998,0.02518
1314.38981,0.02535
1312.32964,0.02527
1310.26947,0.02464
1308.20929,0.02399
1306.14912,0.02346
1304.08895,0.02278
1302.02878,0.02186
1299.96861,0.02098
1297.90843,0.02040
1295.84826,0.02017
1293.78809,0.02026
1291.72792,0.02052
1289.66775,0.02083
1287.60757,0.02130
1285.54740,0.02187
1283.48723,0.02221
1281.42706,0.02225
1279.36688,0.02247
1277.30671,0.02300
1275.24654,0.02319
1273.18637,0.02295
1271.12620,0.02306
1269.06602,0.02384
1267.00585,0.02490
1264.94568,0.02601
1262.88551,0.02722
1260.82534,0.02848
1258.76516,0.02918
1256.70499,0.02936
1254.64482,0.02990
1252.58465,0.03089
1250.52447,0.03162
1248.46430,0.03194
1246.40413,0.03223
1244.34396,0.03253
1242.28379,0.03252
1240.22361,0.03226
1238.16344,0.03199
1236.10327,0.03156
1234.04310,0.03086
1231.98293,0.03007
1229.92275,0.02912
1227.86258,0.02787
1225.80241,0.02656
1223.74224,0.02526
1221.68207,0.02369
1219.62189,0.02184
1217.56172,0.02010
1215.50155,0.01860
1213.44138,0.01715
1211.38120,0.01572
1209.32103,0.01429
1207.26086,0.01276
1205.20069,0.01132
1203.14052,0.00998
1201.08034,0.00845
1199.02017,0.00668
1196.96000,0.00482
1194.89983,0.00316
1192.83966,0.00185
1190.77948,0.00081
1188.71931,0.00016
1186.65914,0.00000
1184.59897,0.00010
1182.53880,0.00050
1180.47862,0.00123
1178.41845,0.00231
1176.35828,0.00396
1174.29811,0.00635
1172.23793,0.00930
1170.17776,0.01223
1168.11759,0.01436
1166.05742,0.01547
1163.99725,0.01626
1161.93707,0.01717
1159.87690,0.01804
1157.81673,0.01881
1155.75656,0.01942
1153.69639,0.02006
1151.63621,0.02123
1149.57604,0.02265
1147.51587,0.02375
1145.45570,0.02491
1143.39552,0.02636
1141.33535,0.02759
1139.27518,0.02854
1137.21501,0.02938
1135.15484,0.03021
1133.09466,0.03123
1131.03449,0.03227
1128.97432,0.03302
1126.91415,0.03397
1124.85398,0.03558
1122.79380,0.03739
1120.73363,0.03893
1118.67346,0.04049
1116.61329,0.04217
1114.55312,0.04365
1112.49294,0.04491
1110.43277,0.04608
1108.37260,0.04734
1106.31243,0.04891
1104.25225,0.05054
1102.19208,0.05204
1100.13191,0.05387
1098.07174,0.05608
1096.01157,0.05831
1093.95139,0.06084
1091.89122,0.06356
1089.83105,0.06571
1087.77088,0.06750
1085.71071,0.06950
1083.65053,0.07158
1081.59036,0.07376
1079.53019,0.07621
1077.47002,0.07898
1075.40985,0.08201
1073.34967,0.08482
1071.28950,0.08729
1069.22933,0.08955
1067.16916,0.09138
1065.10898,0.09283
1063.04881,0.09408
1060.98864,0.09527
1058.92847,0.09689
1056.86830,0.09923
1054.80812,0.10182
1052.74795,0.10401
1050.68778,0.10633
1048.62761,0.10949
1046.56744,0.11297
1044.50726,0.11622
1042.44709,0.11926
1040.38692,0.12190
1038.32675,0.12387
1036.26657,0.12520
1034.20640,0.12599
1032.14623,0.12661
1030.08606,0.12725
1028.02589,0.12751
1025.96571,0.12717
1023.90554,0.12632
1021.84537,0.12554
1019.78520,0.12524
1017.72503,0.12518
1015.66485,0.12486
1013.60468,0.12445
1011.54451,0.12473
1009.48434,0.12537
1007.42417,0.12553
1005.36399,0.12530
1003.30382,0.12457
1001.24365,0.12309
999.18348,0.12136
997.12330,0.11939
995.06313,0.11719
993.00296,0.11523
990.94279,0.11361
988.88262,0.11205
986.82244,0.11003
984.76227,0.10782
982.70210,0.10595
980.64193,0.10405
978.58176,0.10197
976.52158,0.10002
974.46141,0.09824
972.40124,0.09655
970.34107,0.09473
968.28089,0.09260
966.22072,0.09047
964.16055,0.08837
962.10038,0.08608
960.04021,0.08399
957.98003,0.08210
955.91986,0.07987
953.85969,0.07765
951.79952,0.07607
949.73935,0.07465
947.67917,0.07301
945.61900,0.07106
943.55883,0.06830
941.49866,0.06508
939.43849,0.06163
937.37831,0.05769
935.31814,0.05352
933.25797,0.04947
931.19780,0.04582
929.13762,0.04270
927.07745,0.04005
925.01728,0.03760
922.95711,0.03507
920.89694,0.03248
918.83676,0.03019
916.77659,0.02860
914.71642,0.02726
912.65625,0.02521
910.59608,0.02275
908.53590,0.02101
906.47573,0.01992
904.41556,0.01875
902.35539,0.01787
900.29522,0.01797
898.23504,0.01861
896.17487,0.01876
894.11470,0.01847
892.05453,0.01848
889.99435,0.01840
887.93418,0.01800
885.87401,0.01723
883.81384,0.01563
881.75367,0.01372
879.69349,0.01226
877.63332,0.01141
875.57315,0.01089
873.51298,0.01049
871.45281,0.01015
869.39263,0.00958
867.33246,0.00858
865.27229,0.00759
863.21212,0.00718
861.15194,0.00705
859.09177,0.00683
857.03160,0.00693
854.97143,0.00717
852.91126,0.00671
850.85108,0.00606
848.79091,0.00602
846.73074,0.00615
844.67057,0.00629
842.61040,0.00638
840.55022,0.00630
838.49005,0.00633
836.42988,0.00602
834.36971,0.00535
832.30954,0.00515
830.24936,0.00500
828.18919,0.00389
826.12902,0.00234
824.06885,0.00177
822.00867,0.00221
819.94850,0.00271
817.88833,0.00214
815.82816,0.00106
813.76799,0.00107
811.70781,0.00144
809.64764,0.00116
807.58747,0.00082
805.52730,0.00122
803.46713,0.00242
801.40695,0.00341
799.34678,0.00330
797.28661,0.00232
795.22644,0.00131
793.16627,0.00074
791.10609,0.00030
789.04592,0.00000
786.98575,0.00009
784.92558,0.00024
782.86540,0.00043
780.80523,0.00032
778.74506,0.00023
776.68489,0.00078
774.62472,0.00097
772.56454,0.00094
770.50437,0.00160
768.44420,0.00201
766.38403,0.00190
764.32386,0.00211
762.26368,0.00229
760.20351,0.00205
758.14334,0.00159
756.08317,0.00092
754.02299,0.00011
751.96282,0.00000
749.90265,0.00093
747.84248,0.00213
745.78231,0.00218
743.72213,0.00086
741.66196,-0.00037
739.60179,-0.00046
737.54162,-0.00038
735.48145,0.00018
733.42127,0.00164
731.36110,0.00196
729.30093,0.00080
727.24076,0.00028
725.18059,0.00089
723.12041,0.00181
721.06024,0.00321
719.00007,0.00379
716.93990,0.00351
714.87972,0.00286
712.81955,0.00244
710.75938,0.00277
708.69921,0.00428
706.63904,0.00708
704.57886,0.01002
702.51869,0.01133
700.45852,0.01119
698.39835,0.01142
696.33818,0.01206
694.27800,0.01145
692.21783,0.00968
690.15766,0.00846
688.09749,0.00779
686.03731,0.00652
683.97714,0.00515
681.91697,0.00487
679.85680,0.00539
677.79663,0.00563
675.73645,0.00593
673.67628,0.00599
671.61611,0.00413
669.55594,0.00622
667.49577,0.01162
665.43559,0.00777
663.37542,0.00717
661.31525,0.00832
659.25508,0.00984
657.19491,0.00935
655.13473,0.00614
653.07456,0.00180
651.01439,-0.00049
648.95422,0.00121
646.89404,0.00485
644.83387,0.00810
642.77370,0.00938
640.71353,0.00856
638.65336,0.00660
636.59318,0.00638
634.53301,0.00915
632.47284,0.01110
630.41267,0.01010
628.35250,0.00801
626.29232,0.00562
624.23215,0.00336
622.17198,0.00350
620.11181,0.00643
618.05164,0.01135
615.99146,0.01454
613.93129,0.01445
611.87112,0.01444
609.81095,0.01394
607.75077,0.01272
605.69060,0.01351
603.63043,0.01175
601.57026,0.00515
599.51009,0.00000
