3996.73391,0.00087
3994.67373,0.00165
3992.61356,0.00191
3990.55339,0.00170
3988.49322,0.00146
3986.43305,0.00128
3984.37287,0.00108
3982.31270,0.00092
3980.25253,0.00109
3978.19236,0.00127
3976.13219,0.00106
3974.07201,0.00078
3972.01184,0.00060
3969.95167,0.00034
3967.89150,0.00005
3965.83133,0.00000
3963.77115,0.00017
3961.71098,0.00047
3959.65081,0.00085
3957.59064,0.00128
3955.53046,0.00172
3953.47029,0.00180
3951.41012,0.00148
3949.34995,0.00140
3947.28978,0.00198
3945.22960,0.00220
3943.16943,0.00161
3941.10926,0.00148
3939.04909,0.00188
3936.98892,0.00190
3934.92874,0.00130
3932.86857,0.00062
3930.80840,0.00085
3928.74823,0.00178
3926.68805,0.00211
3924.62788,0.00173
3922.56771,0.00143
3920.50754,0.00125
3918.44737,0.00138
3916.38719,0.00187
3914.32702,0.00215
3912.26685,0.00198
3910.20668,0.00199
3908.14651,0.00209
3906.08633,0.00185
3904.02616,0.00212
3901.96599,0.00274
3899.90582,0.00216
3897.84565,0.00145
3895.78547,0.00129
3893.72530,0.00077
3891.66513,0.00066
3889.60496,0.00173
3887.54478,0.00159
3885.48461,0.00085
3883.42444,0.00151
3881.36427,0.00153
3879.30410,0.00164
3877.24392,0.00205
3875.18375,0.00146
3873.12358,0.00117
3871.06341,0.00104
3869.00324,0.00154
3866.94306,0.00180
3864.88289,0.00054
3862.82272,0.00043
3860.76255,0.00196
3858.70237,0.00332
3856.64220,0.00266
3854.58203,0.00007
3852.52186,0.00000
3850.46169,0.00250
3848.40151,0.00339
3846.34134,0.00267
3844.28117,0.00193
3842.22100,0.00198
3840.16083,0.00173
3838.10065,0.00128
3836.04048,0.00211
3833.98031,0.00318
3831.92014,0.00348
3829.85997,0.00325
3827.79979,0.00247
3825.73962,0.00250
3823.67945,0.00287
3821.61928,0.00260
3819.55910,0.00332
3817.49893,0.00274
3815.43876,0.00178
3813.37859,0.00238
3811.31842,0.00232
3809.25824,0.00124
3807.19807,0.00076
3805.13790,0.00170
3803.07773,0.00155
3801.01756,0.00160
3798.95738,0.00240
3796.89721,0.00138
3794.83704,0.00097
3792.77687,0.00176
3790.71670,0.00239
3788.65652,0.00256
3786.59635,0.00199
3784.53618,0.00151
3782.47601,0.00169
3780.41583,0.00159
3778.35566,0.00185
3776.29549,0.00247
3774.23532,0.00237
3772.17515,0.00171
3770.11497,0.00143
3768.05480,0.00203
3765.99463,0.00225
3763.93446,0.00229
3761.87429,0.00175
3759.81411,0.00084
3757.75394,0.00127
3755.69377,0.00244
3753.63360,0.00240
3751.57342,0.00186
3749.51325,0.00321
3747.45308,0.00429
3745.39291,0.00246
3743.33274,0.00171
3741.27256,0.00305
3739.21239,0.00356
3737.15222,0.00283
3735.09205,0.00238
3733.03188,0.00306
3730.97170,0.00385
3728.91153,0.00378
3726.85136,0.00291
3724.79119,0.00275
3722.73102,0.00302
3720.67084,0.00290
3718.61067,0.00286
3716.55050,0.00343
3714.49033,0.00356
3712.43015,0.00273
3710.36998,0.00251
3708.30981,0.00312
3706.24964,0.00304
3704.18947,0.00154
3702.12929,0.00000
3700.06912,0.00041
3698.00895,0.00163
3695.94878,0.00243
3693.88861,0.00275
3691.82843,0.00206
3689.76826,0.00117
3687.70809,0.00171
3685.64792,0.00240
3683.58775,0.00198
3681.52757,0.00165
3679.46740,0.00170
3677.40723,0.00092
3675.34706,0.00097
3673.28688,0.00337
3671.22671,0.00342
3669.16654,0.00247
3667.10637,0.00306
3665.04620,0.00309
3662.98602,0.00209
3660.92585,0.00125
3658.86568,0.00086
3656.80551,0.00090
3654.74534,0.00237
3652.68516,0.00321
3650.62499,0.00198
3648.56482,0.00155
3646.50465,0.00304
3644.44447,0.00429
3642.38430,0.00418
3640.32413,0.00388
3638.26396,0.00401
3636.20379,0.00410
3634.14361,0.00389
3632.08344,0.00313
3630.02327,0.00129
3627.96310,0.00142
3625.90293,0.00385
3623.84275,0.00489
3621.78258,0.00412
3619.72241,0.00307
3617.66224,0.00346
3615.60207,0.00443
3613.54189,0.00514
3611.48172,0.00594
3609.42155,0.00601
3607.36138,0.00580
3605.30120,0.00599
3603.24103,0.00592
3601.18086,0.00600
3599.12069,0.00673
3597.06052,0.00694
3595.00034,0.00639
3592.94017,0.00650
3590.88000,0.00662
3588.81983,0.00546
3586.75966,0.00505
3584.69948,0.00651
3582.63931,0.00777
3580.57914,0.00848
3578.51897,0.00906
3576.45879,0.00921
3574.39862,0.00926
3572.33845,0.00978
3570.27828,0.01006
3568.21811,0.00970
3566.15793,0.01038
3564.09776,0.01205
3562.03759,0.01260
3559.97742,0.01226
3557.91725,0.01228
3555.85707,0.01273
3553.79690,0.01313
3551.73673,0.01362
3549.67656,0.01440
3547.61639,0.01477
3545.55621,0.01458
3543.49604,0.01469
3541.43587,0.01537
3539.37570,0.01580
3537.31552,0.01576
3535.25535,0.01604
3533.19518,0.01642
3531.13501,0.01622
3529.07484,0.01604
3527.01466,0.01653
3524.95449,0.01723
3522.89432,0.01779
3520.83415,0.01833
3518.77398,0.01876
3516.71380,0.01935
3514.65363,0.01988
3512.59346,0.01994
3510.53329,0.01998
3508.47312,0.02051
3506.41294,0.02097
3504.35277,0.02098
3502.29260,0.02134
3500.23243,0.02193
3498.17225,0.02199
3496.11208,0.02207
3494.05191,0.02281
3491.99174,0.02382
3489.93157,0.02435
3487.87139,0.02431
3485.81122,0.02426
3483.75105,0.02435
3481.69088,0.02468
3479.63071,0.02558
3477.57053,0.02658
3475.51036,0.02716
3473.45019,0.02743
3471.39002,0.02778
3469.32984,0.02843
3467.26967,0.02898
3465.20950,0.02930
3463.14933,0.02950
3461.08916,0.02955
3459.02898,0.02962
3456.96881,0.03009
3454.90864,0.03064
3452.84847,0.03102
3450.78830,0.03126
3448.72812,0.03100
3446.66795,0.03091
3444.60778,0.03160
3442.54761,0.03247
3440.48744,0.03345
3438.42726,0.03377
3436.36709,0.03311
3434.30692,0.03280
3432.24675,0.03365
3430.18657,0.03469
3428.12640,0.03510
3426.06623,0.03551
3424.00606,0.03609
3421.94589,0.03616
3419.88571,0.03620
3417.82554,0.03668
3415.76537,0.03680
3413.70520,0.03666
3411.64503,0.03714
3409.58485,0.03835
3407.52468,0.03929
3405.46451,0.03936
3403.40434,0.03950
3401.34416,0.03995
3399.28399,0.04016
3397.22382,0.04046
3395.16365,0.04107
3393.10348,0.04146
3391.04330,0.04143
3388.98313,0.04125
3386.92296,0.04115
3384.86279,0.04113
3382.80262,0.04132
3380.74244,0.04169
3378.68227,0.04209
3376.62210,0.04233
3374.56193,0.04239
3372.50176,0.04249
3370.44158,0.04262
3368.38141,0.04293
3366.32124,0.04357
3364.26107,0.04386
3362.20089,0.04349
3360.14072,0.04324
3358.08055,0.04338
3356.02038,0.04363
3353.96021,0.04400
3351.90003,0.04448
3349.83986,0.04496
3347.77969,0.04518
3345.71952,0.04498
3343.65935,0.04461
3341.59917,0.04461
3339.53900,0.04508
3337.47883,0.04538
3335.41866,0.04524
3333.35849,0.04519
3331.29831,0.04537
3329.23814,0.04551
3327.17797,0.04551
3325.11780,0.04543
3323.05762,0.04542
3320.99745,0.04558
3318.93728,0.04588
3316.87711,0.04624
3314.81694,0.04634
3312.75676,0.04605
3310.69659,0.04592
3308.63642,0.04648
3306.57625,0.04708
3304.51608,0.04702
3302.45590,0.04679
3300.39573,0.04683
3298.33556,0.04684
3296.27539,0.04678
3294.21521,0.04693
3292.15504,0.04720
3290.09487,0.04722
3288.03470,0.04721
3285.97453,0.04742
3283.91435,0.04748
3281.85418,0.04717
3279.79401,0.04679
3277.73384,0.04641
3275.67367,0.04594
3273.61349,0.04597
3271.55332,0.04678
3269.49315,0.04753
3267.43298,0.04780
3265.37281,0.04781
3263.31263,0.04764
3261.25246,0.04742
3259.19229,0.04738
3257.13212,0.04750
3255.07194,0.04761
3253.01177,0.04766
3250.95160,0.04748
3248.89143,0.04706
3246.83126,0.04689
3244.77108,0.04714
3242.71091,0.04730
3240.65074,0.04714
3238.59057,0.04697
3236.53040,0.04674
3234.47022,0.04638
3232.41005,0.04618
3230.34988,0.04625
3228.28971,0.04632
3226.22954,0.04587
3224.16936,0.04515
3222.10919,0.04509
3220.04902,0.04554
3217.98885,0.04577
3215.92867,0.04569
3213.86850,0.04544
3211.80833,0.04512
3209.74816,0.04485
3207.68799,0.04464
3205.62781,0.04433
3203.56764,0.04393
3201.50747,0.04354
3199.44730,0.04330
3197.38713,0.04349
3195.32695,0.04383
3193.26678,0.04381
3191.20661,0.04344
3189.14644,0.04290
3187.08626,0.04238
3185.02609,0.04224
3182.96592,0.04262
3180.90575,0.04286
3178.84558,0.04251
3176.78540,0.04209
3174.72523,0.04199
3172.66506,0.04173
3170.60489,0.04111
3168.54472,0.04055
3166.48454,0.04038
3164.42437,0.04053
3162.36420,0.04055
3160.30403,0.04019
3158.24386,0.03965
3156.18368,0.03935
3154.12351,0.03953
3152.06334,0.03978
3150.00317,0.03960
3147.94299,0.03918
3145.88282,0.03890
3143.82265,0.03869
3141.76248,0.03857
3139.70231,0.03857
3137.64213,0.03820
3135.58196,0.03733
3133.52179,0.03671
3131.46162,0.03662
3129.40145,0.03664
3127.34127,0.03656
3125.28110,0.03635
3123.22093,0.03623
3121.16076,0.03615
3119.10058,0.03555
3117.04041,0.03456
3114.98024,0.03410
3112.92007,0.03431
3110.85990,0.03447
3108.79972,0.03422
3106.73955,0.03383
3104.67938,0.03351
3102.61921,0.03304
3100.55904,0.03256
3098.49886,0.03242
3096.43869,0.03254
3094.37852,0.03251
3092.31835,0.03224
3090.25818,0.03199
3088.19800,0.03169
3086.13783,0.03127
3084.07766,0.03110
3082.01749,0.03113
3079.95731,0.03102
3077.89714,0.03071
3075.83697,0.03016
3073.77680,0.02968
3071.71663,0.02976
3069.65645,0.03009
3067.59628,0.02994
3065.53611,0.02938
3063.47594,0.02889
3061.41577,0.02847
3059.35559,0.02810
3057.29542,0.02782
3055.23525,0.02777
3053.17508,0.02800
3051.11491,0.02809
3049.05473,0.02773
3046.99456,0.02722
3044.93439,0.02701
3042.87422,0.02698
3040.81404,0.02680
3038.75387,0.02651
3036.69370,0.02629
3034.63353,0.02601
3032.57336,0.02551
3030.51318,0.02504
3028.45301,0.02475
3026.39284,0.02430
3024.33267,0.02393
3022.27250,0.02409
3020.21232,0.02442
3018.15215,0.02439
3016.09198,0.02411
3014.03181,0.02383
3011.97163,0.02356
3009.91146,0.02329
3007.85129,0.02311
3005.79112,0.02315
3003.73095,0.02338
3001.67077,0.02326
2999.61060,0.02271
2997.55043,0.02226
2995.49026,0.02213
2993.43009,0.02226
2991.36991,0.02237
2989.30974,0.02208
2987.24957,0.02182
2985.18940,0.02199
2983.12923,0.02225
2981.06905,0.02255
2979.00888,0.02307
2976.94871,0.02341
2974.88854,0.02347
2972.82836,0.02355
2970.76819,0.02400
2968.70802,0.02501
2966.64785,0.02620
2964.58768,0.02721
2962.52750,0.02811
2960.46733,0.02913
2958.40716,0.03051
2956.34699,0.03207
2954.28682,0.03343
2952.22664,0.03478
2950.16647,0.03648
2948.10630,0.03812
2946.04613,0.03957
2943.98596,0.04143
2941.92578,0.04374
2939.86561,0.04613
2937.80544,0.04863
2935.74527,0.05118
2933.68509,0.05340
2931.62492,0.05508
2929.56475,0.05653
2927.50458,0.05805
2925.44441,0.05946
2923.38423,0.06083
2921.32406,0.06200
2919.26389,0.06227
2917.20372,0.06144
2915.14355,0.05982
2913.08337,0.05771
2911.02320,0.05547
2908.96303,0.05356
2906.90286,0.05215
2904.84268,0.05077
2902.78251,0.04912
2900.72234,0.04766
2898.66217,0.04646
2896.60200,0.04534
2894.54182,0.04434
2892.48165,0.04362
2890.42148,0.04307
2888.36131,0.04212
2886.30114,0.04084
2884.24096,0.03989
2882.18079,0.03921
2880.12062,0.03859
2878.06045,0.03828
2876.00028,0.03852
2873.94010,0.03915
2871.87993,0.03952
2869.81976,0.03966
2867.75959,0.03991
2865.69941,0.04024
2863.63924,0.04108
2861.57907,0.04281
2859.51890,0.04464
2857.45873,0.04607
2855.39855,0.04750
2853.33838,0.04888
2851.27821,0.04957
2849.21804,0.04918
2847.15787,0.04776
2845.09769,0.04529
2843.03752,0.04220
2840.97735,0.03971
2838.91718,0.03827
2836.85700,0.03699
2834.79683,0.03540
2832.73666,0.03403
2830.67649,0.03306
2828.61632,0.03211
2826.55614,0.03117
2824.49597,0.03051
2822.43580,0.03021
2820.37563,0.03008
2818.31546,0.02973
2816.25528,0.02918
2814.19511,0.02875
2812.13494,0.02832
2810.07477,0.02775
2808.01460,0.02719
2805.95442,0.02665
2803.89425,0.02616
2801.83408,0.02591
2799.77391,0.02597
2797.71373,0.02604
2795.65356,0.02582
2793.59339,0.02557
2791.53322,0.02547
2789.47305,0.02507
2787.41287,0.02450
2785.35270,0.02429
2783.29253,0.02419
2781.23236,0.02395
2779.17219,0.02377
2777.11201,0.02372
2775.05184,0.02375
2772.99167,0.02363
2770.93150,0.02321
2768.87133,0.02290
2766.81115,0.02296
2764.75098,0.02318
2762.69081,0.02328
2760.63064,0.02306
2758.57046,0.02255
2756.51029,0.02201
2754.45012,0.02169
2752.38995,0.02187
2750.32978,0.02234
2748.26960,0.02232
2746.20943,0.02199
2744.14926,0.02197
2742.08909,0.02212
2740.02892,0.02213
2737.96874,0.02203
2735.90857,0.02200
2733.84840,0.02212
2731.78823,0.02212
2729.72805,0.02185
2727.66788,0.02162
2725.60771,0.02161
2723.54754,0.02173
2721.48737,0.02183
2719.42719,0.02171
2717.36702,0.02152
2715.30685,0.02136
2713.24668,0.02117
2711.18651,0.02097
2709.12633,0.02074
2707.06616,0.02068
2705.00599,0.02083
2702.94582,0.02086
2700.88565,0.02079
2698.82547,0.02071
2696.76530,0.02070
2694.70513,0.02088
2692.64496,0.02108
2690.58478,0.02098
2688.52461,0.02076
2686.46444,0.02079
2684.40427,0.02086
2682.34410,0.02084
2680.28392,0.02078
2678.22375,0.02049
2676.16358,0.02014
2674.10341,0.02006
2672.04324,0.02013
2669.98306,0.02004
2667.92289,0.01973
2665.86272,0.01943
2663.80255,0.01934
2661.74238,0.01948
2659.68220,0.01975
2657.62203,0.01985
2655.56186,0.01969
2653.50169,0.01956
2651.44151,0.01940
2649.38134,0.01904
2647.32117,0.01880
2645.26100,0.01893
2643.20083,0.01916
2641.14065,0.01917
2639.08048,0.01915
2637.02031,0.01924
2634.96014,0.01903
2632.89997,0.01869
2630.83979,0.01854
2628.77962,0.01825
2626.71945,0.01817
2624.65928,0.01862
2622.59910,0.01889
2620.53893,0.01863
2618.47876,0.01810
2616.41859,0.01780
2614.35842,0.01805
2612.29824,0.01828
2610.23807,0.01811
2608.17790,0.01786
2606.11773,0.01775
2604.05756,0.01755
2601.99738,0.01722
2599.93721,0.01711
2597.87704,0.01699
2595.81687,0.01677
2593.75670,0.01667
2591.69652,0.01669
2589.63635,0.01681
2587.57618,0.01685
2585.51601,0.01668
2583.45583,0.01623
2581.39566,0.01582
2579.33549,0.01582
2577.27532,0.01580
2575.21515,0.01552
2573.15497,0.01548
2571.09480,0.01556
2569.03463,0.01535
2566.97446,0.01499
2564.91429,0.01477
2562.85411,0.01461
2560.79394,0.01437
2558.73377,0.01425
2556.67360,0.01451
2554.61342,0.01513
2552.55325,0.01554
2550.49308,0.01550
2548.43291,0.01550
2546.37274,0.01570
2544.31256,0.01573
2542.25239,0.01529
2540.19222,0.01470
2538.13205,0.01427
2536.07188,0.01397
2534.01170,0.01412
2531.95153,0.01461
2529.89136,0.01468
2527.83119,0.01426
2525.77102,0.01370
2523.71084,0.01308
2521.65067,0.01307
2519.59050,0.01383
2517.53033,0.01426
2515.47015,0.01399
2513.40998,0.01375
2511.34981,0.01361
2509.28964,0.01347
2507.22947,0.01349
2505.16929,0.01398
2503.10912,0.01490
2501.04895,0.01516
2498.98878,0.01453
2496.92861,0.01387
2494.86843,0.01356
2492.80826,0.01349
2490.74809,0.01335
2488.68792,0.01328
2486.62775,0.01364
2484.56757,0.01402
2482.50740,0.01368
2480.44723,0.01322
2478.38706,0.01368
2476.32688,0.01435
2474.26671,0.01424
2472.20654,0.01360
2470.14637,0.01309
2468.08620,0.01293
2466.02602,0.01298
2463.96585,0.01322
2461.90568,0.01323
2459.84551,0.01270
2457.78534,0.01224
2455.72516,0.01234
2453.66499,0.01280
2451.60482,0.01313
2449.54465,0.01310
2447.48447,0.01309
2445.42430,0.01337
2443.36413,0.01343
2441.30396,0.01304
2439.24379,0.01279
2437.18361,0.01289
2435.12344,0.01296
2433.06327,0.01279
2431.00310,0.01219
2428.94293,0.01172
2426.88275,0.01216
2424.82258,0.01250
2422.76241,0.01209
2420.70224,0.01191
2418.64207,0.01213
2416.58189,0.01207
2414.52172,0.01188
2412.46155,0.01193
2410.40138,0.01194
2408.34120,0.01160
2406.28103,0.01132
2404.22086,0.01135
2402.16069,0.01144
2400.10052,0.01140
2398.04034,0.01131
2395.98017,0.01101
2393.92000,0.01084
2391.85983,0.01131
2389.79966,0.01200
2387.73948,0.01227
2385.67931,0.01216
2383.61914,0.01214
2381.55897,0.01237
2379.49880,0.01250
2377.43862,0.01244
2375.37845,0.01285
2373.31828,0.01393
2371.25811,0.01491
2369.19793,0.01510
2367.13776,0.01496
2365.07759,0.01797
2363.01742,0.02486
2360.95725,0.02634
2358.89707,0.01766
2356.83690,0.00875
2354.77673,0.00783
2352.71656,0.01159
2350.65639,0.01417
2348.59621,0.01467
2346.53604,0.01430
2344.47587,0.01328
2342.41570,0.01214
2340.35552,0.01206
2338.29535,0.01270
2336.23518,0.01313
2334.17501,0.01280
2332.11484,0.01239
2330.05466,0.01317
2327.99449,0.01431
2325.93432,0.01387
2323.87415,0.01210
2321.81398,0.01064
2319.75380,0.00985
2317.69363,0.00938
2315.63346,0.00964
2313.57329,0.01065
2311.51312,0.01150
2309.45294,0.01168
2307.39277,0.01154
2305.33260,0.01150
2303.27243,0.01162
2301.21225,0.01184
2299.15208,0.01203
2297.09191,0.01192
2295.03174,0.01146
2292.97157,0.01108
2290.91139,0.01116
2288.85122,0.01147
2286.79105,0.01158
2284.73088,0.01134
2282.67071,0.01078
2280.61053,0.01019
2278.55036,0.01015
2276.49019,0.01037
2274.43002,0.00998
2272.36984,0.00917
2270.30967,0.00874
2268.24950,0.00875
2266.18933,0.00859
2264.12916,0.00812
2262.06898,0.00777
2260.00881,0.00792
2257.94864,0.00872
2255.88847,0.00956
2253.82830,0.01001
2251.76812,0.01032
2249.70795,0.01009
2247.64778,0.00942
2245.58761,0.00899
2243.52744,0.00805
2241.46726,0.00694
2239.40709,0.00675
2237.34692,0.00734
2235.28675,0.00808
2233.22657,0.00857
2231.16640,0.00877
2229.10623,0.00891
2227.04606,0.00879
2224.98589,0.00868
2222.92571,0.00882
2220.86554,0.00879
2218.80537,0.00873
2216.74520,0.00835
2214.68503,0.00799
2212.62485,0.00860
2210.56468,0.00889
2208.50451,0.00761
2206.44434,0.00740
2204.38417,0.00993
2202.32399,0.01132
2200.26382,0.00961
2198.20365,0.00783
2196.14348,0.00830
2194.08330,0.01000
2192.02313,0.01037
2189.96296,0.00966
2187.90279,0.00948
2185.84262,0.00899
2183.78244,0.00777
2181.72227,0.00618
2179.66210,0.00424
2177.60193,0.00286
2175.54176,0.00331
2173.48158,0.00524
2171.42141,0.00602
2169.36124,0.00475
2167.30107,0.00347
2165.24089,0.00343
2163.18072,0.00399
2161.12055,0.00492
2159.06038,0.00541
2157.00021,0.00387
2154.94003,0.00288
2152.87986,0.00379
2150.81969,0.00390
2148.75952,0.00287
2146.69935,0.00269
2144.63917,0.00351
2142.57900,0.00407
2140.51883,0.00408
2138.45866,0.00440
2136.39849,0.00520
2134.33831,0.00618
2132.27814,0.00711
2130.21797,0.00773
2128.15780,0.00785
2126.09762,0.00756
2124.03745,0.00752
2121.97728,0.00753
2119.91711,0.00706
2117.85694,0.00651
2115.79676,0.00616
2113.73659,0.00613
2111.67642,0.00665
2109.61625,0.00727
2107.55608,0.00787
2105.49590,0.00853
2103.43573,0.00827
2101.37556,0.00691
2099.31539,0.00577
2097.25521,0.00549
2095.19504,0.00572
2093.13487,0.00590
2091.07470,0.00613
2089.01453,0.00698
2086.95435,0.00770
2084.89418,0.00749
2082.83401,0.00694
2080.77384,0.00671
2078.71367,0.00716
2076.65349,0.00759
2074.59332,0.00719
2072.53315,0.00704
2070.47298,0.00782
2068.41281,0.00876
2066.35263,0.00917
2064.29246,0.00893
2062.23229,0.00863
2060.17212,0.00830
2058.11194,0.00776
2056.05177,0.00715
2053.99160,0.00647
2051.93143,0.00648
2049.87126,0.00723
2047.81108,0.00752
2045.75091,0.00664
2043.69074,0.00492
2041.63057,0.00384
2039.57040,0.00418
2037.51022,0.00487
2035.45005,0.00371
2033.38988,0.00087
2031.32971,0.00000
2029.26954,0.00165
2027.20936,0.00330
2025.14919,0.00504
2023.08902,0.00712
2021.02885,0.00756
2018.96867,0.00708
2016.90850,0.00710
2014.84833,0.00562
2012.78816,0.00327
2010.72799,0.00231
2008.66781,0.00197
2006.60764,0.00144
2004.54747,0.00146
2002.48730,0.00250
2000.42713,0.00436
1998.36695,0.00620
1996.30678,0.00695
1994.24661,0.00636
1992.18644,0.00575
1990.12626,0.00656
1988.06609,0.00701
1986.00592,0.00570
1983.94575,0.00519
1981.88558,0.00669
1979.82540,0.00654
1977.76523,0.00403
1975.70506,0.00346
1973.64489,0.00488
1971.58472,0.00621
1969.52454,0.00696
1967.46437,0.00645
1965.40420,0.00586
1963.34403,0.00635
1961.28386,0.00668
1959.22368,0.00577
1957.16351,0.00433
1955.10334,0.00342
1953.04317,0.00323
1950.98299,0.00346
1948.92282,0.00387
1946.86265,0.00423
1944.80248,0.00419
1942.74231,0.00418
1940.68213,0.00495
1938.62196,0.00541
1936.56179,0.00542
1934.50162,0.00585
1932.44145,0.00637
1930.38127,0.00592
1928.32110,0.00482
1926.26093,0.00439
1924.20076,0.00451
1922.14059,0.00468
1920.08041,0.00372
1918.02024,0.00179
1915.96007,0.00213
1913.89990,0.00412
1911.83972,0.00480
1909.77955,0.00408
1907.71938,0.00389
1905.65921,0.00430
1903.59904,0.00407
1901.53886,0.00310
1899.47869,0.00234
1897.41852,0.00242
1895.35835,0.00302
1893.29818,0.00350
1891.23800,0.00317
1889.17783,0.00255
1887.11766,0.00233
1885.05749,0.00222
1882.99731,0.00221
1880.93714,0.00226
1878.87697,0.00243
1876.81680,0.00278
1874.75663,0.00321
1872.69645,0.00358
1870.63628,0.00330
1868.57611,0.00290
1866.51594,0.00340
1864.45577,0.00395
1862.39559,0.00382
1860.33542,0.00341
1858.27525,0.00308
1856.21508,0.00278
1854.15491,0.00251
1852.09473,0.00248
1850.03456,0.00284
1847.97439,0.00321
1845.91422,0.00256
1843.85404,0.00175
1841.79387,0.00264
1839.73370,0.00361
1837.67353,0.00362
1835.61336,0.00356
1833.55318,0.00367
1831.49301,0.00314
1829.43284,0.00268
1827.37267,0.00302
1825.31250,0.00314
1823.25232,0.00329
1821.19215,0.00314
1819.13198,0.00253
1817.07181,0.00218
1815.01163,0.00205
1812.95146,0.00174
1810.89129,0.00147
1808.83112,0.00151
1806.77095,0.00165
1804.71077,0.00168
1802.65060,0.00137
1800.59043,0.00122
1798.53026,0.00178
1796.47009,0.00216
1794.40991,0.00149
1792.34974,0.00087
1790.28957,0.00172
1788.22940,0.00218
1786.16923,0.00136
1784.10905,0.00072
1782.04888,0.00051
1779.98871,0.00055
1777.92854,0.00103
1775.86836,0.00113
1773.80819,0.00032
1771.74802,0.00000
1769.68785,0.00094
1767.62768,0.00182
1765.56750,0.00238
1763.50733,0.00212
1761.44716,0.00211
1759.38699,0.00324
1757.32682,0.00433
1755.26664,0.00573
1753.20647,0.00664
1751.14630,0.00717
1749.08613,0.00893
1747.02596,0.01089
1744.96578,0.01180
1742.90561,0.01197
1740.84544,0.01222
1738.78527,0.01355
1736.72509,0.01426
1734.66492,0.01290
1732.60475,0.01328
1730.54458,0.01458
1728.48441,0.01490
1726.42423,0.01478
1724.36406,0.01462
1722.30389,0.01531
1720.24372,0.01556
1718.18355,0.01451
1716.12337,0.01451
1714.06320,0.01547
1712.00303,0.01615
1709.94286,0.01636
1707.88268,0.01603
1705.82251,0.01579
1703.76234,0.01612
1701.70217,0.01482
1699.64200,0.01387
1697.58182,0.01471
1695.52165,0.01521
1693.46148,0.01677
1691.40131,0.01783
1689.34114,0.01896
1687.28096,0.02056
1685.22079,0.02126
1683.16062,0.02408
1681.10045,0.02791
1679.04028,0.02944
1676.98010,0.02935
1674.91993,0.03002
1672.85976,0.03188
1670.79959,0.03173
1668.73941,0.03105
1666.67924,0.03121
1664.61907,0.02988
1662.55890,0.02816
1660.49873,0.02855
1658.43855,0.02951
1656.37838,0.02850
1654.31821,0.02517
1652.25804,0.02561
1650.19787,0.02888
1648.13769,0.02776
1646.07752,0.02596
1644.01735,0.02701
1641.95718,0.02801
1639.89701,0.02827
1637.83683,0.02766
1635.77666,0.02732
1633.71649,0.02970
1631.65632,0.03156
1629.59614,0.03136
1627.53597,0.03118
1625.47580,0.03105
1623.41563,0.03067
1621.35546,0.03163
1619.29528,0.03171
1617.23511,0.03029
1615.17494,0.03105
1613.11477,0.03302
1611.05460,0.03436
1608.99442,0.03592
1606.93425,0.03765
1604.87408,0.03850
1602.81391,0.03819
1600.75373,0.03730
1598.69356,0.03609
1596.63339,0.03454
1594.57322,0.03310
1592.51305,0.03213
1590.45287,0.03135
1588.39270,0.03066
1586.33253,0.03011
1584.27236,0.02959
1582.21219,0.02913
1580.15201,0.02857
1578.09184,0.02688
1576.03167,0.02542
1573.97150,0.02648
1571.91133,0.02638
1569.85115,0.02439
1567.79098,0.02382
1565.73081,0.02383
1563.67064,0.02389
1561.61046,0.02249
1559.55029,0.01890
1557.49012,0.01907
1555.42995,0.02008
1553.36978,0.01906
1551.30960,0.01742
1549.24943,0.01633
1547.18926,0.01608
1545.12909,0.01551
1543.06892,0.01429
1541.00874,0.01180
1538.94857,0.01098
1536.88840,0.01222
1534.82823,0.01121
1532.76805,0.01013
1530.70788,0.01092
1528.64771,0.01083
1526.58754,0.01015
1524.52737,0.00981
1522.46719,0.00936
1520.40702,0.01101
1518.34685,0.01346
1516.28668,0.01457
1514.22651,0.01544
1512.16633,0.01564
1510.10616,0.01434
1508.04599,0.01029
1505.98582,0.00729
1503.92565,0.00821
1501.86547,0.00836
1499.80530,0.00660
1497.74513,0.00474
1495.68496,0.00452
1493.62478,0.00500
1491.56461,0.00384
1489.50444,0.00228
1487.44427,0.00231
1485.38410,0.00290
1483.32392,0.00279
1481.26375,0.00242
1479.20358,0.00280
1477.14341,0.00355
1475.08324,0.00430
1473.02306,0.00530
1470.96289,0.00798
1468.90272,0.01089
1466.84255,0.01214
1464.78238,0.01350
1462.72220,0.01609
1460.66203,0.01717
1458.60186,0.01590
1456.54169,0.01607
1454.48151,0.01869
1452.42134,0.02012
1450.36117,0.02021
1448.30100,0.02024
1446.24083,0.02117
1444.18065,0.02254
1442.12048,0.02383
1440.06031,0.02475
1438.00014,0.02458
1435.93997,0.02506
1433.87979,0.02662
1431.81962,0.02677
1429.75945,0.02654
1427.69928,0.02730
1425.63910,0.02775
1423.57893,0.02799
1421.51876,0.02803
1419.45859,0.02731
1417.39842,0.02776
1415.33824,0.02856
1413.27807,0.02827
1411.21790,0.02759
1409.15773,0.02715
1407.09756,0.02653
1405.03738,0.02579
1402.97721,0.02553
1400.91704,0.02486
1398.85687,0.02376
1396.79670,0.02284
1394.73652,0.02191
1392.67635,0.02173
1390.61618,0.02156
1388.55601,0.02078
1386.49583,0.02086
1384.43566,0.02208
1382.37549,0.02303
1380.31532,0.02358
1378.25515,0.02414
1376.19497,0.02444
1374.13480,0.02456
1372.07463,0.02509
1370.01446,0.02542
1367.95429,0.02561
1365.89411,0.02557
1363.83394,0.02462
1361.77377,0.02400
1359.71360,0.02416
1357.65343,0.02388
1355.59325,0.02322
1353.53308,0.02296
1351.47291,0.02306
1349.41274,0.02312
1347.35256,0.02311
1345.29239,0.02305
1343.23222,0.02282
1341.17205,0.02229
1339.11188,0.02199
1337.05170,0.02231
1334.99153,0.02259
1332.93136,0.02264
1330.87119,0.02279
1328.81102,0.02313
1326.75084,0.02343
1324.69067,0.02352
1322.63050,0.02340
1320.57033,0.02319
1318.51015,0.02308
1316.44998,0.02301
1314.38981,0.02278
1312.32964,0.02254
1310.26947,0.02217
1308.20929,0.02156
1306.14912,0.02103
1304.08895,0.02058
1302.02878,0.02000
1299.96861,0.01920
1297.90843,0.01840
1295.84826,0.01804
1293.78809,0.01821
1291.72792,0.01858
1289.66775,0.01887
1287.60757,0.01908
1285.54740,0.01928
1283.48723,0.01924
1281.42706,0.01892
1279.36688,0.01887
1277.30671,0.01926
1275.24654,0.01970
1273.18637,0.02009
1271.12620,0.02043
1269.06602,0.02073
1267.00585,0.02093
1264.94568,0.02118
1262.88551,0.02190
1260.82534,0.02309
1258.76516,0.02433
1256.70499,0.02534
1254.64482,0.02611
1252.58465,0.02660
1250.52447,0.02678
1248.46430,0.02705
1246.40413,0.02744
1244.34396,0.02764
1242.28379,0.02776
1240.22361,0.02773
1238.16344,0.02745
1236.10327,0.02718
1234.04310,0.02692
1231.98293,0.02637
1229.92275,0.02557
1227.86258,0.02470
1225.80241,0.02367
1223.74224,0.02241
1221.68207,0.02101
1219.62189,0.01976
1217.56172,0.01867
1215.50155,0.01740
1213.44138,0.01583
1211.38120,0.01425
1209.32103,0.01288
1207.26086,0.01169
1205.20069,0.01056
1203.14052,0.00937
1201.08034,0.00809
1199.02017,0.00672
1196.96000,0.00521
1194.89983,0.00376
1192.83966,0.00266
1190.77948,0.00175
1188.71931,0.00090
1186.65914,0.00029
1184.59897,0.00000
1182.53880,-0.00018
1180.47862,-0.00010
1178.41845,0.00043
1176.35828,0.00148
1174.29811,0.00309
1172.23793,0.00494
1170.17776,0.00675
1168.11759,0.00861
1166.05742,0.01014
1163.99725,0.01084
1161.93707,0.01104
1159.87690,0.01117
1157.81673,0.01151
1155.75656,0.01229
1153.69639,0.01347
1151.63621,0.01477
1149.57604,0.01584
1147.51587,0.01669
1145.45570,0.01751
1143.39552,0.01829
1141.33535,0.01922
1139.27518,0.02030
1137.21501,0.02114
1135.15484,0.02164
1133.09466,0.02212
1131.03449,0.02290
1128.97432,0.02402
1126.91415,0.02539
1124.85398,0.02676
1122.79380,0.02803
1120.73363,0.02926
1118.67346,0.03028
1116.61329,0.03091
1114.55312,0.03164
1112.49294,0.03293
1110.43277,0.03441
1108.37260,0.03560
1106.31243,0.03665
1104.25225,0.03773
1102.19208,0.03873
1100.13191,0.03978
1098.07174,0.04133
1096.01157,0.04347
1093.95139,0.04578
1091.89122,0.04791
1089.83105,0.04990
1087.77088,0.05205
1085.71071,0.05441
1083.65053,0.05656
1081.59036,0.05835
1079.53019,0.05997
1077.47002,0.06195
1075.40985,0.06452
1073.34967,0.06714
1071.28950,0.06941
1069.22933,0.07135
1067.16916,0.07309
1065.10898,0.07447
1063.04881,0.07552
1060.98864,0.07662
1058.92847,0.07786
1056.86830,0.07928
1054.80812,0.08119
1052.74795,0.08359
1050.68778,0.08625
1048.62761,0.08912
1046.56744,0.09186
1044.50726,0.09435
1042.44709,0.09712
1040.38692,0.10000
1038.32675,0.10226
1036.26657,0.10374
1034.20640,0.10459
1032.14623,0.10501
1030.08606,0.10527
1028.02589,0.10527
1025.96571,0.10503
1023.90554,0.10469
1021.84537,0.10402
1019.78520,0.10325
1017.72503,0.10278
1015.66485,0.10272
1013.60468,0.10328
1011.54451,0.10422
1009.48434,0.10479
1007.42417,0.10482
1005.36399,0.10455
1003.30382,0.10398
1001.24365,0.10297
999.18348,0.10148
997.12330,0.09983
995.06313,0.09838
993.00296,0.09699
990.94279,0.09548
988.88262,0.09399
986.82244,0.09262
984.76227,0.09125
982.70210,0.08981
980.64193,0.08832
978.58176,0.08701
976.52158,0.08572
974.46141,0.08425
972.40124,0.08274
970.34107,0.08091
968.28089,0.07894
966.22072,0.07732
964.16055,0.07580
962.10038,0.07401
960.04021,0.07223
957.98003,0.07061
955.91986,0.06904
953.85969,0.06784
951.79952,0.06705
949.73935,0.06610
947.67917,0.06449
945.61900,0.06218
943.55883,0.05985
941.49866,0.05765
939.43849,0.05487
937.37831,0.05149
935.31814,0.04812
933.25797,0.04509
931.19780,0.04230
929.13762,0.03975
927.07745,0.03762
925.01728,0.03565
922.95711,0.03358
920.89694,0.03123
918.83676,0.02915
916.77659,0.02787
914.71642,0.02641
912.65625,0.02415
910.59608,0.02176
908.53590,0.01994
906.47573,0.01914
904.41556,0.01896
902.35539,0.01885
900.29522,0.01900
898.23504,0.01902
896.17487,0.01847
894.11470,0.01844
892.05453,0.01945
889.99435,0.02026
887.93418,0.01956
885.87401,0.01771
883.81384,0.01613
881.75367,0.01524
879.69349,0.01424
877.63332,0.01303
875.57315,0.01200
873.51298,0.01112
871.45281,0.01047
869.39263,0.01024
867.33246,0.01024
865.27229,0.00993
863.21212,0.00903
861.15194,0.00846
859.09177,0.00899
857.03160,0.00942
854.97143,0.00926
852.91126,0.00930
850.85108,0.00884
848.79091,0.00782
846.73074,0.00758
844.67057,0.00800
842.61040,0.00803
840.55022,0.00740
838.49005,0.00663
836.42988,0.00631
834.36971,0.00619
832.30954,0.00605
830.24936,0.00575
828.18919,0.00468
826.12902,0.00359
824.06885,0.00330
822.00867,0.00298
819.94850,0.00242
817.88833,0.00226
815.82816,0.00271
813.76799,0.00331
811.70781,0.00306
809.64764,0.00204
807.58747,0.00184
805.52730,0.00304
803.46713,0.00428
801.40695,0.00458
799.34678,0.00412
797.28661,0.00361
795.22644,0.00292
793.16627,0.00155
791.10609,0.00044
789.04592,0.00000
786.98575,0.00026
784.92558,0.00098
782.86540,0.00135
780.80523,0.00159
778.74506,0.00191
776.68489,0.00256
774.62472,0.00369
772.56454,0.00423
770.50437,0.00354
768.44420,0.00242
766.38403,0.00139
764.32386,0.00067
762.26368,0.00054
760.20351,0.00112
758.14334,0.00251
756.08317,0.00375
754.02299,0.00393
751.96282,0.00336
749.90265,0.00229
747.84248,0.00148
745.78231,0.00210
743.72213,0.00294
741.66196,0.00163
739.60179,0.00000
737.54162,0.00049
735.48145,0.00168
733.42127,0.00154
731.36110,0.00114
729.30093,0.00140
727.24076,0.00219
725.18059,0.00284
723.12041,0.00369
721.06024,0.00442
719.00007,0.00380
716.93990,0.00245
714.87972,0.00217
712.81955,0.00316
710.75938,0.00443
708.69921,0.00535
706.63904,0.00575
704.57886,0.00571
702.51869,0.00540
700.45852,0.00479
698.39835,0.00400
696.33818,0.00362
694.27800,0.00358
692.21783,0.00314
690.15766,0.00246
688.09749,0.00234
686.03731,0.00298
683.97714,0.00382
681.91697,0.00455
679.85680,0.00485
677.79663,0.00394
675.73645,0.00247
673.67628,0.00212
671.61611,0.00396
669.55594,0.00704
667.49577,0.00665
665.43559,0.00258
663.37542,-0.00012
661.31525,-0.00107
659.25508,-0.00125
657.19491,0.00041
655.13473,0.00305
653.07456,0.00400
651.01439,0.00337
648.95422,0.00301
646.89404,0.00266
644.83387,0.00152
642.77370,0.00064
640.71353,0.00156
638.65336,0.00512
636.59318,0.01003
634.53301,0.01186
632.47284,0.00846
630.41267,0.00363
628.35250,0.00194
626.29232,0.00475
624.23215,0.00855
622.17198,0.00767
620.11181,0.00012
618.05164,-0.00601
615.99146,-0.00277
613.93129,0.00092
611.87112,-0.00282
609.81095,-0.00655
607.75077,-0.00297
605.69060,0.00322
603.63043,0.00465
601.57026,0.00150
599.51009,0.00000
