3996.73391,0.00101
3994.67373,0.00144
3992.61356,0.00164
3990.55339,0.00143
3988.49322,0.00120
3986.43305,0.00134
3984.37287,0.00152
3982.31270,0.00137
3980.25253,0.00119
3978.19236,0.00106
3976.13219,0.00078
3974.07201,0.00048
3972.01184,0.00029
3969.95167,0.00009
3967.89150,0.00000
3965.83133,0.00012
3963.77115,0.00024
3961.71098,0.00030
3959.65081,0.00048
3957.59064,0.00092
3955.53046,0.00138
3953.47029,0.00150
3951.41012,0.00125
3949.34995,0.00105
3947.28978,0.00119
3945.22960,0.00129
3943.16943,0.00091
3941.10926,0.00046
3939.04909,0.00052
3936.98892,0.00083
3934.92874,0.00096
3932.86857,0.00082
3930.80840,0.00069
3928.74823,0.00093
3926.68805,0.00125
3924.62788,0.00108
3922.56771,0.00055
3920.50754,0.00049
3918.44737,0.00111
3916.38719,0.00177
3914.32702,0.00192
3912.26685,0.00175
3910.20668,0.00144
3908.14651,0.00108
3906.08633,0.00107
3904.02616,0.00161
3901.96599,0.00215
3899.90582,0.00201
3897.84565,0.00125
3895.78547,0.00065
3893.72530,0.00062
3891.66513,0.00095
3889.60496,0.00118
3887.54478,0.00090
3885.48461,0.00052
3883.42444,0.00097
3881.36427,0.00182
3879.30410,0.00200
3877.24392,0.00169
3875.18375,0.00128
3873.12358,0.00074
3871.06341,0.00054
3869.00324,0.00072
3866.94306,0.00050
3864.88289,0.00000
3862.82272,0.00015
3860.76255,0.00083
3858.70237,0.00123
3856.64220,0.00125
3854.58203,0.00095
3852.52186,0.00060
3850.46169,0.00067
3848.40151,0.00083
3846.34134,0.00089
3844.28117,0.00104
3842.22100,0.00130
3840.16083,0.00132
3838.10065,0.00110
3836.04048,0.00128
3833.98031,0.00186
3831.92014,0.00206
3829.85997,0.00150
3827.79979,0.00071
3825.73962,0.00056
3823.67945,0.00131
3821.61928,0.00218
3819.55910,0.00237
3817.49893,0.00208
3815.43876,0.00170
3813.37859,0.00125
3811.31842,0.00087
3809.25824,0.00082
3807.19807,0.00098
3805.13790,0.00087
3803.07773,0.00071
3801.01756,0.00115
3798.95738,0.00171
3796.89721,0.00169
3794.83704,0.00152
3792.77687,0.00160
3790.71670,0.00178
3788.65652,0.00184
3786.59635,0.00148
3784.53618,0.00078
3782.47601,0.00034
3780.41583,0.00042
3778.35566,0.00080
3776.29549,0.00107
3774.23532,0.00099
3772.17515,0.00079
3770.11497,0.00085
3768.05480,0.00114
3765.99463,0.00140
3763.93446,0.00150
3761.87429,0.00134
3759.81411,0.00083
3757.75394,0.00021
3755.69377,0.00000
3753.63360,0.00036
3751.57342,0.00112
3749.51325,0.00149
3747.45308,0.00108
3745.39291,0.00069
3743.33274,0.00097
3741.27256,0.00155
3739.21239,0.00187
3737.15222,0.00180
3735.09205,0.00166
3733.03188,0.00192
3730.97170,0.00223
3728.91153,0.00222
3726.85136,0.00194
3724.79119,0.00161
3722.73102,0.00140
3720.67084,0.00118
3718.61067,0.00122
3716.55050,0.00168
3714.49033,0.00212
3712.43015,0.00215
3710.36998,0.00174
3708.30981,0.00146
3706.24964,0.00123
3704.18947,0.00064
3702.12929,0.00000
3700.06912,0.00004
3698.00895,0.00063
3695.94878,0.00099
3693.88861,0.00101
3691.82843,0.00084
3689.76826,0.00068
3687.70809,0.00063
3685.64792,0.00053
3683.58775,0.00030
3681.52757,0.00037
3679.46740,0.00073
3677.40723,0.00107
3675.34706,0.00143
3673.28688,0.00155
3671.22671,0.00119
3669.16654,0.00073
3667.10637,0.00062
3665.04620,0.00065
3662.98602,0.00040
3660.92585,0.00022
3658.86568,0.00058
3656.80551,0.00112
3654.74534,0.00149
3652.68516,0.00161
3650.62499,0.00120
3648.56482,0.00074
3646.50465,0.00117
3644.44447,0.00193
3642.38430,0.00228
3640.32413,0.00244
3638.26396,0.00272
3636.20379,0.00275
3634.14361,0.00225
3632.08344,0.00149
3630.02327,0.00104
3627.96310,0.00140
3625.90293,0.00236
3623.84275,0.00295
3621.78258,0.00290
3619.72241,0.00266
3617.66224,0.00276
3615.60207,0.00342
3613.54189,0.00432
3611.48172,0.00497
3609.42155,0.00501
3607.36138,0.00464
3605.30120,0.00449
3603.24103,0.00489
3601.18086,0.00575
3599.12069,0.00653
3597.06052,0.00659
3595.00034,0.00609
3592.94017,0.00578
3590.88000,0.00556
3588.81983,0.00514
3586.75966,0.00497
3584.69948,0.00543
3582.63931,0.00624
3580.57914,0.00720
3578.51897,0.00790
3576.45879,0.00801
3574.39862,0.00790
3572.33845,0.00803
3570.27828,0.00846
3568.21811,0.00908
3566.15793,0.00975
3564.09776,0.01021
3562.03759,0.01037
3559.97742,0.01045
3557.91725,0.01072
3555.85707,0.01117
3553.79690,0.01170
3551.73673,0.01238
3549.67656,0.01328
3547.61639,0.01399
3545.55621,0.01389
3543.49604,0.01340
3541.43587,0.01351
3539.37570,0.01411
3537.31552,0.01476
3535.25535,0.01540
3533.19518,0.01566
3531.13501,0.01550
3529.07484,0.01551
3527.01466,0.01585
3524.95449,0.01605
3522.89432,0.01616
3520.83415,0.01675
3518.77398,0.01785
3516.71380,0.01906
3514.65363,0.01980
3512.59346,0.01985
3510.53329,0.01974
3508.47312,0.01971
3506.41294,0.01981
3504.35277,0.02041
3502.29260,0.02140
3500.23243,0.02206
3498.17225,0.02219
3496.11208,0.02229
3494.05191,0.02273
3491.99174,0.02336
3489.93157,0.02381
3487.87139,0.02396
3485.81122,0.02393
3483.75105,0.02400
3481.69088,0.02450
3479.63071,0.02521
3477.57053,0.02582
3475.51036,0.02642
3473.45019,0.02688
3471.39002,0.02738
3469.32984,0.02821
3467.26967,0.02884
3465.20950,0.02899
3463.14933,0.02916
3461.08916,0.02940
3459.02898,0.02958
3456.96881,0.02981
3454.90864,0.03014
3452.84847,0.03061
3450.78830,0.03105
3448.72812,0.03122
3446.66795,0.03139
3444.60778,0.03168
3442.54761,0.03205
3440.48744,0.03276
3438.42726,0.03341
3436.36709,0.03339
3434.30692,0.03329
3432.24675,0.03386
3430.18657,0.03450
3428.12640,0.03457
3426.06623,0.03479
3424.00606,0.03563
3421.94589,0.03621
3419.88571,0.03628
3417.82554,0.03633
3415.76537,0.03628
3413.70520,0.03627
3411.64503,0.03672
3409.58485,0.03760
3407.52468,0.03822
3405.46451,0.03818
3403.40434,0.03829
3401.34416,0.03903
3399.28399,0.03965
3397.22382,0.03988
3395.16365,0.04017
3393.10348,0.04056
3391.04330,0.04079
3388.98313,0.04086
3386.92296,0.04083
3384.86279,0.04072
3382.80262,0.04090
3380.74244,0.04156
3378.68227,0.04232
3376.62210,0.04261
3374.56193,0.04243
3372.50176,0.04232
3370.44158,0.04239
3368.38141,0.04263
3366.32124,0.04304
3364.26107,0.04320
3362.20089,0.04315
3360.14072,0.04335
3358.08055,0.04370
3356.02038,0.04383
3353.96021,0.04382
3351.90003,0.04387
3349.83986,0.04412
3347.77969,0.04459
3345.71952,0.04492
3343.65935,0.04482
3341.59917,0.04474
3339.53900,0.04503
3337.47883,0.04527
3335.41866,0.04512
3333.35849,0.04492
3331.29831,0.04502
3329.23814,0.04535
3327.17797,0.04552
3325.11780,0.04538
3323.05762,0.04524
3320.99745,0.04543
3318.93728,0.04588
3316.87711,0.04620
3314.81694,0.04605
3312.75676,0.04560
3310.69659,0.04542
3308.63642,0.04570
3306.57625,0.04617
3304.51608,0.04664
3302.45590,0.04701
3300.39573,0.04720
3298.33556,0.04709
3296.27539,0.04677
3294.21521,0.04660
3292.15504,0.04655
3290.09487,0.04650
3288.03470,0.04673
3285.97453,0.04713
3283.91435,0.04744
3281.85418,0.04741
3279.79401,0.04691
3277.73384,0.04636
3275.67367,0.04588
3273.61349,0.04562
3271.55332,0.04602
3269.49315,0.04665
3267.43298,0.04705
3265.37281,0.04726
3263.31263,0.04723
3261.25246,0.04706
3259.19229,0.04705
3257.13212,0.04707
3255.07194,0.04673
3253.01177,0.04635
3250.95160,0.04637
3248.89143,0.04662
3246.83126,0.04684
3244.77108,0.04689
3242.71091,0.04683
3240.65074,0.04688
3238.59057,0.04696
3236.53040,0.04663
3234.47022,0.04622
3232.41005,0.04618
3230.34988,0.04633
3228.28971,0.04623
3226.22954,0.04558
3224.16936,0.04474
3222.10919,0.04450
3220.04902,0.04487
3217.98885,0.04512
3215.92867,0.04503
3213.86850,0.04483
3211.80833,0.04455
3209.74816,0.04431
3207.68799,0.04421
3205.62781,0.04393
3203.56764,0.04335
3201.50747,0.04291
3199.44730,0.04287
3197.38713,0.04303
3195.32695,0.04296
3193.26678,0.04252
3191.20661,0.04213
3189.14644,0.04201
3187.08626,0.04196
3185.02609,0.04185
3182.96592,0.04207
3180.90575,0.04234
3178.84558,0.04215
3176.78540,0.04193
3174.72523,0.04186
3172.66506,0.04156
3170.60489,0.04112
3168.54472,0.04060
3166.48454,0.04018
3164.42437,0.04014
3162.36420,0.04009
3160.30403,0.03973
3158.24386,0.03923
3156.18368,0.03881
3154.12351,0.03862
3152.06334,0.03867
3150.00317,0.03875
3147.94299,0.03861
3145.88282,0.03817
3143.82265,0.03765
3141.76248,0.03746
3139.70231,0.03755
3137.64213,0.03724
3135.58196,0.03648
3133.52179,0.03602
3131.46162,0.03593
3129.40145,0.03577
3127.34127,0.03564
3125.28110,0.03577
3123.22093,0.03597
3121.16076,0.03588
3119.10058,0.03527
3117.04041,0.03431
3114.98024,0.03362
3112.92007,0.03359
3110.85990,0.03379
3108.79972,0.03361
3106.73955,0.03322
3104.67938,0.03299
3102.61921,0.03261
3100.55904,0.03210
3098.49886,0.03181
3096.43869,0.03166
3094.37852,0.03147
3092.31835,0.03122
3090.25818,0.03112
3088.19800,0.03107
3086.13783,0.03090
3084.07766,0.03084
3082.01749,0.03073
3079.95731,0.03031
3077.89714,0.02980
3075.83697,0.02931
3073.77680,0.02893
3071.71663,0.02890
3069.65645,0.02911
3067.59628,0.02899
3065.53611,0.02858
3063.47594,0.02822
3061.41577,0.02771
3059.35559,0.02714
3057.29542,0.02684
3055.23525,0.02691
3053.17508,0.02715
3051.11491,0.02709
3049.05473,0.02665
3046.99456,0.02620
3044.93439,0.02605
3042.87422,0.02610
3040.81404,0.02599
3038.75387,0.02563
3036.69370,0.02531
3034.63353,0.02514
3032.57336,0.02506
3030.51318,0.02487
3028.45301,0.02446
3026.39284,0.02399
3024.33267,0.02380
3022.27250,0.02388
3020.21232,0.02375
3018.15215,0.02340
3016.09198,0.02324
3014.03181,0.02313
3011.97163,0.02287
3009.91146,0.02270
3007.85129,0.02264
3005.79112,0.02266
3003.73095,0.02266
3001.67077,0.02230
2999.61060,0.02175
2997.55043,0.02152
2995.49026,0.02151
2993.43009,0.02149
2991.36991,0.02135
2989.30974,0.02117
2987.24957,0.02134
2985.18940,0.02176
2983.12923,0.02185
2981.06905,0.02179
2979.00888,0.02193
2976.94871,0.02220
2974.88854,0.02254
2972.82836,0.02303
2970.76819,0.02379
2968.70802,0.02474
2966.64785,0.02564
2964.58768,0.02660
2962.52750,0.02769
2960.46733,0.02878
2958.40716,0.03000
2956.34699,0.03144
2954.28682,0.03293
2952.22664,0.03455
2950.16647,0.03632
2948.10630,0.03783
2946.04613,0.03938
2943.98596,0.04153
2941.92578,0.04386
2939.86561,0.04592
2937.80544,0.04821
2935.74527,0.05076
2933.68509,0.05300
2931.62492,0.05479
2929.56475,0.05644
2927.50458,0.05802
2925.44441,0.05939
2923.38423,0.06054
2921.32406,0.06134
2919.26389,0.06161
2917.20372,0.06119
2915.14355,0.06000
2913.08337,0.05794
2911.02320,0.05532
2908.96303,0.05295
2906.90286,0.05145
2904.84268,0.05033
2902.78251,0.04899
2900.72234,0.04783
2898.66217,0.04692
2896.60200,0.04579
2894.54182,0.04437
2892.48165,0.04313
2890.42148,0.04239
2888.36131,0.04162
2886.30114,0.04066
2884.24096,0.03995
2882.18079,0.03935
2880.12062,0.03875
2878.06045,0.03832
2876.00028,0.03829
2873.94010,0.03862
2871.87993,0.03882
2869.81976,0.03900
2867.75959,0.03945
2865.69941,0.03993
2863.63924,0.04067
2861.57907,0.04222
2859.51890,0.04413
2857.45873,0.04573
2855.39855,0.04724
2853.33838,0.04856
2851.27821,0.04918
2849.21804,0.04872
2847.15787,0.04705
2845.09769,0.04445
2843.03752,0.04159
2840.97735,0.03925
2838.91718,0.03752
2836.85700,0.03582
2834.79683,0.03415
2832.73666,0.03305
2830.67649,0.03231
2828.61632,0.03162
2826.55614,0.03090
2824.49597,0.03015
2822.43580,0.02969
2820.37563,0.02943
2818.31546,0.02899
2816.25528,0.02850
2814.19511,0.02817
2812.13494,0.02786
2810.07477,0.02735
2808.01460,0.02659
2805.95442,0.02582
2803.89425,0.02544
2801.83408,0.02552
2799.77391,0.02571
2797.71373,0.02563
2795.65356,0.02517
2793.59339,0.02470
2791.53322,0.02450
2789.47305,0.02435
2787.41287,0.02418
2785.35270,0.02408
2783.29253,0.02384
2781.23236,0.02340
2779.17219,0.02302
2777.11201,0.02290
2775.05184,0.02299
2772.99167,0.02288
2770.93150,0.02241
2768.87133,0.02203
2766.81115,0.02186
2764.75098,0.02187
2762.69081,0.02210
2760.63064,0.02218
2758.57046,0.02183
2756.51029,0.02134
2754.45012,0.02119
2752.38995,0.02158
2750.32978,0.02200
2748.26960,0.02185
2746.20943,0.02145
2744.14926,0.02131
2742.08909,0.02137
2740.02892,0.02134
2737.96874,0.02120
2735.90857,0.02119
2733.84840,0.02137
2731.78823,0.02145
2729.72805,0.02118
2727.66788,0.02080
2725.60771,0.02063
2723.54754,0.02072
2721.48737,0.02080
2719.42719,0.02066
2717.36702,0.02051
2715.30685,0.02044
2713.24668,0.02028
2711.18651,0.02011
2709.12633,0.01994
2707.06616,0.01993
2705.00599,0.02003
2702.94582,0.01996
2700.88565,0.01984
2698.82547,0.01984
2696.76530,0.01991
2694.70513,0.01996
2692.64496,0.01997
2690.58478,0.01995
2688.52461,0.01994
2686.46444,0.02003
2684.40427,0.02014
2682.34410,0.02019
2680.28392,0.02008
2678.22375,0.01969
2676.16358,0.01934
2674.10341,0.01936
2672.04324,0.01946
2669.98306,0.01931
2667.92289,0.01916
2665.86272,0.01921
2663.80255,0.01913
2661.74238,0.01891
2659.68220,0.01891
2657.62203,0.01902
2655.56186,0.01899
2653.50169,0.01908
2651.44151,0.01918
2649.38134,0.01881
2647.32117,0.01831
2645.26100,0.01831
2643.20083,0.01851
2641.14065,0.01837
2639.08048,0.01811
2637.02031,0.01805
2634.96014,0.01797
2632.89997,0.01776
2630.83979,0.01747
2628.77962,0.01726
2626.71945,0.01750
2624.65928,0.01790
2622.59910,0.01795
2620.53893,0.01765
2618.47876,0.01726
2616.41859,0.01728
2614.35842,0.01759
2612.29824,0.01753
2610.23807,0.01718
2608.17790,0.01708
2606.11773,0.01718
2604.05756,0.01691
2601.99738,0.01626
2599.93721,0.01582
2597.87704,0.01579
2595.81687,0.01598
2593.75670,0.01605
2591.69652,0.01579
2589.63635,0.01556
2587.57618,0.01551
2585.51601,0.01548
2583.45583,0.01561
2581.39566,0.01593
2579.33549,0.01597
2577.27532,0.01540
2575.21515,0.01498
2573.15497,0.01512
2571.09480,0.01512
2569.03463,0.01474
2566.97446,0.01442
2564.91429,0.01436
2562.85411,0.01426
2560.79394,0.01408
2558.73377,0.01414
2556.67360,0.01435
2554.61342,0.01453
2552.55325,0.01448
2550.49308,0.01419
2548.43291,0.01439
2546.37274,0.01514
2544.31256,0.01547
2542.25239,0.01496
2540.19222,0.01416
2538.13205,0.01337
2536.07188,0.01274
2534.01170,0.01285
2531.95153,0.01342
2529.89136,0.01343
2527.83119,0.01319
2525.77102,0.01306
2523.71084,0.01273
2521.65067,0.01261
2519.59050,0.01312
2517.53033,0.01334
2515.47015,0.01288
2513.40998,0.01248
2511.34981,0.01226
2509.28964,0.01211
2507.22947,0.01229
2505.16929,0.01292
2503.10912,0.01386
2501.04895,0.01424
2498.98878,0.01364
2496.92861,0.01281
2494.86843,0.01239
2492.80826,0.01240
2490.74809,0.01254
2488.68792,0.01272
2486.62775,0.01304
2484.56757,0.01322
2482.50740,0.01299
2480.44723,0.01269
2478.38706,0.01286
2476.32688,0.01313
2474.26671,0.01282
2472.20654,0.01212
2470.14637,0.01174
2468.08620,0.01180
2466.02602,0.01204
2463.96585,0.01240
2461.90568,0.01252
2459.84551,0.01203
2457.78534,0.01133
2455.72516,0.01102
2453.66499,0.01129
2451.60482,0.01195
2449.54465,0.01255
2447.48447,0.01261
2445.42430,0.01231
2443.36413,0.01198
2441.30396,0.01182
2439.24379,0.01192
2437.18361,0.01202
2435.12344,0.01185
2433.06327,0.01151
2431.00310,0.01096
2428.94293,0.01049
2426.88275,0.01081
2424.82258,0.01123
2422.76241,0.01110
2420.70224,0.01120
2418.64207,0.01127
2416.58189,0.01101
2414.52172,0.01106
2412.46155,0.01125
2410.40138,0.01116
2408.34120,0.01084
2406.28103,0.01062
2404.22086,0.01047
2402.16069,0.01022
2400.10052,0.01021
2398.04034,0.01066
2395.98017,0.01095
2393.92000,0.01095
2391.85983,0.01122
2389.79966,0.01161
2387.73948,0.01152
2385.67931,0.01099
2383.61914,0.01068
2381.55897,0.01113
2379.49880,0.01192
2377.43862,0.01211
2375.37845,0.01195
2373.31828,0.01213
2371.25811,0.01310
2369.19793,0.01390
2367.13776,0.01307
2365.07759,0.01367
2363.01742,0.01774
2360.95725,0.01724
2358.89707,0.01164
2356.83690,0.00633
2354.77673,0.00616
2352.71656,0.00942
2350.65639,0.00980
2348.59621,0.00953
2346.53604,0.01268
2344.47587,0.01217
2342.41570,0.01010
2340.35552,0.00925
2338.29535,0.00914
2336.23518,0.00964
2334.17501,0.00992
2332.11484,0.01040
2330.05466,0.01163
2327.99449,0.01342
2325.93432,0.01331
2323.87415,0.01210
2321.81398,0.01000
2319.75380,0.00826
2317.69363,0.00703
2315.63346,0.00738
2313.57329,0.00853
2311.51312,0.00917
2309.45294,0.00947
2307.39277,0.01011
2305.33260,0.01092
2303.27243,0.01118
2301.21225,0.01093
2299.15208,0.01045
2297.09191,0.01014
2295.03174,0.00987
2292.97157,0.00956
2290.91139,0.00939
2288.85122,0.00940
2286.79105,0.00979
2284.73088,0.01057
2282.67071,0.01107
2280.61053,0.01080
2278.55036,0.01045
2276.49019,0.01035
2274.43002,0.00966
2272.36984,0.00861
2270.30967,0.00802
2268.24950,0.00783
2266.18933,0.00766
2264.12916,0.00767
2262.06898,0.00775
2260.00881,0.00771
2257.94864,0.00807
2255.88847,0.00891
2253.82830,0.00947
2251.76812,0.00942
2249.70795,0.00869
2247.64778,0.00805
2245.58761,0.00800
2243.52744,0.00750
2241.46726,0.00677
2239.40709,0.00670
2237.34692,0.00738
2235.28675,0.00811
2233.22657,0.00845
2231.16640,0.00856
2229.10623,0.00831
2227.04606,0.00790
2224.98589,0.00827
2222.92571,0.00895
2220.86554,0.00852
2218.80537,0.00727
2216.74520,0.00635
2214.68503,0.00620
2212.62485,0.00678
2210.56468,0.00747
2208.50451,0.00747
2206.44434,0.00744
2204.38417,0.00824
2202.32399,0.00915
2200.26382,0.00881
2198.20365,0.00768
2196.14348,0.00776
2194.08330,0.00888
2192.02313,0.00922
2189.96296,0.00904
2187.90279,0.00913
2185.84262,0.00793
2183.78244,0.00596
2181.72227,0.00549
2179.66210,0.00569
2177.60193,0.00537
2175.54176,0.00537
2173.48158,0.00574
2171.42141,0.00519
2169.36124,0.00317
2167.30107,0.00159
2165.24089,0.00229
2163.18072,0.00324
2161.12055,0.00366
2159.06038,0.00408
2157.00021,0.00375
2154.94003,0.00404
2152.87986,0.00486
2150.81969,0.00453
2148.75952,0.00305
2146.69935,0.00262
2144.63917,0.00439
2142.57900,0.00585
2140.51883,0.00517
2138.45866,0.00418
2136.39849,0.00436
2134.33831,0.00504
2132.27814,0.00569
2130.21797,0.00651
2128.15780,0.00757
2126.09762,0.00819
2124.03745,0.00817
2121.97728,0.00777
2119.91711,0.00699
2117.85694,0.00628
2115.79676,0.00563
2113.73659,0.00495
2111.67642,0.00493
2109.61625,0.00551
2107.55608,0.00664
2105.49590,0.00788
2103.43573,0.00747
2101.37556,0.00564
2099.31539,0.00463
2097.25521,0.00502
2095.19504,0.00558
2093.13487,0.00559
2091.07470,0.00601
2089.01453,0.00743
2086.95435,0.00830
2084.89418,0.00757
2082.83401,0.00635
2080.77384,0.00587
2078.71367,0.00608
2076.65349,0.00616
2074.59332,0.00602
2072.53315,0.00643
2070.47298,0.00740
2068.41281,0.00839
2066.35263,0.00864
2064.29246,0.00758
2062.23229,0.00661
2060.17212,0.00665
2058.11194,0.00662
2056.05177,0.00606
2053.99160,0.00548
2051.93143,0.00522
2049.87126,0.00523
2047.81108,0.00558
2045.75091,0.00552
2043.69074,0.00473
2041.63057,0.00462
2039.57040,0.00486
2037.51022,0.00407
2035.45005,0.00215
2033.38988,0.00012
2031.32971,0.00009
2029.26954,0.00214
2027.20936,0.00382
2025.14919,0.00402
2023.08902,0.00417
2021.02885,0.00469
2018.96867,0.00494
2016.90850,0.00466
2014.84833,0.00324
2012.78816,0.00216
2010.72799,0.00213
2008.66781,0.00200
2006.60764,0.00260
2004.54747,0.00374
2002.48730,0.00397
2000.42713,0.00467
1998.36695,0.00630
1996.30678,0.00691
1994.24661,0.00593
1992.18644,0.00453
1990.12626,0.00455
1988.06609,0.00582
1986.00592,0.00597
1983.94575,0.00486
1981.88558,0.00437
1979.82540,0.00382
1977.76523,0.00255
1975.70506,0.00305
1973.64489,0.00489
1971.58472,0.00578
1969.52454,0.00585
1967.46437,0.00523
1965.40420,0.00456
1963.34403,0.00512
1961.28386,0.00540
1959.22368,0.00413
1957.16351,0.00311
1955.10334,0.00326
1953.04317,0.00348
1950.98299,0.00330
1948.92282,0.00345
1946.86265,0.00378
1944.80248,0.00333
1942.74231,0.00238
1940.68213,0.00186
1938.62196,0.00213
1936.56179,0.00316
1934.50162,0.00465
1932.44145,0.00557
1930.38127,0.00462
1928.32110,0.00266
1926.26093,0.00205
1924.20076,0.00305
1922.14059,0.00404
1920.08041,0.00388
1918.02024,0.00308
1915.96007,0.00318
1913.89990,0.00413
1911.83972,0.00420
1909.77955,0.00325
1907.71938,0.00315
1905.65921,0.00431
1903.59904,0.00485
1901.53886,0.00389
1899.47869,0.00271
1897.41852,0.00242
1895.35835,0.00257
1893.29818,0.00230
1891.23800,0.00169
1889.17783,0.00136
1887.11766,0.00141
1885.05749,0.00168
1882.99731,0.00192
1880.93714,0.00197
1878.87697,0.00208
1876.81680,0.00235
1874.75663,0.00256
1872.69645,0.00266
1870.63628,0.00278
1868.57611,0.00289
1866.51594,0.00297
1864.45577,0.00314
1862.39559,0.00325
1860.33542,0.00303
1858.27525,0.00257
1856.21508,0.00221
1854.15491,0.00206
1852.09473,0.00192
1850.03456,0.00167
1847.97439,0.00133
1845.91422,0.00096
1843.85404,0.00081
1841.79387,0.00127
1839.73370,0.00210
1837.67353,0.00263
1835.61336,0.00256
1833.55318,0.00223
1831.49301,0.00196
1829.43284,0.00171
1827.37267,0.00157
1825.31250,0.00174
1823.25232,0.00206
1821.19215,0.00209
1819.13198,0.00192
1817.07181,0.00182
1815.01163,0.00178
1812.95146,0.00187
1810.89129,0.00206
1808.83112,0.00204
1806.77095,0.00178
1804.71077,0.00139
1802.65060,0.00102
1800.59043,0.00102
1798.53026,0.00142
1796.47009,0.00168
1794.40991,0.00149
1792.34974,0.00119
1790.28957,0.00114
1788.22940,0.00099
1786.16923,0.00060
1784.10905,0.00030
1782.04888,0.00027
1779.98871,0.00033
1777.92854,0.00040
1775.86836,0.00038
1773.80819,0.00018
1771.74802,0.00000
1769.68785,0.00019
1767.62768,0.00074
1765.56750,0.00127
1763.50733,0.00167
1761.44716,0.00214
1759.38699,0.00301
1757.32682,0.00427
1755.26664,0.00543
1753.20647,0.00621
1751.14630,0.00712
1749.08613,0.00847
1747.02596,0.00979
1744.96578,0.01067
1742.90561,0.01123
1740.84544,0.01189
1738.78527,0.01275
1736.72509,0.01335
1734.66492,0.01343
1732.60475,0.01342
1730.54458,0.01375
1728.48441,0.01420
1726.42423,0.01443
1724.36406,0.01446
1722.30389,0.01465
1720.24372,0.01509
1718.18355,0.01541
1716.12337,0.01549
1714.06320,0.01562
1712.00303,0.01580
1709.94286,0.01580
1707.88268,0.01559
1705.82251,0.01531
1703.76234,0.01486
1701.70217,0.01408
1699.64200,0.01359
1697.58182,0.01417
1695.52165,0.01526
1693.46148,0.01610
1691.40131,0.01685
1689.34114,0.01800
1687.28096,0.01979
1685.22079,0.02240
1683.16062,0.02532
1681.10045,0.02720
1679.04028,0.02831
1676.98010,0.02943
1674.91993,0.03072
1672.85976,0.03181
1670.79959,0.03217
1668.73941,0.03164
1666.67924,0.03071
1664.61907,0.02985
1662.55890,0.02903
1660.49873,0.02832
1658.43855,0.02786
1656.37838,0.02738
1654.31821,0.02657
1652.25804,0.02598
1650.19787,0.02614
1648.13769,0.02620
1646.07752,0.02603
1644.01735,0.02627
1641.95718,0.02671
1639.89701,0.02696
1637.83683,0.02735
1635.77666,0.02834
1633.71649,0.02956
1631.65632,0.03041
1629.59614,0.03095
1627.53597,0.03126
1625.47580,0.03124
1623.41563,0.03105
1621.35546,0.03100
1619.29528,0.03105
1617.23511,0.03125
1615.17494,0.03189
1613.11477,0.03295
1611.05460,0.03436
1608.99442,0.03611
1606.93425,0.03777
1604.87408,0.03873
1602.81391,0.03873
1600.75373,0.03785
1598.69356,0.03639
1596.63339,0.03474
1594.57322,0.03336
1592.51305,0.03240
1590.45287,0.03168
1588.39270,0.03106
1586.33253,0.03044
1584.27236,0.02973
1582.21219,0.02889
1580.15201,0.02809
1578.09184,0.02734
1576.03167,0.02650
1573.97150,0.02585
1571.91133,0.02536
1569.85115,0.02457
1567.79098,0.02377
1565.73081,0.02328
1563.67064,0.02276
1561.61046,0.02206
1559.55029,0.02102
1557.49012,0.01967
1555.42995,0.01860
1553.36978,0.01764
1551.30960,0.01656
1549.24943,0.01542
1547.18926,0.01450
1545.12909,0.01381
1543.06892,0.01290
1541.00874,0.01146
1538.94857,0.01012
1536.88840,0.00969
1534.82823,0.00973
1532.76805,0.00969
1530.70788,0.00950
1528.64771,0.00916
1526.58754,0.00864
1524.52737,0.00832
1522.46719,0.00882
1520.40702,0.01036
1518.34685,0.01221
1516.28668,0.01358
1514.22651,0.01421
1512.16633,0.01417
1510.10616,0.01320
1508.04599,0.01080
1505.98582,0.00790
1503.92565,0.00658
1501.86547,0.00614
1499.80530,0.00535
1497.74513,0.00430
1495.68496,0.00358
1493.62478,0.00315
1491.56461,0.00262
1489.50444,0.00194
1487.44427,0.00158
1485.38410,0.00171
1483.32392,0.00198
1481.26375,0.00216
1479.20358,0.00229
1477.14341,0.00258
1475.08324,0.00341
1473.02306,0.00515
1470.96289,0.00755
1468.90272,0.00987
1466.84255,0.01186
1464.78238,0.01361
1462.72220,0.01494
1460.66203,0.01567
1458.60186,0.01621
1456.54169,0.01713
1454.48151,0.01825
1452.42134,0.01914
1450.36117,0.01989
1448.30100,0.02070
1446.24083,0.02161
1444.18065,0.02262
1442.12048,0.02366
1440.06031,0.02456
1438.00014,0.02529
1435.93997,0.02592
1433.87979,0.02631
1431.81962,0.02653
1429.75945,0.02679
1427.69928,0.02711
1425.63910,0.02733
1423.57893,0.02750
1421.51876,0.02774
1419.45859,0.02785
1417.39842,0.02782
1415.33824,0.02788
1413.27807,0.02793
1411.21790,0.02780
1409.15773,0.02744
1407.09756,0.02685
1405.03738,0.02602
1402.97721,0.02513
1400.91704,0.02429
1398.85687,0.02342
1396.79670,0.02248
1394.73652,0.02168
1392.67635,0.02123
1390.61618,0.02112
1388.55601,0.02113
1386.49583,0.02130
1384.43566,0.02187
1382.37549,0.02262
1380.31532,0.02326
1378.25515,0.02386
1376.19497,0.02446
1374.13480,0.02493
1372.07463,0.02527
1370.01446,0.02552
1367.95429,0.02564
1365.89411,0.02554
1363.83394,0.02517
1361.77377,0.02460
1359.71360,0.02396
1357.65343,0.02341
1355.59325,0.02322
1353.53308,0.02344
1351.47291,0.02369
1349.41274,0.02363
1347.35256,0.02340
1345.29239,0.02321
1343.23222,0.02303
1341.17205,0.02278
1339.11188,0.02248
1337.05170,0.02228
1334.99153,0.02230
1332.93136,0.02252
1330.87119,0.02289
1328.81102,0.02331
1326.75084,0.02362
1324.69067,0.02362
1322.63050,0.02334
1320.57033,0.02305
1318.51015,0.02288
1316.44998,0.02270
1314.38981,0.02257
1312.32964,0.02257
1310.26947,0.02241
1308.20929,0.02199
1306.14912,0.02142
1304.08895,0.02075
1302.02878,0.02002
1299.96861,0.01921
1297.90843,0.01846
1295.84826,0.01815
1293.78809,0.01836
1291.72792,0.01873
1289.66775,0.01907
1287.60757,0.01937
1285.54740,0.01966
1283.48723,0.01978
1281.42706,0.01959
1279.36688,0.01946
1277.30671,0.01959
1275.24654,0.01977
1273.18637,0.01992
1271.12620,0.02013
1269.06602,0.02051
1267.00585,0.02100
1264.94568,0.02146
1262.88551,0.02210
1260.82534,0.02300
1258.76516,0.02395
1256.70499,0.02496
1254.64482,0.02588
1252.58465,0.02640
1250.52447,0.02664
1248.46430,0.02692
1246.40413,0.02725
1244.34396,0.02755
1242.28379,0.02776
1240.22361,0.02767
1238.16344,0.02742
1236.10327,0.02735
1234.04310,0.02735
1231.98293,0.02695
1229.92275,0.02619
1227.86258,0.02525
1225.80241,0.02407
1223.74224,0.02264
1221.68207,0.02125
1219.62189,0.02013
1217.56172,0.01902
1215.50155,0.01755
1213.44138,0.01591
1211.38120,0.01443
1209.32103,0.01308
1207.26086,0.01184
1205.20069,0.01071
1203.14052,0.00952
1201.08034,0.00818
1199.02017,0.00673
1196.96000,0.00519
1194.89983,0.00375
1192.83966,0.00258
1190.77948,0.00168
1188.71931,0.00095
1186.65914,0.00033
1184.59897,0.00000
1182.53880,-0.00018
1180.47862,-0.00010
1178.41845,0.00045
1176.35828,0.00147
1174.29811,0.00309
1172.23793,0.00521
1170.17776,0.00728
1168.11759,0.00908
1166.05742,0.01045
1163.99725,0.01113
1161.93707,0.01134
1159.87690,0.01144
1157.81673,0.01185
1155.75656,0.01266
1153.69639,0.01360
1151.63621,0.01470
1149.57604,0.01585
1147.51587,0.01682
1145.45570,0.01775
1143.39552,0.01874
1141.33535,0.01969
1139.27518,0.02056
1137.21501,0.02130
1135.15484,0.02188
1133.09466,0.02244
1131.03449,0.02326
1128.97432,0.02450
1126.91415,0.02601
1124.85398,0.02746
1122.79380,0.02857
1120.73363,0.02951
1118.67346,0.03067
1116.61329,0.03179
1114.55312,0.03254
1112.49294,0.03347
1110.43277,0.03480
1108.37260,0.03613
1106.31243,0.03738
1104.25225,0.03865
1102.19208,0.03983
1100.13191,0.04087
1098.07174,0.04233
1096.01157,0.04464
1093.95139,0.04720
1091.89122,0.04941
1089.83105,0.05130
1087.77088,0.05314
1085.71071,0.05511
1083.65053,0.05718
1081.59036,0.05923
1079.53019,0.06120
1077.47002,0.06335
1075.40985,0.06588
1073.34967,0.06851
1071.28950,0.07084
1069.22933,0.07273
1067.16916,0.07456
1065.10898,0.07614
1063.04881,0.07726
1060.98864,0.07843
1058.92847,0.07982
1056.86830,0.08123
1054.80812,0.08300
1052.74795,0.08545
1050.68778,0.08818
1048.62761,0.09096
1046.56744,0.09383
1044.50726,0.09657
1042.44709,0.09929
1040.38692,0.10198
1038.32675,0.10412
1036.26657,0.10561
1034.20640,0.10664
1032.14623,0.10725
1030.08606,0.10761
1028.02589,0.10751
1025.96571,0.10704
1023.90554,0.10674
1021.84537,0.10635
1019.78520,0.10575
1017.72503,0.10547
1015.66485,0.10563
1013.60468,0.10601
1011.54451,0.10622
1009.48434,0.10608
1007.42417,0.10609
1005.36399,0.10626
1003.30382,0.10598
1001.24365,0.10520
999.18348,0.10404
997.12330,0.10251
995.06313,0.10095
993.00296,0.09935
990.94279,0.09763
988.88262,0.09619
986.82244,0.09510
984.76227,0.09384
982.70210,0.09237
980.64193,0.09097
978.58176,0.08954
976.52158,0.08783
974.46141,0.08588
972.40124,0.08398
970.34107,0.08231
968.28089,0.08077
966.22072,0.07937
964.16055,0.07801
962.10038,0.07634
960.04021,0.07455
957.98003,0.07299
955.91986,0.07142
953.85969,0.06975
951.79952,0.06836
949.73935,0.06722
947.67917,0.06575
945.61900,0.06377
943.55883,0.06155
941.49866,0.05902
939.43849,0.05614
937.37831,0.05301
935.31814,0.04965
933.25797,0.04633
931.19780,0.04340
929.13762,0.04082
927.07745,0.03844
925.01728,0.03614
922.95711,0.03409
920.89694,0.03217
918.83676,0.03038
916.77659,0.02891
914.71642,0.02754
912.65625,0.02591
910.59608,0.02383
908.53590,0.02176
906.47573,0.02062
904.41556,0.02041
902.35539,0.02053
900.29522,0.02034
898.23504,0.01957
896.17487,0.01917
894.11470,0.01967
892.05453,0.02034
889.99435,0.02065
887.93418,0.02004
885.87401,0.01862
883.81384,0.01739
881.75367,0.01627
879.69349,0.01472
877.63332,0.01341
875.57315,0.01263
873.51298,0.01193
871.45281,0.01148
869.39263,0.01146
867.33246,0.01110
865.27229,0.01019
863.21212,0.00954
861.15194,0.00956
859.09177,0.00988
857.03160,0.01004
854.97143,0.01003
852.91126,0.00980
850.85108,0.00899
848.79091,0.00816
846.73074,0.00804
844.67057,0.00827
842.61040,0.00834
840.55022,0.00790
838.49005,0.00732
836.42988,0.00716
834.36971,0.00706
832.30954,0.00704
830.24936,0.00680
828.18919,0.00549
826.12902,0.00406
824.06885,0.00358
822.00867,0.00339
819.94850,0.00314
817.88833,0.00291
815.82816,0.00284
813.76799,0.00313
811.70781,0.00333
809.64764,0.00317
807.58747,0.00314
805.52730,0.00381
803.46713,0.00498
801.40695,0.00550
799.34678,0.00467
797.28661,0.00343
795.22644,0.00294
793.16627,0.00305
791.10609,0.00320
789.04592,0.00311
786.98575,0.00272
784.92558,0.00222
782.86540,0.00217
780.80523,0.00299
778.74506,0.00362
776.68489,0.00310
774.62472,0.00254
772.56454,0.00255
770.50437,0.00215
768.44420,0.00123
766.38403,0.00046
764.32386,0.00021
762.26368,0.00073
760.20351,0.00172
758.14334,0.00266
756.08317,0.00305
754.02299,0.00286
751.96282,0.00292
749.90265,0.00328
747.84248,0.00294
745.78231,0.00205
743.72213,0.00166
741.66196,0.00104
739.60179,0.00000
737.54162,0.00010
735.48145,0.00160
733.42127,0.00270
731.36110,0.00300
729.30093,0.00297
727.24076,0.00320
725.18059,0.00370
723.12041,0.00434
721.06024,0.00502
719.00007,0.00433
716.93990,0.00349
714.87972,0.00322
712.81955,0.00319
710.75938,0.00389
708.69921,0.00527
706.63904,0.00637
704.57886,0.00670
702.51869,0.00659
700.45852,0.00578
698.39835,0.00407
696.33818,0.00315
694.27800,0.00370
692.21783,0.00383
690.15766,0.00317
688.09749,0.00301
686.03731,0.00312
683.97714,0.00293
681.91697,0.00325
679.85680,0.00440
677.79663,0.00487
675.73645,0.00361
673.67628,0.00185
671.61611,0.00191
669.55594,0.00769
667.49577,0.01067
665.43559,0.00285
663.37542,0.00238
661.31525,0.00287
659.25508,0.00186
657.19491,0.00206
655.13473,0.00392
653.07456,0.00496
651.01439,0.00508
648.95422,0.00628
646.89404,0.00701
644.83387,0.00569
642.77370,0.00306
640.71353,0.00168
638.65336,0.00370
636.59318,0.00753
634.53301,0.00899
632.47284,0.00719
630.41267,0.00508
628.35250,0.00506
626.29232,0.00707
624.23215,0.00914
622.17198,0.00853
620.11181,0.00394
618.05164,0.00003
615.99146,0.00061
613.93129,0.00313
611.87112,0.00488
609.81095,0.00549
607.75077,0.00580
605.69060,0.00367
603.63043,-0.00081
601.57026,-0.00298
599.51009,0.00000
