3996.73391	0.00077
3994.67373	0.00073
3992.61356	0.00060
3990.55339	0.00039
3988.49322	0.00020
3986.43305	0.00014
3984.37287	0.00019
3982.31270	0.00026
3980.25253	0.00024
3978.19236	0.00015
3976.13219	0.00005
3974.07201	0.00000
3972.01184	0.00003
3969.95167	0.00013
3967.89150	0.00024
3965.83133	0.00025
3963.77115	0.00020
3961.71098	0.00023
3959.65081	0.00043
3957.59064	0.00073
3955.53046	0.00098
3953.47029	0.00109
3951.41012	0.00113
3949.34995	0.00123
3947.28978	0.00137
3945.22960	0.00138
3943.16943	0.00122
3941.10926	0.00104
3939.04909	0.00101
3936.98892	0.00110
3934.92874	0.00112
3932.86857	0.00096
3930.80840	0.00076
3928.74823	0.00068
3926.68805	0.00073
3924.62788	0.00083
3922.56771	0.00092
3920.50754	0.00096
3918.44737	0.00094
3916.38719	0.00093
3914.32702	0.00099
3912.26685	0.00112
3910.20668	0.00126
3908.14651	0.00132
3906.08633	0.00125
3904.02616	0.00104
3901.96599	0.00075
3899.90582	0.00040
3897.84565	0.00013
3895.78547	0.00012
3893.72530	0.00038
3891.66513	0.00072
3889.60496	0.00092
3887.54478	0.00093
3885.48461	0.00083
3883.42444	0.00072
3881.36427	0.00064
3879.30410	0.00052
3877.24392	0.00035
3875.18375	0.00030
3873.12358	0.00046
3871.06341	0.00076
3869.00324	0.00100
3866.94306	0.00106
3864.88289	0.00094
3862.82272	0.00074
3860.76255	0.00058
3858.70237	0.00057
3856.64220	0.00077
3854.58203	0.00116
3852.52186	0.00161
3850.46169	0.00198
3848.40151	0.00220
3846.34134	0.00218
3844.28117	0.00193
3842.22100	0.00160
3840.16083	0.00142
3838.10065	0.00152
3836.04048	0.00175
3833.98031	0.00183
3831.92014	0.00160
3829.85997	0.00120
3827.79979	0.00083
3825.73962	0.00058
3823.67945	0.00042
3821.61928	0.00028
3819.55910	0.00020
3817.49893	0.00032
3815.43876	0.00068
3813.37859	0.00109
3811.31842	0.00140
3809.25824	0.00146
3807.19807	0.00134
3805.13790	0.00119
3803.07773	0.00114
3801.01756	0.00115
3798.95738	0.00119
3796.89721	0.00125
3794.83704	0.00135
3792.77687	0.00147
3790.71670	0.00159
3788.65652	0.00172
3786.59635	0.00188
3784.53618	0.00210
3782.47601	0.00228
3780.41583	0.00225
3778.35566	0.00199
3776.29549	0.00169
3774.23532	0.00147
3772.17515	0.00133
3770.11497	0.00119
3768.05480	0.00104
3765.99463	0.00096
3763.93446	0.00103
3761.87429	0.00120
3759.81411	0.00138
3757.75394	0.00148
3755.69377	0.00151
3753.63360	0.00142
3751.57342	0.00118
3749.51325	0.00098
3747.45308	0.00107
3745.39291	0.00141
3743.33274	0.00166
3741.27256	0.00156
3739.21239	0.00124
3737.15222	0.00108
3735.09205	0.00146
3733.03188	0.00241
3730.97170	0.00344
3728.91153	0.00399
3726.85136	0.00388
3724.79119	0.00330
3722.73102	0.00260
3720.67084	0.00205
3718.61067	0.00176
3716.55050	0.00166
3714.49033	0.00172
3712.43015	0.00197
3710.36998	0.00235
3708.30981	0.00266
3706.24964	0.00278
3704.18947	0.00279
3702.12929	0.00279
3700.06912	0.00276
3698.00895	0.00266
3695.94878	0.00255
3693.88861	0.00257
3691.82843	0.00271
3689.76826	0.00281
3687.70809	0.00261
3685.64792	0.00215
3683.58775	0.00171
3681.52757	0.00149
3679.46740	0.00146
3677.40723	0.00142
3675.34706	0.00127
3673.28688	0.00106
3671.22671	0.00092
3669.16654	0.00097
3667.10637	0.00125
3665.04620	0.00162
3662.98602	0.00190
3660.92585	0.00200
3658.86568	0.00189
3656.80551	0.00161
3654.74534	0.00126
3652.68516	0.00097
3650.62499	0.00083
3648.56482	0.00093
3646.50465	0.00135
3644.44447	0.00192
3642.38430	0.00243
3640.32413	0.00280
3638.26396	0.00298
3636.20379	0.00301
3634.14361	0.00304
3632.08344	0.00323
3630.02327	0.00366
3627.96310	0.00423
3625.90293	0.00477
3623.84275	0.00518
3621.78258	0.00549
3619.72241	0.00571
3617.66224	0.00584
3615.60207	0.00587
3613.54189	0.00584
3611.48172	0.00578
3609.42155	0.00572
3607.36138	0.00570
3605.30120	0.00585
3603.24103	0.00617
3601.18086	0.00660
3599.12069	0.00703
3597.06052	0.00740
3595.00034	0.00756
3592.94017	0.00741
3590.88000	0.00711
3588.81983	0.00694
3586.75966	0.00711
3584.69948	0.00762
3582.63931	0.00828
3580.57914	0.00885
3578.51897	0.00920
3576.45879	0.00943
3574.39862	0.00964
3572.33845	0.00982
3570.27828	0.00998
3568.21811	0.01025
3566.15793	0.01065
3564.09776	0.01108
3562.03759	0.01134
3559.97742	0.01137
3557.91725	0.01136
3555.85707	0.01158
3553.79690	0.01206
3551.73673	0.01258
3549.67656	0.01300
3547.61639	0.01332
3545.55621	0.01362
3543.49604	0.01396
3541.43587	0.01428
3539.37570	0.01459
3537.31552	0.01493
3535.25535	0.01530
3533.19518	0.01569
3531.13501	0.01608
3529.07484	0.01647
3527.01466	0.01683
3524.95449	0.01718
3522.89432	0.01753
3520.83415	0.01785
3518.77398	0.01819
3516.71380	0.01864
3514.65363	0.01918
3512.59346	0.01965
3510.53329	0.01994
3508.47312	0.02014
3506.41294	0.02038
3504.35277	0.02067
3502.29260	0.02094
3500.23243	0.02115
3498.17225	0.02138
3496.11208	0.02173
3494.05191	0.02221
3491.99174	0.02274
3489.93157	0.02314
3487.87139	0.02337
3485.81122	0.02357
3483.75105	0.02389
3481.69088	0.02428
3479.63071	0.02463
3477.57053	0.02485
3475.51036	0.02494
3473.45019	0.02500
3471.39002	0.02517
3469.32984	0.02551
3467.26967	0.02595
3465.20950	0.02640
3463.14933	0.02682
3461.08916	0.02723
3459.02898	0.02763
3456.96881	0.02793
3454.90864	0.02809
3452.84847	0.02812
3450.78830	0.02812
3448.72812	0.02821
3446.66795	0.02843
3444.60778	0.02887
3442.54761	0.02954
3440.48744	0.03027
3438.42726	0.03087
3436.36709	0.03125
3434.30692	0.03149
3432.24675	0.03168
3430.18657	0.03187
3428.12640	0.03208
3426.06623	0.03231
3424.00606	0.03261
3421.94589	0.03300
3419.88571	0.03344
3417.82554	0.03381
3415.76537	0.03403
3413.70520	0.03414
3411.64503	0.03417
3409.58485	0.03416
3407.52468	0.03424
3405.46451	0.03450
3403.40434	0.03489
3401.34416	0.03527
3399.28399	0.03559
3397.22382	0.03585
3395.16365	0.03611
3393.10348	0.03638
3391.04330	0.03664
3388.98313	0.03685
3386.92296	0.03701
3384.86279	0.03711
3382.80262	0.03711
3380.74244	0.03708
3378.68227	0.03712
3376.62210	0.03731
3374.56193	0.03761
3372.50176	0.03791
3370.44158	0.03818
3368.38141	0.03839
3366.32124	0.03852
3364.26107	0.03861
3362.20089	0.03872
3360.14072	0.03888
3358.08055	0.03909
3356.02038	0.03931
3353.96021	0.03948
3351.90003	0.03960
3349.83986	0.03961
3347.77969	0.03953
3345.71952	0.03945
3343.65935	0.03948
3341.59917	0.03961
3339.53900	0.03978
3337.47883	0.03995
3335.41866	0.04006
3333.35849	0.04010
3331.29831	0.04013
3329.23814	0.04022
3327.17797	0.04042
3325.11780	0.04063
3323.05762	0.04070
3320.99745	0.04063
3318.93728	0.04054
3316.87711	0.04055
3314.81694	0.04069
3312.75676	0.04088
3310.69659	0.04099
3308.63642	0.04092
3306.57625	0.04066
3304.51608	0.04039
3302.45590	0.04026
3300.39573	0.04029
3298.33556	0.04037
3296.27539	0.04042
3294.21521	0.04039
3292.15504	0.04029
3290.09487	0.04020
3288.03470	0.04026
3285.97453	0.04044
3283.91435	0.04061
3281.85418	0.04060
3279.79401	0.04046
3277.73384	0.04027
3275.67367	0.04013
3273.61349	0.04008
3271.55332	0.04008
3269.49315	0.04007
3267.43298	0.04004
3265.37281	0.03997
3263.31263	0.03984
3261.25246	0.03968
3259.19229	0.03955
3257.13212	0.03954
3255.07194	0.03967
3253.01177	0.03985
3250.95160	0.03993
3248.89143	0.03982
3246.83126	0.03950
3244.77108	0.03908
3242.71091	0.03873
3240.65074	0.03855
3238.59057	0.03848
3236.53040	0.03840
3234.47022	0.03827
3232.41005	0.03810
3230.34988	0.03799
3228.28971	0.03800
3226.22954	0.03808
3224.16936	0.03811
3222.10919	0.03800
3220.04902	0.03780
3217.98885	0.03765
3215.92867	0.03764
3213.86850	0.03775
3211.80833	0.03791
3209.74816	0.03797
3207.68799	0.03783
3205.62781	0.03751
3203.56764	0.03715
3201.50747	0.03684
3199.44730	0.03660
3197.38713	0.03641
3195.32695	0.03626
3193.26678	0.03608
3191.20661	0.03580
3189.14644	0.03546
3187.08626	0.03514
3185.02609	0.03491
3182.96592	0.03475
3180.90575	0.03462
3178.84558	0.03450
3176.78540	0.03442
3174.72523	0.03433
3172.66506	0.03416
3170.60489	0.03390
3168.54472	0.03362
3166.48454	0.03344
3164.42437	0.03333
3162.36420	0.03325
3160.30403	0.03313
3158.24386	0.03295
3156.18368	0.03268
3154.12351	0.03231
3152.06334	0.03188
3150.00317	0.03151
3147.94299	0.03127
3145.88282	0.03111
3143.82265	0.03101
3141.76248	0.03093
3139.70231	0.03078
3137.64213	0.03049
3135.58196	0.03014
3133.52179	0.02985
3131.46162	0.02967
3129.40145	0.02959
3127.34127	0.02951
3125.28110	0.02932
3123.22093	0.02900
3121.16076	0.02865
3119.10058	0.02832
3117.04041	0.02803
3114.98024	0.02776
3112.92007	0.02755
3110.85990	0.02744
3108.79972	0.02739
3106.73955	0.02736
3104.67938	0.02729
3102.61921	0.02717
3100.55904	0.02700
3098.49886	0.02681
3096.43869	0.02661
3094.37852	0.02636
3092.31835	0.02602
3090.25818	0.02558
3088.19800	0.02511
3086.13783	0.02473
3084.07766	0.02455
3082.01749	0.02451
3079.95731	0.02448
3077.89714	0.02438
3075.83697	0.02426
3073.77680	0.02413
3071.71663	0.02396
3069.65645	0.02378
3067.59628	0.02363
3065.53611	0.02347
3063.47594	0.02324
3061.41577	0.02294
3059.35559	0.02262
3057.29542	0.02231
3055.23525	0.02204
3053.17508	0.02187
3051.11491	0.02178
3049.05473	0.02168
3046.99456	0.02151
3044.93439	0.02134
3042.87422	0.02120
3040.81404	0.02106
3038.75387	0.02084
3036.69370	0.02055
3034.63353	0.02029
3032.57336	0.02014
3030.51318	0.02009
3028.45301	0.02003
3026.39284	0.01994
3024.33267	0.01988
3022.27250	0.01989
3020.21232	0.01996
3018.15215	0.02005
3016.09198	0.02014
3014.03181	0.02016
3011.97163	0.02010
3009.91146	0.02000
3007.85129	0.01988
3005.79112	0.01968
3003.73095	0.01937
3001.67077	0.01900
2999.61060	0.01876
2997.55043	0.01883
2995.49026	0.01908
2993.43009	0.01925
2991.36991	0.01925
2989.30974	0.01922
2987.24957	0.01926
2985.18940	0.01933
2983.12923	0.01945
2981.06905	0.01967
2979.00888	0.02001
2976.94871	0.02049
2974.88854	0.02112
2972.82836	0.02186
2970.76819	0.02261
2968.70802	0.02325
2966.64785	0.02396
2964.58768	0.02504
2962.52750	0.02653
2960.46733	0.02814
2958.40716	0.02962
2956.34699	0.03086
2954.28682	0.03194
2952.22664	0.03295
2950.16647	0.03408
2948.10630	0.03551
2946.04613	0.03717
2943.98596	0.03887
2941.92578	0.04060
2939.86561	0.04258
2937.80544	0.04481
2935.74527	0.04706
2933.68509	0.04916
2931.62492	0.05114
2929.56475	0.05295
2927.50458	0.05434
2925.44441	0.05517
2923.38423	0.05550
2921.32406	0.05550
2919.26389	0.05527
2917.20372	0.05468
2915.14355	0.05342
2913.08337	0.05148
2911.02320	0.04923
2908.96303	0.04715
2906.90286	0.04546
2904.84268	0.04403
2902.78251	0.04260
2900.72234	0.04112
2898.66217	0.03977
2896.60200	0.03871
2894.54182	0.03782
2892.48165	0.03696
2890.42148	0.03617
2888.36131	0.03542
2886.30114	0.03463
2884.24096	0.03394
2882.18079	0.03353
2880.12062	0.03324
2878.06045	0.03298
2876.00028	0.03292
2873.94010	0.03323
2871.87993	0.03384
2869.81976	0.03445
2867.75959	0.03493
2865.69941	0.03541
2863.63924	0.03614
2861.57907	0.03733
2859.51890	0.03893
2857.45873	0.04072
2855.39855	0.04243
2853.33838	0.04375
2851.27821	0.04415
2849.21804	0.04317
2847.15787	0.04078
2845.09769	0.03753
2843.03752	0.03426
2840.97735	0.03167
2838.91718	0.02994
2836.85700	0.02877
2834.79683	0.02766
2832.73666	0.02641
2830.67649	0.02525
2828.61632	0.02444
2826.55614	0.02401
2824.49597	0.02375
2822.43580	0.02344
2820.37563	0.02296
2818.31546	0.02239
2816.25528	0.02192
2814.19511	0.02157
2812.13494	0.02126
2810.07477	0.02102
2808.01460	0.02094
2805.95442	0.02088
2803.89425	0.02064
2801.83408	0.02030
2799.77391	0.01991
2797.71373	0.01952
2795.65356	0.01923
2793.59339	0.01909
2791.53322	0.01898
2789.47305	0.01884
2787.41287	0.01877
2785.35270	0.01877
2783.29253	0.01868
2781.23236	0.01841
2779.17219	0.01811
2777.11201	0.01793
2775.05184	0.01788
2772.99167	0.01787
2770.93150	0.01783
2768.87133	0.01768
2766.81115	0.01746
2764.75098	0.01730
2762.69081	0.01724
2760.63064	0.01727
2758.57046	0.01732
2756.51029	0.01738
2754.45012	0.01745
2752.38995	0.01752
2750.32978	0.01750
2748.26960	0.01740
2746.20943	0.01728
2744.14926	0.01717
2742.08909	0.01704
2740.02892	0.01690
2737.96874	0.01679
2735.90857	0.01676
2733.84840	0.01678
2731.78823	0.01683
2729.72805	0.01688
2727.66788	0.01682
2725.60771	0.01669
2723.54754	0.01661
2721.48737	0.01660
2719.42719	0.01661
2717.36702	0.01660
2715.30685	0.01657
2713.24668	0.01648
2711.18651	0.01634
2709.12633	0.01621
2707.06616	0.01611
2705.00599	0.01610
2702.94582	0.01624
2700.88565	0.01638
2698.82547	0.01623
2696.76530	0.01586
2694.70513	0.01556
2692.64496	0.01548
2690.58478	0.01559
2688.52461	0.01581
2686.46444	0.01598
2684.40427	0.01598
2682.34410	0.01583
2680.28392	0.01569
2678.22375	0.01563
2676.16358	0.01562
2674.10341	0.01559
2672.04324	0.01551
2669.98306	0.01532
2667.92289	0.01508
2665.86272	0.01502
2663.80255	0.01527
2661.74238	0.01556
2659.68220	0.01558
2657.62203	0.01530
2655.56186	0.01502
2653.50169	0.01498
2651.44151	0.01521
2649.38134	0.01543
2647.32117	0.01538
2645.26100	0.01510
2643.20083	0.01476
2641.14065	0.01448
2639.08048	0.01430
2637.02031	0.01421
2634.96014	0.01419
2632.89997	0.01417
2630.83979	0.01410
2628.77962	0.01401
2626.71945	0.01404
2624.65928	0.01409
2622.59910	0.01407
2620.53893	0.01403
2618.47876	0.01398
2616.41859	0.01392
2614.35842	0.01393
2612.29824	0.01393
2610.23807	0.01381
2608.17790	0.01361
2606.11773	0.01351
2604.05756	0.01364
2601.99738	0.01381
2599.93721	0.01372
2597.87704	0.01334
2595.81687	0.01290
2593.75670	0.01268
2591.69652	0.01263
2589.63635	0.01244
2587.57618	0.01204
2585.51601	0.01182
2583.45583	0.01202
2581.39566	0.01240
2579.33549	0.01254
2577.27532	0.01237
2575.21515	0.01226
2573.15497	0.01238
2571.09480	0.01241
2569.03463	0.01219
2566.97446	0.01198
2564.91429	0.01202
2562.85411	0.01220
2560.79394	0.01228
2558.73377	0.01224
2556.67360	0.01211
2554.61342	0.01174
2552.55325	0.01115
2550.49308	0.01078
2548.43291	0.01081
2546.37274	0.01106
2544.31256	0.01137
2542.25239	0.01160
2540.19222	0.01164
2538.13205	0.01154
2536.07188	0.01135
2534.01170	0.01112
2531.95153	0.01097
2529.89136	0.01100
2527.83119	0.01124
2525.77102	0.01152
2523.71084	0.01157
2521.65067	0.01137
2519.59050	0.01120
2517.53033	0.01117
2515.47015	0.01098
2513.40998	0.01064
2511.34981	0.01048
2509.28964	0.01056
2507.22947	0.01070
2505.16929	0.01080
2503.10912	0.01087
2501.04895	0.01088
2498.98878	0.01087
2496.92861	0.01088
2494.86843	0.01090
2492.80826	0.01084
2490.74809	0.01079
2488.68792	0.01092
2486.62775	0.01096
2484.56757	0.01062
2482.50740	0.01021
2480.44723	0.01015
2478.38706	0.01034
2476.32688	0.01040
2474.26671	0.01035
2472.20654	0.01037
2470.14637	0.01036
2468.08620	0.01013
2466.02602	0.00978
2463.96585	0.00946
2461.90568	0.00929
2459.84551	0.00937
2457.78534	0.00958
2455.72516	0.00960
2453.66499	0.00927
2451.60482	0.00878
2449.54465	0.00850
2447.48447	0.00875
2445.42430	0.00940
2443.36413	0.00974
2441.30396	0.00947
2439.24379	0.00906
2437.18361	0.00890
2435.12344	0.00900
2433.06327	0.00925
2431.00310	0.00949
2428.94293	0.00958
2426.88275	0.00963
2424.82258	0.00973
2422.76241	0.00979
2420.70224	0.00982
2418.64207	0.00977
2416.58189	0.00955
2414.52172	0.00935
2412.46155	0.00941
2410.40138	0.00952
2408.34120	0.00941
2406.28103	0.00917
2404.22086	0.00894
2402.16069	0.00873
2400.10052	0.00868
2398.04034	0.00891
2395.98017	0.00923
2393.92000	0.00946
2391.85983	0.00954
2389.79966	0.00952
2387.73948	0.00945
2385.67931	0.00930
2383.61914	0.00903
2381.55897	0.00867
2379.49880	0.00840
2377.43862	0.00831
2375.37845	0.00837
2373.31828	0.00852
2371.25811	0.00880
2369.19793	0.00926
2367.13776	0.00980
2365.07759	0.01020
2363.01742	0.01025
2360.95725	0.00996
2358.89707	0.00945
2356.83690	0.00904
2354.77673	0.00904
2352.71656	0.00952
2350.65639	0.01011
2348.59621	0.01013
2346.53604	0.00940
2344.47587	0.00875
2342.41570	0.00871
2340.35552	0.00914
2338.29535	0.00967
2336.23518	0.01002
2334.17501	0.01020
2332.11484	0.01040
2330.05466	0.01080
2327.99449	0.01133
2325.93432	0.01180
2323.87415	0.01198
2321.81398	0.01193
2319.75380	0.01184
2317.69363	0.01180
2315.63346	0.01160
2313.57329	0.01115
2311.51312	0.01065
2309.45294	0.01032
2307.39277	0.01021
2305.33260	0.01025
2303.27243	0.01037
2301.21225	0.01046
2299.15208	0.01052
2297.09191	0.01053
2295.03174	0.01049
2292.97157	0.01041
2290.91139	0.01033
2288.85122	0.01024
2286.79105	0.01009
2284.73088	0.00986
2282.67071	0.00957
2280.61053	0.00936
2278.55036	0.00927
2276.49019	0.00923
2274.43002	0.00910
2272.36984	0.00881
2270.30967	0.00849
2268.24950	0.00832
2266.18933	0.00830
2264.12916	0.00833
2262.06898	0.00831
2260.00881	0.00821
2257.94864	0.00813
2255.88847	0.00822
2253.82830	0.00851
2251.76812	0.00895
2249.70795	0.00932
2247.64778	0.00936
2245.58761	0.00912
2243.52744	0.00890
2241.46726	0.00887
2239.40709	0.00875
2237.34692	0.00806
2235.28675	0.00717
2233.22657	0.00682
2231.16640	0.00692
2229.10623	0.00714
2227.04606	0.00741
2224.98589	0.00759
2222.92571	0.00757
2220.86554	0.00724
2218.80537	0.00657
2216.74520	0.00627
2214.68503	0.00709
2212.62485	0.00837
2210.56468	0.00865
2208.50451	0.00784
2206.44434	0.00716
2204.38417	0.00707
2202.32399	0.00689
2200.26382	0.00633
2198.20365	0.00597
2196.14348	0.00623
2194.08330	0.00687
2192.02313	0.00756
2189.96296	0.00816
2187.90279	0.00838
2185.84262	0.00778
2183.78244	0.00669
2181.72227	0.00631
2179.66210	0.00670
2177.60193	0.00656
2175.54176	0.00593
2173.48158	0.00616
2171.42141	0.00733
2169.36124	0.00820
2167.30107	0.00836
2165.24089	0.00819
2163.18072	0.00760
2161.12055	0.00631
2159.06038	0.00481
2157.00021	0.00413
2154.94003	0.00489
2152.87986	0.00632
2150.81969	0.00700
2148.75952	0.00676
2146.69935	0.00643
2144.63917	0.00663
2142.57900	0.00720
2140.51883	0.00750
2138.45866	0.00714
2136.39849	0.00645
2134.33831	0.00594
2132.27814	0.00581
2130.21797	0.00616
2128.15780	0.00690
2126.09762	0.00753
2124.03745	0.00768
2121.97728	0.00746
2119.91711	0.00723
2117.85694	0.00715
2115.79676	0.00704
2113.73659	0.00685
2111.67642	0.00677
2109.61625	0.00674
2107.55608	0.00688
2105.49590	0.00727
2103.43573	0.00767
2101.37556	0.00783
2099.31539	0.00772
2097.25521	0.00740
2095.19504	0.00699
2093.13487	0.00666
2091.07470	0.00650
2089.01453	0.00654
2086.95435	0.00677
2084.89418	0.00703
2082.83401	0.00715
2080.77384	0.00711
2078.71367	0.00692
2076.65349	0.00662
2074.59332	0.00630
2072.53315	0.00610
2070.47298	0.00610
2068.41281	0.00637
2066.35263	0.00684
2064.29246	0.00734
2062.23229	0.00766
2060.17212	0.00771
2058.11194	0.00753
2056.05177	0.00728
2053.99160	0.00707
2051.93143	0.00692
2049.87126	0.00686
2047.81108	0.00695
2045.75091	0.00718
2043.69074	0.00740
2041.63057	0.00738
2039.57040	0.00700
2037.51022	0.00628
2035.45005	0.00536
2033.38988	0.00452
2031.32971	0.00404
2029.26954	0.00401
2027.20936	0.00418
2025.14919	0.00434
2023.08902	0.00450
2021.02885	0.00450
2018.96867	0.00413
2016.90850	0.00369
2014.84833	0.00374
2012.78816	0.00428
2010.72799	0.00485
2008.66781	0.00535
2006.60764	0.00591
2004.54747	0.00626
2002.48730	0.00609
2000.42713	0.00542
1998.36695	0.00442
1996.30678	0.00335
1994.24661	0.00260
1992.18644	0.00230
1990.12626	0.00235
1988.06609	0.00286
1986.00592	0.00382
1983.94575	0.00486
1981.88558	0.00557
1979.82540	0.00582
1977.76523	0.00572
1975.70506	0.00541
1973.64489	0.00489
1971.58472	0.00420
1969.52454	0.00352
1967.46437	0.00313
1965.40420	0.00302
1963.34403	0.00314
1961.28386	0.00341
1959.22368	0.00370
1957.16351	0.00391
1955.10334	0.00414
1953.04317	0.00449
1950.98299	0.00492
1948.92282	0.00538
1946.86265	0.00579
1944.80248	0.00593
1942.74231	0.00574
1940.68213	0.00541
1938.62196	0.00513
1936.56179	0.00492
1934.50162	0.00479
1932.44145	0.00476
1930.38127	0.00480
1928.32110	0.00476
1926.26093	0.00453
1924.20076	0.00423
1922.14059	0.00402
1920.08041	0.00400
1918.02024	0.00412
1915.96007	0.00432
1913.89990	0.00458
1911.83972	0.00482
1909.77955	0.00496
1907.71938	0.00494
1905.65921	0.00479
1903.59904	0.00458
1901.53886	0.00440
1899.47869	0.00432
1897.41852	0.00430
1895.35835	0.00426
1893.29818	0.00414
1891.23800	0.00401
1889.17783	0.00390
1887.11766	0.00381
1885.05749	0.00376
1882.99731	0.00380
1880.93714	0.00391
1878.87697	0.00408
1876.81680	0.00428
1874.75663	0.00450
1872.69645	0.00468
1870.63628	0.00474
1868.57611	0.00460
1866.51594	0.00427
1864.45577	0.00386
1862.39559	0.00351
1860.33542	0.00336
1858.27525	0.00347
1856.21508	0.00378
1854.15491	0.00408
1852.09473	0.00420
1850.03456	0.00409
1847.97439	0.00384
1845.91422	0.00357
1843.85404	0.00334
1841.79387	0.00318
1839.73370	0.00312
1837.67353	0.00315
1835.61336	0.00321
1833.55318	0.00325
1831.49301	0.00324
1829.43284	0.00325
1827.37267	0.00332
1825.31250	0.00344
1823.25232	0.00354
1821.19215	0.00355
1819.13198	0.00341
1817.07181	0.00322
1815.01163	0.00314
1812.95146	0.00321
1810.89129	0.00333
1808.83112	0.00339
1806.77095	0.00336
1804.71077	0.00328
1802.65060	0.00320
1800.59043	0.00313
1798.53026	0.00305
1796.47009	0.00295
1794.40991	0.00281
1792.34974	0.00271
1790.28957	0.00275
1788.22940	0.00294
1786.16923	0.00311
1784.10905	0.00313
1782.04888	0.00299
1779.98871	0.00279
1777.92854	0.00262
1775.86836	0.00255
1773.80819	0.00257
1771.74802	0.00277
1769.68785	0.00314
1767.62768	0.00366
1765.56750	0.00431
1763.50733	0.00507
1761.44716	0.00596
1759.38699	0.00699
1757.32682	0.00823
1755.26664	0.00970
1753.20647	0.01135
1751.14630	0.01310
1749.08613	0.01482
1747.02596	0.01635
1744.96578	0.01755
1742.90561	0.01833
1740.84544	0.01869
1738.78527	0.01869
1736.72509	0.01841
1734.66492	0.01793
1732.60475	0.01740
1730.54458	0.01704
1728.48441	0.01692
1726.42423	0.01696
1724.36406	0.01704
1722.30389	0.01703
1720.24372	0.01686
1718.18355	0.01652
1716.12337	0.01621
1714.06320	0.01612
1712.00303	0.01619
1709.94286	0.01620
1707.88268	0.01600
1705.82251	0.01562
1703.76234	0.01520
1701.70217	0.01489
1699.64200	0.01477
1697.58182	0.01495
1695.52165	0.01548
1693.46148	0.01626
1691.40131	0.01718
1689.34114	0.01816
1687.28096	0.01921
1685.22079	0.02046
1683.16062	0.02195
1681.10045	0.02352
1679.04028	0.02498
1676.98010	0.02615
1674.91993	0.02695
1672.85976	0.02735
1670.79959	0.02736
1668.73941	0.02709
1666.67924	0.02671
1664.61907	0.02635
1662.55890	0.02598
1660.49873	0.02560
1658.43855	0.02524
1656.37838	0.02487
1654.31821	0.02438
1652.25804	0.02384
1650.19787	0.02352
1648.13769	0.02351
1646.07752	0.02372
1644.01735	0.02407
1641.95718	0.02454
1639.89701	0.02509
1637.83683	0.02570
1635.77666	0.02632
1633.71649	0.02691
1631.65632	0.02741
1629.59614	0.02782
1627.53597	0.02811
1625.47580	0.02831
1623.41563	0.02844
1621.35546	0.02857
1619.29528	0.02878
1617.23511	0.02915
1615.17494	0.02976
1613.11477	0.03063
1611.05460	0.03167
1608.99442	0.03267
1606.93425	0.03341
1604.87408	0.03368
1602.81391	0.03331
1600.75373	0.03238
1598.69356	0.03109
1596.63339	0.02970
1594.57322	0.02840
1592.51305	0.02729
1590.45287	0.02639
1588.39270	0.02563
1586.33253	0.02492
1584.27236	0.02420
1582.21219	0.02343
1580.15201	0.02263
1578.09184	0.02178
1576.03167	0.02093
1573.97150	0.02016
1571.91133	0.01952
1569.85115	0.01894
1567.79098	0.01835
1565.73081	0.01770
1563.67064	0.01695
1561.61046	0.01608
1559.55029	0.01507
1557.49012	0.01401
1555.42995	0.01321
1553.36978	0.01274
1551.30960	0.01244
1549.24943	0.01210
1547.18926	0.01157
1545.12909	0.01084
1543.06892	0.00996
1541.00874	0.00911
1538.94857	0.00852
1536.88840	0.00823
1534.82823	0.00811
1532.76805	0.00801
1530.70788	0.00786
1528.64771	0.00768
1526.58754	0.00752
1524.52737	0.00757
1522.46719	0.00807
1520.40702	0.00906
1518.34685	0.01022
1516.28668	0.01112
1514.22651	0.01145
1512.16633	0.01109
1510.10616	0.01012
1508.04599	0.00878
1505.98582	0.00745
1503.92565	0.00639
1501.86547	0.00554
1499.80530	0.00475
1497.74513	0.00405
1495.68496	0.00352
1493.62478	0.00320
1491.56461	0.00300
1489.50444	0.00288
1487.44427	0.00286
1485.38410	0.00300
1483.32392	0.00331
1481.26375	0.00378
1479.20358	0.00437
1477.14341	0.00515
1475.08324	0.00624
1473.02306	0.00772
1470.96289	0.00954
1468.90272	0.01145
1466.84255	0.01325
1464.78238	0.01479
1462.72220	0.01599
1460.66203	0.01688
1458.60186	0.01759
1456.54169	0.01822
1454.48151	0.01883
1452.42134	0.01945
1450.36117	0.02012
1448.30100	0.02086
1446.24083	0.02164
1444.18065	0.02236
1442.12048	0.02298
1440.06031	0.02353
1438.00014	0.02401
1435.93997	0.02441
1433.87979	0.02466
1431.81962	0.02470
1429.75945	0.02460
1427.69928	0.02451
1425.63910	0.02454
1423.57893	0.02463
1421.51876	0.02473
1419.45859	0.02477
1417.39842	0.02477
1415.33824	0.02470
1413.27807	0.02452
1411.21790	0.02420
1409.15773	0.02376
1407.09756	0.02318
1405.03738	0.02248
1402.97721	0.02168
1400.91704	0.02088
1398.85687	0.02017
1396.79670	0.01963
1394.73652	0.01931
1392.67635	0.01918
1390.61618	0.01919
1388.55601	0.01933
1386.49583	0.01964
1384.43566	0.02013
1382.37549	0.02079
1380.31532	0.02153
1378.25515	0.02220
1376.19497	0.02269
1374.13480	0.02294
1372.07463	0.02300
1370.01446	0.02293
1367.95429	0.02273
1365.89411	0.02243
1363.83394	0.02206
1361.77377	0.02167
1359.71360	0.02132
1357.65343	0.02104
1355.59325	0.02082
1353.53308	0.02062
1351.47291	0.02042
1349.41274	0.02027
1347.35256	0.02018
1345.29239	0.02017
1343.23222	0.02020
1341.17205	0.02024
1339.11188	0.02022
1337.05170	0.02013
1334.99153	0.02004
1332.93136	0.02002
1330.87119	0.02007
1328.81102	0.02018
1326.75084	0.02034
1324.69067	0.02054
1322.63050	0.02077
1320.57033	0.02094
1318.51015	0.02096
1316.44998	0.02079
1314.38981	0.02049
1312.32964	0.02008
1310.26947	0.01960
1308.20929	0.01908
1306.14912	0.01851
1304.08895	0.01793
1302.02878	0.01745
1299.96861	0.01709
1297.90843	0.01687
1295.84826	0.01679
1293.78809	0.01681
1291.72792	0.01687
1289.66775	0.01697
1287.60757	0.01709
1285.54740	0.01725
1283.48723	0.01740
1281.42706	0.01755
1279.36688	0.01777
1277.30671	0.01806
1275.24654	0.01837
1273.18637	0.01868
1271.12620	0.01904
1269.06602	0.01952
1267.00585	0.02012
1264.94568	0.02079
1262.88551	0.02147
1260.82534	0.02209
1258.76516	0.02262
1256.70499	0.02302
1254.64482	0.02332
1252.58465	0.02357
1250.52447	0.02380
1248.46430	0.02405
1246.40413	0.02429
1244.34396	0.02448
1242.28379	0.02462
1240.22361	0.02468
1238.16344	0.02460
1236.10327	0.02432
1234.04310	0.02387
1231.98293	0.02328
1229.92275	0.02257
1227.86258	0.02173
1225.80241	0.02076
1223.74224	0.01969
1221.68207	0.01857
1219.62189	0.01746
1217.56172	0.01640
1215.50155	0.01540
1213.44138	0.01442
1211.38120	0.01346
1209.32103	0.01249
1207.26086	0.01147
1205.20069	0.01041
1203.14052	0.00933
1201.08034	0.00820
1199.02017	0.00698
1196.96000	0.00572
1194.89983	0.00472
1192.83966	0.00410
1190.77948	0.00369
1188.71931	0.00339
1186.65914	0.00323
1184.59897	0.00320
1182.53880	0.00347
1180.47862	0.00403
1178.41845	0.00487
1176.35828	0.00608
1174.29811	0.00775
1172.23793	0.00969
1170.17776	0.01156
1168.11759	0.01307
1166.05742	0.01405
1163.99725	0.01462
1161.93707	0.01506
1159.87690	0.01555
1157.81673	0.01604
1155.75656	0.01649
1153.69639	0.01704
1151.63621	0.01776
1149.57604	0.01864
1147.51587	0.01957
1145.45570	0.02046
1143.39552	0.02124
1141.33535	0.02194
1139.27518	0.02257
1137.21501	0.02309
1135.15484	0.02350
1133.09466	0.02391
1131.03449	0.02456
1128.97432	0.02548
1126.91415	0.02649
1124.85398	0.02752
1122.79380	0.02862
1120.73363	0.02964
1118.67346	0.03054
1116.61329	0.03150
1114.55312	0.03253
1112.49294	0.03347
1110.43277	0.03437
1108.37260	0.03529
1106.31243	0.03617
1104.25225	0.03701
1102.19208	0.03798
1100.13191	0.03925
1098.07174	0.04084
1096.01157	0.04261
1093.95139	0.04438
1091.89122	0.04607
1089.83105	0.04764
1087.77088	0.04899
1085.71071	0.05021
1083.65053	0.05154
1081.59036	0.05306
1079.53019	0.05466
1077.47002	0.05628
1075.40985	0.05799
1073.34967	0.05972
1071.28950	0.06131
1069.22933	0.06270
1067.16916	0.06389
1065.10898	0.06496
1063.04881	0.06604
1060.98864	0.06710
1058.92847	0.06813
1056.86830	0.06925
1054.80812	0.07060
1052.74795	0.07213
1050.68778	0.07371
1048.62761	0.07541
1046.56744	0.07733
1044.50726	0.07925
1042.44709	0.08094
1040.38692	0.08240
1038.32675	0.08373
1036.26657	0.08487
1034.20640	0.08572
1032.14623	0.08630
1030.08606	0.08659
1028.02589	0.08652
1025.96571	0.08609
1023.90554	0.08550
1021.84537	0.08502
1019.78520	0.08475
1017.72503	0.08457
1015.66485	0.08440
1013.60468	0.08427
1011.54451	0.08418
1009.48434	0.08406
1007.42417	0.08391
1005.36399	0.08380
1003.30382	0.08361
1001.24365	0.08310
999.18348	0.08221
997.12330	0.08099
995.06313	0.07949
993.00296	0.07796
990.94279	0.07672
988.88262	0.07577
986.82244	0.07478
984.76227	0.07345
982.70210	0.07188
980.64193	0.07043
978.58176	0.06925
976.52158	0.06823
974.46141	0.06711
972.40124	0.06559
970.34107	0.06388
968.28089	0.06252
966.22072	0.06153
964.16055	0.06042
962.10038	0.05885
960.04021	0.05710
957.98003	0.05566
955.91986	0.05441
953.85969	0.05308
951.79952	0.05184
949.73935	0.05083
947.67917	0.04990
945.61900	0.04884
943.55883	0.04743
941.49866	0.04537
939.43849	0.04269
937.37831	0.03967
935.31814	0.03660
933.25797	0.03380
931.19780	0.03143
929.13762	0.02942
927.07745	0.02772
925.01728	0.02626
922.95711	0.02488
920.89694	0.02340
918.83676	0.02192
916.77659	0.02055
914.71642	0.01924
912.65625	0.01802
910.59608	0.01688
908.53590	0.01573
906.47573	0.01478
904.41556	0.01424
902.35539	0.01402
900.29522	0.01403
898.23504	0.01427
896.17487	0.01463
894.11470	0.01502
892.05453	0.01528
889.99435	0.01523
887.93418	0.01473
885.87401	0.01379
883.81384	0.01274
881.75367	0.01180
879.69349	0.01089
877.63332	0.01008
875.57315	0.00946
873.51298	0.00896
871.45281	0.00861
869.39263	0.00838
867.33246	0.00815
865.27229	0.00796
863.21212	0.00776
861.15194	0.00747
859.09177	0.00715
857.03160	0.00700
854.97143	0.00717
852.91126	0.00742
850.85108	0.00751
848.79091	0.00745
846.73074	0.00743
844.67057	0.00747
842.61040	0.00730
840.55022	0.00673
838.49005	0.00607
836.42988	0.00562
834.36971	0.00546
832.30954	0.00533
830.24936	0.00505
828.18919	0.00479
826.12902	0.00462
824.06885	0.00429
822.00867	0.00384
819.94850	0.00365
817.88833	0.00384
815.82816	0.00416
813.76799	0.00426
811.70781	0.00408
809.64764	0.00389
807.58747	0.00388
805.52730	0.00390
803.46713	0.00393
801.40695	0.00398
799.34678	0.00391
797.28661	0.00372
795.22644	0.00361
793.16627	0.00361
791.10609	0.00348
789.04592	0.00316
786.98575	0.00280
784.92558	0.00258
782.86540	0.00281
780.80523	0.00347
778.74506	0.00391
776.68489	0.00371
774.62472	0.00332
772.56454	0.00329
770.50437	0.00355
768.44420	0.00374
766.38403	0.00381
764.32386	0.00394
762.26368	0.00395
760.20351	0.00360
758.14334	0.00335
756.08317	0.00357
754.02299	0.00393
751.96282	0.00399
749.90265	0.00373
747.84248	0.00340
745.78231	0.00357
743.72213	0.00370
741.66196	0.00333
739.60179	0.00267
737.54162	0.00223
735.48145	0.00234
733.42127	0.00274
731.36110	0.00297
729.30093	0.00305
727.24076	0.00311
725.18059	0.00320
723.12041	0.00350
721.06024	0.00395
719.00007	0.00441
716.93990	0.00470
714.87972	0.00481
712.81955	0.00496
710.75938	0.00534
708.69921	0.00593
706.63904	0.00653
704.57886	0.00691
702.51869	0.00704
700.45852	0.00700
698.39835	0.00683
696.33818	0.00648
694.27800	0.00597
692.21783	0.00541
690.15766	0.00497
688.09749	0.00472
686.03731	0.00468
683.97714	0.00478
681.91697	0.00487
679.85680	0.00472
677.79663	0.00435
675.73645	0.00385
673.67628	0.00312
671.61611	0.00197
669.55594	0.00085
667.49577	0.00107
665.43559	0.00287
663.37542	0.00458
661.31525	0.00530
659.25508	0.00511
657.19491	0.00448
655.13473	0.00385
653.07456	0.00343
651.01439	0.00322
648.95422	0.00314
646.89404	0.00314
644.83387	0.00348
642.77370	0.00418
640.71353	0.00506
638.65336	0.00576
636.59318	0.00596
634.53301	0.00568
632.47284	0.00530
630.41267	0.00511
628.35250	0.00496
626.29232	0.00418
624.23215	0.00229
622.17198	0.00086
620.11181	0.00146
618.05164	0.00328
615.99146	0.00431
613.93129	0.00416
611.87112	0.00353
609.81095	0.00255
607.75077	0.00128
605.69060	0.00024
603.63043	0.00000
601.57026	0.00004
599.51009	0.00000
