3996.73391	0.00004
3994.67373	0.00008
3992.61356	0.00012
3990.55339	0.00018
3988.49322	0.00023
3986.43305	0.00023
3984.37287	0.00018
3982.31270	0.00010
3980.25253	0.00004
3978.19236	0.00002
3976.13219	0.00005
3974.07201	0.00012
3972.01184	0.00017
3969.95167	0.00017
3967.89150	0.00011
3965.83133	0.00003
3963.77115	0.00000
3961.71098	0.00006
3959.65081	0.00018
3957.59064	0.00032
3955.53046	0.00041
3953.47029	0.00043
3951.41012	0.00037
3949.34995	0.00023
3947.28978	0.00010
3945.22960	0.00008
3943.16943	0.00018
3941.10926	0.00030
3939.04909	0.00037
3936.98892	0.00039
3934.92874	0.00038
3932.86857	0.00035
3930.80840	0.00036
3928.74823	0.00042
3926.68805	0.00046
3924.62788	0.00040
3922.56771	0.00026
3920.50754	0.00014
3918.44737	0.00012
3916.38719	0.00017
3914.32702	0.00028
3912.26685	0.00042
3910.20668	0.00056
3908.14651	0.00063
3906.08633	0.00063
3904.02616	0.00054
3901.96599	0.00047
3899.90582	0.00053
3897.84565	0.00061
3895.78547	0.00064
3893.72530	0.00060
3891.66513	0.00045
3889.60496	0.00028
3887.54478	0.00019
3885.48461	0.00018
3883.42444	0.00020
3881.36427	0.00026
3879.30410	0.00035
3877.24392	0.00050
3875.18375	0.00064
3873.12358	0.00064
3871.06341	0.00050
3869.00324	0.00030
3866.94306	0.00020
3864.88289	0.00021
3862.82272	0.00023
3860.76255	0.00024
3858.70237	0.00027
3856.64220	0.00028
3854.58203	0.00022
3852.52186	0.00016
3850.46169	0.00026
3848.40151	0.00057
3846.34134	0.00092
3844.28117	0.00107
3842.22100	0.00097
3840.16083	0.00072
3838.10065	0.00049
3836.04048	0.00040
3833.98031	0.00051
3831.92014	0.00070
3829.85997	0.00086
3827.79979	0.00099
3825.73962	0.00112
3823.67945	0.00118
3821.61928	0.00109
3819.55910	0.00088
3817.49893	0.00077
3815.43876	0.00081
3813.37859	0.00090
3811.31842	0.00102
3809.25824	0.00116
3807.19807	0.00132
3805.13790	0.00152
3803.07773	0.00175
3801.01756	0.00180
3798.95738	0.00164
3796.89721	0.00149
3794.83704	0.00150
3792.77687	0.00165
3790.71670	0.00181
3788.65652	0.00190
3786.59635	0.00189
3784.53618	0.00185
3782.47601	0.00183
3780.41583	0.00187
3778.35566	0.00193
3776.29549	0.00196
3774.23532	0.00197
3772.17515	0.00196
3770.11497	0.00187
3768.05480	0.00171
3765.99463	0.00158
3763.93446	0.00152
3761.87429	0.00144
3759.81411	0.00131
3757.75394	0.00114
3755.69377	0.00105
3753.63360	0.00104
3751.57342	0.00091
3749.51325	0.00055
3747.45308	0.00023
3745.39291	0.00023
3743.33274	0.00047
3741.27256	0.00080
3739.21239	0.00111
3737.15222	0.00129
3735.09205	0.00130
3733.03188	0.00126
3730.97170	0.00136
3728.91153	0.00161
3726.85136	0.00186
3724.79119	0.00195
3722.73102	0.00189
3720.67084	0.00172
3718.61067	0.00152
3716.55050	0.00137
3714.49033	0.00134
3712.43015	0.00140
3710.36998	0.00147
3708.30981	0.00153
3706.24964	0.00161
3704.18947	0.00169
3702.12929	0.00171
3700.06912	0.00171
3698.00895	0.00175
3695.94878	0.00179
3693.88861	0.00170
3691.82843	0.00148
3689.76826	0.00122
3687.70809	0.00106
3685.64792	0.00114
3683.58775	0.00141
3681.52757	0.00164
3679.46740	0.00162
3677.40723	0.00125
3675.34706	0.00068
3673.28688	0.00027
3671.22671	0.00034
3669.16654	0.00079
3667.10637	0.00133
3665.04620	0.00178
3662.98602	0.00209
3660.92585	0.00229
3658.86568	0.00240
3656.80551	0.00235
3654.74534	0.00209
3652.68516	0.00177
3650.62499	0.00157
3648.56482	0.00162
3646.50465	0.00196
3644.44447	0.00247
3642.38430	0.00298
3640.32413	0.00331
3638.26396	0.00337
3636.20379	0.00323
3634.14361	0.00307
3632.08344	0.00303
3630.02327	0.00316
3627.96310	0.00342
3625.90293	0.00380
3623.84275	0.00422
3621.78258	0.00453
3619.72241	0.00462
3617.66224	0.00450
3615.60207	0.00430
3613.54189	0.00413
3611.48172	0.00409
3609.42155	0.00425
3607.36138	0.00456
3605.30120	0.00499
3603.24103	0.00550
3601.18086	0.00599
3599.12069	0.00632
3597.06052	0.00641
3595.00034	0.00632
3592.94017	0.00618
3590.88000	0.00611
3588.81983	0.00620
3586.75966	0.00649
3584.69948	0.00699
3582.63931	0.00764
3580.57914	0.00823
3578.51897	0.00859
3576.45879	0.00874
3574.39862	0.00879
3572.33845	0.00885
3570.27828	0.00898
3568.21811	0.00915
3566.15793	0.00935
3564.09776	0.00958
3562.03759	0.00989
3559.97742	0.01026
3557.91725	0.01068
3555.85707	0.01109
3553.79690	0.01148
3551.73673	0.01180
3549.67656	0.01206
3547.61639	0.01231
3545.55621	0.01259
3543.49604	0.01292
3541.43587	0.01332
3539.37570	0.01379
3537.31552	0.01431
3535.25535	0.01481
3533.19518	0.01517
3531.13501	0.01538
3529.07484	0.01546
3527.01466	0.01554
3524.95449	0.01573
3522.89432	0.01607
3520.83415	0.01652
3518.77398	0.01703
3516.71380	0.01750
3514.65363	0.01784
3512.59346	0.01806
3510.53329	0.01822
3508.47312	0.01843
3506.41294	0.01872
3504.35277	0.01904
3502.29260	0.01932
3500.23243	0.01956
3498.17225	0.01986
3496.11208	0.02025
3494.05191	0.02074
3491.99174	0.02123
3489.93157	0.02164
3487.87139	0.02193
3485.81122	0.02213
3483.75105	0.02229
3481.69088	0.02250
3479.63071	0.02282
3477.57053	0.02323
3475.51036	0.02366
3473.45019	0.02406
3471.39002	0.02443
3469.32984	0.02483
3467.26967	0.02526
3465.20950	0.02569
3463.14933	0.02606
3461.08916	0.02633
3459.02898	0.02652
3456.96881	0.02672
3454.90864	0.02698
3452.84847	0.02729
3450.78830	0.02761
3448.72812	0.02789
3446.66795	0.02814
3444.60778	0.02842
3442.54761	0.02880
3440.48744	0.02922
3438.42726	0.02957
3436.36709	0.02978
3434.30692	0.02993
3432.24675	0.03012
3430.18657	0.03037
3428.12640	0.03068
3426.06623	0.03100
3424.00606	0.03132
3421.94589	0.03161
3419.88571	0.03185
3417.82554	0.03206
3415.76537	0.03225
3413.70520	0.03239
3411.64503	0.03252
3409.58485	0.03267
3407.52468	0.03289
3405.46451	0.03317
3403.40434	0.03350
3401.34416	0.03383
3399.28399	0.03412
3397.22382	0.03439
3395.16365	0.03465
3393.10348	0.03488
3391.04330	0.03508
3388.98313	0.03526
3386.92296	0.03541
3384.86279	0.03552
3382.80262	0.03560
3380.74244	0.03570
3378.68227	0.03584
3376.62210	0.03601
3374.56193	0.03617
3372.50176	0.03632
3370.44158	0.03649
3368.38141	0.03665
3366.32124	0.03678
3364.26107	0.03686
3362.20089	0.03689
3360.14072	0.03696
3358.08055	0.03706
3356.02038	0.03718
3353.96021	0.03736
3351.90003	0.03761
3349.83986	0.03790
3347.77969	0.03814
3345.71952	0.03829
3343.65935	0.03832
3341.59917	0.03829
3339.53900	0.03827
3337.47883	0.03832
3335.41866	0.03837
3333.35849	0.03836
3331.29831	0.03826
3329.23814	0.03816
3327.17797	0.03817
3325.11780	0.03831
3323.05762	0.03851
3320.99745	0.03868
3318.93728	0.03880
3316.87711	0.03883
3314.81694	0.03880
3312.75676	0.03879
3310.69659	0.03887
3308.63642	0.03902
3306.57625	0.03914
3304.51608	0.03916
3302.45590	0.03907
3300.39573	0.03895
3298.33556	0.03888
3296.27539	0.03892
3294.21521	0.03906
3292.15504	0.03919
3290.09487	0.03926
3288.03470	0.03923
3285.97453	0.03914
3283.91435	0.03903
3281.85418	0.03893
3279.79401	0.03887
3277.73384	0.03882
3275.67367	0.03877
3273.61349	0.03871
3271.55332	0.03867
3269.49315	0.03864
3267.43298	0.03858
3265.37281	0.03847
3263.31263	0.03836
3261.25246	0.03828
3259.19229	0.03822
3257.13212	0.03815
3255.07194	0.03805
3253.01177	0.03797
3250.95160	0.03794
3248.89143	0.03794
3246.83126	0.03790
3244.77108	0.03776
3242.71091	0.03751
3240.65074	0.03722
3238.59057	0.03698
3236.53040	0.03684
3234.47022	0.03682
3232.41005	0.03687
3230.34988	0.03691
3228.28971	0.03690
3226.22954	0.03683
3224.16936	0.03672
3222.10919	0.03660
3220.04902	0.03645
3217.98885	0.03626
3215.92867	0.03605
3213.86850	0.03584
3211.80833	0.03568
3209.74816	0.03557
3207.68799	0.03549
3205.62781	0.03538
3203.56764	0.03521
3201.50747	0.03498
3199.44730	0.03476
3197.38713	0.03458
3195.32695	0.03445
3193.26678	0.03434
3191.20661	0.03424
3189.14644	0.03411
3187.08626	0.03394
3185.02609	0.03374
3182.96592	0.03359
3180.90575	0.03349
3178.84558	0.03337
3176.78540	0.03316
3174.72523	0.03288
3172.66506	0.03259
3170.60489	0.03237
3168.54472	0.03221
3166.48454	0.03205
3164.42437	0.03182
3162.36420	0.03150
3160.30403	0.03114
3158.24386	0.03084
3156.18368	0.03069
3154.12351	0.03066
3152.06334	0.03064
3150.00317	0.03055
3147.94299	0.03036
3145.88282	0.03011
3143.82265	0.02988
3141.76248	0.02971
3139.70231	0.02957
3137.64213	0.02940
3135.58196	0.02918
3133.52179	0.02892
3131.46162	0.02866
3129.40145	0.02841
3127.34127	0.02818
3125.28110	0.02797
3123.22093	0.02775
3121.16076	0.02753
3119.10058	0.02728
3117.04041	0.02701
3114.98024	0.02673
3112.92007	0.02650
3110.85990	0.02635
3108.79972	0.02625
3106.73955	0.02613
3104.67938	0.02591
3102.61921	0.02563
3100.55904	0.02534
3098.49886	0.02510
3096.43869	0.02491
3094.37852	0.02477
3092.31835	0.02466
3090.25818	0.02456
3088.19800	0.02444
3086.13783	0.02430
3084.07766	0.02415
3082.01749	0.02399
3079.95731	0.02379
3077.89714	0.02355
3075.83697	0.02332
3073.77680	0.02312
3071.71663	0.02297
3069.65645	0.02284
3067.59628	0.02268
3065.53611	0.02243
3063.47594	0.02213
3061.41577	0.02183
3059.35559	0.02159
3057.29542	0.02138
3055.23525	0.02118
3053.17508	0.02100
3051.11491	0.02089
3049.05473	0.02081
3046.99456	0.02074
3044.93439	0.02067
3042.87422	0.02058
3040.81404	0.02045
3038.75387	0.02025
3036.69370	0.02000
3034.63353	0.01972
3032.57336	0.01943
3030.51318	0.01916
3028.45301	0.01894
3026.39284	0.01882
3024.33267	0.01879
3022.27250	0.01884
3020.21232	0.01892
3018.15215	0.01899
3016.09198	0.01903
3014.03181	0.01903
3011.97163	0.01898
3009.91146	0.01888
3007.85129	0.01873
3005.79112	0.01857
3003.73095	0.01842
3001.67077	0.01829
2999.61060	0.01818
2997.55043	0.01805
2995.49026	0.01784
2993.43009	0.01760
2991.36991	0.01746
2989.30974	0.01747
2987.24957	0.01755
2985.18940	0.01765
2983.12923	0.01778
2981.06905	0.01800
2979.00888	0.01837
2976.94871	0.01881
2974.88854	0.01931
2972.82836	0.01988
2970.76819	0.02050
2968.70802	0.02119
2966.64785	0.02207
2964.58768	0.02318
2962.52750	0.02440
2960.46733	0.02559
2958.40716	0.02669
2956.34699	0.02780
2954.28682	0.02903
2952.22664	0.03037
2950.16647	0.03171
2948.10630	0.03303
2946.04613	0.03447
2943.98596	0.03615
2941.92578	0.03799
2939.86561	0.03984
2937.80544	0.04168
2935.74527	0.04355
2933.68509	0.04547
2931.62492	0.04734
2929.56475	0.04896
2927.50458	0.05023
2925.44441	0.05123
2923.38423	0.05214
2921.32406	0.05288
2919.26389	0.05322
2917.20372	0.05291
2915.14355	0.05175
2913.08337	0.04978
2911.02320	0.04749
2908.96303	0.04547
2906.90286	0.04389
2904.84268	0.04257
2902.78251	0.04126
2900.72234	0.03993
2898.66217	0.03871
2896.60200	0.03758
2894.54182	0.03651
2892.48165	0.03549
2890.42148	0.03460
2888.36131	0.03390
2886.30114	0.03334
2884.24096	0.03284
2882.18079	0.03233
2880.12062	0.03191
2878.06045	0.03166
2876.00028	0.03160
2873.94010	0.03173
2871.87993	0.03197
2869.81976	0.03227
2867.75959	0.03275
2865.69941	0.03352
2863.63924	0.03450
2861.57907	0.03565
2859.51890	0.03700
2857.45873	0.03845
2855.39855	0.03988
2853.33838	0.04110
2851.27821	0.04171
2849.21804	0.04119
2847.15787	0.03931
2845.09769	0.03651
2843.03752	0.03360
2840.97735	0.03115
2838.91718	0.02925
2836.85700	0.02777
2834.79683	0.02658
2832.73666	0.02571
2830.67649	0.02506
2828.61632	0.02444
2826.55614	0.02374
2824.49597	0.02306
2822.43580	0.02252
2820.37563	0.02214
2818.31546	0.02183
2816.25528	0.02152
2814.19511	0.02118
2812.13494	0.02082
2810.07477	0.02051
2808.01460	0.02022
2805.95442	0.01993
2803.89425	0.01966
2801.83408	0.01944
2799.77391	0.01924
2797.71373	0.01905
2795.65356	0.01887
2793.59339	0.01870
2791.53322	0.01853
2789.47305	0.01837
2787.41287	0.01827
2785.35270	0.01819
2783.29253	0.01804
2781.23236	0.01782
2779.17219	0.01760
2777.11201	0.01745
2775.05184	0.01734
2772.99167	0.01722
2770.93150	0.01707
2768.87133	0.01691
2766.81115	0.01683
2764.75098	0.01689
2762.69081	0.01697
2760.63064	0.01694
2758.57046	0.01680
2756.51029	0.01664
2754.45012	0.01654
2752.38995	0.01652
2750.32978	0.01653
2748.26960	0.01650
2746.20943	0.01638
2744.14926	0.01625
2742.08909	0.01619
2740.02892	0.01623
2737.96874	0.01625
2735.90857	0.01616
2733.84840	0.01602
2731.78823	0.01595
2729.72805	0.01595
2727.66788	0.01594
2725.60771	0.01590
2723.54754	0.01583
2721.48737	0.01575
2719.42719	0.01569
2717.36702	0.01563
2715.30685	0.01556
2713.24668	0.01548
2711.18651	0.01540
2709.12633	0.01540
2707.06616	0.01548
2705.00599	0.01554
2702.94582	0.01551
2700.88565	0.01544
2698.82547	0.01536
2696.76530	0.01531
2694.70513	0.01525
2692.64496	0.01518
2690.58478	0.01518
2688.52461	0.01522
2686.46444	0.01519
2684.40427	0.01513
2682.34410	0.01513
2680.28392	0.01514
2678.22375	0.01507
2676.16358	0.01494
2674.10341	0.01488
2672.04324	0.01483
2669.98306	0.01474
2667.92289	0.01466
2665.86272	0.01461
2663.80255	0.01453
2661.74238	0.01439
2659.68220	0.01431
2657.62203	0.01431
2655.56186	0.01433
2653.50169	0.01430
2651.44151	0.01423
2649.38134	0.01416
2647.32117	0.01410
2645.26100	0.01401
2643.20083	0.01389
2641.14065	0.01380
2639.08048	0.01374
2637.02031	0.01369
2634.96014	0.01370
2632.89997	0.01374
2630.83979	0.01371
2628.77962	0.01357
2626.71945	0.01345
2624.65928	0.01336
2622.59910	0.01323
2620.53893	0.01307
2618.47876	0.01298
2616.41859	0.01298
2614.35842	0.01298
2612.29824	0.01286
2610.23807	0.01274
2608.17790	0.01274
2606.11773	0.01273
2604.05756	0.01257
2601.99738	0.01236
2599.93721	0.01227
2597.87704	0.01227
2595.81687	0.01221
2593.75670	0.01204
2591.69652	0.01187
2589.63635	0.01179
2587.57618	0.01170
2585.51601	0.01149
2583.45583	0.01119
2581.39566	0.01102
2579.33549	0.01105
2577.27532	0.01115
2575.21515	0.01125
2573.15497	0.01128
2571.09480	0.01118
2569.03463	0.01093
2566.97446	0.01071
2564.91429	0.01065
2562.85411	0.01073
2560.79394	0.01082
2558.73377	0.01080
2556.67360	0.01072
2554.61342	0.01067
2552.55325	0.01061
2550.49308	0.01049
2548.43291	0.01043
2546.37274	0.01052
2544.31256	0.01066
2542.25239	0.01073
2540.19222	0.01067
2538.13205	0.01054
2536.07188	0.01040
2534.01170	0.01027
2531.95153	0.01013
2529.89136	0.00993
2527.83119	0.00970
2525.77102	0.00962
2523.71084	0.00981
2521.65067	0.01006
2519.59050	0.01009
2517.53033	0.00985
2515.47015	0.00961
2513.40998	0.00960
2511.34981	0.00968
2509.28964	0.00965
2507.22947	0.00952
2505.16929	0.00939
2503.10912	0.00930
2501.04895	0.00930
2498.98878	0.00940
2496.92861	0.00950
2494.86843	0.00947
2492.80826	0.00940
2490.74809	0.00943
2488.68792	0.00947
2486.62775	0.00941
2484.56757	0.00931
2482.50740	0.00924
2480.44723	0.00918
2478.38706	0.00904
2476.32688	0.00883
2474.26671	0.00873
2472.20654	0.00882
2470.14637	0.00895
2468.08620	0.00894
2466.02602	0.00883
2463.96585	0.00877
2461.90568	0.00891
2459.84551	0.00919
2457.78534	0.00932
2455.72516	0.00918
2453.66499	0.00901
2451.60482	0.00898
2449.54465	0.00900
2447.48447	0.00888
2445.42430	0.00866
2443.36413	0.00847
2441.30396	0.00835
2439.24379	0.00832
2437.18361	0.00836
2435.12344	0.00832
2433.06327	0.00821
2431.00310	0.00820
2428.94293	0.00830
2426.88275	0.00833
2424.82258	0.00830
2422.76241	0.00826
2420.70224	0.00821
2418.64207	0.00808
2416.58189	0.00790
2414.52172	0.00778
2412.46155	0.00777
2410.40138	0.00784
2408.34120	0.00793
2406.28103	0.00799
2404.22086	0.00798
2402.16069	0.00789
2400.10052	0.00781
2398.04034	0.00779
2395.98017	0.00782
2393.92000	0.00787
2391.85983	0.00793
2389.79966	0.00796
2387.73948	0.00793
2385.67931	0.00780
2383.61914	0.00759
2381.55897	0.00738
2379.49880	0.00726
2377.43862	0.00730
2375.37845	0.00744
2373.31828	0.00757
2371.25811	0.00760
2369.19793	0.00749
2367.13776	0.00737
2365.07759	0.00744
2363.01742	0.00768
2360.95725	0.00787
2358.89707	0.00781
2356.83690	0.00765
2354.77673	0.00761
2352.71656	0.00775
2350.65639	0.00797
2348.59621	0.00802
2346.53604	0.00782
2344.47587	0.00762
2342.41570	0.00757
2340.35552	0.00758
2338.29535	0.00751
2336.23518	0.00734
2334.17501	0.00716
2332.11484	0.00711
2330.05466	0.00723
2327.99449	0.00749
2325.93432	0.00773
2323.87415	0.00774
2321.81398	0.00749
2319.75380	0.00717
2317.69363	0.00697
2315.63346	0.00691
2313.57329	0.00695
2311.51312	0.00705
2309.45294	0.00717
2307.39277	0.00725
2305.33260	0.00727
2303.27243	0.00726
2301.21225	0.00725
2299.15208	0.00719
2297.09191	0.00709
2295.03174	0.00701
2292.97157	0.00702
2290.91139	0.00710
2288.85122	0.00717
2286.79105	0.00717
2284.73088	0.00708
2282.67071	0.00694
2280.61053	0.00680
2278.55036	0.00668
2276.49019	0.00658
2274.43002	0.00652
2272.36984	0.00652
2270.30967	0.00660
2268.24950	0.00668
2266.18933	0.00668
2264.12916	0.00657
2262.06898	0.00640
2260.00881	0.00620
2257.94864	0.00603
2255.88847	0.00597
2253.82830	0.00606
2251.76812	0.00621
2249.70795	0.00634
2247.64778	0.00635
2245.58761	0.00618
2243.52744	0.00606
2241.46726	0.00618
2239.40709	0.00624
2237.34692	0.00591
2235.28675	0.00540
2233.22657	0.00512
2231.16640	0.00509
2229.10623	0.00508
2227.04606	0.00497
2224.98589	0.00483
2222.92571	0.00486
2220.86554	0.00514
2218.80537	0.00558
2216.74520	0.00582
2214.68503	0.00564
2212.62485	0.00531
2210.56468	0.00516
2208.50451	0.00519
2206.44434	0.00516
2204.38417	0.00494
2202.32399	0.00485
2200.26382	0.00502
2198.20365	0.00514
2196.14348	0.00506
2194.08330	0.00503
2192.02313	0.00502
2189.96296	0.00463
2187.90279	0.00410
2185.84262	0.00415
2183.78244	0.00474
2181.72227	0.00502
2179.66210	0.00456
2177.60193	0.00391
2175.54176	0.00360
2173.48158	0.00344
2171.42141	0.00342
2169.36124	0.00387
2167.30107	0.00473
2165.24089	0.00555
2163.18072	0.00580
2161.12055	0.00511
2159.06038	0.00379
2157.00021	0.00286
2154.94003	0.00271
2152.87986	0.00286
2150.81969	0.00289
2148.75952	0.00279
2146.69935	0.00282
2144.63917	0.00317
2142.57900	0.00364
2140.51883	0.00373
2138.45866	0.00330
2136.39849	0.00283
2134.33831	0.00283
2132.27814	0.00328
2130.21797	0.00362
2128.15780	0.00364
2126.09762	0.00372
2124.03745	0.00408
2121.97728	0.00466
2119.91711	0.00534
2117.85694	0.00568
2115.79676	0.00544
2113.73659	0.00495
2111.67642	0.00467
2109.61625	0.00473
2107.55608	0.00485
2105.49590	0.00470
2103.43573	0.00433
2101.37556	0.00412
2099.31539	0.00411
2097.25521	0.00414
2095.19504	0.00417
2093.13487	0.00430
2091.07470	0.00457
2089.01453	0.00486
2086.95435	0.00505
2084.89418	0.00508
2082.83401	0.00500
2080.77384	0.00488
2078.71367	0.00477
2076.65349	0.00472
2074.59332	0.00471
2072.53315	0.00473
2070.47298	0.00478
2068.41281	0.00475
2066.35263	0.00456
2064.29246	0.00427
2062.23229	0.00406
2060.17212	0.00408
2058.11194	0.00431
2056.05177	0.00457
2053.99160	0.00475
2051.93143	0.00480
2049.87126	0.00474
2047.81108	0.00455
2045.75091	0.00415
2043.69074	0.00352
2041.63057	0.00284
2039.57040	0.00236
2037.51022	0.00219
2035.45005	0.00222
2033.38988	0.00231
2031.32971	0.00242
2029.26954	0.00261
2027.20936	0.00287
2025.14919	0.00306
2023.08902	0.00310
2021.02885	0.00300
2018.96867	0.00278
2016.90850	0.00252
2014.84833	0.00232
2012.78816	0.00218
2010.72799	0.00206
2008.66781	0.00204
2006.60764	0.00230
2004.54747	0.00276
2002.48730	0.00314
2000.42713	0.00318
1998.36695	0.00285
1996.30678	0.00233
1994.24661	0.00190
1992.18644	0.00171
1990.12626	0.00175
1988.06609	0.00190
1986.00592	0.00212
1983.94575	0.00235
1981.88558	0.00243
1979.82540	0.00228
1977.76523	0.00210
1975.70506	0.00203
1973.64489	0.00196
1971.58472	0.00179
1969.52454	0.00159
1967.46437	0.00142
1965.40420	0.00133
1963.34403	0.00139
1961.28386	0.00158
1959.22368	0.00183
1957.16351	0.00213
1955.10334	0.00248
1953.04317	0.00280
1950.98299	0.00293
1948.92282	0.00281
1946.86265	0.00253
1944.80248	0.00226
1942.74231	0.00213
1940.68213	0.00219
1938.62196	0.00239
1936.56179	0.00256
1934.50162	0.00264
1932.44145	0.00266
1930.38127	0.00268
1928.32110	0.00270
1926.26093	0.00270
1924.20076	0.00268
1922.14059	0.00261
1920.08041	0.00252
1918.02024	0.00244
1915.96007	0.00232
1913.89990	0.00219
1911.83972	0.00211
1909.77955	0.00214
1907.71938	0.00229
1905.65921	0.00253
1903.59904	0.00277
1901.53886	0.00294
1899.47869	0.00301
1897.41852	0.00300
1895.35835	0.00291
1893.29818	0.00279
1891.23800	0.00272
1889.17783	0.00269
1887.11766	0.00263
1885.05749	0.00256
1882.99731	0.00257
1880.93714	0.00270
1878.87697	0.00289
1876.81680	0.00301
1874.75663	0.00300
1872.69645	0.00287
1870.63628	0.00271
1868.57611	0.00259
1866.51594	0.00250
1864.45577	0.00242
1862.39559	0.00235
1860.33542	0.00232
1858.27525	0.00236
1856.21508	0.00242
1854.15491	0.00243
1852.09473	0.00238
1850.03456	0.00230
1847.97439	0.00224
1845.91422	0.00224
1843.85404	0.00228
1841.79387	0.00236
1839.73370	0.00247
1837.67353	0.00249
1835.61336	0.00239
1833.55318	0.00223
1831.49301	0.00212
1829.43284	0.00208
1827.37267	0.00208
1825.31250	0.00209
1823.25232	0.00204
1821.19215	0.00190
1819.13198	0.00174
1817.07181	0.00167
1815.01163	0.00173
1812.95146	0.00184
1810.89129	0.00189
1808.83112	0.00186
1806.77095	0.00179
1804.71077	0.00172
1802.65060	0.00168
1800.59043	0.00165
1798.53026	0.00162
1796.47009	0.00159
1794.40991	0.00157
1792.34974	0.00161
1790.28957	0.00170
1788.22940	0.00180
1786.16923	0.00184
1784.10905	0.00178
1782.04888	0.00168
1779.98871	0.00157
1777.92854	0.00147
1775.86836	0.00145
1773.80819	0.00144
1771.74802	0.00152
1769.68785	0.00170
1767.62768	0.00205
1765.56750	0.00257
1763.50733	0.00323
1761.44716	0.00398
1759.38699	0.00482
1757.32682	0.00578
1755.26664	0.00683
1753.20647	0.00797
1751.14630	0.00917
1749.08613	0.01035
1747.02596	0.01145
1744.96578	0.01243
1742.90561	0.01328
1740.84544	0.01400
1738.78527	0.01450
1736.72509	0.01477
1734.66492	0.01483
1732.60475	0.01473
1730.54458	0.01468
1728.48441	0.01477
1726.42423	0.01496
1724.36406	0.01514
1722.30389	0.01521
1720.24372	0.01514
1718.18355	0.01491
1716.12337	0.01463
1714.06320	0.01449
1712.00303	0.01453
1709.94286	0.01456
1707.88268	0.01443
1705.82251	0.01413
1703.76234	0.01377
1701.70217	0.01352
1699.64200	0.01343
1697.58182	0.01353
1695.52165	0.01388
1693.46148	0.01443
1691.40131	0.01517
1689.34114	0.01612
1687.28096	0.01734
1685.22079	0.01885
1683.16062	0.02049
1681.10045	0.02206
1679.04028	0.02351
1676.98010	0.02474
1674.91993	0.02561
1672.85976	0.02611
1670.79959	0.02626
1668.73941	0.02607
1666.67924	0.02568
1664.61907	0.02523
1662.55890	0.02469
1660.49873	0.02411
1658.43855	0.02365
1656.37838	0.02333
1654.31821	0.02298
1652.25804	0.02251
1650.19787	0.02214
1648.13769	0.02205
1646.07752	0.02213
1644.01735	0.02229
1641.95718	0.02259
1639.89701	0.02305
1637.83683	0.02367
1635.77666	0.02435
1633.71649	0.02498
1631.65632	0.02551
1629.59614	0.02596
1627.53597	0.02627
1625.47580	0.02646
1623.41563	0.02660
1621.35546	0.02674
1619.29528	0.02700
1617.23511	0.02743
1615.17494	0.02801
1613.11477	0.02883
1611.05460	0.02989
1608.99442	0.03100
1606.93425	0.03184
1604.87408	0.03215
1602.81391	0.03180
1600.75373	0.03089
1598.69356	0.02968
1596.63339	0.02842
1594.57322	0.02726
1592.51305	0.02628
1590.45287	0.02548
1588.39270	0.02478
1586.33253	0.02408
1584.27236	0.02332
1582.21219	0.02254
1580.15201	0.02178
1578.09184	0.02105
1576.03167	0.02031
1573.97150	0.01958
1571.91133	0.01895
1569.85115	0.01835
1567.79098	0.01769
1565.73081	0.01707
1563.67064	0.01654
1561.61046	0.01600
1559.55029	0.01520
1557.49012	0.01400
1555.42995	0.01287
1553.36978	0.01209
1551.30960	0.01155
1549.24943	0.01105
1547.18926	0.01046
1545.12909	0.00977
1543.06892	0.00903
1541.00874	0.00831
1538.94857	0.00766
1536.88840	0.00716
1534.82823	0.00689
1532.76805	0.00672
1530.70788	0.00654
1528.64771	0.00637
1526.58754	0.00624
1524.52737	0.00632
1522.46719	0.00678
1520.40702	0.00764
1518.34685	0.00875
1516.28668	0.00979
1514.22651	0.01031
1512.16633	0.01014
1510.10616	0.00934
1508.04599	0.00812
1505.98582	0.00676
1503.92565	0.00562
1501.86547	0.00485
1499.80530	0.00426
1497.74513	0.00369
1495.68496	0.00314
1493.62478	0.00268
1491.56461	0.00228
1489.50444	0.00190
1487.44427	0.00162
1485.38410	0.00161
1483.32392	0.00183
1481.26375	0.00220
1479.20358	0.00271
1477.14341	0.00347
1475.08324	0.00463
1473.02306	0.00620
1470.96289	0.00800
1468.90272	0.00978
1466.84255	0.01140
1464.78238	0.01272
1462.72220	0.01367
1460.66203	0.01430
1458.60186	0.01478
1456.54169	0.01524
1454.48151	0.01586
1452.42134	0.01670
1450.36117	0.01766
1448.30100	0.01859
1446.24083	0.01944
1444.18065	0.02018
1442.12048	0.02083
1440.06031	0.02136
1438.00014	0.02181
1435.93997	0.02216
1433.87979	0.02246
1431.81962	0.02272
1429.75945	0.02291
1427.69928	0.02301
1425.63910	0.02305
1423.57893	0.02306
1421.51876	0.02302
1419.45859	0.02296
1417.39842	0.02293
1415.33824	0.02297
1413.27807	0.02300
1411.21790	0.02287
1409.15773	0.02250
1407.09756	0.02193
1405.03738	0.02124
1402.97721	0.02049
1400.91704	0.01976
1398.85687	0.01906
1396.79670	0.01842
1394.73652	0.01795
1392.67635	0.01772
1390.61618	0.01776
1388.55601	0.01804
1386.49583	0.01848
1384.43566	0.01903
1382.37549	0.01961
1380.31532	0.02016
1378.25515	0.02061
1376.19497	0.02096
1374.13480	0.02118
1372.07463	0.02131
1370.01446	0.02137
1367.95429	0.02132
1365.89411	0.02110
1363.83394	0.02069
1361.77377	0.02020
1359.71360	0.01979
1357.65343	0.01956
1355.59325	0.01947
1353.53308	0.01946
1351.47291	0.01948
1349.41274	0.01949
1347.35256	0.01946
1345.29239	0.01935
1343.23222	0.01916
1341.17205	0.01890
1339.11188	0.01867
1337.05170	0.01858
1334.99153	0.01868
1332.93136	0.01886
1330.87119	0.01903
1328.81102	0.01916
1326.75084	0.01928
1324.69067	0.01939
1322.63050	0.01945
1320.57033	0.01947
1318.51015	0.01943
1316.44998	0.01933
1314.38981	0.01915
1312.32964	0.01887
1310.26947	0.01849
1308.20929	0.01804
1306.14912	0.01757
1304.08895	0.01710
1302.02878	0.01664
1299.96861	0.01620
1297.90843	0.01582
1295.84826	0.01560
1293.78809	0.01559
1291.72792	0.01574
1289.66775	0.01597
1287.60757	0.01621
1285.54740	0.01645
1283.48723	0.01665
1281.42706	0.01681
1279.36688	0.01693
1277.30671	0.01705
1275.24654	0.01717
1273.18637	0.01734
1271.12620	0.01763
1269.06602	0.01803
1267.00585	0.01856
1264.94568	0.01916
1262.88551	0.01980
1260.82534	0.02043
1258.76516	0.02102
1256.70499	0.02155
1254.64482	0.02202
1252.58465	0.02239
1250.52447	0.02267
1248.46430	0.02288
1246.40413	0.02308
1244.34396	0.02326
1242.28379	0.02340
1240.22361	0.02345
1238.16344	0.02339
1236.10327	0.02317
1234.04310	0.02277
1231.98293	0.02219
1229.92275	0.02147
1227.86258	0.02065
1225.80241	0.01976
1223.74224	0.01884
1221.68207	0.01788
1219.62189	0.01689
1217.56172	0.01585
1215.50155	0.01478
1213.44138	0.01371
1211.38120	0.01265
1209.32103	0.01165
1207.26086	0.01068
1205.20069	0.00968
1203.14052	0.00860
1201.08034	0.00741
1199.02017	0.00616
1196.96000	0.00495
1194.89983	0.00389
1192.83966	0.00303
1190.77948	0.00240
1188.71931	0.00200
1186.65914	0.00181
1184.59897	0.00174
1182.53880	0.00188
1180.47862	0.00230
1178.41845	0.00305
1176.35828	0.00420
1174.29811	0.00577
1172.23793	0.00765
1170.17776	0.00956
1168.11759	0.01114
1166.05742	0.01215
1163.99725	0.01265
1161.93707	0.01295
1159.87690	0.01326
1157.81673	0.01366
1155.75656	0.01417
1153.69639	0.01477
1151.63621	0.01554
1149.57604	0.01645
1147.51587	0.01739
1145.45570	0.01823
1143.39552	0.01895
1141.33535	0.01960
1139.27518	0.02017
1137.21501	0.02067
1135.15484	0.02119
1133.09466	0.02186
1131.03449	0.02267
1128.97432	0.02353
1126.91415	0.02442
1124.85398	0.02535
1122.79380	0.02633
1120.73363	0.02740
1118.67346	0.02850
1116.61329	0.02953
1114.55312	0.03045
1112.49294	0.03134
1110.43277	0.03221
1108.37260	0.03304
1106.31243	0.03390
1104.25225	0.03487
1102.19208	0.03596
1100.13191	0.03717
1098.07174	0.03853
1096.01157	0.04007
1093.95139	0.04180
1091.89122	0.04354
1089.83105	0.04511
1087.77088	0.04651
1085.71071	0.04790
1083.65053	0.04937
1081.59036	0.05091
1079.53019	0.05253
1077.47002	0.05431
1075.40985	0.05623
1073.34967	0.05808
1071.28950	0.05970
1069.22933	0.06107
1067.16916	0.06222
1065.10898	0.06323
1063.04881	0.06419
1060.98864	0.06519
1058.92847	0.06624
1056.86830	0.06737
1054.80812	0.06872
1052.74795	0.07035
1050.68778	0.07217
1048.62761	0.07398
1046.56744	0.07572
1044.50726	0.07747
1042.44709	0.07933
1040.38692	0.08123
1038.32675	0.08288
1036.26657	0.08400
1034.20640	0.08462
1032.14623	0.08492
1030.08606	0.08510
1028.02589	0.08518
1025.96571	0.08500
1023.90554	0.08451
1021.84537	0.08401
1019.78520	0.08365
1017.72503	0.08334
1015.66485	0.08311
1013.60468	0.08319
1011.54451	0.08350
1009.48434	0.08374
1007.42417	0.08378
1005.36399	0.08365
1003.30382	0.08327
1001.24365	0.08254
999.18348	0.08152
997.12330	0.08033
995.06313	0.07908
993.00296	0.07791
990.94279	0.07684
988.88262	0.07574
986.82244	0.07444
984.76227	0.07308
982.70210	0.07189
980.64193	0.07089
978.58176	0.06988
976.52158	0.06877
974.46141	0.06750
972.40124	0.06608
970.34107	0.06466
968.28089	0.06332
966.22072	0.06199
964.16055	0.06060
962.10038	0.05915
960.04021	0.05778
957.98003	0.05650
955.91986	0.05523
953.85969	0.05391
951.79952	0.05255
949.73935	0.05125
947.67917	0.05007
945.61900	0.04887
943.55883	0.04744
941.49866	0.04570
939.43849	0.04360
937.37831	0.04116
935.31814	0.03855
933.25797	0.03585
931.19780	0.03326
929.13762	0.03103
927.07745	0.02921
925.01728	0.02765
922.95711	0.02621
920.89694	0.02480
918.83676	0.02331
916.77659	0.02180
914.71642	0.02038
912.65625	0.01909
910.59608	0.01791
908.53590	0.01689
906.47573	0.01604
904.41556	0.01535
902.35539	0.01490
900.29522	0.01478
898.23504	0.01486
896.17487	0.01497
894.11470	0.01511
892.05453	0.01525
889.99435	0.01514
887.93418	0.01462
885.87401	0.01385
883.81384	0.01300
881.75367	0.01207
879.69349	0.01109
877.63332	0.01026
875.57315	0.00967
873.51298	0.00918
871.45281	0.00870
869.39263	0.00830
867.33246	0.00805
865.27229	0.00789
863.21212	0.00771
861.15194	0.00756
859.09177	0.00752
857.03160	0.00755
854.97143	0.00746
852.91126	0.00718
850.85108	0.00689
848.79091	0.00682
846.73074	0.00697
844.67057	0.00714
842.61040	0.00718
840.55022	0.00708
838.49005	0.00689
836.42988	0.00663
834.36971	0.00634
832.30954	0.00600
830.24936	0.00552
828.18919	0.00497
826.12902	0.00447
824.06885	0.00409
822.00867	0.00386
819.94850	0.00376
817.88833	0.00372
815.82816	0.00379
813.76799	0.00388
811.70781	0.00372
809.64764	0.00336
807.58747	0.00320
805.52730	0.00335
803.46713	0.00353
801.40695	0.00351
799.34678	0.00331
797.28661	0.00304
795.22644	0.00279
793.16627	0.00252
791.10609	0.00224
789.04592	0.00206
786.98575	0.00211
784.92558	0.00243
782.86540	0.00281
780.80523	0.00301
778.74506	0.00295
776.68489	0.00274
774.62472	0.00258
772.56454	0.00252
770.50437	0.00246
768.44420	0.00236
766.38403	0.00234
764.32386	0.00240
762.26368	0.00246
760.20351	0.00249
758.14334	0.00245
756.08317	0.00240
754.02299	0.00245
751.96282	0.00258
749.90265	0.00256
747.84248	0.00233
745.78231	0.00208
743.72213	0.00165
741.66196	0.00128
739.60179	0.00090
737.54162	0.00066
735.48145	0.00077
733.42127	0.00114
731.36110	0.00142
729.30093	0.00142
727.24076	0.00130
725.18059	0.00139
723.12041	0.00183
721.06024	0.00239
719.00007	0.00283
716.93990	0.00305
714.87972	0.00314
712.81955	0.00326
710.75938	0.00341
708.69921	0.00353
706.63904	0.00369
704.57886	0.00405
702.51869	0.00454
700.45852	0.00490
698.39835	0.00490
696.33818	0.00457
694.27800	0.00406
692.21783	0.00356
690.15766	0.00316
688.09749	0.00279
686.03731	0.00236
683.97714	0.00193
681.91697	0.00167
679.85680	0.00164
677.79663	0.00167
675.73645	0.00154
673.67628	0.00118
671.61611	0.00068
669.55594	0.00031
667.49577	0.00048
665.43559	0.00113
663.37542	0.00168
661.31525	0.00191
659.25508	0.00205
657.19491	0.00232
655.13473	0.00262
653.07456	0.00269
651.01439	0.00244
648.95422	0.00207
646.89404	0.00181
644.83387	0.00192
642.77370	0.00241
640.71353	0.00290
638.65336	0.00303
636.59318	0.00281
634.53301	0.00254
632.47284	0.00255
630.41267	0.00281
628.35250	0.00306
626.29232	0.00303
624.23215	0.00261
622.17198	0.00180
620.11181	0.00143
618.05164	0.00214
615.99146	0.00277
613.93129	0.00224
611.87112	0.00111
609.81095	0.00032
607.75077	0.00000
605.69060	0.00033
603.63043	0.00075
601.57026	0.00067
599.51009	0.00000
