3996.73391	0.00047
3994.67373	0.00043
3992.61356	0.00035
3990.55339	0.00026
3988.49322	0.00022
3986.43305	0.00025
3984.37287	0.00032
3982.31270	0.00038
3980.25253	0.00038
3978.19236	0.00031
3976.13219	0.00022
3974.07201	0.00014
3972.01184	0.00012
3969.95167	0.00012
3967.89150	0.00013
3965.83133	0.00013
3963.77115	0.00015
3961.71098	0.00023
3959.65081	0.00037
3957.59064	0.00052
3955.53046	0.00059
3953.47029	0.00054
3951.41012	0.00036
3949.34995	0.00014
3947.28978	0.00000
3945.22960	0.00002
3943.16943	0.00019
3941.10926	0.00037
3939.04909	0.00051
3936.98892	0.00057
3934.92874	0.00052
3932.86857	0.00040
3930.80840	0.00031
3928.74823	0.00034
3926.68805	0.00045
3924.62788	0.00050
3922.56771	0.00045
3920.50754	0.00036
3918.44737	0.00032
3916.38719	0.00032
3914.32702	0.00033
3912.26685	0.00035
3910.20668	0.00039
3908.14651	0.00043
3906.08633	0.00046
3904.02616	0.00047
3901.96599	0.00048
3899.90582	0.00054
3897.84565	0.00059
3895.78547	0.00060
3893.72530	0.00058
3891.66513	0.00054
3889.60496	0.00053
3887.54478	0.00056
3885.48461	0.00057
3883.42444	0.00054
3881.36427	0.00053
3879.30410	0.00056
3877.24392	0.00061
3875.18375	0.00060
3873.12358	0.00050
3871.06341	0.00041
3869.00324	0.00039
3866.94306	0.00042
3864.88289	0.00047
3862.82272	0.00050
3860.76255	0.00057
3858.70237	0.00067
3856.64220	0.00068
3854.58203	0.00054
3852.52186	0.00036
3850.46169	0.00031
3848.40151	0.00040
3846.34134	0.00054
3844.28117	0.00063
3842.22100	0.00064
3840.16083	0.00062
3838.10065	0.00063
3836.04048	0.00070
3833.98031	0.00081
3831.92014	0.00092
3829.85997	0.00102
3827.79979	0.00112
3825.73962	0.00124
3823.67945	0.00132
3821.61928	0.00128
3819.55910	0.00113
3817.49893	0.00096
3815.43876	0.00082
3813.37859	0.00071
3811.31842	0.00063
3809.25824	0.00057
3807.19807	0.00055
3805.13790	0.00061
3803.07773	0.00075
3801.01756	0.00089
3798.95738	0.00092
3796.89721	0.00088
3794.83704	0.00087
3792.77687	0.00092
3790.71670	0.00103
3788.65652	0.00117
3786.59635	0.00135
3784.53618	0.00149
3782.47601	0.00157
3780.41583	0.00154
3778.35566	0.00143
3776.29549	0.00128
3774.23532	0.00114
3772.17515	0.00100
3770.11497	0.00085
3768.05480	0.00070
3765.99463	0.00063
3763.93446	0.00064
3761.87429	0.00067
3759.81411	0.00066
3757.75394	0.00058
3755.69377	0.00049
3753.63360	0.00048
3751.57342	0.00054
3749.51325	0.00054
3747.45308	0.00046
3745.39291	0.00045
3743.33274	0.00056
3741.27256	0.00074
3739.21239	0.00093
3737.15222	0.00107
3735.09205	0.00109
3733.03188	0.00097
3730.97170	0.00083
3728.91153	0.00079
3726.85136	0.00084
3724.79119	0.00090
3722.73102	0.00092
3720.67084	0.00090
3718.61067	0.00087
3716.55050	0.00083
3714.49033	0.00079
3712.43015	0.00083
3710.36998	0.00097
3708.30981	0.00109
3706.24964	0.00105
3704.18947	0.00085
3702.12929	0.00063
3700.06912	0.00055
3698.00895	0.00071
3695.94878	0.00101
3693.88861	0.00125
3691.82843	0.00132
3689.76826	0.00120
3687.70809	0.00099
3685.64792	0.00090
3683.58775	0.00102
3681.52757	0.00125
3679.46740	0.00142
3677.40723	0.00138
3675.34706	0.00110
3673.28688	0.00081
3671.22671	0.00073
3669.16654	0.00088
3667.10637	0.00115
3665.04620	0.00142
3662.98602	0.00161
3660.92585	0.00175
3658.86568	0.00190
3656.80551	0.00205
3654.74534	0.00213
3652.68516	0.00213
3650.62499	0.00207
3648.56482	0.00203
3646.50465	0.00206
3644.44447	0.00213
3642.38430	0.00222
3640.32413	0.00235
3638.26396	0.00249
3636.20379	0.00260
3634.14361	0.00262
3632.08344	0.00257
3630.02327	0.00253
3627.96310	0.00260
3625.90293	0.00286
3623.84275	0.00321
3621.78258	0.00352
3619.72241	0.00375
3617.66224	0.00395
3615.60207	0.00420
3613.54189	0.00445
3611.48172	0.00464
3609.42155	0.00477
3607.36138	0.00488
3605.30120	0.00507
3603.24103	0.00538
3601.18086	0.00572
3599.12069	0.00595
3597.06052	0.00602
3595.00034	0.00599
3592.94017	0.00597
3590.88000	0.00606
3588.81983	0.00632
3586.75966	0.00666
3584.69948	0.00696
3582.63931	0.00719
3580.57914	0.00735
3578.51897	0.00747
3576.45879	0.00760
3574.39862	0.00783
3572.33845	0.00825
3570.27828	0.00880
3568.21811	0.00929
3566.15793	0.00955
3564.09776	0.00967
3562.03759	0.00987
3559.97742	0.01028
3557.91725	0.01085
3555.85707	0.01143
3553.79690	0.01189
3551.73673	0.01213
3549.67656	0.01216
3547.61639	0.01209
3545.55621	0.01214
3543.49604	0.01243
3541.43587	0.01295
3539.37570	0.01357
3537.31552	0.01416
3535.25535	0.01467
3533.19518	0.01506
3531.13501	0.01533
3529.07484	0.01551
3527.01466	0.01569
3524.95449	0.01593
3522.89432	0.01623
3520.83415	0.01656
3518.77398	0.01690
3516.71380	0.01721
3514.65363	0.01751
3512.59346	0.01781
3510.53329	0.01808
3508.47312	0.01835
3506.41294	0.01863
3504.35277	0.01898
3502.29260	0.01938
3500.23243	0.01981
3498.17225	0.02024
3496.11208	0.02063
3494.05191	0.02097
3491.99174	0.02127
3489.93157	0.02152
3487.87139	0.02173
3485.81122	0.02195
3483.75105	0.02226
3481.69088	0.02269
3479.63071	0.02318
3477.57053	0.02363
3475.51036	0.02400
3473.45019	0.02429
3471.39002	0.02455
3469.32984	0.02485
3467.26967	0.02523
3465.20950	0.02567
3463.14933	0.02607
3461.08916	0.02635
3459.02898	0.02655
3456.96881	0.02676
3454.90864	0.02709
3452.84847	0.02752
3450.78830	0.02797
3448.72812	0.02835
3446.66795	0.02859
3444.60778	0.02871
3442.54761	0.02881
3440.48744	0.02900
3438.42726	0.02925
3436.36709	0.02954
3434.30692	0.02988
3432.24675	0.03029
3430.18657	0.03075
3428.12640	0.03117
3426.06623	0.03149
3424.00606	0.03176
3421.94589	0.03203
3419.88571	0.03229
3417.82554	0.03254
3415.76537	0.03279
3413.70520	0.03303
3411.64503	0.03325
3409.58485	0.03345
3407.52468	0.03363
3405.46451	0.03386
3403.40434	0.03416
3401.34416	0.03443
3399.28399	0.03461
3397.22382	0.03475
3395.16365	0.03492
3393.10348	0.03512
3391.04330	0.03532
3388.98313	0.03551
3386.92296	0.03571
3384.86279	0.03592
3382.80262	0.03610
3380.74244	0.03623
3378.68227	0.03633
3376.62210	0.03645
3374.56193	0.03660
3372.50176	0.03678
3370.44158	0.03699
3368.38141	0.03727
3366.32124	0.03761
3364.26107	0.03793
3362.20089	0.03817
3360.14072	0.03831
3358.08055	0.03839
3356.02038	0.03844
3353.96021	0.03846
3351.90003	0.03848
3349.83986	0.03854
3347.77969	0.03864
3345.71952	0.03876
3343.65935	0.03883
3341.59917	0.03887
3339.53900	0.03889
3337.47883	0.03891
3335.41866	0.03893
3333.35849	0.03891
3331.29831	0.03890
3329.23814	0.03894
3327.17797	0.03905
3325.11780	0.03919
3323.05762	0.03931
3320.99745	0.03938
3318.93728	0.03945
3316.87711	0.03956
3314.81694	0.03972
3312.75676	0.03991
3310.69659	0.04006
3308.63642	0.04014
3306.57625	0.04015
3304.51608	0.04010
3302.45590	0.04000
3300.39573	0.03990
3298.33556	0.03984
3296.27539	0.03984
3294.21521	0.03986
3292.15504	0.03983
3290.09487	0.03975
3288.03470	0.03968
3285.97453	0.03964
3283.91435	0.03965
3281.85418	0.03968
3279.79401	0.03971
3277.73384	0.03972
3275.67367	0.03974
3273.61349	0.03975
3271.55332	0.03974
3269.49315	0.03970
3267.43298	0.03962
3265.37281	0.03953
3263.31263	0.03947
3261.25246	0.03947
3259.19229	0.03952
3257.13212	0.03956
3255.07194	0.03951
3253.01177	0.03938
3250.95160	0.03919
3248.89143	0.03900
3246.83126	0.03880
3244.77108	0.03863
3242.71091	0.03851
3240.65074	0.03840
3238.59057	0.03829
3236.53040	0.03817
3234.47022	0.03808
3232.41005	0.03803
3230.34988	0.03799
3228.28971	0.03793
3226.22954	0.03779
3224.16936	0.03762
3222.10919	0.03748
3220.04902	0.03739
3217.98885	0.03731
3215.92867	0.03720
3213.86850	0.03706
3211.80833	0.03691
3209.74816	0.03677
3207.68799	0.03665
3205.62781	0.03646
3203.56764	0.03619
3201.50747	0.03587
3199.44730	0.03562
3197.38713	0.03547
3195.32695	0.03539
3193.26678	0.03530
3191.20661	0.03516
3189.14644	0.03499
3187.08626	0.03484
3185.02609	0.03474
3182.96592	0.03466
3180.90575	0.03457
3178.84558	0.03442
3176.78540	0.03418
3174.72523	0.03389
3172.66506	0.03358
3170.60489	0.03332
3168.54472	0.03311
3166.48454	0.03289
3164.42437	0.03261
3162.36420	0.03229
3160.30403	0.03204
3158.24386	0.03192
3156.18368	0.03188
3154.12351	0.03183
3152.06334	0.03171
3150.00317	0.03150
3147.94299	0.03122
3145.88282	0.03093
3143.82265	0.03069
3141.76248	0.03051
3139.70231	0.03034
3137.64213	0.03016
3135.58196	0.02996
3133.52179	0.02976
3131.46162	0.02956
3129.40145	0.02937
3127.34127	0.02919
3125.28110	0.02897
3123.22093	0.02869
3121.16076	0.02842
3119.10058	0.02819
3117.04041	0.02799
3114.98024	0.02777
3112.92007	0.02753
3110.85990	0.02729
3108.79972	0.02706
3106.73955	0.02683
3104.67938	0.02662
3102.61921	0.02644
3100.55904	0.02628
3098.49886	0.02610
3096.43869	0.02590
3094.37852	0.02568
3092.31835	0.02548
3090.25818	0.02530
3088.19800	0.02514
3086.13783	0.02504
3084.07766	0.02498
3082.01749	0.02490
3079.95731	0.02475
3077.89714	0.02451
3075.83697	0.02422
3073.77680	0.02397
3071.71663	0.02378
3069.65645	0.02361
3067.59628	0.02342
3065.53611	0.02318
3063.47594	0.02290
3061.41577	0.02262
3059.35559	0.02238
3057.29542	0.02221
3055.23525	0.02209
3053.17508	0.02200
3051.11491	0.02192
3049.05473	0.02182
3046.99456	0.02168
3044.93439	0.02152
3042.87422	0.02136
3040.81404	0.02122
3038.75387	0.02109
3036.69370	0.02093
3034.63353	0.02073
3032.57336	0.02050
3030.51318	0.02026
3028.45301	0.02006
3026.39284	0.01990
3024.33267	0.01982
3022.27250	0.01980
3020.21232	0.01984
3018.15215	0.01989
3016.09198	0.01990
3014.03181	0.01982
3011.97163	0.01966
3009.91146	0.01946
3007.85129	0.01927
3005.79112	0.01910
3003.73095	0.01897
3001.67077	0.01889
2999.61060	0.01885
2997.55043	0.01881
2995.49026	0.01870
2993.43009	0.01854
2991.36991	0.01843
2989.30974	0.01841
2987.24957	0.01850
2985.18940	0.01866
2983.12923	0.01881
2981.06905	0.01901
2979.00888	0.01934
2976.94871	0.01975
2974.88854	0.02020
2972.82836	0.02071
2970.76819	0.02132
2968.70802	0.02209
2966.64785	0.02303
2964.58768	0.02414
2962.52750	0.02538
2960.46733	0.02665
2958.40716	0.02785
2956.34699	0.02900
2954.28682	0.03020
2952.22664	0.03150
2950.16647	0.03284
2948.10630	0.03418
2946.04613	0.03563
2943.98596	0.03732
2941.92578	0.03921
2939.86561	0.04114
2937.80544	0.04303
2935.74527	0.04490
2933.68509	0.04680
2931.62492	0.04865
2929.56475	0.05025
2927.50458	0.05154
2925.44441	0.05262
2923.38423	0.05352
2921.32406	0.05413
2919.26389	0.05429
2917.20372	0.05382
2915.14355	0.05257
2913.08337	0.05062
2911.02320	0.04838
2908.96303	0.04636
2906.90286	0.04480
2904.84268	0.04350
2902.78251	0.04217
2900.72234	0.04083
2898.66217	0.03962
2896.60200	0.03852
2894.54182	0.03752
2892.48165	0.03662
2890.42148	0.03583
2888.36131	0.03513
2886.30114	0.03451
2884.24096	0.03393
2882.18079	0.03340
2880.12062	0.03299
2878.06045	0.03275
2876.00028	0.03270
2873.94010	0.03286
2871.87993	0.03316
2869.81976	0.03351
2867.75959	0.03401
2865.69941	0.03475
2863.63924	0.03568
2861.57907	0.03675
2859.51890	0.03800
2857.45873	0.03942
2855.39855	0.04086
2853.33838	0.04206
2851.27821	0.04265
2849.21804	0.04206
2847.15787	0.04007
2845.09769	0.03723
2843.03752	0.03447
2840.97735	0.03232
2838.91718	0.03069
2836.85700	0.02929
2834.79683	0.02799
2832.73666	0.02693
2830.67649	0.02613
2828.61632	0.02546
2826.55614	0.02480
2824.49597	0.02415
2822.43580	0.02354
2820.37563	0.02303
2818.31546	0.02265
2816.25528	0.02234
2814.19511	0.02208
2812.13494	0.02189
2810.07477	0.02176
2808.01460	0.02158
2805.95442	0.02126
2803.89425	0.02091
2801.83408	0.02064
2799.77391	0.02046
2797.71373	0.02035
2795.65356	0.02028
2793.59339	0.02015
2791.53322	0.01990
2789.47305	0.01959
2787.41287	0.01941
2785.35270	0.01934
2783.29253	0.01923
2781.23236	0.01901
2779.17219	0.01878
2777.11201	0.01859
2775.05184	0.01845
2772.99167	0.01841
2770.93150	0.01844
2768.87133	0.01843
2766.81115	0.01832
2764.75098	0.01820
2762.69081	0.01814
2760.63064	0.01808
2758.57046	0.01797
2756.51029	0.01788
2754.45012	0.01787
2752.38995	0.01789
2750.32978	0.01790
2748.26960	0.01787
2746.20943	0.01780
2744.14926	0.01770
2742.08909	0.01763
2740.02892	0.01756
2737.96874	0.01747
2735.90857	0.01735
2733.84840	0.01730
2731.78823	0.01733
2729.72805	0.01739
2727.66788	0.01741
2725.60771	0.01735
2723.54754	0.01729
2721.48737	0.01730
2719.42719	0.01732
2717.36702	0.01723
2715.30685	0.01707
2713.24668	0.01692
2711.18651	0.01682
2709.12633	0.01678
2707.06616	0.01677
2705.00599	0.01674
2702.94582	0.01669
2700.88565	0.01669
2698.82547	0.01671
2696.76530	0.01669
2694.70513	0.01661
2692.64496	0.01651
2690.58478	0.01645
2688.52461	0.01646
2686.46444	0.01649
2684.40427	0.01646
2682.34410	0.01638
2680.28392	0.01633
2678.22375	0.01631
2676.16358	0.01632
2674.10341	0.01629
2672.04324	0.01617
2669.98306	0.01601
2667.92289	0.01589
2665.86272	0.01583
2663.80255	0.01581
2661.74238	0.01584
2659.68220	0.01589
2657.62203	0.01585
2655.56186	0.01575
2653.50169	0.01572
2651.44151	0.01576
2649.38134	0.01578
2647.32117	0.01572
2645.26100	0.01561
2643.20083	0.01551
2641.14065	0.01543
2639.08048	0.01534
2637.02031	0.01524
2634.96014	0.01517
2632.89997	0.01512
2630.83979	0.01505
2628.77962	0.01496
2626.71945	0.01497
2624.65928	0.01500
2622.59910	0.01488
2620.53893	0.01468
2618.47876	0.01455
2616.41859	0.01445
2614.35842	0.01430
2612.29824	0.01415
2610.23807	0.01407
2608.17790	0.01408
2606.11773	0.01407
2604.05756	0.01393
2601.99738	0.01378
2599.93721	0.01378
2597.87704	0.01387
2595.81687	0.01388
2593.75670	0.01373
2591.69652	0.01350
2589.63635	0.01332
2587.57618	0.01320
2585.51601	0.01300
2583.45583	0.01275
2581.39566	0.01272
2579.33549	0.01290
2577.27532	0.01304
2575.21515	0.01305
2573.15497	0.01293
2571.09480	0.01266
2569.03463	0.01237
2566.97446	0.01224
2564.91429	0.01226
2562.85411	0.01233
2560.79394	0.01240
2558.73377	0.01242
2556.67360	0.01241
2554.61342	0.01242
2552.55325	0.01236
2550.49308	0.01218
2548.43291	0.01208
2546.37274	0.01216
2544.31256	0.01227
2542.25239	0.01225
2540.19222	0.01215
2538.13205	0.01205
2536.07188	0.01198
2534.01170	0.01196
2531.95153	0.01196
2529.89136	0.01192
2527.83119	0.01180
2525.77102	0.01161
2523.71084	0.01141
2521.65067	0.01121
2519.59050	0.01108
2517.53033	0.01109
2515.47015	0.01119
2513.40998	0.01132
2511.34981	0.01143
2509.28964	0.01142
2507.22947	0.01129
2505.16929	0.01115
2503.10912	0.01114
2501.04895	0.01124
2498.98878	0.01131
2496.92861	0.01122
2494.86843	0.01107
2492.80826	0.01104
2490.74809	0.01109
2488.68792	0.01106
2486.62775	0.01097
2484.56757	0.01095
2482.50740	0.01099
2480.44723	0.01100
2478.38706	0.01091
2476.32688	0.01069
2474.26671	0.01052
2472.20654	0.01054
2470.14637	0.01062
2468.08620	0.01062
2466.02602	0.01059
2463.96585	0.01063
2461.90568	0.01074
2459.84551	0.01083
2457.78534	0.01071
2455.72516	0.01039
2453.66499	0.01018
2451.60482	0.01027
2449.54465	0.01050
2447.48447	0.01058
2445.42430	0.01039
2443.36413	0.01015
2441.30396	0.01013
2439.24379	0.01024
2437.18361	0.01029
2435.12344	0.01028
2433.06327	0.01022
2431.00310	0.01015
2428.94293	0.01013
2426.88275	0.01011
2424.82258	0.00999
2422.76241	0.00979
2420.70224	0.00967
2418.64207	0.00967
2416.58189	0.00968
2414.52172	0.00971
2412.46155	0.00976
2410.40138	0.00976
2408.34120	0.00970
2406.28103	0.00967
2404.22086	0.00969
2402.16069	0.00969
2400.10052	0.00974
2398.04034	0.00982
2395.98017	0.00984
2393.92000	0.00979
2391.85983	0.00972
2389.79966	0.00965
2387.73948	0.00958
2385.67931	0.00950
2383.61914	0.00949
2381.55897	0.00956
2379.49880	0.00968
2377.43862	0.00978
2375.37845	0.00980
2373.31828	0.00974
2371.25811	0.00961
2369.19793	0.00943
2367.13776	0.00926
2365.07759	0.00920
2363.01742	0.00926
2360.95725	0.00926
2358.89707	0.00910
2356.83690	0.00889
2354.77673	0.00886
2352.71656	0.00906
2350.65639	0.00938
2348.59621	0.00963
2346.53604	0.00971
2344.47587	0.00964
2342.41570	0.00947
2340.35552	0.00923
2338.29535	0.00898
2336.23518	0.00881
2334.17501	0.00874
2332.11484	0.00881
2330.05466	0.00906
2327.99449	0.00945
2325.93432	0.00978
2323.87415	0.00993
2321.81398	0.00988
2319.75380	0.00970
2317.69363	0.00948
2315.63346	0.00929
2313.57329	0.00913
2311.51312	0.00902
2309.45294	0.00899
2307.39277	0.00902
2305.33260	0.00907
2303.27243	0.00909
2301.21225	0.00901
2299.15208	0.00883
2297.09191	0.00865
2295.03174	0.00862
2292.97157	0.00879
2290.91139	0.00907
2288.85122	0.00928
2286.79105	0.00930
2284.73088	0.00913
2282.67071	0.00891
2280.61053	0.00872
2278.55036	0.00862
2276.49019	0.00861
2274.43002	0.00871
2272.36984	0.00885
2270.30967	0.00894
2268.24950	0.00894
2266.18933	0.00893
2264.12916	0.00890
2262.06898	0.00873
2260.00881	0.00835
2257.94864	0.00784
2255.88847	0.00743
2253.82830	0.00730
2251.76812	0.00748
2249.70795	0.00786
2247.64778	0.00830
2245.58761	0.00865
2243.52744	0.00881
2241.46726	0.00872
2239.40709	0.00823
2237.34692	0.00747
2235.28675	0.00700
2233.22657	0.00705
2231.16640	0.00727
2229.10623	0.00739
2227.04606	0.00759
2224.98589	0.00796
2222.92571	0.00816
2220.86554	0.00802
2218.80537	0.00786
2216.74520	0.00780
2214.68503	0.00760
2212.62485	0.00733
2210.56468	0.00722
2208.50451	0.00732
2206.44434	0.00739
2204.38417	0.00720
2202.32399	0.00692
2200.26382	0.00679
2198.20365	0.00684
2196.14348	0.00718
2194.08330	0.00766
2192.02313	0.00780
2189.96296	0.00739
2187.90279	0.00676
2185.84262	0.00643
2183.78244	0.00660
2181.72227	0.00686
2179.66210	0.00673
2177.60193	0.00629
2175.54176	0.00608
2173.48158	0.00635
2171.42141	0.00663
2169.36124	0.00663
2167.30107	0.00675
2165.24089	0.00722
2163.18072	0.00748
2161.12055	0.00704
2159.06038	0.00621
2157.00021	0.00546
2154.94003	0.00487
2152.87986	0.00462
2150.81969	0.00480
2148.75952	0.00525
2146.69935	0.00564
2144.63917	0.00574
2142.57900	0.00562
2140.51883	0.00548
2138.45866	0.00549
2136.39849	0.00573
2134.33831	0.00611
2132.27814	0.00644
2130.21797	0.00656
2128.15780	0.00639
2126.09762	0.00618
2124.03745	0.00628
2121.97728	0.00673
2119.91711	0.00729
2117.85694	0.00757
2115.79676	0.00742
2113.73659	0.00711
2111.67642	0.00702
2109.61625	0.00722
2107.55608	0.00749
2105.49590	0.00756
2103.43573	0.00748
2101.37556	0.00740
2099.31539	0.00730
2097.25521	0.00714
2095.19504	0.00701
2093.13487	0.00701
2091.07470	0.00718
2089.01453	0.00746
2086.95435	0.00771
2084.89418	0.00779
2082.83401	0.00769
2080.77384	0.00745
2078.71367	0.00717
2076.65349	0.00689
2074.59332	0.00663
2072.53315	0.00640
2070.47298	0.00626
2068.41281	0.00615
2066.35263	0.00597
2064.29246	0.00576
2062.23229	0.00576
2060.17212	0.00617
2058.11194	0.00684
2056.05177	0.00744
2053.99160	0.00771
2051.93143	0.00760
2049.87126	0.00716
2047.81108	0.00652
2045.75091	0.00581
2043.69074	0.00521
2041.63057	0.00496
2039.57040	0.00515
2037.51022	0.00565
2035.45005	0.00606
2033.38988	0.00612
2031.32971	0.00593
2029.26954	0.00584
2027.20936	0.00594
2025.14919	0.00603
2023.08902	0.00589
2021.02885	0.00551
2018.96867	0.00505
2016.90850	0.00465
2014.84833	0.00440
2012.78816	0.00433
2010.72799	0.00440
2008.66781	0.00452
2006.60764	0.00467
2004.54747	0.00484
2002.48730	0.00502
2000.42713	0.00512
1998.36695	0.00510
1996.30678	0.00498
1994.24661	0.00487
1992.18644	0.00493
1990.12626	0.00518
1988.06609	0.00546
1986.00592	0.00558
1983.94575	0.00549
1981.88558	0.00522
1979.82540	0.00490
1977.76523	0.00485
1975.70506	0.00523
1973.64489	0.00573
1971.58472	0.00594
1969.52454	0.00578
1967.46437	0.00543
1965.40420	0.00506
1963.34403	0.00474
1961.28386	0.00450
1959.22368	0.00447
1957.16351	0.00470
1955.10334	0.00505
1953.04317	0.00532
1950.98299	0.00547
1948.92282	0.00555
1946.86265	0.00558
1944.80248	0.00555
1942.74231	0.00551
1940.68213	0.00559
1938.62196	0.00577
1936.56179	0.00586
1934.50162	0.00577
1932.44145	0.00562
1930.38127	0.00556
1928.32110	0.00560
1926.26093	0.00566
1924.20076	0.00569
1922.14059	0.00569
1920.08041	0.00567
1918.02024	0.00559
1915.96007	0.00537
1913.89990	0.00509
1911.83972	0.00491
1909.77955	0.00496
1907.71938	0.00520
1905.65921	0.00555
1903.59904	0.00585
1901.53886	0.00595
1899.47869	0.00584
1897.41852	0.00559
1895.35835	0.00534
1893.29818	0.00522
1891.23800	0.00524
1889.17783	0.00530
1887.11766	0.00532
1885.05749	0.00533
1882.99731	0.00540
1880.93714	0.00553
1878.87697	0.00563
1876.81680	0.00566
1874.75663	0.00561
1872.69645	0.00554
1870.63628	0.00549
1868.57611	0.00548
1866.51594	0.00551
1864.45577	0.00557
1862.39559	0.00559
1860.33542	0.00551
1858.27525	0.00537
1856.21508	0.00522
1854.15491	0.00508
1852.09473	0.00495
1850.03456	0.00488
1847.97439	0.00494
1845.91422	0.00510
1843.85404	0.00528
1841.79387	0.00540
1839.73370	0.00544
1837.67353	0.00541
1835.61336	0.00534
1833.55318	0.00528
1831.49301	0.00528
1829.43284	0.00535
1827.37267	0.00544
1825.31250	0.00551
1823.25232	0.00552
1821.19215	0.00543
1819.13198	0.00526
1817.07181	0.00509
1815.01163	0.00500
1812.95146	0.00498
1810.89129	0.00497
1808.83112	0.00494
1806.77095	0.00490
1804.71077	0.00489
1802.65060	0.00489
1800.59043	0.00487
1798.53026	0.00484
1796.47009	0.00482
1794.40991	0.00479
1792.34974	0.00482
1790.28957	0.00489
1788.22940	0.00498
1786.16923	0.00501
1784.10905	0.00498
1782.04888	0.00491
1779.98871	0.00485
1777.92854	0.00478
1775.86836	0.00478
1773.80819	0.00487
1771.74802	0.00501
1769.68785	0.00518
1767.62768	0.00542
1765.56750	0.00580
1763.50733	0.00636
1761.44716	0.00711
1759.38699	0.00805
1757.32682	0.00916
1755.26664	0.01035
1753.20647	0.01161
1751.14630	0.01293
1749.08613	0.01423
1747.02596	0.01537
1744.96578	0.01629
1742.90561	0.01701
1740.84544	0.01756
1738.78527	0.01792
1736.72509	0.01809
1734.66492	0.01809
1732.60475	0.01800
1730.54458	0.01798
1728.48441	0.01808
1726.42423	0.01825
1724.36406	0.01843
1722.30389	0.01856
1720.24372	0.01862
1718.18355	0.01859
1716.12337	0.01848
1714.06320	0.01840
1712.00303	0.01835
1709.94286	0.01829
1707.88268	0.01816
1705.82251	0.01794
1703.76234	0.01767
1701.70217	0.01740
1699.64200	0.01722
1697.58182	0.01726
1695.52165	0.01761
1693.46148	0.01822
1691.40131	0.01907
1689.34114	0.02014
1687.28096	0.02145
1685.22079	0.02299
1683.16062	0.02468
1681.10045	0.02630
1679.04028	0.02771
1676.98010	0.02885
1674.91993	0.02969
1672.85976	0.03022
1670.79959	0.03041
1668.73941	0.03024
1666.67924	0.02980
1664.61907	0.02923
1662.55890	0.02860
1660.49873	0.02800
1658.43855	0.02758
1656.37838	0.02732
1654.31821	0.02703
1652.25804	0.02667
1650.19787	0.02640
1648.13769	0.02630
1646.07752	0.02631
1644.01735	0.02639
1641.95718	0.02665
1639.89701	0.02710
1637.83683	0.02770
1635.77666	0.02834
1633.71649	0.02892
1631.65632	0.02940
1629.59614	0.02978
1627.53597	0.03007
1625.47580	0.03031
1623.41563	0.03053
1621.35546	0.03078
1619.29528	0.03112
1617.23511	0.03158
1615.17494	0.03217
1613.11477	0.03293
1611.05460	0.03389
1608.99442	0.03489
1606.93425	0.03569
1604.87408	0.03599
1602.81391	0.03565
1600.75373	0.03473
1598.69356	0.03349
1596.63339	0.03220
1594.57322	0.03106
1592.51305	0.03012
1590.45287	0.02935
1588.39270	0.02865
1586.33253	0.02791
1584.27236	0.02709
1582.21219	0.02627
1580.15201	0.02553
1578.09184	0.02488
1576.03167	0.02428
1573.97150	0.02371
1571.91133	0.02318
1569.85115	0.02258
1567.79098	0.02187
1565.73081	0.02114
1563.67064	0.02044
1561.61046	0.01973
1559.55029	0.01886
1557.49012	0.01781
1555.42995	0.01686
1553.36978	0.01614
1551.30960	0.01559
1549.24943	0.01512
1547.18926	0.01462
1545.12909	0.01405
1543.06892	0.01338
1541.00874	0.01264
1538.94857	0.01191
1536.88840	0.01134
1534.82823	0.01095
1532.76805	0.01064
1530.70788	0.01040
1528.64771	0.01026
1526.58754	0.01028
1524.52737	0.01055
1522.46719	0.01114
1520.40702	0.01203
1518.34685	0.01309
1516.28668	0.01401
1514.22651	0.01442
1512.16633	0.01415
1510.10616	0.01332
1508.04599	0.01213
1505.98582	0.01082
1503.92565	0.00968
1501.86547	0.00883
1499.80530	0.00816
1497.74513	0.00756
1495.68496	0.00701
1493.62478	0.00656
1491.56461	0.00618
1489.50444	0.00584
1487.44427	0.00560
1485.38410	0.00553
1483.32392	0.00564
1481.26375	0.00591
1479.20358	0.00637
1477.14341	0.00713
1475.08324	0.00832
1473.02306	0.00996
1470.96289	0.01180
1468.90272	0.01361
1466.84255	0.01527
1464.78238	0.01671
1462.72220	0.01784
1460.66203	0.01871
1458.60186	0.01942
1456.54169	0.02005
1454.48151	0.02068
1452.42134	0.02137
1450.36117	0.02211
1448.30100	0.02288
1446.24083	0.02364
1444.18065	0.02436
1442.12048	0.02503
1440.06031	0.02565
1438.00014	0.02619
1435.93997	0.02665
1433.87979	0.02700
1431.81962	0.02727
1429.75945	0.02744
1427.69928	0.02753
1425.63910	0.02761
1423.57893	0.02769
1421.51876	0.02775
1419.45859	0.02780
1417.39842	0.02781
1415.33824	0.02777
1413.27807	0.02763
1411.21790	0.02731
1409.15773	0.02682
1407.09756	0.02620
1405.03738	0.02553
1402.97721	0.02486
1400.91704	0.02423
1398.85687	0.02361
1396.79670	0.02304
1394.73652	0.02259
1392.67635	0.02232
1390.61618	0.02228
1388.55601	0.02244
1386.49583	0.02278
1384.43566	0.02328
1382.37549	0.02389
1380.31532	0.02452
1378.25515	0.02508
1376.19497	0.02547
1374.13480	0.02569
1372.07463	0.02579
1370.01446	0.02582
1367.95429	0.02574
1365.89411	0.02551
1363.83394	0.02513
1361.77377	0.02469
1359.71360	0.02433
1357.65343	0.02408
1355.59325	0.02392
1353.53308	0.02383
1351.47291	0.02378
1349.41274	0.02376
1347.35256	0.02374
1345.29239	0.02370
1343.23222	0.02360
1341.17205	0.02345
1339.11188	0.02330
1337.05170	0.02323
1334.99153	0.02328
1332.93136	0.02341
1330.87119	0.02355
1328.81102	0.02366
1326.75084	0.02374
1324.69067	0.02381
1322.63050	0.02386
1320.57033	0.02387
1318.51015	0.02381
1316.44998	0.02370
1314.38981	0.02354
1312.32964	0.02331
1310.26947	0.02300
1308.20929	0.02260
1306.14912	0.02211
1304.08895	0.02157
1302.02878	0.02105
1299.96861	0.02061
1297.90843	0.02028
1295.84826	0.02011
1293.78809	0.02009
1291.72792	0.02020
1289.66775	0.02039
1287.60757	0.02063
1285.54740	0.02087
1283.48723	0.02109
1281.42706	0.02128
1279.36688	0.02144
1277.30671	0.02156
1275.24654	0.02168
1273.18637	0.02186
1271.12620	0.02217
1269.06602	0.02261
1267.00585	0.02318
1264.94568	0.02384
1262.88551	0.02453
1260.82534	0.02520
1258.76516	0.02579
1256.70499	0.02630
1254.64482	0.02673
1252.58465	0.02710
1250.52447	0.02742
1248.46430	0.02769
1246.40413	0.02792
1244.34396	0.02811
1242.28379	0.02826
1240.22361	0.02833
1238.16344	0.02827
1236.10327	0.02803
1234.04310	0.02760
1231.98293	0.02702
1229.92275	0.02633
1227.86258	0.02553
1225.80241	0.02464
1223.74224	0.02370
1221.68207	0.02270
1219.62189	0.02166
1217.56172	0.02056
1215.50155	0.01946
1213.44138	0.01837
1211.38120	0.01731
1209.32103	0.01629
1207.26086	0.01530
1205.20069	0.01427
1203.14052	0.01318
1201.08034	0.01197
1199.02017	0.01065
1196.96000	0.00935
1194.89983	0.00829
1192.83966	0.00751
1190.77948	0.00692
1188.71931	0.00645
1186.65914	0.00618
1184.59897	0.00607
1182.53880	0.00615
1180.47862	0.00649
1178.41845	0.00720
1176.35828	0.00836
1174.29811	0.00999
1172.23793	0.01198
1170.17776	0.01403
1168.11759	0.01572
1166.05742	0.01677
1163.99725	0.01724
1161.93707	0.01754
1159.87690	0.01793
1157.81673	0.01842
1155.75656	0.01895
1153.69639	0.01956
1151.63621	0.02035
1149.57604	0.02130
1147.51587	0.02233
1145.45570	0.02330
1143.39552	0.02410
1141.33535	0.02475
1139.27518	0.02529
1137.21501	0.02576
1135.15484	0.02628
1133.09466	0.02697
1131.03449	0.02785
1128.97432	0.02878
1126.91415	0.02963
1124.85398	0.03048
1122.79380	0.03145
1120.73363	0.03259
1118.67346	0.03374
1116.61329	0.03478
1114.55312	0.03573
1112.49294	0.03667
1110.43277	0.03756
1108.37260	0.03838
1106.31243	0.03923
1104.25225	0.04018
1102.19208	0.04126
1100.13191	0.04257
1098.07174	0.04414
1096.01157	0.04585
1093.95139	0.04760
1091.89122	0.04935
1089.83105	0.05101
1087.77088	0.05252
1085.71071	0.05397
1083.65053	0.05547
1081.59036	0.05703
1079.53019	0.05863
1077.47002	0.06038
1075.40985	0.06238
1073.34967	0.06440
1071.28950	0.06609
1069.22933	0.06741
1067.16916	0.06852
1065.10898	0.06950
1063.04881	0.07043
1060.98864	0.07147
1058.92847	0.07269
1056.86830	0.07404
1054.80812	0.07555
1052.74795	0.07728
1050.68778	0.07916
1048.62761	0.08108
1046.56744	0.08298
1044.50726	0.08487
1042.44709	0.08673
1040.38692	0.08849
1038.32675	0.09003
1036.26657	0.09124
1034.20640	0.09202
1032.14623	0.09239
1030.08606	0.09248
1028.02589	0.09240
1025.96571	0.09215
1023.90554	0.09167
1021.84537	0.09109
1019.78520	0.09065
1017.72503	0.09044
1015.66485	0.09039
1013.60468	0.09046
1011.54451	0.09069
1009.48434	0.09098
1007.42417	0.09110
1005.36399	0.09098
1003.30382	0.09057
1001.24365	0.08983
999.18348	0.08881
997.12330	0.08768
995.06313	0.08644
993.00296	0.08510
990.94279	0.08379
988.88262	0.08251
986.82244	0.08118
984.76227	0.07987
982.70210	0.07874
980.64193	0.07772
978.58176	0.07661
976.52158	0.07537
974.46141	0.07406
972.40124	0.07274
970.34107	0.07138
968.28089	0.06997
966.22072	0.06861
964.16055	0.06730
962.10038	0.06589
960.04021	0.06433
957.98003	0.06274
955.91986	0.06124
953.85969	0.05999
951.79952	0.05895
949.73935	0.05786
947.67917	0.05660
945.61900	0.05516
943.55883	0.05350
941.49866	0.05159
939.43849	0.04938
937.37831	0.04689
935.31814	0.04428
933.25797	0.04163
931.19780	0.03909
929.13762	0.03679
927.07745	0.03478
925.01728	0.03302
922.95711	0.03146
920.89694	0.03004
918.83676	0.02862
916.77659	0.02714
914.71642	0.02569
912.65625	0.02435
910.59608	0.02309
908.53590	0.02187
906.47573	0.02085
904.41556	0.02020
902.35539	0.01998
900.29522	0.02002
898.23504	0.02003
896.17487	0.01996
894.11470	0.02002
892.05453	0.02020
889.99435	0.02015
887.93418	0.01963
885.87401	0.01881
883.81384	0.01800
881.75367	0.01725
879.69349	0.01635
877.63332	0.01534
875.57315	0.01443
873.51298	0.01380
871.45281	0.01342
869.39263	0.01320
867.33246	0.01302
865.27229	0.01277
863.21212	0.01244
861.15194	0.01220
859.09177	0.01225
857.03160	0.01248
854.97143	0.01252
852.91126	0.01232
850.85108	0.01221
848.79091	0.01235
846.73074	0.01250
844.67057	0.01241
842.61040	0.01215
840.55022	0.01189
838.49005	0.01165
836.42988	0.01146
834.36971	0.01127
832.30954	0.01091
830.24936	0.01035
828.18919	0.00978
826.12902	0.00937
824.06885	0.00913
822.00867	0.00899
819.94850	0.00887
817.88833	0.00872
815.82816	0.00863
813.76799	0.00874
811.70781	0.00895
809.64764	0.00909
807.58747	0.00909
805.52730	0.00898
803.46713	0.00878
801.40695	0.00846
799.34678	0.00801
797.28661	0.00754
795.22644	0.00723
793.16627	0.00706
791.10609	0.00695
789.04592	0.00695
786.98575	0.00705
784.92558	0.00718
782.86540	0.00730
780.80523	0.00747
778.74506	0.00762
776.68489	0.00763
774.62472	0.00752
772.56454	0.00737
770.50437	0.00720
768.44420	0.00704
766.38403	0.00699
764.32386	0.00705
762.26368	0.00711
760.20351	0.00716
758.14334	0.00724
756.08317	0.00726
754.02299	0.00720
751.96282	0.00716
749.90265	0.00686
747.84248	0.00641
745.78231	0.00583
743.72213	0.00538
741.66196	0.00515
739.60179	0.00496
737.54162	0.00472
735.48145	0.00463
733.42127	0.00480
731.36110	0.00504
729.30093	0.00521
727.24076	0.00536
725.18059	0.00553
723.12041	0.00575
721.06024	0.00604
719.00007	0.00637
716.93990	0.00671
714.87972	0.00705
712.81955	0.00744
710.75938	0.00783
708.69921	0.00819
706.63904	0.00854
704.57886	0.00897
702.51869	0.00949
700.45852	0.00995
698.39835	0.01019
696.33818	0.01009
694.27800	0.00975
692.21783	0.00929
690.15766	0.00874
688.09749	0.00813
686.03731	0.00753
683.97714	0.00704
681.91697	0.00677
679.85680	0.00670
677.79663	0.00668
675.73645	0.00663
673.67628	0.00664
671.61611	0.00680
669.55594	0.00711
667.49577	0.00744
665.43559	0.00757
663.37542	0.00733
661.31525	0.00680
659.25508	0.00640
657.19491	0.00651
655.13473	0.00699
653.07456	0.00736
651.01439	0.00743
648.95422	0.00739
646.89404	0.00721
644.83387	0.00715
642.77370	0.00715
640.71353	0.00711
638.65336	0.00697
636.59318	0.00675
634.53301	0.00654
632.47284	0.00639
630.41267	0.00627
628.35250	0.00618
626.29232	0.00610
624.23215	0.00563
622.17198	0.00463
620.11181	0.00378
618.05164	0.00372
615.99146	0.00416
613.93129	0.00432
611.87112	0.00363
609.81095	0.00239
607.75077	0.00165
605.69060	0.00051
603.63043	0.00022
601.57026	0.00000
599.51009	0.00000
