3996.73391,0.00067
3994.67373,0.00081
3992.61356,0.00087
3990.55339,0.00098
3988.49322,0.00080
3986.43305,0.00031
3984.37287,0.00002
3982.31270,0.00015
3980.25253,0.00059
3978.19236,0.00092
3976.13219,0.00083
3974.07201,0.00059
3972.01184,0.00059
3969.95167,0.00075
3967.89150,0.00088
3965.83133,0.00082
3963.77115,0.00051
3961.71098,0.00012
3959.65081,0.00000
3957.59064,0.00020
3955.53046,0.00035
3953.47029,0.00033
3951.41012,0.00058
3949.34995,0.00114
3947.28978,0.00148
3945.22960,0.00143
3943.16943,0.00124
3941.10926,0.00111
3939.04909,0.00113
3936.98892,0.00129
3934.92874,0.00136
3932.86857,0.00111
3930.80840,0.00093
3928.74823,0.00134
3926.68805,0.00197
3924.62788,0.00215
3922.56771,0.00192
3920.50754,0.00169
3918.44737,0.00151
3916.38719,0.00110
3914.32702,0.00068
3912.26685,0.00092
3910.20668,0.00193
3908.14651,0.00286
3906.08633,0.00292
3904.02616,0.00235
3901.96599,0.00197
3899.90582,0.00183
3897.84565,0.00157
3895.78547,0.00143
3893.72530,0.00161
3891.66513,0.00188
3889.60496,0.00189
3887.54478,0.00152
3885.48461,0.00111
3883.42444,0.00096
3881.36427,0.00132
3879.30410,0.00216
3877.24392,0.00284
3875.18375,0.00301
3873.12358,0.00278
3871.06341,0.00212
3869.00324,0.00113
3866.94306,0.00035
3864.88289,0.00004
3862.82272,0.00031
3860.76255,0.00093
3858.70237,0.00133
3856.64220,0.00152
3854.58203,0.00133
3852.52186,0.00042
3850.46169,0.00000
3848.40151,0.00046
3846.34134,0.00098
3844.28117,0.00114
3842.22100,0.00104
3840.16083,0.00101
3838.10065,0.00135
3836.04048,0.00199
3833.98031,0.00242
3831.92014,0.00228
3829.85997,0.00184
3827.79979,0.00161
3825.73962,0.00166
3823.67945,0.00189
3821.61928,0.00240
3819.55910,0.00299
3817.49893,0.00314
3815.43876,0.00294
3813.37859,0.00261
3811.31842,0.00240
3809.25824,0.00248
3807.19807,0.00265
3805.13790,0.00261
3803.07773,0.00252
3801.01756,0.00274
3798.95738,0.00316
3796.89721,0.00328
3794.83704,0.00277
3792.77687,0.00194
3790.71670,0.00143
3788.65652,0.00155
3786.59635,0.00201
3784.53618,0.00225
3782.47601,0.00222
3780.41583,0.00210
3778.35566,0.00200
3776.29549,0.00215
3774.23532,0.00253
3772.17515,0.00275
3770.11497,0.00279
3768.05480,0.00278
3765.99463,0.00254
3763.93446,0.00224
3761.87429,0.00219
3759.81411,0.00240
3757.75394,0.00273
3755.69377,0.00307
3753.63360,0.00339
3751.57342,0.00354
3749.51325,0.00308
3747.45308,0.00220
3745.39291,0.00156
3743.33274,0.00148
3741.27256,0.00170
3739.21239,0.00156
3737.15222,0.00108
3735.09205,0.00113
3733.03188,0.00164
3730.97170,0.00149
3728.91153,0.00090
3726.85136,0.00064
3724.79119,0.00073
3722.73102,0.00059
3720.67084,0.00015
3718.61067,0.00000
3716.55050,0.00063
3714.49033,0.00182
3712.43015,0.00270
3710.36998,0.00255
3708.30981,0.00175
3706.24964,0.00127
3704.18947,0.00140
3702.12929,0.00176
3700.06912,0.00181
3698.00895,0.00174
3695.94878,0.00185
3693.88861,0.00174
3691.82843,0.00118
3689.76826,0.00058
3687.70809,0.00043
3685.64792,0.00053
3683.58775,0.00059
3681.52757,0.00081
3679.46740,0.00133
3677.40723,0.00190
3675.34706,0.00213
3673.28688,0.00172
3671.22671,0.00104
3669.16654,0.00090
3667.10637,0.00144
3665.04620,0.00214
3662.98602,0.00271
3660.92585,0.00286
3658.86568,0.00241
3656.80551,0.00175
3654.74534,0.00156
3652.68516,0.00217
3650.62499,0.00343
3648.56482,0.00447
3646.50465,0.00447
3644.44447,0.00412
3642.38430,0.00391
3640.32413,0.00386
3638.26396,0.00392
3636.20379,0.00378
3634.14361,0.00330
3632.08344,0.00310
3630.02327,0.00383
3627.96310,0.00479
3625.90293,0.00484
3623.84275,0.00454
3621.78258,0.00439
3619.72241,0.00424
3617.66224,0.00423
3615.60207,0.00465
3613.54189,0.00496
3611.48172,0.00474
3609.42155,0.00494
3607.36138,0.00595
3605.30120,0.00662
3603.24103,0.00683
3601.18086,0.00718
3599.12069,0.00741
3597.06052,0.00752
3595.00034,0.00789
3592.94017,0.00803
3590.88000,0.00785
3588.81983,0.00798
3586.75966,0.00828
3584.69948,0.00820
3582.63931,0.00800
3580.57914,0.00826
3578.51897,0.00915
3576.45879,0.00996
3574.39862,0.01025
3572.33845,0.01052
3570.27828,0.01087
3568.21811,0.01100
3566.15793,0.01130
3564.09776,0.01213
3562.03759,0.01308
3559.97742,0.01372
3557.91725,0.01402
3555.85707,0.01419
3553.79690,0.01428
3551.73673,0.01429
3549.67656,0.01441
3547.61639,0.01478
3545.55621,0.01549
3543.49604,0.01650
3541.43587,0.01737
3539.37570,0.01766
3537.31552,0.01758
3535.25535,0.01764
3533.19518,0.01808
3531.13501,0.01876
3529.07484,0.01945
3527.01466,0.01999
3524.95449,0.02032
3522.89432,0.02040
3520.83415,0.02062
3518.77398,0.02148
3516.71380,0.02250
3514.65363,0.02288
3512.59346,0.02281
3510.53329,0.02292
3508.47312,0.02335
3506.41294,0.02376
3504.35277,0.02396
3502.29260,0.02425
3500.23243,0.02489
3498.17225,0.02572
3496.11208,0.02634
3494.05191,0.02662
3491.99174,0.02694
3489.93157,0.02763
3487.87139,0.02824
3485.81122,0.02837
3483.75105,0.02845
3481.69088,0.02880
3479.63071,0.02922
3477.57053,0.02962
3475.51036,0.03008
3473.45019,0.03045
3471.39002,0.03089
3469.32984,0.03155
3467.26967,0.03188
3465.20950,0.03187
3463.14933,0.03203
3461.08916,0.03225
3459.02898,0.03252
3456.96881,0.03308
3454.90864,0.03379
3452.84847,0.03461
3450.78830,0.03555
3448.72812,0.03635
3446.66795,0.03673
3444.60778,0.03673
3442.54761,0.03691
3440.48744,0.03722
3438.42726,0.03722
3436.36709,0.03715
3434.30692,0.03737
3432.24675,0.03779
3430.18657,0.03845
3428.12640,0.03919
3426.06623,0.03957
3424.00606,0.03956
3421.94589,0.03970
3419.88571,0.04040
3417.82554,0.04116
3415.76537,0.04146
3413.70520,0.04166
3411.64503,0.04199
3409.58485,0.04217
3407.52468,0.04232
3405.46451,0.04270
3403.40434,0.04304
3401.34416,0.04339
3399.28399,0.04392
3397.22382,0.04441
3395.16365,0.04468
3393.10348,0.04477
3391.04330,0.04478
3388.98313,0.04480
3386.92296,0.04487
3384.86279,0.04504
3382.80262,0.04542
3380.74244,0.04595
3378.68227,0.04664
3376.62210,0.04731
3374.56193,0.04745
3372.50176,0.04724
3370.44158,0.04736
3368.38141,0.04778
3366.32124,0.04804
3364.26107,0.04803
3362.20089,0.04804
3360.14072,0.04825
3358.08055,0.04864
3356.02038,0.04910
3353.96021,0.04958
3351.90003,0.05007
3349.83986,0.05026
3347.77969,0.04993
3345.71952,0.04936
3343.65935,0.04919
3341.59917,0.04958
3339.53900,0.04996
3337.47883,0.04982
3335.41866,0.04967
3333.35849,0.05016
3331.29831,0.05075
3329.23814,0.05080
3327.17797,0.05055
3325.11780,0.05036
3323.05762,0.05036
3320.99745,0.05047
3318.93728,0.05061
3316.87711,0.05073
3314.81694,0.05090
3312.75676,0.05125
3310.69659,0.05165
3308.63642,0.05164
3306.57625,0.05132
3304.51608,0.05096
3302.45590,0.05060
3300.39573,0.05063
3298.33556,0.05115
3296.27539,0.05179
3294.21521,0.05210
3292.15504,0.05195
3290.09487,0.05176
3288.03470,0.05175
3285.97453,0.05185
3283.91435,0.05204
3281.85418,0.05218
3279.79401,0.05224
3277.73384,0.05218
3275.67367,0.05189
3273.61349,0.05148
3271.55332,0.05118
3269.49315,0.05109
3267.43298,0.05110
3265.37281,0.05095
3263.31263,0.05080
3261.25246,0.05108
3259.19229,0.05151
3257.13212,0.05137
3255.07194,0.05099
3253.01177,0.05081
3250.95160,0.05056
3248.89143,0.05026
3246.83126,0.05025
3244.77108,0.05053
3242.71091,0.05077
3240.65074,0.05067
3238.59057,0.05042
3236.53040,0.05035
3234.47022,0.05032
3232.41005,0.05025
3230.34988,0.05020
3228.28971,0.04998
3226.22954,0.04943
3224.16936,0.04881
3222.10919,0.04844
3220.04902,0.04817
3217.98885,0.04790
3215.92867,0.04790
3213.86850,0.04812
3211.80833,0.04821
3209.74816,0.04821
3207.68799,0.04828
3205.62781,0.04817
3203.56764,0.04761
3201.50747,0.04686
3199.44730,0.04653
3197.38713,0.04671
3195.32695,0.04699
3193.26678,0.04719
3191.20661,0.04707
3189.14644,0.04664
3187.08626,0.04645
3185.02609,0.04626
3182.96592,0.04560
3180.90575,0.04498
3178.84558,0.04478
3176.78540,0.04474
3174.72523,0.04461
3172.66506,0.04421
3170.60489,0.04366
3168.54472,0.04330
3166.48454,0.04326
3164.42437,0.04328
3162.36420,0.04300
3160.30403,0.04250
3158.24386,0.04210
3156.18368,0.04181
3154.12351,0.04163
3152.06334,0.04154
3150.00317,0.04146
3147.94299,0.04134
3145.88282,0.04089
3143.82265,0.04032
3141.76248,0.04007
3139.70231,0.03998
3137.64213,0.03978
3135.58196,0.03935
3133.52179,0.03879
3131.46162,0.03837
3129.40145,0.03817
3127.34127,0.03800
3125.28110,0.03775
3123.22093,0.03758
3121.16076,0.03734
3119.10058,0.03692
3117.04041,0.03676
3114.98024,0.03674
3112.92007,0.03637
3110.85990,0.03585
3108.79972,0.03560
3106.73955,0.03560
3104.67938,0.03547
3102.61921,0.03503
3100.55904,0.03461
3098.49886,0.03441
3096.43869,0.03418
3094.37852,0.03388
3092.31835,0.03354
3090.25818,0.03324
3088.19800,0.03315
3086.13783,0.03320
3084.07766,0.03326
3082.01749,0.03315
3079.95731,0.03266
3077.89714,0.03202
3075.83697,0.03161
3073.77680,0.03133
3071.71663,0.03110
3069.65645,0.03101
3067.59628,0.03091
3065.53611,0.03048
3063.47594,0.02984
3061.41577,0.02937
3059.35559,0.02913
3057.29542,0.02905
3055.23525,0.02908
3053.17508,0.02895
3051.11491,0.02871
3049.05473,0.02832
3046.99456,0.02782
3044.93439,0.02748
3042.87422,0.02721
3040.81404,0.02700
3038.75387,0.02709
3036.69370,0.02717
3034.63353,0.02676
3032.57336,0.02614
3030.51318,0.02593
3028.45301,0.02609
3026.39284,0.02620
3024.33267,0.02611
3022.27250,0.02581
3020.21232,0.02535
3018.15215,0.02496
3016.09198,0.02494
3014.03181,0.02520
3011.97163,0.02523
3009.91146,0.02492
3007.85129,0.02448
3005.79112,0.02402
3003.73095,0.02372
3001.67077,0.02362
2999.61060,0.02359
2997.55043,0.02349
2995.49026,0.02323
2993.43009,0.02297
2991.36991,0.02289
2989.30974,0.02290
2987.24957,0.02280
2985.18940,0.02281
2983.12923,0.02312
2981.06905,0.02356
2979.00888,0.02396
2976.94871,0.02429
2974.88854,0.02478
2972.82836,0.02551
2970.76819,0.02623
2968.70802,0.02698
2966.64785,0.02802
2964.58768,0.02929
2962.52750,0.03064
2960.46733,0.03218
2958.40716,0.03393
2956.34699,0.03554
2954.28682,0.03708
2952.22664,0.03884
2950.16647,0.04069
2948.10630,0.04266
2946.04613,0.04481
2943.98596,0.04686
2941.92578,0.04896
2939.86561,0.05147
2937.80544,0.05389
2935.74527,0.05606
2933.68509,0.05853
2931.62492,0.06104
2929.56475,0.06300
2927.50458,0.06458
2925.44441,0.06620
2923.38423,0.06776
2921.32406,0.06910
2919.26389,0.06983
2917.20372,0.06924
2915.14355,0.06719
2913.08337,0.06431
2911.02320,0.06161
2908.96303,0.05949
2906.90286,0.05768
2904.84268,0.05573
2902.78251,0.05372
2900.72234,0.05203
2898.66217,0.05055
2896.60200,0.04924
2894.54182,0.04808
2892.48165,0.04680
2890.42148,0.04554
2888.36131,0.04465
2886.30114,0.04410
2884.24096,0.04371
2882.18079,0.04318
2880.12062,0.04241
2878.06045,0.04180
2876.00028,0.04174
2873.94010,0.04208
2871.87993,0.04262
2869.81976,0.04320
2867.75959,0.04352
2865.69941,0.04391
2863.63924,0.04514
2861.57907,0.04702
2859.51890,0.04892
2857.45873,0.05082
2855.39855,0.05270
2853.33838,0.05416
2851.27821,0.05463
2849.21804,0.05366
2847.15787,0.05124
2845.09769,0.04792
2843.03752,0.04461
2840.97735,0.04174
2838.91718,0.03934
2836.85700,0.03753
2834.79683,0.03625
2832.73666,0.03512
2830.67649,0.03395
2828.61632,0.03282
2826.55614,0.03187
2824.49597,0.03127
2822.43580,0.03080
2820.37563,0.03024
2818.31546,0.02974
2816.25528,0.02934
2814.19511,0.02902
2812.13494,0.02875
2810.07477,0.02827
2808.01460,0.02763
2805.95442,0.02714
2803.89425,0.02687
2801.83408,0.02690
2799.77391,0.02707
2797.71373,0.02679
2795.65356,0.02615
2793.59339,0.02591
2791.53322,0.02595
2789.47305,0.02574
2787.41287,0.02525
2785.35270,0.02470
2783.29253,0.02431
2781.23236,0.02409
2779.17219,0.02390
2777.11201,0.02367
2775.05184,0.02370
2772.99167,0.02397
2770.93150,0.02378
2768.87133,0.02323
2766.81115,0.02290
2764.75098,0.02293
2762.69081,0.02310
2760.63064,0.02308
2758.57046,0.02274
2756.51029,0.02243
2754.45012,0.02250
2752.38995,0.02275
2750.32978,0.02265
2748.26960,0.02237
2746.20943,0.02244
2744.14926,0.02261
2742.08909,0.02242
2740.02892,0.02214
2737.96874,0.02209
2735.90857,0.02203
2733.84840,0.02177
2731.78823,0.02142
2729.72805,0.02115
2727.66788,0.02126
2725.60771,0.02160
2723.54754,0.02179
2721.48737,0.02180
2719.42719,0.02178
2717.36702,0.02165
2715.30685,0.02136
2713.24668,0.02117
2711.18651,0.02117
2709.12633,0.02102
2707.06616,0.02069
2705.00599,0.02058
2702.94582,0.02060
2700.88565,0.02063
2698.82547,0.02079
2696.76530,0.02087
2694.70513,0.02071
2692.64496,0.02054
2690.58478,0.02050
2688.52461,0.02062
2686.46444,0.02056
2684.40427,0.02020
2682.34410,0.02008
2680.28392,0.02035
2678.22375,0.02037
2676.16358,0.02002
2674.10341,0.01979
2672.04324,0.01959
2669.98306,0.01929
2667.92289,0.01916
2665.86272,0.01928
2663.80255,0.01950
2661.74238,0.01961
2659.68220,0.01946
2657.62203,0.01920
2655.56186,0.01896
2653.50169,0.01876
2651.44151,0.01867
2649.38134,0.01863
2647.32117,0.01864
2645.26100,0.01877
2643.20083,0.01874
2641.14065,0.01836
2639.08048,0.01805
2637.02031,0.01818
2634.96014,0.01837
2632.89997,0.01832
2630.83979,0.01841
2628.77962,0.01848
2626.71945,0.01821
2624.65928,0.01789
2622.59910,0.01755
2620.53893,0.01708
2618.47876,0.01685
2616.41859,0.01691
2614.35842,0.01703
2612.29824,0.01726
2610.23807,0.01728
2608.17790,0.01680
2606.11773,0.01641
2604.05756,0.01643
2601.99738,0.01628
2599.93721,0.01578
2597.87704,0.01558
2595.81687,0.01608
2593.75670,0.01660
2591.69652,0.01648
2589.63635,0.01614
2587.57618,0.01602
2585.51601,0.01563
2583.45583,0.01507
2581.39566,0.01497
2579.33549,0.01527
2577.27532,0.01555
2575.21515,0.01549
2573.15497,0.01537
2571.09480,0.01543
2569.03463,0.01532
2566.97446,0.01524
2564.91429,0.01529
2562.85411,0.01484
2560.79394,0.01387
2558.73377,0.01356
2556.67360,0.01444
2554.61342,0.01539
2552.55325,0.01553
2550.49308,0.01512
2548.43291,0.01494
2546.37274,0.01536
2544.31256,0.01563
2542.25239,0.01507
2540.19222,0.01431
2538.13205,0.01416
2536.07188,0.01426
2534.01170,0.01394
2531.95153,0.01339
2529.89136,0.01296
2527.83119,0.01254
2525.77102,0.01217
2523.71084,0.01255
2521.65067,0.01351
2519.59050,0.01374
2517.53033,0.01303
2515.47015,0.01265
2513.40998,0.01300
2511.34981,0.01292
2509.28964,0.01253
2507.22947,0.01274
2505.16929,0.01298
2503.10912,0.01287
2501.04895,0.01276
2498.98878,0.01273
2496.92861,0.01278
2494.86843,0.01256
2492.80826,0.01215
2490.74809,0.01200
2488.68792,0.01198
2486.62775,0.01184
2484.56757,0.01183
2482.50740,0.01200
2480.44723,0.01180
2478.38706,0.01151
2476.32688,0.01186
2474.26671,0.01220
2472.20654,0.01222
2470.14637,0.01241
2468.08620,0.01239
2466.02602,0.01211
2463.96585,0.01211
2461.90568,0.01221
2459.84551,0.01212
2457.78534,0.01173
2455.72516,0.01145
2453.66499,0.01183
2451.60482,0.01217
2449.54465,0.01179
2447.48447,0.01134
2445.42430,0.01125
2443.36413,0.01123
2441.30396,0.01134
2439.24379,0.01148
2437.18361,0.01122
2435.12344,0.01087
2433.06327,0.01070
2431.00310,0.01072
2428.94293,0.01110
2426.88275,0.01123
2424.82258,0.01068
2422.76241,0.01042
2420.70224,0.01082
2418.64207,0.01107
2416.58189,0.01085
2414.52172,0.01037
2412.46155,0.00994
2410.40138,0.00964
2408.34120,0.00940
2406.28103,0.00914
2404.22086,0.00891
2402.16069,0.00931
2400.10052,0.01027
2398.04034,0.01089
2395.98017,0.01107
2393.92000,0.01110
2391.85983,0.01098
2389.79966,0.01062
2387.73948,0.01039
2385.67931,0.01047
2383.61914,0.01058
2381.55897,0.01059
2379.49880,0.01048
2377.43862,0.01031
2375.37845,0.01044
2373.31828,0.01150
2371.25811,0.01316
2369.19793,0.01351
2367.13776,0.01073
2365.07759,0.00654
2363.01742,0.00642
2360.95725,0.01168
2358.89707,0.01430
2356.83690,0.01264
2354.77673,0.01096
2352.71656,0.01070
2350.65639,0.01154
2348.59621,0.01160
2346.53604,0.00935
2344.47587,0.00787
2342.41570,0.00729
2340.35552,0.00724
2338.29535,0.00713
2336.23518,0.00669
2334.17501,0.00710
2332.11484,0.00827
2330.05466,0.00963
2327.99449,0.01078
2325.93432,0.01141
2323.87415,0.01080
2321.81398,0.01007
2319.75380,0.00999
2317.69363,0.01052
2315.63346,0.01092
2313.57329,0.01124
2311.51312,0.01093
2309.45294,0.00985
2307.39277,0.00922
2305.33260,0.00949
2303.27243,0.00980
2301.21225,0.00963
2299.15208,0.00951
2297.09191,0.00944
2295.03174,0.00938
2292.97157,0.00955
2290.91139,0.00981
2288.85122,0.00972
2286.79105,0.00892
2284.73088,0.00788
2282.67071,0.00748
2280.61053,0.00794
2278.55036,0.00882
2276.49019,0.00887
2274.43002,0.00762
2272.36984,0.00673
2270.30967,0.00718
2268.24950,0.00817
2266.18933,0.00911
2264.12916,0.00995
2262.06898,0.01046
2260.00881,0.01033
2257.94864,0.00962
2255.88847,0.00858
2253.82830,0.00821
2251.76812,0.00849
2249.70795,0.00801
2247.64778,0.00696
2245.58761,0.00713
2243.52744,0.00761
2241.46726,0.00687
2239.40709,0.00654
2237.34692,0.00739
2235.28675,0.00753
2233.22657,0.00724
2231.16640,0.00714
2229.10623,0.00660
2227.04606,0.00620
2224.98589,0.00614
2222.92571,0.00585
2220.86554,0.00503
2218.80537,0.00424
2216.74520,0.00398
2214.68503,0.00402
2212.62485,0.00470
2210.56468,0.00613
2208.50451,0.00726
2206.44434,0.00660
2204.38417,0.00540
2202.32399,0.00621
2200.26382,0.00719
2198.20365,0.00592
2196.14348,0.00491
2194.08330,0.00608
2192.02313,0.00664
2189.96296,0.00523
2187.90279,0.00389
2185.84262,0.00328
2183.78244,0.00368
2181.72227,0.00416
2179.66210,0.00352
2177.60193,0.00444
2175.54176,0.00618
2173.48158,0.00542
2171.42141,0.00370
2169.36124,0.00246
2167.30107,0.00144
2165.24089,0.00190
2163.18072,0.00312
2161.12055,0.00308
2159.06038,0.00219
2157.00021,0.00193
2154.94003,0.00369
2152.87986,0.00563
2150.81969,0.00483
2148.75952,0.00275
2146.69935,0.00176
2144.63917,0.00153
2142.57900,0.00199
2140.51883,0.00344
2138.45866,0.00493
2136.39849,0.00591
2134.33831,0.00597
2132.27814,0.00543
2130.21797,0.00577
2128.15780,0.00605
2126.09762,0.00556
2124.03745,0.00540
2121.97728,0.00552
2119.91711,0.00575
2117.85694,0.00597
2115.79676,0.00570
2113.73659,0.00514
2111.67642,0.00447
2109.61625,0.00392
2107.55608,0.00421
2105.49590,0.00519
2103.43573,0.00582
2101.37556,0.00519
2099.31539,0.00369
2097.25521,0.00309
2095.19504,0.00423
2093.13487,0.00595
2091.07470,0.00667
2089.01453,0.00633
2086.95435,0.00523
2084.89418,0.00373
2082.83401,0.00348
2080.77384,0.00498
2078.71367,0.00618
2076.65349,0.00584
2074.59332,0.00497
2072.53315,0.00401
2070.47298,0.00262
2068.41281,0.00155
2066.35263,0.00161
2064.29246,0.00249
2062.23229,0.00393
2060.17212,0.00511
2058.11194,0.00491
2056.05177,0.00416
2053.99160,0.00438
2051.93143,0.00531
2049.87126,0.00607
2047.81108,0.00561
2045.75091,0.00383
2043.69074,0.00331
2041.63057,0.00468
2039.57040,0.00505
2037.51022,0.00344
2035.45005,0.00176
2033.38988,0.00126
2031.32971,0.00146
2029.26954,0.00176
2027.20936,0.00196
2025.14919,0.00139
2023.08902,0.00053
2021.02885,0.00029
2018.96867,0.00108
2016.90850,0.00299
2014.84833,0.00385
2012.78816,0.00267
2010.72799,0.00195
2008.66781,0.00293
2006.60764,0.00437
2004.54747,0.00479
2002.48730,0.00380
2000.42713,0.00292
1998.36695,0.00251
1996.30678,0.00180
1994.24661,0.00207
1992.18644,0.00323
1990.12626,0.00323
1988.06609,0.00321
1986.00592,0.00464
1983.94575,0.00577
1981.88558,0.00531
1979.82540,0.00412
1977.76523,0.00251
1975.70506,0.00060
1973.64489,0.00019
1971.58472,0.00163
1969.52454,0.00233
1967.46437,0.00135
1965.40420,0.00021
1963.34403,0.00000
1961.28386,0.00060
1959.22368,0.00147
1957.16351,0.00226
1955.10334,0.00282
1953.04317,0.00300
1950.98299,0.00254
1948.92282,0.00143
1946.86265,0.00105
1944.80248,0.00185
1942.74231,0.00213
1940.68213,0.00194
1938.62196,0.00240
1936.56179,0.00305
1934.50162,0.00317
1932.44145,0.00302
1930.38127,0.00296
1928.32110,0.00282
1926.26093,0.00264
1924.20076,0.00261
1922.14059,0.00278
1920.08041,0.00281
1918.02024,0.00260
1915.96007,0.00300
1913.89990,0.00392
1911.83972,0.00422
1909.77955,0.00389
1907.71938,0.00352
1905.65921,0.00321
1903.59904,0.00308
1901.53886,0.00319
1899.47869,0.00301
1897.41852,0.00240
1895.35835,0.00203
1893.29818,0.00200
1891.23800,0.00193
1889.17783,0.00217
1887.11766,0.00278
1885.05749,0.00289
1882.99731,0.00246
1880.93714,0.00223
1878.87697,0.00229
1876.81680,0.00223
1874.75663,0.00205
1872.69645,0.00207
1870.63628,0.00227
1868.57611,0.00225
1866.51594,0.00215
1864.45577,0.00244
1862.39559,0.00274
1860.33542,0.00274
1858.27525,0.00259
1856.21508,0.00217
1854.15491,0.00163
1852.09473,0.00141
1850.03456,0.00145
1847.97439,0.00146
1845.91422,0.00152
1843.85404,0.00191
1841.79387,0.00241
1839.73370,0.00247
1837.67353,0.00224
1835.61336,0.00203
1833.55318,0.00176
1831.49301,0.00141
1829.43284,0.00134
1827.37267,0.00180
1825.31250,0.00228
1823.25232,0.00217
1821.19215,0.00159
1819.13198,0.00120
1817.07181,0.00136
1815.01163,0.00167
1812.95146,0.00160
1810.89129,0.00132
1808.83112,0.00114
1806.77095,0.00110
1804.71077,0.00119
1802.65060,0.00121
1800.59043,0.00111
1798.53026,0.00107
1796.47009,0.00122
1794.40991,0.00149
1792.34974,0.00171
1790.28957,0.00165
1788.22940,0.00134
1786.16923,0.00101
1784.10905,0.00063
1782.04888,0.00019
1779.98871,0.00000
1777.92854,0.00013
1775.86836,0.00035
1773.80819,0.00038
1771.74802,0.00042
1769.68785,0.00083
1767.62768,0.00140
1765.56750,0.00180
1763.50733,0.00210
1761.44716,0.00258
1759.38699,0.00333
1757.32682,0.00445
1755.26664,0.00591
1753.20647,0.00734
1751.14630,0.00876
1749.08613,0.01036
1747.02596,0.01188
1744.96578,0.01315
1742.90561,0.01422
1740.84544,0.01502
1738.78527,0.01543
1736.72509,0.01551
1734.66492,0.01567
1732.60475,0.01631
1730.54458,0.01698
1728.48441,0.01711
1726.42423,0.01689
1724.36406,0.01676
1722.30389,0.01688
1720.24372,0.01719
1718.18355,0.01756
1716.12337,0.01777
1714.06320,0.01767
1712.00303,0.01742
1709.94286,0.01713
1707.88268,0.01674
1705.82251,0.01630
1703.76234,0.01596
1701.70217,0.01568
1699.64200,0.01570
1697.58182,0.01634
1695.52165,0.01717
1693.46148,0.01784
1691.40131,0.01866
1689.34114,0.01985
1687.28096,0.02128
1685.22079,0.02338
1683.16062,0.02616
1681.10045,0.02826
1679.04028,0.02970
1676.98010,0.03105
1674.91993,0.03229
1672.85976,0.03314
1670.79959,0.03335
1668.73941,0.03294
1666.67924,0.03222
1664.61907,0.03142
1662.55890,0.03068
1660.49873,0.03020
1658.43855,0.02995
1656.37838,0.02965
1654.31821,0.02912
1652.25804,0.02853
1650.19787,0.02840
1648.13769,0.02870
1646.07752,0.02910
1644.01735,0.02933
1641.95718,0.02949
1639.89701,0.02969
1637.83683,0.02990
1635.77666,0.03044
1633.71649,0.03139
1631.65632,0.03218
1629.59614,0.03274
1627.53597,0.03316
1625.47580,0.03340
1623.41563,0.03360
1621.35546,0.03399
1619.29528,0.03440
1617.23511,0.03472
1615.17494,0.03535
1613.11477,0.03656
1611.05460,0.03814
1608.99442,0.03984
1606.93425,0.04121
1604.87408,0.04170
1602.81391,0.04107
1600.75373,0.03969
1598.69356,0.03808
1596.63339,0.03651
1594.57322,0.03509
1592.51305,0.03408
1590.45287,0.03354
1588.39270,0.03309
1586.33253,0.03219
1584.27236,0.03080
1582.21219,0.02947
1580.15201,0.02857
1578.09184,0.02795
1576.03167,0.02717
1573.97150,0.02623
1571.91133,0.02551
1569.85115,0.02500
1567.79098,0.02434
1565.73081,0.02320
1563.67064,0.02179
1561.61046,0.02058
1559.55029,0.01967
1557.49012,0.01891
1555.42995,0.01816
1553.36978,0.01730
1551.30960,0.01640
1549.24943,0.01550
1547.18926,0.01472
1545.12909,0.01400
1543.06892,0.01298
1541.00874,0.01169
1538.94857,0.01079
1536.88840,0.01034
1534.82823,0.00976
1532.76805,0.00897
1530.70788,0.00833
1528.64771,0.00787
1526.58754,0.00759
1524.52737,0.00781
1522.46719,0.00863
1520.40702,0.01000
1518.34685,0.01171
1516.28668,0.01328
1514.22651,0.01398
1512.16633,0.01351
1510.10616,0.01198
1508.04599,0.00935
1505.98582,0.00675
1503.92565,0.00586
1501.86547,0.00565
1499.80530,0.00524
1497.74513,0.00457
1495.68496,0.00375
1493.62478,0.00300
1491.56461,0.00233
1489.50444,0.00161
1487.44427,0.00107
1485.38410,0.00093
1483.32392,0.00107
1481.26375,0.00143
1479.20358,0.00195
1477.14341,0.00269
1475.08324,0.00404
1473.02306,0.00634
1470.96289,0.00901
1468.90272,0.01119
1466.84255,0.01305
1464.78238,0.01479
1462.72220,0.01605
1460.66203,0.01690
1458.60186,0.01805
1456.54169,0.01965
1454.48151,0.02079
1452.42134,0.02136
1450.36117,0.02186
1448.30100,0.02252
1446.24083,0.02327
1444.18065,0.02415
1442.12048,0.02530
1440.06031,0.02654
1438.00014,0.02757
1435.93997,0.02832
1433.87979,0.02876
1431.81962,0.02892
1429.75945,0.02896
1427.69928,0.02911
1425.63910,0.02933
1423.57893,0.02947
1421.51876,0.02960
1419.45859,0.02976
1417.39842,0.02973
1415.33824,0.02949
1413.27807,0.02914
1411.21790,0.02865
1409.15773,0.02805
1407.09756,0.02733
1405.03738,0.02642
1402.97721,0.02559
1400.91704,0.02492
1398.85687,0.02406
1396.79670,0.02310
1394.73652,0.02242
1392.67635,0.02206
1390.61618,0.02192
1388.55601,0.02204
1386.49583,0.02249
1384.43566,0.02316
1382.37549,0.02388
1380.31532,0.02462
1378.25515,0.02527
1376.19497,0.02574
1374.13480,0.02607
1372.07463,0.02627
1370.01446,0.02638
1367.95429,0.02651
1365.89411,0.02656
1363.83394,0.02625
1361.77377,0.02566
1359.71360,0.02522
1357.65343,0.02495
1355.59325,0.02464
1353.53308,0.02425
1351.47291,0.02393
1349.41274,0.02383
1347.35256,0.02387
1345.29239,0.02383
1343.23222,0.02362
1341.17205,0.02328
1339.11188,0.02296
1337.05170,0.02287
1334.99153,0.02304
1332.93136,0.02334
1330.87119,0.02365
1328.81102,0.02385
1326.75084,0.02390
1324.69067,0.02397
1322.63050,0.02417
1320.57033,0.02438
1318.51015,0.02442
1316.44998,0.02419
1314.38981,0.02378
1312.32964,0.02341
1310.26947,0.02314
1308.20929,0.02269
1306.14912,0.02185
1304.08895,0.02077
1302.02878,0.01978
1299.96861,0.01902
1297.90843,0.01853
1295.84826,0.01838
1293.78809,0.01859
1291.72792,0.01900
1289.66775,0.01938
1287.60757,0.01975
1285.54740,0.02010
1283.48723,0.02024
1281.42706,0.02017
1279.36688,0.02009
1277.30671,0.02018
1275.24654,0.02035
1273.18637,0.02038
1271.12620,0.02064
1269.06602,0.02161
1267.00585,0.02288
1264.94568,0.02380
1262.88551,0.02448
1260.82534,0.02518
1258.76516,0.02581
1256.70499,0.02636
1254.64482,0.02702
1252.58465,0.02782
1250.52447,0.02849
1248.46430,0.02889
1246.40413,0.02917
1244.34396,0.02935
1242.28379,0.02938
1240.22361,0.02928
1238.16344,0.02902
1236.10327,0.02863
1234.04310,0.02817
1231.98293,0.02753
1229.92275,0.02670
1227.86258,0.02582
1225.80241,0.02477
1223.74224,0.02338
1221.68207,0.02186
1219.62189,0.02036
1217.56172,0.01883
1215.50155,0.01727
1213.44138,0.01572
1211.38120,0.01435
1209.32103,0.01322
1207.26086,0.01215
1205.20069,0.01077
1203.14052,0.00917
1201.08034,0.00765
1199.02017,0.00608
1196.96000,0.00445
1194.89983,0.00301
1192.83966,0.00180
1190.77948,0.00104
1188.71931,0.00065
1186.65914,0.00030
1184.59897,0.00000
1182.53880,-0.00007
1180.47862,0.00017
1178.41845,0.00081
1176.35828,0.00224
1174.29811,0.00452
1172.23793,0.00719
1170.17776,0.00960
1168.11759,0.01143
1166.05742,0.01248
1163.99725,0.01296
1161.93707,0.01355
1159.87690,0.01420
1157.81673,0.01468
1155.75656,0.01525
1153.69639,0.01598
1151.63621,0.01701
1149.57604,0.01835
1147.51587,0.01952
1145.45570,0.02043
1143.39552,0.02144
1141.33535,0.02266
1139.27518,0.02373
1137.21501,0.02434
1135.15484,0.02481
1133.09466,0.02547
1131.03449,0.02637
1128.97432,0.02762
1126.91415,0.02913
1124.85398,0.03055
1122.79380,0.03180
1120.73363,0.03288
1118.67346,0.03399
1116.61329,0.03530
1114.55312,0.03658
1112.49294,0.03783
1110.43277,0.03923
1108.37260,0.04068
1106.31243,0.04208
1104.25225,0.04325
1102.19208,0.04416
1100.13191,0.04539
1098.07174,0.04747
1096.01157,0.05030
1093.95139,0.05299
1091.89122,0.05471
1089.83105,0.05604
1087.77088,0.05779
1085.71071,0.05986
1083.65053,0.06195
1081.59036,0.06410
1079.53019,0.06655
1077.47002,0.06932
1075.40985,0.07208
1073.34967,0.07480
1071.28950,0.07739
1069.22933,0.07922
1067.16916,0.08036
1065.10898,0.08175
1063.04881,0.08347
1060.98864,0.08506
1058.92847,0.08664
1056.86830,0.08842
1054.80812,0.09049
1052.74795,0.09288
1050.68778,0.09545
1048.62761,0.09821
1046.56744,0.10129
1044.50726,0.10429
1042.44709,0.10682
1040.38692,0.10927
1038.32675,0.11167
1036.26657,0.11347
1034.20640,0.11464
1032.14623,0.11511
1030.08606,0.11500
1028.02589,0.11509
1025.96571,0.11541
1023.90554,0.11521
1021.84537,0.11459
1019.78520,0.11399
1017.72503,0.11332
1015.66485,0.11285
1013.60468,0.11297
1011.54451,0.11355
1009.48434,0.11406
1007.42417,0.11389
1005.36399,0.11313
1003.30382,0.11246
1001.24365,0.11205
999.18348,0.11142
997.12330,0.11009
995.06313,0.10810
993.00296,0.10590
990.94279,0.10395
988.88262,0.10229
986.82244,0.10053
984.76227,0.09853
982.70210,0.09652
980.64193,0.09491
978.58176,0.09366
976.52158,0.09242
974.46141,0.09086
972.40124,0.08895
970.34107,0.08692
968.28089,0.08485
966.22072,0.08291
964.16055,0.08115
962.10038,0.07911
960.04021,0.07671
957.98003,0.07453
955.91986,0.07300
953.85969,0.07187
951.79952,0.07050
949.73935,0.06878
947.67917,0.06697
945.61900,0.06501
943.55883,0.06278
941.49866,0.06011
939.43849,0.05706
937.37831,0.05380
935.31814,0.05021
933.25797,0.04646
931.19780,0.04305
929.13762,0.04002
927.07745,0.03732
925.01728,0.03508
922.95711,0.03323
920.89694,0.03151
918.83676,0.02961
916.77659,0.02762
914.71642,0.02586
912.65625,0.02431
910.59608,0.02265
908.53590,0.02078
906.47573,0.01925
904.41556,0.01849
902.35539,0.01811
900.29522,0.01782
898.23504,0.01791
896.17487,0.01837
894.11470,0.01864
892.05453,0.01868
889.99435,0.01872
887.93418,0.01842
885.87401,0.01785
883.81384,0.01714
881.75367,0.01584
879.69349,0.01384
877.63332,0.01174
875.57315,0.01002
873.51298,0.00872
871.45281,0.00810
869.39263,0.00833
867.33246,0.00861
865.27229,0.00850
863.21212,0.00844
861.15194,0.00819
859.09177,0.00731
857.03160,0.00655
854.97143,0.00663
852.91126,0.00719
850.85108,0.00741
848.79091,0.00682
846.73074,0.00590
844.67057,0.00526
842.61040,0.00496
840.55022,0.00480
838.49005,0.00473
836.42988,0.00504
834.36971,0.00551
832.30954,0.00531
830.24936,0.00462
828.18919,0.00408
826.12902,0.00363
824.06885,0.00361
822.00867,0.00389
819.94850,0.00360
817.88833,0.00285
815.82816,0.00275
813.76799,0.00384
811.70781,0.00463
809.64764,0.00378
807.58747,0.00260
805.52730,0.00223
803.46713,0.00172
801.40695,0.00115
799.34678,0.00157
797.28661,0.00209
795.22644,0.00157
793.16627,0.00101
791.10609,0.00122
789.04592,0.00122
786.98575,0.00057
784.92558,-0.00001
782.86540,0.00044
780.80523,0.00145
778.74506,0.00168
776.68489,0.00147
774.62472,0.00126
772.56454,0.00076
770.50437,0.00050
768.44420,0.00043
766.38403,0.00040
764.32386,0.00093
762.26368,0.00156
760.20351,0.00193
758.14334,0.00224
756.08317,0.00174
754.02299,0.00055
751.96282,0.00000
749.90265,0.00009
747.84248,0.00081
745.78231,0.00123
743.72213,0.00033
741.66196,-0.00096
739.60179,-0.00178
737.54162,-0.00158
735.48145,-0.00054
733.42127,-0.00013
731.36110,-0.00003
729.30093,0.00079
727.24076,0.00146
725.18059,0.00105
723.12041,0.00073
721.06024,0.00115
719.00007,0.00222
716.93990,0.00294
714.87972,0.00360
712.81955,0.00477
710.75938,0.00574
708.69921,0.00608
706.63904,0.00675
704.57886,0.00861
702.51869,0.01081
700.45852,0.01154
698.39835,0.01069
696.33818,0.01008
694.27800,0.01029
692.21783,0.01046
690.15766,0.01004
688.09749,0.00836
686.03731,0.00595
683.97714,0.00456
681.91697,0.00450
679.85680,0.00577
677.79663,0.00783
675.73645,0.00872
673.67628,0.00853
671.61611,0.00807
669.55594,0.00564
667.49577,0.00569
665.43559,0.01127
663.37542,0.01160
661.31525,0.01014
659.25508,0.00979
657.19491,0.00987
655.13473,0.01011
653.07456,0.01119
651.01439,0.01246
648.95422,0.01260
646.89404,0.01202
644.83387,0.01093
642.77370,0.00912
640.71353,0.00803
638.65336,0.00806
636.59318,0.00703
634.53301,0.00562
632.47284,0.00591
630.41267,0.00552
628.35250,0.00229
626.29232,0.00000
624.23215,0.00158
622.17198,0.00586
620.11181,0.01131
618.05164,0.01434
615.99146,0.01250
613.93129,0.00841
611.87112,0.00189
609.81095,-0.00373
607.75077,-0.00302
605.69060,0.00098
603.63043,0.00310
601.57026,0.00241
599.51009,0.00000
