3996.73391,0.00013
3994.67373,0.00049
3992.61356,0.00082
3990.55339,0.00093
3988.49322,0.00068
3986.43305,0.00031
3984.37287,0.00002
3982.31270,0.00000
3980.25253,0.00041
3978.19236,0.00076
3976.13219,0.00065
3974.07201,0.00057
3972.01184,0.00085
3969.95167,0.00113
3967.89150,0.00108
3965.83133,0.00074
3963.77115,0.00043
3961.71098,0.00047
3959.65081,0.00059
3957.59064,0.00051
3955.53046,0.00038
3953.47029,0.00051
3951.41012,0.00106
3949.34995,0.00162
3947.28978,0.00162
3945.22960,0.00118
3943.16943,0.00081
3941.10926,0.00075
3939.04909,0.00098
3936.98892,0.00122
3934.92874,0.00109
3932.86857,0.00059
3930.80840,0.00052
3928.74823,0.00128
3926.68805,0.00215
3924.62788,0.00258
3922.56771,0.00282
3920.50754,0.00307
3918.44737,0.00296
3916.38719,0.00218
3914.32702,0.00146
3912.26685,0.00161
3910.20668,0.00246
3908.14651,0.00314
3906.08633,0.00321
3904.02616,0.00302
3901.96599,0.00296
3899.90582,0.00281
3897.84565,0.00232
3895.78547,0.00193
3893.72530,0.00200
3891.66513,0.00231
3889.60496,0.00240
3887.54478,0.00198
3885.48461,0.00135
3883.42444,0.00100
3881.36427,0.00126
3879.30410,0.00191
3877.24392,0.00228
3875.18375,0.00221
3873.12358,0.00199
3871.06341,0.00166
3869.00324,0.00118
3866.94306,0.00069
3864.88289,0.00065
3862.82272,0.00128
3860.76255,0.00197
3858.70237,0.00212
3856.64220,0.00187
3854.58203,0.00143
3852.52186,0.00092
3850.46169,0.00084
3848.40151,0.00119
3846.34134,0.00146
3844.28117,0.00131
3842.22100,0.00093
3840.16083,0.00070
3838.10065,0.00094
3836.04048,0.00151
3833.98031,0.00188
3831.92014,0.00185
3829.85997,0.00170
3827.79979,0.00164
3825.73962,0.00182
3823.67945,0.00216
3821.61928,0.00245
3819.55910,0.00260
3817.49893,0.00255
3815.43876,0.00255
3813.37859,0.00268
3811.31842,0.00262
3809.25824,0.00229
3807.19807,0.00216
3805.13790,0.00258
3803.07773,0.00282
3801.01756,0.00247
3798.95738,0.00226
3796.89721,0.00243
3794.83704,0.00242
3792.77687,0.00211
3790.71670,0.00209
3788.65652,0.00263
3786.59635,0.00323
3784.53618,0.00334
3782.47601,0.00300
3780.41583,0.00260
3778.35566,0.00244
3776.29549,0.00273
3774.23532,0.00317
3772.17515,0.00320
3770.11497,0.00297
3768.05480,0.00295
3765.99463,0.00282
3763.93446,0.00262
3761.87429,0.00270
3759.81411,0.00303
3757.75394,0.00355
3755.69377,0.00386
3753.63360,0.00404
3751.57342,0.00478
3749.51325,0.00520
3747.45308,0.00417
3745.39291,0.00270
3743.33274,0.00198
3741.27256,0.00237
3739.21239,0.00317
3737.15222,0.00350
3735.09205,0.00335
3733.03188,0.00300
3730.97170,0.00214
3728.91153,0.00139
3726.85136,0.00126
3724.79119,0.00131
3722.73102,0.00112
3720.67084,0.00097
3718.61067,0.00120
3716.55050,0.00169
3714.49033,0.00234
3712.43015,0.00283
3710.36998,0.00265
3708.30981,0.00234
3706.24964,0.00251
3704.18947,0.00319
3702.12929,0.00384
3700.06912,0.00384
3698.00895,0.00343
3695.94878,0.00321
3693.88861,0.00294
3691.82843,0.00181
3689.76826,0.00031
3687.70809,0.00000
3685.64792,0.00076
3683.58775,0.00144
3681.52757,0.00204
3679.46740,0.00296
3677.40723,0.00392
3675.34706,0.00402
3673.28688,0.00302
3671.22671,0.00210
3669.16654,0.00209
3667.10637,0.00273
3665.04620,0.00321
3662.98602,0.00303
3660.92585,0.00246
3658.86568,0.00199
3656.80551,0.00173
3654.74534,0.00196
3652.68516,0.00293
3650.62499,0.00441
3648.56482,0.00523
3646.50465,0.00473
3644.44447,0.00430
3642.38430,0.00457
3640.32413,0.00502
3638.26396,0.00531
3636.20379,0.00567
3634.14361,0.00573
3632.08344,0.00518
3630.02327,0.00518
3627.96310,0.00613
3625.90293,0.00667
3623.84275,0.00657
3621.78258,0.00640
3619.72241,0.00621
3617.66224,0.00611
3615.60207,0.00629
3613.54189,0.00632
3611.48172,0.00621
3609.42155,0.00661
3607.36138,0.00740
3605.30120,0.00784
3603.24103,0.00839
3601.18086,0.00937
3599.12069,0.00975
3597.06052,0.00959
3595.00034,0.00972
3592.94017,0.00977
3590.88000,0.00930
3588.81983,0.00915
3586.75966,0.00964
3584.69948,0.01001
3582.63931,0.00999
3580.57914,0.01013
3578.51897,0.01060
3576.45879,0.01088
3574.39862,0.01089
3572.33845,0.01121
3570.27828,0.01190
3568.21811,0.01262
3566.15793,0.01337
3564.09776,0.01399
3562.03759,0.01435
3559.97742,0.01449
3557.91725,0.01454
3555.85707,0.01489
3553.79690,0.01533
3551.73673,0.01510
3549.67656,0.01444
3547.61639,0.01446
3545.55621,0.01563
3543.49604,0.01725
3541.43587,0.01814
3539.37570,0.01802
3537.31552,0.01793
3535.25535,0.01865
3533.19518,0.01959
3531.13501,0.02014
3529.07484,0.02035
3527.01466,0.02042
3524.95449,0.02046
3522.89432,0.02051
3520.83415,0.02073
3518.77398,0.02155
3516.71380,0.02276
3514.65363,0.02343
3512.59346,0.02343
3510.53329,0.02337
3508.47312,0.02361
3506.41294,0.02399
3504.35277,0.02427
3502.29260,0.02473
3500.23243,0.02561
3498.17225,0.02635
3496.11208,0.02655
3494.05191,0.02668
3491.99174,0.02718
3489.93157,0.02786
3487.87139,0.02825
3485.81122,0.02833
3483.75105,0.02842
3481.69088,0.02858
3479.63071,0.02899
3477.57053,0.02987
3475.51036,0.03072
3473.45019,0.03120
3471.39002,0.03187
3469.32984,0.03265
3467.26967,0.03264
3465.20950,0.03231
3463.14933,0.03244
3461.08916,0.03249
3459.02898,0.03241
3456.96881,0.03269
3454.90864,0.03340
3452.84847,0.03435
3450.78830,0.03506
3448.72812,0.03547
3446.66795,0.03602
3444.60778,0.03649
3442.54761,0.03677
3440.48744,0.03719
3438.42726,0.03760
3436.36709,0.03793
3434.30692,0.03820
3432.24675,0.03814
3430.18657,0.03820
3428.12640,0.03894
3426.06623,0.03960
3424.00606,0.03969
3421.94589,0.03976
3419.88571,0.04016
3417.82554,0.04053
3415.76537,0.04088
3413.70520,0.04173
3411.64503,0.04273
3409.58485,0.04296
3407.52468,0.04257
3405.46451,0.04244
3403.40434,0.04262
3401.34416,0.04295
3399.28399,0.04365
3397.22382,0.04445
3395.16365,0.04476
3393.10348,0.04466
3391.04330,0.04457
3388.98313,0.04450
3386.92296,0.04445
3384.86279,0.04469
3382.80262,0.04528
3380.74244,0.04561
3378.68227,0.04573
3376.62210,0.04635
3374.56193,0.04687
3372.50176,0.04667
3370.44158,0.04679
3368.38141,0.04772
3366.32124,0.04842
3364.26107,0.04829
3362.20089,0.04770
3360.14072,0.04727
3358.08055,0.04756
3356.02038,0.04835
3353.96021,0.04906
3351.90003,0.04945
3349.83986,0.04943
3347.77969,0.04937
3345.71952,0.04940
3343.65935,0.04955
3341.59917,0.04994
3339.53900,0.05015
3337.47883,0.04989
3335.41866,0.04970
3333.35849,0.04992
3331.29831,0.05014
3329.23814,0.05021
3327.17797,0.05031
3325.11780,0.05049
3323.05762,0.05070
3320.99745,0.05086
3318.93728,0.05082
3316.87711,0.05068
3314.81694,0.05081
3312.75676,0.05124
3310.69659,0.05152
3308.63642,0.05136
3306.57625,0.05119
3304.51608,0.05103
3302.45590,0.05057
3300.39573,0.05050
3298.33556,0.05084
3296.27539,0.05085
3294.21521,0.05079
3292.15504,0.05094
3290.09487,0.05109
3288.03470,0.05119
3285.97453,0.05163
3283.91435,0.05223
3281.85418,0.05227
3279.79401,0.05173
3277.73384,0.05116
3275.67367,0.05098
3273.61349,0.05108
3271.55332,0.05103
3269.49315,0.05068
3267.43298,0.05036
3265.37281,0.05007
3263.31263,0.04964
3261.25246,0.04980
3259.19229,0.05089
3257.13212,0.05162
3255.07194,0.05136
3253.01177,0.05082
3250.95160,0.05057
3248.89143,0.05048
3246.83126,0.05021
3244.77108,0.05014
3242.71091,0.05053
3240.65074,0.05067
3238.59057,0.05060
3236.53040,0.05077
3234.47022,0.05067
3232.41005,0.05010
3230.34988,0.04967
3228.28971,0.04961
3226.22954,0.04957
3224.16936,0.04912
3222.10919,0.04845
3220.04902,0.04810
3217.98885,0.04818
3215.92867,0.04854
3213.86850,0.04880
3211.80833,0.04859
3209.74816,0.04802
3207.68799,0.04764
3205.62781,0.04784
3203.56764,0.04815
3201.50747,0.04808
3199.44730,0.04774
3197.38713,0.04728
3195.32695,0.04703
3193.26678,0.04719
3191.20661,0.04705
3189.14644,0.04641
3187.08626,0.04617
3185.02609,0.04635
3182.96592,0.04615
3180.90575,0.04574
3178.84558,0.04534
3176.78540,0.04474
3174.72523,0.04403
3172.66506,0.04354
3170.60489,0.04346
3168.54472,0.04323
3166.48454,0.04283
3164.42437,0.04283
3162.36420,0.04290
3160.30403,0.04263
3158.24386,0.04236
3156.18368,0.04238
3154.12351,0.04259
3152.06334,0.04280
3150.00317,0.04283
3147.94299,0.04240
3145.88282,0.04158
3143.82265,0.04100
3141.76248,0.04093
3139.70231,0.04100
3137.64213,0.04107
3135.58196,0.04075
3133.52179,0.03981
3131.46162,0.03887
3129.40145,0.03824
3127.34127,0.03782
3125.28110,0.03790
3123.22093,0.03830
3121.16076,0.03841
3119.10058,0.03838
3117.04041,0.03838
3114.98024,0.03813
3112.92007,0.03762
3110.85990,0.03711
3108.79972,0.03684
3106.73955,0.03685
3104.67938,0.03692
3102.61921,0.03679
3100.55904,0.03628
3098.49886,0.03567
3096.43869,0.03532
3094.37852,0.03510
3092.31835,0.03462
3090.25818,0.03410
3088.19800,0.03413
3086.13783,0.03454
3084.07766,0.03470
3082.01749,0.03441
3079.95731,0.03385
3077.89714,0.03328
3075.83697,0.03286
3073.77680,0.03267
3071.71663,0.03271
3069.65645,0.03274
3067.59628,0.03252
3065.53611,0.03193
3063.47594,0.03109
3061.41577,0.03063
3059.35559,0.03069
3057.29542,0.03084
3055.23525,0.03072
3053.17508,0.03021
3051.11491,0.02969
3049.05473,0.02952
3046.99456,0.02957
3044.93439,0.02948
3042.87422,0.02926
3040.81404,0.02924
3038.75387,0.02941
3036.69370,0.02926
3034.63353,0.02853
3032.57336,0.02760
3030.51318,0.02710
3028.45301,0.02696
3026.39284,0.02693
3024.33267,0.02709
3022.27250,0.02713
3020.21232,0.02660
3018.15215,0.02586
3016.09198,0.02574
3014.03181,0.02622
3011.97163,0.02653
3009.91146,0.02643
3007.85129,0.02619
3005.79112,0.02582
3003.73095,0.02545
3001.67077,0.02516
2999.61060,0.02502
2997.55043,0.02493
2995.49026,0.02473
2993.43009,0.02467
2991.36991,0.02481
2989.30974,0.02484
2987.24957,0.02487
2985.18940,0.02511
2983.12923,0.02514
2981.06905,0.02496
2979.00888,0.02494
2976.94871,0.02510
2974.88854,0.02565
2972.82836,0.02665
2970.76819,0.02782
2968.70802,0.02889
2966.64785,0.02976
2964.58768,0.03043
2962.52750,0.03115
2960.46733,0.03232
2958.40716,0.03386
2956.34699,0.03535
2954.28682,0.03698
2952.22664,0.03906
2950.16647,0.04115
2948.10630,0.04288
2946.04613,0.04460
2943.98596,0.04653
2941.92578,0.04856
2939.86561,0.05081
2937.80544,0.05332
2935.74527,0.05566
2933.68509,0.05764
2931.62492,0.05944
2929.56475,0.06121
2927.50458,0.06288
2925.44441,0.06448
2923.38423,0.06610
2921.32406,0.06747
2919.26389,0.06796
2917.20372,0.06724
2915.14355,0.06568
2913.08337,0.06367
2911.02320,0.06143
2908.96303,0.05910
2906.90286,0.05714
2904.84268,0.05560
2902.78251,0.05392
2900.72234,0.05201
2898.66217,0.05025
2896.60200,0.04876
2894.54182,0.04729
2892.48165,0.04597
2890.42148,0.04511
2888.36131,0.04467
2886.30114,0.04458
2884.24096,0.04440
2882.18079,0.04366
2880.12062,0.04275
2878.06045,0.04231
2876.00028,0.04213
2873.94010,0.04197
2871.87993,0.04217
2869.81976,0.04266
2867.75959,0.04325
2865.69941,0.04425
2863.63924,0.04573
2861.57907,0.04726
2859.51890,0.04874
2857.45873,0.05051
2855.39855,0.05243
2853.33838,0.05402
2851.27821,0.05456
2849.21804,0.05358
2847.15787,0.05136
2845.09769,0.04841
2843.03752,0.04525
2840.97735,0.04233
2838.91718,0.03988
2836.85700,0.03817
2834.79683,0.03714
2832.73666,0.03632
2830.67649,0.03541
2828.61632,0.03450
2826.55614,0.03373
2824.49597,0.03321
2822.43580,0.03280
2820.37563,0.03226
2818.31546,0.03178
2816.25528,0.03147
2814.19511,0.03116
2812.13494,0.03072
2810.07477,0.03003
2808.01460,0.02916
2805.95442,0.02847
2803.89425,0.02820
2801.83408,0.02817
2799.77391,0.02817
2797.71373,0.02804
2795.65356,0.02764
2793.59339,0.02746
2791.53322,0.02759
2789.47305,0.02731
2787.41287,0.02655
2785.35270,0.02606
2783.29253,0.02604
2781.23236,0.02597
2779.17219,0.02568
2777.11201,0.02532
2775.05184,0.02494
2772.99167,0.02475
2770.93150,0.02488
2768.87133,0.02505
2766.81115,0.02496
2764.75098,0.02486
2762.69081,0.02496
2760.63064,0.02483
2758.57046,0.02428
2756.51029,0.02375
2754.45012,0.02373
2752.38995,0.02413
2750.32978,0.02436
2748.26960,0.02432
2746.20943,0.02442
2744.14926,0.02468
2742.08909,0.02468
2740.02892,0.02444
2737.96874,0.02433
2735.90857,0.02431
2733.84840,0.02422
2731.78823,0.02384
2729.72805,0.02314
2727.66788,0.02289
2725.60771,0.02317
2723.54754,0.02327
2721.48737,0.02343
2719.42719,0.02383
2717.36702,0.02376
2715.30685,0.02308
2713.24668,0.02256
2711.18651,0.02258
2709.12633,0.02260
2707.06616,0.02242
2705.00599,0.02248
2702.94582,0.02266
2700.88565,0.02282
2698.82547,0.02300
2696.76530,0.02292
2694.70513,0.02261
2692.64496,0.02232
2690.58478,0.02211
2688.52461,0.02213
2686.46444,0.02220
2684.40427,0.02219
2682.34410,0.02250
2680.28392,0.02286
2678.22375,0.02260
2676.16358,0.02224
2674.10341,0.02239
2672.04324,0.02230
2669.98306,0.02179
2667.92289,0.02155
2665.86272,0.02151
2663.80255,0.02149
2661.74238,0.02165
2659.68220,0.02186
2657.62203,0.02174
2655.56186,0.02122
2653.50169,0.02081
2651.44151,0.02072
2649.38134,0.02053
2647.32117,0.02022
2645.26100,0.02005
2643.20083,0.02004
2641.14065,0.02010
2639.08048,0.02018
2637.02031,0.02027
2634.96014,0.02021
2632.89997,0.02017
2630.83979,0.02044
2628.77962,0.02042
2626.71945,0.01999
2624.65928,0.01979
2622.59910,0.01955
2620.53893,0.01912
2618.47876,0.01904
2616.41859,0.01929
2614.35842,0.01950
2612.29824,0.01967
2610.23807,0.01970
2608.17790,0.01924
2606.11773,0.01857
2604.05756,0.01830
2601.99738,0.01815
2599.93721,0.01795
2597.87704,0.01811
2595.81687,0.01839
2593.75670,0.01838
2591.69652,0.01808
2589.63635,0.01785
2587.57618,0.01790
2585.51601,0.01790
2583.45583,0.01774
2581.39566,0.01765
2579.33549,0.01779
2577.27532,0.01805
2575.21515,0.01781
2573.15497,0.01717
2571.09480,0.01697
2569.03463,0.01713
2566.97446,0.01748
2564.91429,0.01767
2562.85411,0.01689
2560.79394,0.01577
2558.73377,0.01577
2556.67360,0.01687
2554.61342,0.01772
2552.55325,0.01753
2550.49308,0.01690
2548.43291,0.01665
2546.37274,0.01674
2544.31256,0.01676
2542.25239,0.01617
2540.19222,0.01560
2538.13205,0.01600
2536.07188,0.01658
2534.01170,0.01627
2531.95153,0.01555
2529.89136,0.01532
2527.83119,0.01545
2525.77102,0.01539
2523.71084,0.01516
2521.65067,0.01490
2519.59050,0.01464
2517.53033,0.01438
2515.47015,0.01443
2513.40998,0.01521
2511.34981,0.01598
2509.28964,0.01625
2507.22947,0.01631
2505.16929,0.01592
2503.10912,0.01559
2501.04895,0.01585
2498.98878,0.01573
2496.92861,0.01496
2494.86843,0.01440
2492.80826,0.01437
2490.74809,0.01458
2488.68792,0.01470
2486.62775,0.01455
2484.56757,0.01419
2482.50740,0.01376
2480.44723,0.01342
2478.38706,0.01354
2476.32688,0.01402
2474.26671,0.01409
2472.20654,0.01393
2470.14637,0.01384
2468.08620,0.01351
2466.02602,0.01334
2463.96585,0.01347
2461.90568,0.01367
2459.84551,0.01384
2457.78534,0.01371
2455.72516,0.01358
2453.66499,0.01408
2451.60482,0.01469
2449.54465,0.01463
2447.48447,0.01417
2445.42430,0.01384
2443.36413,0.01388
2441.30396,0.01452
2439.24379,0.01481
2437.18361,0.01433
2435.12344,0.01410
2433.06327,0.01414
2431.00310,0.01402
2428.94293,0.01392
2426.88275,0.01365
2424.82258,0.01319
2422.76241,0.01298
2420.70224,0.01316
2418.64207,0.01343
2416.58189,0.01351
2414.52172,0.01318
2412.46155,0.01249
2410.40138,0.01199
2408.34120,0.01218
2406.28103,0.01236
2404.22086,0.01208
2402.16069,0.01229
2400.10052,0.01297
2398.04034,0.01329
2395.98017,0.01319
2393.92000,0.01307
2391.85983,0.01295
2389.79966,0.01261
2387.73948,0.01217
2385.67931,0.01186
2383.61914,0.01183
2381.55897,0.01230
2379.49880,0.01308
2377.43862,0.01347
2375.37845,0.01387
2373.31828,0.01503
2371.25811,0.01677
2369.19793,0.01722
2367.13776,0.01399
2365.07759,0.00893
2363.01742,0.00771
2360.95725,0.00975
2358.89707,0.01183
2356.83690,0.01134
2354.77673,0.01119
2352.71656,0.01216
2350.65639,0.01097
2348.59621,0.00994
2346.53604,0.01216
2344.47587,0.01156
2342.41570,0.01036
2340.35552,0.01019
2338.29535,0.00986
2336.23518,0.00995
2334.17501,0.01029
2332.11484,0.01040
2330.05466,0.01022
2327.99449,0.01096
2325.93432,0.01181
2323.87415,0.01310
2321.81398,0.01386
2319.75380,0.01372
2317.69363,0.01256
2315.63346,0.01254
2313.57329,0.01343
2311.51312,0.01344
2309.45294,0.01241
2307.39277,0.01164
2305.33260,0.01166
2303.27243,0.01174
2301.21225,0.01168
2299.15208,0.01178
2297.09191,0.01218
2295.03174,0.01244
2292.97157,0.01252
2290.91139,0.01261
2288.85122,0.01257
2286.79105,0.01210
2284.73088,0.01109
2282.67071,0.01025
2280.61053,0.01052
2278.55036,0.01161
2276.49019,0.01181
2274.43002,0.01069
2272.36984,0.01017
2270.30967,0.01087
2268.24950,0.01155
2266.18933,0.01216
2264.12916,0.01308
2262.06898,0.01321
2260.00881,0.01211
2257.94864,0.01081
2255.88847,0.00987
2253.82830,0.00915
2251.76812,0.00862
2249.70795,0.00801
2247.64778,0.00777
2245.58761,0.00946
2243.52744,0.01138
2241.46726,0.01147
2239.40709,0.01108
2237.34692,0.01128
2235.28675,0.01138
2233.22657,0.01128
2231.16640,0.01096
2229.10623,0.01023
2227.04606,0.00941
2224.98589,0.00904
2222.92571,0.00924
2220.86554,0.00959
2218.80537,0.01003
2216.74520,0.01017
2214.68503,0.00980
2212.62485,0.00949
2210.56468,0.01025
2208.50451,0.01165
2206.44434,0.01124
2204.38417,0.00959
2202.32399,0.00903
2200.26382,0.00882
2198.20365,0.00722
2196.14348,0.00572
2194.08330,0.00642
2192.02313,0.00752
2189.96296,0.00750
2187.90279,0.00767
2185.84262,0.00864
2183.78244,0.00921
2181.72227,0.00764
2179.66210,0.00595
2177.60193,0.00794
2175.54176,0.01081
2173.48158,0.01058
2171.42141,0.00813
2169.36124,0.00566
2167.30107,0.00444
2165.24089,0.00458
2163.18072,0.00560
2161.12055,0.00516
2159.06038,0.00351
2157.00021,0.00416
2154.94003,0.00677
2152.87986,0.00833
2150.81969,0.00766
2148.75952,0.00705
2146.69935,0.00712
2144.63917,0.00684
2142.57900,0.00711
2140.51883,0.00738
2138.45866,0.00673
2136.39849,0.00665
2134.33831,0.00696
2132.27814,0.00658
2130.21797,0.00687
2128.15780,0.00755
2126.09762,0.00745
2124.03745,0.00725
2121.97728,0.00791
2119.91711,0.00929
2117.85694,0.00971
2115.79676,0.00840
2113.73659,0.00674
2111.67642,0.00559
2109.61625,0.00547
2107.55608,0.00688
2105.49590,0.00853
2103.43573,0.00929
2101.37556,0.00878
2099.31539,0.00744
2097.25521,0.00685
2095.19504,0.00794
2093.13487,0.00981
2091.07470,0.01106
2089.01453,0.01129
2086.95435,0.01017
2084.89418,0.00791
2082.83401,0.00580
2080.77384,0.00504
2078.71367,0.00579
2076.65349,0.00734
2074.59332,0.00886
2072.53315,0.00888
2070.47298,0.00718
2068.41281,0.00556
2066.35263,0.00489
2064.29246,0.00566
2062.23229,0.00776
2060.17212,0.00893
2058.11194,0.00759
2056.05177,0.00556
2053.99160,0.00558
2051.93143,0.00724
2049.87126,0.00817
2047.81108,0.00742
2045.75091,0.00648
2043.69074,0.00742
2041.63057,0.00894
2039.57040,0.00796
2037.51022,0.00569
2035.45005,0.00521
2033.38988,0.00631
2031.32971,0.00646
2029.26954,0.00380
2027.20936,0.00050
2025.14919,0.00000
2023.08902,0.00190
2021.02885,0.00365
2018.96867,0.00431
2016.90850,0.00517
2014.84833,0.00587
2012.78816,0.00556
2010.72799,0.00566
2008.66781,0.00631
2006.60764,0.00625
2004.54747,0.00553
2002.48730,0.00471
2000.42713,0.00452
1998.36695,0.00496
1996.30678,0.00478
1994.24661,0.00416
1992.18644,0.00419
1990.12626,0.00467
1988.06609,0.00527
1986.00592,0.00576
1983.94575,0.00617
1981.88558,0.00621
1979.82540,0.00466
1977.76523,0.00211
1975.70506,0.00031
1973.64489,0.00060
1971.58472,0.00286
1969.52454,0.00415
1967.46437,0.00328
1965.40420,0.00171
1963.34403,0.00080
1961.28386,0.00178
1959.22368,0.00369
1957.16351,0.00420
1955.10334,0.00369
1953.04317,0.00362
1950.98299,0.00321
1948.92282,0.00191
1946.86265,0.00146
1944.80248,0.00223
1942.74231,0.00309
1940.68213,0.00411
1938.62196,0.00528
1936.56179,0.00592
1934.50162,0.00578
1932.44145,0.00509
1930.38127,0.00414
1928.32110,0.00342
1926.26093,0.00307
1924.20076,0.00301
1922.14059,0.00358
1920.08041,0.00437
1918.02024,0.00458
1915.96007,0.00436
1913.89990,0.00396
1911.83972,0.00355
1909.77955,0.00378
1907.71938,0.00455
1905.65921,0.00489
1903.59904,0.00487
1901.53886,0.00487
1899.47869,0.00465
1897.41852,0.00429
1895.35835,0.00423
1893.29818,0.00425
1891.23800,0.00388
1889.17783,0.00382
1887.11766,0.00436
1885.05749,0.00450
1882.99731,0.00410
1880.93714,0.00394
1878.87697,0.00398
1876.81680,0.00367
1874.75663,0.00303
1872.69645,0.00287
1870.63628,0.00354
1868.57611,0.00405
1866.51594,0.00368
1864.45577,0.00321
1862.39559,0.00298
1860.33542,0.00281
1858.27525,0.00277
1856.21508,0.00273
1854.15491,0.00237
1852.09473,0.00178
1850.03456,0.00130
1847.97439,0.00135
1845.91422,0.00191
1843.85404,0.00241
1841.79387,0.00278
1839.73370,0.00325
1837.67353,0.00360
1835.61336,0.00348
1833.55318,0.00293
1831.49301,0.00259
1829.43284,0.00292
1827.37267,0.00367
1825.31250,0.00410
1823.25232,0.00371
1821.19215,0.00283
1819.13198,0.00214
1817.07181,0.00197
1815.01163,0.00220
1812.95146,0.00256
1810.89129,0.00273
1808.83112,0.00250
1806.77095,0.00219
1804.71077,0.00211
1802.65060,0.00189
1800.59043,0.00134
1798.53026,0.00097
1796.47009,0.00097
1794.40991,0.00108
1792.34974,0.00120
1790.28957,0.00124
1788.22940,0.00113
1786.16923,0.00104
1784.10905,0.00104
1782.04888,0.00094
1779.98871,0.00079
1777.92854,0.00077
1775.86836,0.00051
1773.80819,0.00000
1771.74802,0.00002
1769.68785,0.00090
1767.62768,0.00182
1765.56750,0.00230
1763.50733,0.00246
1761.44716,0.00269
1759.38699,0.00340
1757.32682,0.00479
1755.26664,0.00661
1753.20647,0.00813
1751.14630,0.00909
1749.08613,0.00986
1747.02596,0.01082
1744.96578,0.01215
1742.90561,0.01368
1740.84544,0.01487
1738.78527,0.01531
1736.72509,0.01516
1734.66492,0.01499
1732.60475,0.01533
1730.54458,0.01594
1728.48441,0.01623
1726.42423,0.01621
1724.36406,0.01626
1722.30389,0.01654
1720.24372,0.01672
1718.18355,0.01671
1716.12337,0.01675
1714.06320,0.01682
1712.00303,0.01686
1709.94286,0.01672
1707.88268,0.01607
1705.82251,0.01510
1703.76234,0.01461
1701.70217,0.01497
1699.64200,0.01595
1697.58182,0.01683
1695.52165,0.01728
1693.46148,0.01761
1691.40131,0.01826
1689.34114,0.01936
1687.28096,0.02070
1685.22079,0.02252
1683.16062,0.02513
1681.10045,0.02746
1679.04028,0.02898
1676.98010,0.02997
1674.91993,0.03092
1672.85976,0.03191
1670.79959,0.03234
1668.73941,0.03217
1666.67924,0.03170
1664.61907,0.03095
1662.55890,0.03009
1660.49873,0.02955
1658.43855,0.02936
1656.37838,0.02915
1654.31821,0.02856
1652.25804,0.02776
1650.19787,0.02746
1648.13769,0.02763
1646.07752,0.02816
1644.01735,0.02865
1641.95718,0.02880
1639.89701,0.02883
1637.83683,0.02894
1635.77666,0.02952
1633.71649,0.03069
1631.65632,0.03163
1629.59614,0.03211
1627.53597,0.03244
1625.47580,0.03269
1623.41563,0.03292
1621.35546,0.03324
1619.29528,0.03358
1617.23511,0.03396
1615.17494,0.03475
1613.11477,0.03599
1611.05460,0.03726
1608.99442,0.03849
1606.93425,0.03970
1604.87408,0.04036
1602.81391,0.03992
1600.75373,0.03876
1598.69356,0.03745
1596.63339,0.03607
1594.57322,0.03473
1592.51305,0.03368
1590.45287,0.03296
1588.39270,0.03225
1586.33253,0.03119
1584.27236,0.02994
1582.21219,0.02892
1580.15201,0.02831
1578.09184,0.02778
1576.03167,0.02694
1573.97150,0.02603
1571.91133,0.02547
1569.85115,0.02517
1567.79098,0.02467
1565.73081,0.02352
1563.67064,0.02183
1561.61046,0.02006
1559.55029,0.01865
1557.49012,0.01815
1555.42995,0.01788
1553.36978,0.01716
1551.30960,0.01631
1549.24943,0.01557
1547.18926,0.01500
1545.12909,0.01427
1543.06892,0.01279
1541.00874,0.01103
1538.94857,0.01031
1536.88840,0.01030
1534.82823,0.00997
1532.76805,0.00941
1530.70788,0.00904
1528.64771,0.00869
1526.58754,0.00836
1524.52737,0.00854
1522.46719,0.00943
1520.40702,0.01067
1518.34685,0.01181
1516.28668,0.01291
1514.22651,0.01369
1512.16633,0.01355
1510.10616,0.01223
1508.04599,0.00971
1505.98582,0.00721
1503.92565,0.00640
1501.86547,0.00619
1499.80530,0.00563
1497.74513,0.00486
1495.68496,0.00419
1493.62478,0.00361
1491.56461,0.00291
1489.50444,0.00211
1487.44427,0.00156
1485.38410,0.00146
1483.32392,0.00164
1481.26375,0.00195
1479.20358,0.00241
1477.14341,0.00316
1475.08324,0.00444
1473.02306,0.00641
1470.96289,0.00861
1468.90272,0.01037
1466.84255,0.01205
1464.78238,0.01398
1462.72220,0.01551
1460.66203,0.01641
1458.60186,0.01723
1456.54169,0.01840
1454.48151,0.01977
1452.42134,0.02076
1450.36117,0.02122
1448.30100,0.02170
1446.24083,0.02258
1444.18065,0.02351
1442.12048,0.02432
1440.06031,0.02525
1438.00014,0.02629
1435.93997,0.02707
1433.87979,0.02741
1431.81962,0.02775
1429.75945,0.02820
1427.69928,0.02835
1425.63910,0.02806
1423.57893,0.02767
1421.51876,0.02770
1419.45859,0.02830
1417.39842,0.02883
1415.33824,0.02865
1413.27807,0.02815
1411.21790,0.02773
1409.15773,0.02724
1407.09756,0.02639
1405.03738,0.02530
1402.97721,0.02450
1400.91704,0.02406
1398.85687,0.02351
1396.79670,0.02261
1394.73652,0.02164
1392.67635,0.02108
1390.61618,0.02104
1388.55601,0.02141
1386.49583,0.02204
1384.43566,0.02258
1382.37549,0.02303
1380.31532,0.02365
1378.25515,0.02431
1376.19497,0.02464
1374.13480,0.02476
1372.07463,0.02495
1370.01446,0.02501
1367.95429,0.02499
1365.89411,0.02514
1363.83394,0.02519
1361.77377,0.02487
1359.71360,0.02440
1357.65343,0.02396
1355.59325,0.02364
1353.53308,0.02347
1351.47291,0.02339
1349.41274,0.02336
1347.35256,0.02339
1345.29239,0.02343
1343.23222,0.02331
1341.17205,0.02298
1339.11188,0.02267
1337.05170,0.02252
1334.99153,0.02250
1332.93136,0.02262
1330.87119,0.02283
1328.81102,0.02306
1326.75084,0.02323
1324.69067,0.02332
1322.63050,0.02340
1320.57033,0.02350
1318.51015,0.02336
1316.44998,0.02298
1314.38981,0.02268
1312.32964,0.02246
1310.26947,0.02225
1308.20929,0.02196
1306.14912,0.02129
1304.08895,0.02034
1302.02878,0.01946
1299.96861,0.01866
1297.90843,0.01801
1295.84826,0.01793
1293.78809,0.01831
1291.72792,0.01851
1289.66775,0.01855
1287.60757,0.01887
1285.54740,0.01943
1283.48723,0.01977
1281.42706,0.01965
1279.36688,0.01939
1277.30671,0.01961
1275.24654,0.02013
1273.18637,0.02014
1271.12620,0.01993
1269.06602,0.02054
1267.00585,0.02180
1264.94568,0.02278
1262.88551,0.02345
1260.82534,0.02413
1258.76516,0.02467
1256.70499,0.02527
1254.64482,0.02617
1252.58465,0.02703
1250.52447,0.02775
1248.46430,0.02833
1246.40413,0.02861
1244.34396,0.02861
1242.28379,0.02838
1240.22361,0.02817
1238.16344,0.02822
1236.10327,0.02811
1234.04310,0.02752
1231.98293,0.02670
1229.92275,0.02572
1227.86258,0.02467
1225.80241,0.02357
1223.74224,0.02241
1221.68207,0.02123
1219.62189,0.01984
1217.56172,0.01819
1215.50155,0.01646
1213.44138,0.01501
1211.38120,0.01416
1209.32103,0.01347
1207.26086,0.01250
1205.20069,0.01135
1203.14052,0.01004
1201.08034,0.00853
1199.02017,0.00699
1196.96000,0.00555
1194.89983,0.00401
1192.83966,0.00250
1190.77948,0.00164
1188.71931,0.00126
1186.65914,0.00078
1184.59897,0.00023
1182.53880,0.00000
1180.47862,0.00012
1178.41845,0.00080
1176.35828,0.00225
1174.29811,0.00446
1172.23793,0.00711
1170.17776,0.00954
1168.11759,0.01126
1166.05742,0.01216
1163.99725,0.01283
1161.93707,0.01360
1159.87690,0.01398
1157.81673,0.01425
1155.75656,0.01494
1153.69639,0.01563
1151.63621,0.01643
1149.57604,0.01761
1147.51587,0.01870
1145.45570,0.01957
1143.39552,0.02047
1141.33535,0.02168
1139.27518,0.02291
1137.21501,0.02362
1135.15484,0.02386
1133.09466,0.02394
1131.03449,0.02437
1128.97432,0.02552
1126.91415,0.02703
1124.85398,0.02848
1122.79380,0.02992
1120.73363,0.03115
1118.67346,0.03238
1116.61329,0.03377
1114.55312,0.03492
1112.49294,0.03591
1110.43277,0.03687
1108.37260,0.03800
1106.31243,0.03970
1104.25225,0.04153
1102.19208,0.04272
1100.13191,0.04374
1098.07174,0.04541
1096.01157,0.04751
1093.95139,0.04974
1091.89122,0.05182
1089.83105,0.05357
1087.77088,0.05535
1085.71071,0.05728
1083.65053,0.05913
1081.59036,0.06102
1079.53019,0.06321
1077.47002,0.06563
1075.40985,0.06809
1073.34967,0.07062
1071.28950,0.07317
1069.22933,0.07517
1067.16916,0.07653
1065.10898,0.07773
1063.04881,0.07897
1060.98864,0.08024
1058.92847,0.08176
1056.86830,0.08382
1054.80812,0.08607
1052.74795,0.08808
1050.68778,0.09029
1048.62761,0.09295
1046.56744,0.09575
1044.50726,0.09853
1042.44709,0.10103
1040.38692,0.10305
1038.32675,0.10498
1036.26657,0.10692
1034.20640,0.10857
1032.14623,0.10939
1030.08606,0.10930
1028.02589,0.10893
1025.96571,0.10874
1023.90554,0.10854
1021.84537,0.10796
1019.78520,0.10700
1017.72503,0.10586
1015.66485,0.10521
1013.60468,0.10558
1011.54451,0.10635
1009.48434,0.10690
1007.42417,0.10711
1005.36399,0.10693
1003.30382,0.10642
1001.24365,0.10565
999.18348,0.10461
997.12330,0.10336
995.06313,0.10199
993.00296,0.10024
990.94279,0.09820
988.88262,0.09650
986.82244,0.09505
984.76227,0.09351
982.70210,0.09163
980.64193,0.08944
978.58176,0.08781
976.52158,0.08658
974.46141,0.08492
972.40124,0.08315
970.34107,0.08153
968.28089,0.07979
966.22072,0.07813
964.16055,0.07635
962.10038,0.07418
960.04021,0.07230
957.98003,0.07091
955.91986,0.06958
953.85969,0.06821
951.79952,0.06661
949.73935,0.06492
947.67917,0.06338
945.61900,0.06157
943.55883,0.05924
941.49866,0.05676
939.43849,0.05401
937.37831,0.05068
935.31814,0.04722
933.25797,0.04402
931.19780,0.04106
929.13762,0.03809
927.07745,0.03476
925.01728,0.03197
922.95711,0.03069
920.89694,0.02983
918.83676,0.02819
916.77659,0.02625
914.71642,0.02466
912.65625,0.02327
910.59608,0.02179
908.53590,0.01991
906.47573,0.01789
904.41556,0.01670
902.35539,0.01640
900.29522,0.01614
898.23504,0.01619
896.17487,0.01693
894.11470,0.01720
892.05453,0.01677
889.99435,0.01669
887.93418,0.01657
885.87401,0.01603
883.81384,0.01549
881.75367,0.01439
879.69349,0.01244
877.63332,0.01074
875.57315,0.00976
873.51298,0.00903
871.45281,0.00862
869.39263,0.00885
867.33246,0.00919
865.27229,0.00910
863.21212,0.00890
861.15194,0.00841
859.09177,0.00723
857.03160,0.00615
854.97143,0.00567
852.91126,0.00579
850.85108,0.00646
848.79091,0.00660
846.73074,0.00619
844.67057,0.00607
842.61040,0.00553
840.55022,0.00428
838.49005,0.00387
836.42988,0.00458
834.36971,0.00528
832.30954,0.00545
830.24936,0.00522
828.18919,0.00495
826.12902,0.00431
824.06885,0.00345
822.00867,0.00278
819.94850,0.00186
817.88833,0.00105
815.82816,0.00142
813.76799,0.00302
811.70781,0.00386
809.64764,0.00270
807.58747,0.00131
805.52730,0.00097
803.46713,0.00087
801.40695,0.00122
799.34678,0.00240
797.28661,0.00304
795.22644,0.00242
793.16627,0.00175
791.10609,0.00184
789.04592,0.00187
786.98575,0.00109
784.92558,0.00041
782.86540,0.00088
780.80523,0.00181
778.74506,0.00230
776.68489,0.00231
774.62472,0.00173
772.56454,0.00095
770.50437,0.00044
768.44420,-0.00028
766.38403,-0.00024
764.32386,0.00131
762.26368,0.00252
760.20351,0.00311
758.14334,0.00379
756.08317,0.00337
754.02299,0.00192
751.96282,0.00141
749.90265,0.00195
747.84248,0.00301
745.78231,0.00351
743.72213,0.00189
741.66196,0.00000
739.60179,-0.00025
737.54162,0.00083
735.48145,0.00152
733.42127,0.00101
731.36110,0.00063
729.30093,0.00203
727.24076,0.00374
725.18059,0.00375
723.12041,0.00363
721.06024,0.00445
719.00007,0.00398
716.93990,0.00286
714.87972,0.00282
712.81955,0.00356
710.75938,0.00418
708.69921,0.00493
706.63904,0.00643
704.57886,0.00876
702.51869,0.01101
700.45852,0.01079
698.39835,0.00805
696.33818,0.00674
694.27800,0.00843
692.21783,0.01033
690.15766,0.01117
688.09749,0.01135
686.03731,0.01020
683.97714,0.00778
681.91697,0.00555
679.85680,0.00525
677.79663,0.00651
675.73645,0.00695
673.67628,0.00529
671.61611,0.00193
669.55594,0.00230
667.49577,0.00537
665.43559,0.00253
663.37542,0.00404
661.31525,0.00384
659.25508,0.00209
657.19491,0.00230
655.13473,0.00629
653.07456,0.01138
651.01439,0.01304
648.95422,0.01099
646.89404,0.00935
644.83387,0.01082
642.77370,0.01227
640.71353,0.01146
638.65336,0.00957
636.59318,0.00745
634.53301,0.00500
632.47284,0.00292
630.41267,0.00129
628.35250,0.00000
626.29232,0.00048
624.23215,0.00734
622.17198,0.01345
620.11181,0.01274
618.05164,0.00796
615.99146,0.00336
613.93129,0.00059
611.87112,-0.00269
609.81095,-0.00509
607.75077,-0.00191
605.69060,0.00182
603.63043,-0.00129
601.57026,-0.00446
599.51009,0.00000
