3996.73391,0.00097
3994.67373,0.00074
3992.61356,0.00043
3990.55339,0.00043
3988.49322,0.00056
3986.43305,0.00028
3984.37287,-0.00018
3982.31270,-0.00016
3980.25253,0.00032
3978.19236,0.00059
3976.13219,0.00035
3974.07201,0.00018
3972.01184,0.00042
3969.95167,0.00071
3967.89150,0.00082
3965.83133,0.00074
3963.77115,0.00047
3961.71098,0.00028
3959.65081,0.00027
3957.59064,0.00020
3955.53046,0.00000
3953.47029,0.00013
3951.41012,0.00094
3949.34995,0.00190
3947.28978,0.00226
3945.22960,0.00206
3943.16943,0.00156
3941.10926,0.00093
3939.04909,0.00068
3936.98892,0.00084
3934.92874,0.00080
3932.86857,0.00038
3930.80840,0.00042
3928.74823,0.00127
3926.68805,0.00209
3924.62788,0.00235
3922.56771,0.00218
3920.50754,0.00176
3918.44737,0.00112
3916.38719,0.00058
3914.32702,0.00060
3912.26685,0.00120
3910.20668,0.00203
3908.14651,0.00252
3906.08633,0.00235
3904.02616,0.00196
3901.96599,0.00176
3899.90582,0.00156
3897.84565,0.00130
3895.78547,0.00118
3893.72530,0.00109
3891.66513,0.00101
3889.60496,0.00105
3887.54478,0.00110
3885.48461,0.00115
3883.42444,0.00125
3881.36427,0.00148
3879.30410,0.00183
3877.24392,0.00219
3875.18375,0.00262
3873.12358,0.00278
3871.06341,0.00213
3869.00324,0.00108
3866.94306,0.00041
3864.88289,0.00023
3862.82272,0.00050
3860.76255,0.00104
3858.70237,0.00147
3856.64220,0.00183
3854.58203,0.00175
3852.52186,0.00066
3850.46169,0.00000
3848.40151,0.00044
3846.34134,0.00101
3844.28117,0.00108
3842.22100,0.00070
3840.16083,0.00029
3838.10065,0.00036
3836.04048,0.00085
3833.98031,0.00109
3831.92014,0.00098
3829.85997,0.00090
3827.79979,0.00099
3825.73962,0.00114
3823.67945,0.00131
3821.61928,0.00174
3819.55910,0.00220
3817.49893,0.00202
3815.43876,0.00162
3813.37859,0.00162
3811.31842,0.00184
3809.25824,0.00190
3807.19807,0.00192
3805.13790,0.00214
3803.07773,0.00239
3801.01756,0.00231
3798.95738,0.00192
3796.89721,0.00166
3794.83704,0.00170
3792.77687,0.00171
3790.71670,0.00165
3788.65652,0.00178
3786.59635,0.00196
3784.53618,0.00183
3782.47601,0.00175
3780.41583,0.00204
3778.35566,0.00226
3776.29549,0.00212
3774.23532,0.00183
3772.17515,0.00160
3770.11497,0.00165
3768.05480,0.00212
3765.99463,0.00251
3763.93446,0.00247
3761.87429,0.00210
3759.81411,0.00183
3757.75394,0.00207
3755.69377,0.00273
3753.63360,0.00343
3751.57342,0.00377
3749.51325,0.00333
3747.45308,0.00236
3745.39291,0.00127
3743.33274,0.00073
3741.27256,0.00092
3739.21239,0.00093
3737.15222,0.00090
3735.09205,0.00165
3733.03188,0.00215
3730.97170,0.00140
3728.91153,0.00047
3726.85136,0.00035
3724.79119,0.00088
3722.73102,0.00106
3720.67084,0.00057
3718.61067,0.00013
3716.55050,0.00017
3714.49033,0.00049
3712.43015,0.00104
3710.36998,0.00170
3708.30981,0.00161
3706.24964,0.00099
3704.18947,0.00097
3702.12929,0.00174
3700.06912,0.00261
3698.00895,0.00301
3695.94878,0.00280
3693.88861,0.00226
3691.82843,0.00135
3689.76826,0.00016
3687.70809,0.00000
3685.64792,0.00093
3683.58775,0.00163
3681.52757,0.00191
3679.46740,0.00233
3677.40723,0.00273
3675.34706,0.00231
3673.28688,0.00107
3671.22671,0.00027
3669.16654,0.00062
3667.10637,0.00137
3665.04620,0.00173
3662.98602,0.00186
3660.92585,0.00193
3658.86568,0.00180
3656.80551,0.00151
3654.74534,0.00137
3652.68516,0.00152
3650.62499,0.00176
3648.56482,0.00200
3646.50465,0.00234
3644.44447,0.00275
3642.38430,0.00315
3640.32413,0.00347
3638.26396,0.00362
3636.20379,0.00352
3634.14361,0.00329
3632.08344,0.00326
3630.02327,0.00361
3627.96310,0.00403
3625.90293,0.00419
3623.84275,0.00399
3621.78258,0.00327
3619.72241,0.00242
3617.66224,0.00251
3615.60207,0.00370
3613.54189,0.00468
3611.48172,0.00469
3609.42155,0.00481
3607.36138,0.00584
3605.30120,0.00673
3603.24103,0.00702
3601.18086,0.00729
3599.12069,0.00745
3597.06052,0.00751
3595.00034,0.00787
3592.94017,0.00804
3590.88000,0.00769
3588.81983,0.00723
3586.75966,0.00705
3584.69948,0.00741
3582.63931,0.00799
3580.57914,0.00860
3578.51897,0.00940
3576.45879,0.01007
3574.39862,0.01033
3572.33845,0.01060
3570.27828,0.01088
3568.21811,0.01114
3566.15793,0.01190
3564.09776,0.01306
3562.03759,0.01389
3559.97742,0.01420
3557.91725,0.01430
3555.85707,0.01440
3553.79690,0.01444
3551.73673,0.01436
3549.67656,0.01440
3547.61639,0.01483
3545.55621,0.01557
3543.49604,0.01647
3541.43587,0.01720
3539.37570,0.01749
3537.31552,0.01760
3535.25535,0.01791
3533.19518,0.01835
3531.13501,0.01868
3529.07484,0.01895
3527.01466,0.01934
3524.95449,0.01985
3522.89432,0.02041
3520.83415,0.02108
3518.77398,0.02183
3516.71380,0.02253
3514.65363,0.02311
3512.59346,0.02341
3510.53329,0.02326
3508.47312,0.02300
3506.41294,0.02327
3504.35277,0.02409
3502.29260,0.02486
3500.23243,0.02535
3498.17225,0.02585
3496.11208,0.02635
3494.05191,0.02665
3491.99174,0.02706
3489.93157,0.02776
3487.87139,0.02837
3485.81122,0.02871
3483.75105,0.02913
3481.69088,0.02957
3479.63071,0.02971
3477.57053,0.02988
3475.51036,0.03049
3473.45019,0.03095
3471.39002,0.03121
3469.32984,0.03185
3467.26967,0.03234
3465.20950,0.03238
3463.14933,0.03256
3461.08916,0.03282
3459.02898,0.03301
3456.96881,0.03343
3454.90864,0.03400
3452.84847,0.03451
3450.78830,0.03508
3448.72812,0.03595
3446.66795,0.03682
3444.60778,0.03729
3442.54761,0.03753
3440.48744,0.03754
3438.42726,0.03709
3436.36709,0.03662
3434.30692,0.03673
3432.24675,0.03762
3430.18657,0.03887
3428.12640,0.03949
3426.06623,0.03939
3424.00606,0.03929
3421.94589,0.03963
3419.88571,0.04031
3417.82554,0.04080
3415.76537,0.04106
3413.70520,0.04159
3411.64503,0.04240
3409.58485,0.04277
3407.52468,0.04283
3405.46451,0.04319
3403.40434,0.04331
3401.34416,0.04342
3399.28399,0.04414
3397.22382,0.04479
3395.16365,0.04478
3393.10348,0.04453
3391.04330,0.04444
3388.98313,0.04447
3386.92296,0.04452
3384.86279,0.04464
3382.80262,0.04500
3380.74244,0.04548
3378.68227,0.04608
3376.62210,0.04690
3374.56193,0.04739
3372.50176,0.04740
3370.44158,0.04764
3368.38141,0.04809
3366.32124,0.04828
3364.26107,0.04825
3362.20089,0.04831
3360.14072,0.04856
3358.08055,0.04880
3356.02038,0.04917
3353.96021,0.04976
3351.90003,0.05013
3349.83986,0.04992
3347.77969,0.04931
3345.71952,0.04871
3343.65935,0.04876
3341.59917,0.04959
3339.53900,0.05027
3337.47883,0.05014
3335.41866,0.04983
3333.35849,0.05024
3331.29831,0.05111
3329.23814,0.05157
3327.17797,0.05142
3325.11780,0.05096
3323.05762,0.05059
3320.99745,0.05051
3318.93728,0.05047
3316.87711,0.05032
3314.81694,0.05039
3312.75676,0.05084
3310.69659,0.05145
3308.63642,0.05191
3306.57625,0.05210
3304.51608,0.05196
3302.45590,0.05142
3300.39573,0.05090
3298.33556,0.05090
3296.27539,0.05139
3294.21521,0.05178
3292.15504,0.05194
3290.09487,0.05207
3288.03470,0.05200
3285.97453,0.05198
3283.91435,0.05234
3281.85418,0.05266
3279.79401,0.05255
3277.73384,0.05225
3275.67367,0.05205
3273.61349,0.05203
3271.55332,0.05210
3269.49315,0.05203
3267.43298,0.05174
3265.37281,0.05141
3263.31263,0.05102
3261.25246,0.05091
3259.19229,0.05134
3257.13212,0.05177
3255.07194,0.05178
3253.01177,0.05141
3250.95160,0.05087
3248.89143,0.05055
3246.83126,0.05050
3244.77108,0.05051
3242.71091,0.05069
3240.65074,0.05098
3238.59057,0.05113
3236.53040,0.05110
3234.47022,0.05076
3232.41005,0.05023
3230.34988,0.04993
3228.28971,0.04990
3226.22954,0.04968
3224.16936,0.04912
3222.10919,0.04854
3220.04902,0.04823
3217.98885,0.04827
3215.92867,0.04843
3213.86850,0.04836
3211.80833,0.04799
3209.74816,0.04771
3207.68799,0.04792
3205.62781,0.04820
3203.56764,0.04782
3201.50747,0.04699
3199.44730,0.04661
3197.38713,0.04690
3195.32695,0.04722
3193.26678,0.04714
3191.20661,0.04683
3189.14644,0.04670
3187.08626,0.04690
3185.02609,0.04698
3182.96592,0.04657
3180.90575,0.04589
3178.84558,0.04526
3176.78540,0.04487
3174.72523,0.04470
3172.66506,0.04456
3170.60489,0.04433
3168.54472,0.04388
3166.48454,0.04344
3164.42437,0.04316
3162.36420,0.04278
3160.30403,0.04234
3158.24386,0.04222
3156.18368,0.04235
3154.12351,0.04237
3152.06334,0.04224
3150.00317,0.04208
3147.94299,0.04194
3145.88282,0.04154
3143.82265,0.04087
3141.76248,0.04034
3139.70231,0.04004
3137.64213,0.03984
3135.58196,0.03946
3133.52179,0.03880
3131.46162,0.03836
3129.40145,0.03824
3127.34127,0.03815
3125.28110,0.03797
3123.22093,0.03777
3121.16076,0.03767
3119.10058,0.03769
3117.04041,0.03764
3114.98024,0.03730
3112.92007,0.03673
3110.85990,0.03617
3108.79972,0.03589
3106.73955,0.03588
3104.67938,0.03572
3102.61921,0.03538
3100.55904,0.03515
3098.49886,0.03491
3096.43869,0.03451
3094.37852,0.03423
3092.31835,0.03389
3090.25818,0.03339
3088.19800,0.03327
3086.13783,0.03350
3084.07766,0.03359
3082.01749,0.03340
3079.95731,0.03285
3077.89714,0.03227
3075.83697,0.03212
3073.77680,0.03208
3071.71663,0.03178
3069.65645,0.03149
3067.59628,0.03128
3065.53611,0.03080
3063.47594,0.03007
3061.41577,0.02948
3059.35559,0.02916
3057.29542,0.02899
3055.23525,0.02890
3053.17508,0.02885
3051.11491,0.02875
3049.05473,0.02846
3046.99456,0.02808
3044.93439,0.02777
3042.87422,0.02749
3040.81404,0.02747
3038.75387,0.02766
3036.69370,0.02755
3034.63353,0.02693
3032.57336,0.02638
3030.51318,0.02631
3028.45301,0.02626
3026.39284,0.02613
3024.33267,0.02598
3022.27250,0.02553
3020.21232,0.02500
3018.15215,0.02489
3016.09198,0.02520
3014.03181,0.02553
3011.97163,0.02547
3009.91146,0.02511
3007.85129,0.02472
3005.79112,0.02432
3003.73095,0.02391
3001.67077,0.02348
2999.61060,0.02318
2997.55043,0.02321
2995.49026,0.02331
2993.43009,0.02326
2991.36991,0.02329
2989.30974,0.02347
2987.24957,0.02359
2985.18940,0.02367
2983.12923,0.02373
2981.06905,0.02372
2979.00888,0.02372
2976.94871,0.02397
2974.88854,0.02466
2972.82836,0.02559
2970.76819,0.02643
2968.70802,0.02740
2966.64785,0.02860
2964.58768,0.02969
2962.52750,0.03060
2960.46733,0.03183
2958.40716,0.03351
2956.34699,0.03537
2954.28682,0.03730
2952.22664,0.03912
2950.16647,0.04073
2948.10630,0.04249
2946.04613,0.04468
2943.98596,0.04712
2941.92578,0.04934
2939.86561,0.05147
2937.80544,0.05385
2935.74527,0.05643
2933.68509,0.05889
2931.62492,0.06103
2929.56475,0.06288
2927.50458,0.06450
2925.44441,0.06614
2923.38423,0.06774
2921.32406,0.06897
2919.26389,0.06954
2917.20372,0.06889
2915.14355,0.06688
2913.08337,0.06423
2911.02320,0.06170
2908.96303,0.05935
2906.90286,0.05713
2904.84268,0.05522
2902.78251,0.05368
2900.72234,0.05246
2898.66217,0.05112
2896.60200,0.04958
2894.54182,0.04818
2892.48165,0.04689
2890.42148,0.04572
2888.36131,0.04494
2886.30114,0.04448
2884.24096,0.04398
2882.18079,0.04316
2880.12062,0.04222
2878.06045,0.04191
2876.00028,0.04242
2873.94010,0.04296
2871.87993,0.04318
2869.81976,0.04333
2867.75959,0.04351
2865.69941,0.04406
2863.63924,0.04533
2861.57907,0.04705
2859.51890,0.04892
2857.45873,0.05087
2855.39855,0.05281
2853.33838,0.05455
2851.27821,0.05518
2849.21804,0.05393
2847.15787,0.05132
2845.09769,0.04813
2843.03752,0.04490
2840.97735,0.04193
2838.91718,0.03939
2836.85700,0.03770
2834.79683,0.03661
2832.73666,0.03547
2830.67649,0.03435
2828.61632,0.03334
2826.55614,0.03231
2824.49597,0.03143
2822.43580,0.03089
2820.37563,0.03066
2818.31546,0.03031
2816.25528,0.02968
2814.19511,0.02923
2812.13494,0.02903
2810.07477,0.02863
2808.01460,0.02802
2805.95442,0.02759
2803.89425,0.02743
2801.83408,0.02737
2799.77391,0.02722
2797.71373,0.02682
2795.65356,0.02651
2793.59339,0.02649
2791.53322,0.02635
2789.47305,0.02593
2787.41287,0.02534
2785.35270,0.02485
2783.29253,0.02457
2781.23236,0.02424
2779.17219,0.02397
2777.11201,0.02392
2775.05184,0.02406
2772.99167,0.02421
2770.93150,0.02399
2768.87133,0.02352
2766.81115,0.02330
2764.75098,0.02345
2762.69081,0.02365
2760.63064,0.02352
2758.57046,0.02309
2756.51029,0.02266
2754.45012,0.02261
2752.38995,0.02294
2750.32978,0.02302
2748.26960,0.02271
2746.20943,0.02247
2744.14926,0.02247
2742.08909,0.02247
2740.02892,0.02250
2737.96874,0.02273
2735.90857,0.02286
2733.84840,0.02269
2731.78823,0.02247
2729.72805,0.02224
2727.66788,0.02218
2725.60771,0.02230
2723.54754,0.02227
2721.48737,0.02202
2719.42719,0.02178
2717.36702,0.02163
2715.30685,0.02140
2713.24668,0.02113
2711.18651,0.02113
2709.12633,0.02119
2707.06616,0.02100
2705.00599,0.02085
2702.94582,0.02080
2700.88565,0.02096
2698.82547,0.02122
2696.76530,0.02124
2694.70513,0.02126
2692.64496,0.02134
2690.58478,0.02124
2688.52461,0.02102
2686.46444,0.02068
2684.40427,0.02039
2682.34410,0.02057
2680.28392,0.02099
2678.22375,0.02091
2676.16358,0.02054
2674.10341,0.02053
2672.04324,0.02059
2669.98306,0.02038
2667.92289,0.02012
2665.86272,0.01994
2663.80255,0.01999
2661.74238,0.02019
2659.68220,0.02005
2657.62203,0.01952
2655.56186,0.01902
2653.50169,0.01885
2651.44151,0.01896
2649.38134,0.01905
2647.32117,0.01903
2645.26100,0.01911
2643.20083,0.01924
2641.14065,0.01923
2639.08048,0.01909
2637.02031,0.01900
2634.96014,0.01883
2632.89997,0.01871
2630.83979,0.01883
2628.77962,0.01866
2626.71945,0.01823
2624.65928,0.01817
2622.59910,0.01825
2620.53893,0.01795
2618.47876,0.01773
2616.41859,0.01793
2614.35842,0.01809
2612.29824,0.01808
2610.23807,0.01787
2608.17790,0.01722
2606.11773,0.01672
2604.05756,0.01687
2601.99738,0.01699
2599.93721,0.01662
2597.87704,0.01631
2595.81687,0.01660
2593.75670,0.01692
2591.69652,0.01664
2589.63635,0.01639
2587.57618,0.01639
2585.51601,0.01584
2583.45583,0.01511
2581.39566,0.01530
2579.33549,0.01608
2577.27532,0.01645
2575.21515,0.01616
2573.15497,0.01585
2571.09480,0.01585
2569.03463,0.01571
2566.97446,0.01551
2564.91429,0.01552
2562.85411,0.01541
2560.79394,0.01497
2558.73377,0.01470
2556.67360,0.01519
2554.61342,0.01591
2552.55325,0.01596
2550.49308,0.01582
2548.43291,0.01614
2546.37274,0.01621
2544.31256,0.01552
2542.25239,0.01473
2540.19222,0.01453
2538.13205,0.01490
2536.07188,0.01489
2534.01170,0.01428
2531.95153,0.01395
2529.89136,0.01414
2527.83119,0.01426
2525.77102,0.01401
2523.71084,0.01417
2521.65067,0.01447
2519.59050,0.01387
2517.53033,0.01318
2515.47015,0.01347
2513.40998,0.01417
2511.34981,0.01416
2509.28964,0.01356
2507.22947,0.01323
2505.16929,0.01336
2503.10912,0.01352
2501.04895,0.01332
2498.98878,0.01295
2496.92861,0.01274
2494.86843,0.01248
2492.80826,0.01239
2490.74809,0.01268
2488.68792,0.01273
2486.62775,0.01246
2484.56757,0.01265
2482.50740,0.01309
2480.44723,0.01281
2478.38706,0.01234
2476.32688,0.01258
2474.26671,0.01279
2472.20654,0.01255
2470.14637,0.01259
2468.08620,0.01271
2466.02602,0.01277
2463.96585,0.01308
2461.90568,0.01316
2459.84551,0.01275
2457.78534,0.01199
2455.72516,0.01163
2453.66499,0.01216
2451.60482,0.01265
2449.54465,0.01262
2447.48447,0.01221
2445.42430,0.01133
2443.36413,0.01073
2441.30396,0.01136
2439.24379,0.01242
2437.18361,0.01263
2435.12344,0.01209
2433.06327,0.01129
2431.00310,0.01082
2428.94293,0.01118
2426.88275,0.01155
2424.82258,0.01154
2422.76241,0.01180
2420.70224,0.01203
2418.64207,0.01178
2416.58189,0.01140
2414.52172,0.01119
2412.46155,0.01113
2410.40138,0.01097
2408.34120,0.01073
2406.28103,0.01039
2404.22086,0.01005
2402.16069,0.01014
2400.10052,0.01064
2398.04034,0.01109
2395.98017,0.01134
2393.92000,0.01154
2391.85983,0.01143
2389.79966,0.01070
2387.73948,0.00998
2385.67931,0.01004
2383.61914,0.01059
2381.55897,0.01114
2379.49880,0.01164
2377.43862,0.01185
2375.37845,0.01156
2373.31828,0.01163
2371.25811,0.01312
2369.19793,0.01449
2367.13776,0.01169
2365.07759,0.00492
2363.01742,0.00194
2360.95725,0.00719
2358.89707,0.01435
2356.83690,0.01623
2354.77673,0.01397
2352.71656,0.01227
2350.65639,0.01179
2348.59621,0.01081
2346.53604,0.00897
2344.47587,0.00764
2342.41570,0.00795
2340.35552,0.00880
2338.29535,0.00919
2336.23518,0.00920
2334.17501,0.00917
2332.11484,0.00932
2330.05466,0.00937
2327.99449,0.00916
2325.93432,0.00893
2323.87415,0.00903
2321.81398,0.00953
2319.75380,0.00984
2317.69363,0.00985
2315.63346,0.01048
2313.57329,0.01159
2311.51312,0.01181
2309.45294,0.01109
2307.39277,0.01062
2305.33260,0.01087
2303.27243,0.01101
2301.21225,0.01043
2299.15208,0.00986
2297.09191,0.00976
2295.03174,0.00981
2292.97157,0.01001
2290.91139,0.01023
2288.85122,0.00997
2286.79105,0.00927
2284.73088,0.00878
2282.67071,0.00891
2280.61053,0.00947
2278.55036,0.01018
2276.49019,0.01029
2274.43002,0.00943
2272.36984,0.00864
2270.30967,0.00855
2268.24950,0.00879
2266.18933,0.00927
2264.12916,0.00997
2262.06898,0.01032
2260.00881,0.01005
2257.94864,0.00926
2255.88847,0.00810
2253.82830,0.00745
2251.76812,0.00776
2249.70795,0.00795
2247.64778,0.00781
2245.58761,0.00845
2243.52744,0.00851
2241.46726,0.00704
2239.40709,0.00635
2237.34692,0.00703
2235.28675,0.00721
2233.22657,0.00706
2231.16640,0.00737
2229.10623,0.00768
2227.04606,0.00795
2224.98589,0.00794
2222.92571,0.00674
2220.86554,0.00498
2218.80537,0.00442
2216.74520,0.00482
2214.68503,0.00513
2212.62485,0.00611
2210.56468,0.00737
2208.50451,0.00776
2206.44434,0.00732
2204.38417,0.00692
2202.32399,0.00798
2200.26382,0.00921
2198.20365,0.00854
2196.14348,0.00758
2194.08330,0.00822
2192.02313,0.00838
2189.96296,0.00634
2187.90279,0.00427
2185.84262,0.00359
2183.78244,0.00357
2181.72227,0.00283
2179.66210,0.00200
2177.60193,0.00418
2175.54176,0.00740
2173.48158,0.00757
2171.42141,0.00565
2169.36124,0.00397
2167.30107,0.00361
2165.24089,0.00432
2163.18072,0.00480
2161.12055,0.00401
2159.06038,0.00244
2157.00021,0.00127
2154.94003,0.00192
2152.87986,0.00372
2150.81969,0.00389
2148.75952,0.00299
2146.69935,0.00275
2144.63917,0.00263
2142.57900,0.00286
2140.51883,0.00370
2138.45866,0.00397
2136.39849,0.00399
2134.33831,0.00423
2132.27814,0.00458
2130.21797,0.00565
2128.15780,0.00643
2126.09762,0.00641
2124.03745,0.00646
2121.97728,0.00688
2119.91711,0.00780
2117.85694,0.00783
2115.79676,0.00642
2113.73659,0.00572
2111.67642,0.00579
2109.61625,0.00522
2107.55608,0.00508
2105.49590,0.00599
2103.43573,0.00641
2101.37556,0.00569
2099.31539,0.00449
2097.25521,0.00389
2095.19504,0.00473
2093.13487,0.00628
2091.07470,0.00746
2089.01453,0.00778
2086.95435,0.00681
2084.89418,0.00507
2082.83401,0.00429
2080.77384,0.00502
2078.71367,0.00532
2076.65349,0.00477
2074.59332,0.00458
2072.53315,0.00402
2070.47298,0.00263
2068.41281,0.00200
2066.35263,0.00288
2064.29246,0.00437
2062.23229,0.00532
2060.17212,0.00464
2058.11194,0.00280
2056.05177,0.00225
2053.99160,0.00359
2051.93143,0.00431
2049.87126,0.00367
2047.81108,0.00378
2045.75091,0.00434
2043.69074,0.00472
2041.63057,0.00590
2039.57040,0.00604
2037.51022,0.00401
2035.45005,0.00243
2033.38988,0.00288
2031.32971,0.00407
2029.26954,0.00439
2027.20936,0.00307
2025.14919,0.00119
2023.08902,0.00105
2021.02885,0.00170
2018.96867,0.00141
2016.90850,0.00174
2014.84833,0.00254
2012.78816,0.00270
2010.72799,0.00384
2008.66781,0.00564
2006.60764,0.00642
2004.54747,0.00653
2002.48730,0.00601
2000.42713,0.00482
1998.36695,0.00352
1996.30678,0.00234
1994.24661,0.00190
1992.18644,0.00283
1990.12626,0.00402
1988.06609,0.00409
1986.00592,0.00336
1983.94575,0.00297
1981.88558,0.00381
1979.82540,0.00516
1977.76523,0.00495
1975.70506,0.00302
1973.64489,0.00218
1971.58472,0.00340
1969.52454,0.00371
1967.46437,0.00199
1965.40420,0.00068
1963.34403,0.00132
1961.28386,0.00286
1959.22368,0.00331
1957.16351,0.00234
1955.10334,0.00152
1953.04317,0.00202
1950.98299,0.00226
1948.92282,0.00074
1946.86265,0.00000
1944.80248,0.00140
1942.74231,0.00229
1940.68213,0.00229
1938.62196,0.00321
1936.56179,0.00421
1934.50162,0.00390
1932.44145,0.00321
1930.38127,0.00325
1928.32110,0.00366
1926.26093,0.00348
1924.20076,0.00251
1922.14059,0.00222
1920.08041,0.00303
1918.02024,0.00370
1915.96007,0.00400
1913.89990,0.00396
1911.83972,0.00354
1909.77955,0.00382
1907.71938,0.00483
1905.65921,0.00486
1903.59904,0.00392
1901.53886,0.00339
1899.47869,0.00340
1897.41852,0.00331
1895.35835,0.00287
1893.29818,0.00205
1891.23800,0.00142
1889.17783,0.00198
1887.11766,0.00317
1885.05749,0.00337
1882.99731,0.00276
1880.93714,0.00268
1878.87697,0.00307
1876.81680,0.00292
1874.75663,0.00218
1872.69645,0.00171
1870.63628,0.00187
1868.57611,0.00219
1866.51594,0.00222
1864.45577,0.00220
1862.39559,0.00230
1860.33542,0.00243
1858.27525,0.00245
1856.21508,0.00228
1854.15491,0.00200
1852.09473,0.00174
1850.03456,0.00158
1847.97439,0.00155
1845.91422,0.00166
1843.85404,0.00200
1841.79387,0.00237
1839.73370,0.00239
1837.67353,0.00217
1835.61336,0.00193
1833.55318,0.00156
1831.49301,0.00107
1829.43284,0.00092
1827.37267,0.00127
1825.31250,0.00161
1823.25232,0.00165
1821.19215,0.00151
1819.13198,0.00147
1817.07181,0.00178
1815.01163,0.00219
1812.95146,0.00219
1810.89129,0.00178
1808.83112,0.00137
1806.77095,0.00132
1804.71077,0.00146
1802.65060,0.00125
1800.59043,0.00079
1798.53026,0.00057
1796.47009,0.00062
1794.40991,0.00077
1792.34974,0.00101
1790.28957,0.00120
1788.22940,0.00121
1786.16923,0.00109
1784.10905,0.00079
1782.04888,0.00031
1779.98871,0.00000
1777.92854,0.00002
1775.86836,0.00005
1773.80819,-0.00020
1771.74802,-0.00033
1769.68785,0.00008
1767.62768,0.00078
1765.56750,0.00138
1763.50733,0.00174
1761.44716,0.00215
1759.38699,0.00292
1757.32682,0.00408
1755.26664,0.00551
1753.20647,0.00680
1751.14630,0.00800
1749.08613,0.00966
1747.02596,0.01139
1744.96578,0.01258
1742.90561,0.01361
1740.84544,0.01473
1738.78527,0.01545
1736.72509,0.01550
1734.66492,0.01545
1732.60475,0.01599
1730.54458,0.01674
1728.48441,0.01696
1726.42423,0.01663
1724.36406,0.01628
1722.30389,0.01635
1720.24372,0.01670
1718.18355,0.01691
1716.12337,0.01710
1714.06320,0.01748
1712.00303,0.01764
1709.94286,0.01724
1707.88268,0.01644
1705.82251,0.01574
1703.76234,0.01532
1701.70217,0.01490
1699.64200,0.01481
1697.58182,0.01566
1695.52165,0.01682
1693.46148,0.01768
1691.40131,0.01850
1689.34114,0.01962
1687.28096,0.02092
1685.22079,0.02291
1683.16062,0.02573
1681.10045,0.02788
1679.04028,0.02942
1676.98010,0.03100
1674.91993,0.03240
1672.85976,0.03306
1670.79959,0.03299
1668.73941,0.03262
1666.67924,0.03210
1664.61907,0.03131
1662.55890,0.03044
1660.49873,0.02982
1658.43855,0.02948
1656.37838,0.02921
1654.31821,0.02878
1652.25804,0.02834
1650.19787,0.02821
1648.13769,0.02829
1646.07752,0.02852
1644.01735,0.02889
1641.95718,0.02920
1639.89701,0.02926
1637.83683,0.02913
1635.77666,0.02969
1633.71649,0.03121
1631.65632,0.03247
1629.59614,0.03306
1627.53597,0.03320
1625.47580,0.03308
1623.41563,0.03318
1621.35546,0.03371
1619.29528,0.03412
1617.23511,0.03429
1615.17494,0.03497
1613.11477,0.03633
1611.05460,0.03793
1608.99442,0.03953
1606.93425,0.04088
1604.87408,0.04146
1602.81391,0.04086
1600.75373,0.03938
1598.69356,0.03773
1596.63339,0.03625
1594.57322,0.03497
1592.51305,0.03400
1590.45287,0.03335
1588.39270,0.03269
1586.33253,0.03163
1584.27236,0.03028
1582.21219,0.02912
1580.15201,0.02838
1578.09184,0.02778
1576.03167,0.02691
1573.97150,0.02590
1571.91133,0.02506
1569.85115,0.02453
1567.79098,0.02409
1565.73081,0.02320
1563.67064,0.02182
1561.61046,0.02026
1559.55029,0.01869
1557.49012,0.01769
1555.42995,0.01722
1553.36978,0.01666
1551.30960,0.01601
1549.24943,0.01534
1547.18926,0.01465
1545.12909,0.01373
1543.06892,0.01227
1541.00874,0.01068
1538.94857,0.00991
1536.88840,0.00979
1534.82823,0.00936
1532.76805,0.00855
1530.70788,0.00790
1528.64771,0.00745
1526.58754,0.00720
1524.52737,0.00729
1522.46719,0.00779
1520.40702,0.00906
1518.34685,0.01086
1516.28668,0.01248
1514.22651,0.01324
1512.16633,0.01278
1510.10616,0.01120
1508.04599,0.00882
1505.98582,0.00676
1503.92565,0.00607
1501.86547,0.00590
1499.80530,0.00547
1497.74513,0.00465
1495.68496,0.00367
1493.62478,0.00286
1491.56461,0.00209
1489.50444,0.00125
1487.44427,0.00076
1485.38410,0.00081
1483.32392,0.00106
1481.26375,0.00140
1479.20358,0.00183
1477.14341,0.00231
1475.08324,0.00315
1473.02306,0.00512
1470.96289,0.00813
1468.90272,0.01082
1466.84255,0.01283
1464.78238,0.01440
1462.72220,0.01543
1460.66203,0.01590
1458.60186,0.01649
1456.54169,0.01804
1454.48151,0.01995
1452.42134,0.02117
1450.36117,0.02176
1448.30100,0.02221
1446.24083,0.02295
1444.18065,0.02400
1442.12048,0.02513
1440.06031,0.02613
1438.00014,0.02700
1435.93997,0.02781
1433.87979,0.02829
1431.81962,0.02844
1429.75945,0.02855
1427.69928,0.02876
1425.63910,0.02888
1423.57893,0.02885
1421.51876,0.02895
1419.45859,0.02927
1417.39842,0.02954
1415.33824,0.02947
1413.27807,0.02907
1411.21790,0.02844
1409.15773,0.02766
1407.09756,0.02676
1405.03738,0.02595
1402.97721,0.02545
1400.91704,0.02487
1398.85687,0.02381
1396.79670,0.02270
1394.73652,0.02200
1392.67635,0.02158
1390.61618,0.02136
1388.55601,0.02151
1386.49583,0.02214
1384.43566,0.02287
1382.37549,0.02345
1380.31532,0.02401
1378.25515,0.02457
1376.19497,0.02507
1374.13480,0.02561
1372.07463,0.02611
1370.01446,0.02642
1367.95429,0.02659
1365.89411,0.02655
1363.83394,0.02603
1361.77377,0.02527
1359.71360,0.02481
1357.65343,0.02460
1355.59325,0.02436
1353.53308,0.02409
1351.47291,0.02395
1349.41274,0.02388
1347.35256,0.02375
1345.29239,0.02364
1343.23222,0.02359
1341.17205,0.02345
1339.11188,0.02326
1337.05170,0.02312
1334.99153,0.02305
1332.93136,0.02317
1330.87119,0.02354
1328.81102,0.02399
1326.75084,0.02424
1324.69067,0.02423
1322.63050,0.02420
1320.57033,0.02428
1318.51015,0.02442
1316.44998,0.02438
1314.38981,0.02404
1312.32964,0.02351
1310.26947,0.02291
1308.20929,0.02216
1306.14912,0.02129
1304.08895,0.02050
1302.02878,0.01991
1299.96861,0.01935
1297.90843,0.01863
1295.84826,0.01808
1293.78809,0.01817
1291.72792,0.01880
1289.66775,0.01960
1287.60757,0.02024
1285.54740,0.02047
1283.48723,0.02037
1281.42706,0.02018
1279.36688,0.02001
1277.30671,0.02009
1275.24654,0.02044
1273.18637,0.02063
1271.12620,0.02075
1269.06602,0.02146
1267.00585,0.02271
1264.94568,0.02369
1262.88551,0.02426
1260.82534,0.02495
1258.76516,0.02579
1256.70499,0.02647
1254.64482,0.02706
1252.58465,0.02773
1250.52447,0.02826
1248.46430,0.02861
1246.40413,0.02902
1244.34396,0.02941
1242.28379,0.02958
1240.22361,0.02949
1238.16344,0.02929
1236.10327,0.02897
1234.04310,0.02841
1231.98293,0.02767
1229.92275,0.02684
1227.86258,0.02592
1225.80241,0.02467
1223.74224,0.02317
1221.68207,0.02178
1219.62189,0.02041
1217.56172,0.01907
1215.50155,0.01778
1213.44138,0.01635
1211.38120,0.01496
1209.32103,0.01375
1207.26086,0.01252
1205.20069,0.01117
1203.14052,0.00969
1201.08034,0.00815
1199.02017,0.00652
1196.96000,0.00484
1194.89983,0.00337
1192.83966,0.00210
1190.77948,0.00118
1188.71931,0.00068
1186.65914,0.00027
1184.59897,0.00000
1182.53880,0.00014
1180.47862,0.00067
1178.41845,0.00154
1176.35828,0.00285
1174.29811,0.00468
1172.23793,0.00701
1170.17776,0.00940
1168.11759,0.01143
1166.05742,0.01273
1163.99725,0.01340
1161.93707,0.01407
1159.87690,0.01466
1157.81673,0.01498
1155.75656,0.01558
1153.69639,0.01658
1151.63621,0.01753
1149.57604,0.01838
1147.51587,0.01927
1145.45570,0.02035
1143.39552,0.02156
1141.33535,0.02268
1139.27518,0.02354
1137.21501,0.02408
1135.15484,0.02460
1133.09466,0.02522
1131.03449,0.02603
1128.97432,0.02720
1126.91415,0.02870
1124.85398,0.03034
1122.79380,0.03182
1120.73363,0.03304
1118.67346,0.03412
1116.61329,0.03518
1114.55312,0.03627
1112.49294,0.03759
1110.43277,0.03892
1108.37260,0.04015
1106.31243,0.04156
1104.25225,0.04311
1102.19208,0.04449
1100.13191,0.04572
1098.07174,0.04742
1096.01157,0.04997
1093.95139,0.05255
1091.89122,0.05429
1089.83105,0.05587
1087.77088,0.05772
1085.71071,0.05964
1083.65053,0.06180
1081.59036,0.06400
1079.53019,0.06637
1077.47002,0.06939
1075.40985,0.07252
1073.34967,0.07520
1071.28950,0.07751
1069.22933,0.07917
1067.16916,0.08038
1065.10898,0.08194
1063.04881,0.08373
1060.98864,0.08508
1058.92847,0.08635
1056.86830,0.08821
1054.80812,0.09039
1052.74795,0.09272
1050.68778,0.09541
1048.62761,0.09817
1046.56744,0.10100
1044.50726,0.10392
1042.44709,0.10666
1040.38692,0.10929
1038.32675,0.11150
1036.26657,0.11299
1034.20640,0.11422
1032.14623,0.11498
1030.08606,0.11490
1028.02589,0.11468
1025.96571,0.11492
1023.90554,0.11500
1021.84537,0.11421
1019.78520,0.11311
1017.72503,0.11265
1015.66485,0.11288
1013.60468,0.11323
1011.54451,0.11355
1009.48434,0.11396
1007.42417,0.11368
1005.36399,0.11274
1003.30382,0.11232
1001.24365,0.11211
999.18348,0.11100
997.12330,0.10913
995.06313,0.10718
993.00296,0.10534
990.94279,0.10365
988.88262,0.10203
986.82244,0.10029
984.76227,0.09846
982.70210,0.09672
980.64193,0.09533
978.58176,0.09407
976.52158,0.09248
974.46141,0.09065
972.40124,0.08873
970.34107,0.08681
968.28089,0.08479
966.22072,0.08278
964.16055,0.08083
962.10038,0.07851
960.04021,0.07623
957.98003,0.07480
955.91986,0.07378
953.85969,0.07243
951.79952,0.07090
949.73935,0.06939
947.67917,0.06776
945.61900,0.06588
943.55883,0.06342
941.49866,0.06044
939.43849,0.05741
937.37831,0.05426
935.31814,0.05045
933.25797,0.04625
931.19780,0.04276
929.13762,0.04008
927.07745,0.03757
925.01728,0.03530
922.95711,0.03338
920.89694,0.03153
918.83676,0.02967
916.77659,0.02800
914.71642,0.02635
912.65625,0.02442
910.59608,0.02237
908.53590,0.02064
906.47573,0.01952
904.41556,0.01886
902.35539,0.01847
900.29522,0.01816
898.23504,0.01802
896.17487,0.01801
894.11470,0.01787
892.05453,0.01798
889.99435,0.01835
887.93418,0.01834
885.87401,0.01768
883.81384,0.01648
881.75367,0.01468
879.69349,0.01264
877.63332,0.01102
875.57315,0.01018
873.51298,0.00989
871.45281,0.00978
869.39263,0.00965
867.33246,0.00925
865.27229,0.00903
863.21212,0.00930
861.15194,0.00905
859.09177,0.00803
857.03160,0.00742
854.97143,0.00732
852.91126,0.00733
850.85108,0.00778
848.79091,0.00803
846.73074,0.00770
844.67057,0.00711
842.61040,0.00630
840.55022,0.00570
838.49005,0.00513
836.42988,0.00462
834.36971,0.00471
832.30954,0.00489
830.24936,0.00487
828.18919,0.00468
826.12902,0.00431
824.06885,0.00408
822.00867,0.00391
819.94850,0.00384
817.88833,0.00378
815.82816,0.00403
813.76799,0.00501
811.70781,0.00524
809.64764,0.00398
807.58747,0.00296
805.52730,0.00271
803.46713,0.00200
801.40695,0.00132
799.34678,0.00189
797.28661,0.00245
795.22644,0.00193
793.16627,0.00146
791.10609,0.00161
789.04592,0.00154
786.98575,0.00083
784.92558,0.00045
782.86540,0.00111
780.80523,0.00193
778.74506,0.00248
776.68489,0.00299
774.62472,0.00303
772.56454,0.00238
770.50437,0.00145
768.44420,0.00076
766.38403,0.00112
764.32386,0.00204
762.26368,0.00187
760.20351,0.00130
758.14334,0.00158
756.08317,0.00177
754.02299,0.00178
751.96282,0.00198
749.90265,0.00219
747.84248,0.00338
745.78231,0.00430
743.72213,0.00301
741.66196,0.00110
739.60179,0.00000
737.54162,-0.00037
735.48145,0.00022
733.42127,0.00088
731.36110,0.00115
729.30093,0.00197
727.24076,0.00327
725.18059,0.00320
723.12041,0.00215
721.06024,0.00180
719.00007,0.00254
716.93990,0.00382
714.87972,0.00526
712.81955,0.00648
710.75938,0.00693
708.69921,0.00688
706.63904,0.00789
704.57886,0.01026
702.51869,0.01209
700.45852,0.01215
698.39835,0.01104
696.33818,0.00981
694.27800,0.00896
692.21783,0.00899
690.15766,0.00978
688.09749,0.00926
686.03731,0.00674
683.97714,0.00436
681.91697,0.00360
679.85680,0.00487
677.79663,0.00733
675.73645,0.00824
673.67628,0.00689
671.61611,0.00548
669.55594,0.00613
667.49577,0.00954
665.43559,0.01294
663.37542,0.01386
661.31525,0.01230
659.25508,0.00986
657.19491,0.00897
655.13473,0.01040
653.07456,0.01241
651.01439,0.01306
648.95422,0.01187
646.89404,0.01013
644.83387,0.01046
642.77370,0.01270
640.71353,0.01390
638.65336,0.01379
636.59318,0.01291
634.53301,0.01025
632.47284,0.00727
630.41267,0.00610
628.35250,0.00602
626.29232,0.00662
624.23215,0.00885
622.17198,0.01000
620.11181,0.01091
618.05164,0.01311
615.99146,0.01434
613.93129,0.01453
611.87112,0.01114
609.81095,0.00383
607.75077,0.00000
605.69060,-0.00179
603.63043,0.00157
601.57026,0.00353
599.51009,0.00000
