3996.73391,0.00074
3994.67373,0.00078
3992.61356,0.00070
3990.55339,0.00067
3988.49322,0.00050
3986.43305,0.00010
3984.37287,-0.00030
3982.31270,-0.00031
3980.25253,0.00005
3978.19236,0.00037
3976.13219,0.00026
3974.07201,-0.00002
3972.01184,0.00003
3969.95167,0.00039
3967.89150,0.00072
3965.83133,0.00081
3963.77115,0.00070
3961.71098,0.00058
3959.65081,0.00054
3957.59064,0.00038
3955.53046,0.00008
3953.47029,0.00000
3951.41012,0.00053
3949.34995,0.00131
3947.28978,0.00147
3945.22960,0.00102
3943.16943,0.00075
3941.10926,0.00083
3939.04909,0.00089
3936.98892,0.00081
3934.92874,0.00055
3932.86857,0.00025
3930.80840,0.00041
3928.74823,0.00096
3926.68805,0.00130
3924.62788,0.00139
3922.56771,0.00156
3920.50754,0.00179
3918.44737,0.00171
3916.38719,0.00117
3914.32702,0.00069
3912.26685,0.00099
3910.20668,0.00202
3908.14651,0.00295
3906.08633,0.00311
3904.02616,0.00261
3901.96599,0.00226
3899.90582,0.00225
3897.84565,0.00208
3895.78547,0.00174
3893.72530,0.00151
3891.66513,0.00146
3889.60496,0.00143
3887.54478,0.00123
3885.48461,0.00103
3883.42444,0.00107
3881.36427,0.00144
3879.30410,0.00189
3877.24392,0.00215
3875.18375,0.00245
3873.12358,0.00259
3871.06341,0.00188
3869.00324,0.00065
3866.94306,0.00000
3864.88289,0.00007
3862.82272,0.00054
3860.76255,0.00120
3858.70237,0.00178
3856.64220,0.00225
3854.58203,0.00222
3852.52186,0.00128
3850.46169,0.00061
3848.40151,0.00074
3846.34134,0.00105
3844.28117,0.00112
3842.22100,0.00096
3840.16083,0.00095
3838.10065,0.00149
3836.04048,0.00226
3833.98031,0.00237
3831.92014,0.00174
3829.85997,0.00111
3827.79979,0.00084
3825.73962,0.00083
3823.67945,0.00107
3821.61928,0.00151
3819.55910,0.00199
3817.49893,0.00231
3815.43876,0.00238
3813.37859,0.00220
3811.31842,0.00205
3809.25824,0.00219
3807.19807,0.00242
3805.13790,0.00238
3803.07773,0.00209
3801.01756,0.00188
3798.95738,0.00199
3796.89721,0.00217
3794.83704,0.00209
3792.77687,0.00180
3790.71670,0.00157
3788.65652,0.00156
3786.59635,0.00182
3784.53618,0.00214
3782.47601,0.00235
3780.41583,0.00253
3778.35566,0.00255
3776.29549,0.00231
3774.23532,0.00212
3772.17515,0.00215
3770.11497,0.00233
3768.05480,0.00244
3765.99463,0.00232
3763.93446,0.00216
3761.87429,0.00216
3759.81411,0.00238
3757.75394,0.00279
3755.69377,0.00317
3753.63360,0.00342
3751.57342,0.00349
3749.51325,0.00295
3747.45308,0.00199
3745.39291,0.00118
3743.33274,0.00085
3741.27256,0.00116
3739.21239,0.00163
3737.15222,0.00183
3735.09205,0.00183
3733.03188,0.00137
3730.97170,0.00056
3728.91153,0.00002
3726.85136,0.00000
3724.79119,0.00026
3722.73102,0.00025
3720.67084,0.00006
3718.61067,0.00028
3716.55050,0.00117
3714.49033,0.00222
3712.43015,0.00262
3710.36998,0.00213
3708.30981,0.00113
3706.24964,0.00050
3704.18947,0.00067
3702.12929,0.00138
3700.06912,0.00190
3698.00895,0.00180
3695.94878,0.00144
3693.88861,0.00109
3691.82843,0.00068
3689.76826,0.00021
3687.70809,0.00000
3685.64792,0.00010
3683.58775,0.00044
3681.52757,0.00106
3679.46740,0.00183
3677.40723,0.00236
3675.34706,0.00212
3673.28688,0.00108
3671.22671,0.00033
3669.16654,0.00053
3667.10637,0.00105
3665.04620,0.00142
3662.98602,0.00185
3660.92585,0.00226
3658.86568,0.00227
3656.80551,0.00182
3654.74534,0.00136
3652.68516,0.00153
3650.62499,0.00264
3648.56482,0.00386
3646.50465,0.00386
3644.44447,0.00319
3642.38430,0.00282
3640.32413,0.00300
3638.26396,0.00334
3636.20379,0.00335
3634.14361,0.00298
3632.08344,0.00276
3630.02327,0.00313
3627.96310,0.00382
3625.90293,0.00411
3623.84275,0.00403
3621.78258,0.00396
3619.72241,0.00401
3617.66224,0.00429
3615.60207,0.00478
3613.54189,0.00489
3611.48172,0.00444
3609.42155,0.00464
3607.36138,0.00574
3605.30120,0.00648
3603.24103,0.00678
3601.18086,0.00731
3599.12069,0.00787
3597.06052,0.00818
3595.00034,0.00847
3592.94017,0.00846
3590.88000,0.00811
3588.81983,0.00790
3586.75966,0.00795
3584.69948,0.00798
3582.63931,0.00807
3580.57914,0.00853
3578.51897,0.00914
3576.45879,0.00934
3574.39862,0.00930
3572.33845,0.00966
3570.27828,0.01026
3568.21811,0.01075
3566.15793,0.01158
3564.09776,0.01288
3562.03759,0.01391
3559.97742,0.01427
3557.91725,0.01428
3555.85707,0.01425
3553.79690,0.01426
3551.73673,0.01439
3549.67656,0.01475
3547.61639,0.01518
3545.55621,0.01565
3543.49604,0.01636
3541.43587,0.01709
3539.37570,0.01747
3537.31552,0.01760
3535.25535,0.01779
3533.19518,0.01816
3531.13501,0.01861
3529.07484,0.01901
3527.01466,0.01942
3524.95449,0.01990
3522.89432,0.02027
3520.83415,0.02068
3518.77398,0.02160
3516.71380,0.02273
3514.65363,0.02324
3512.59346,0.02313
3510.53329,0.02301
3508.47312,0.02321
3506.41294,0.02370
3504.35277,0.02419
3502.29260,0.02470
3500.23243,0.02545
3498.17225,0.02626
3496.11208,0.02680
3494.05191,0.02701
3491.99174,0.02725
3489.93157,0.02767
3487.87139,0.02788
3485.81122,0.02802
3483.75105,0.02857
3481.69088,0.02913
3479.63071,0.02920
3477.57053,0.02944
3475.51036,0.03027
3473.45019,0.03098
3471.39002,0.03134
3469.32984,0.03184
3467.26967,0.03222
3465.20950,0.03230
3463.14933,0.03241
3461.08916,0.03251
3459.02898,0.03275
3456.96881,0.03340
3454.90864,0.03420
3452.84847,0.03475
3450.78830,0.03518
3448.72812,0.03592
3446.66795,0.03674
3444.60778,0.03717
3442.54761,0.03732
3440.48744,0.03722
3438.42726,0.03710
3436.36709,0.03735
3434.30692,0.03777
3432.24675,0.03822
3430.18657,0.03895
3428.12640,0.03962
3426.06623,0.03975
3424.00606,0.03969
3421.94589,0.03995
3419.88571,0.04052
3417.82554,0.04108
3415.76537,0.04154
3413.70520,0.04217
3411.64503,0.04273
3409.58485,0.04298
3407.52468,0.04330
3405.46451,0.04370
3403.40434,0.04374
3401.34416,0.04374
3399.28399,0.04411
3397.22382,0.04456
3395.16365,0.04481
3393.10348,0.04497
3391.04330,0.04513
3388.98313,0.04523
3386.92296,0.04514
3384.86279,0.04510
3382.80262,0.04542
3380.74244,0.04584
3378.68227,0.04635
3376.62210,0.04717
3374.56193,0.04774
3372.50176,0.04777
3370.44158,0.04784
3368.38141,0.04822
3366.32124,0.04854
3364.26107,0.04860
3362.20089,0.04864
3360.14072,0.04886
3358.08055,0.04929
3356.02038,0.04983
3353.96021,0.05014
3351.90003,0.05022
3349.83986,0.05024
3347.77969,0.05010
3345.71952,0.04982
3343.65935,0.04988
3341.59917,0.05029
3339.53900,0.05037
3337.47883,0.05003
3335.41866,0.04996
3333.35849,0.05052
3331.29831,0.05122
3329.23814,0.05149
3327.17797,0.05136
3325.11780,0.05107
3323.05762,0.05094
3320.99745,0.05106
3318.93728,0.05100
3316.87711,0.05076
3314.81694,0.05095
3312.75676,0.05151
3310.69659,0.05189
3308.63642,0.05203
3306.57625,0.05216
3304.51608,0.05199
3302.45590,0.05149
3300.39573,0.05135
3298.33556,0.05161
3296.27539,0.05202
3294.21521,0.05241
3292.15504,0.05243
3290.09487,0.05222
3288.03470,0.05205
3285.97453,0.05212
3283.91435,0.05247
3281.85418,0.05275
3279.79401,0.05279
3277.73384,0.05261
3275.67367,0.05218
3273.61349,0.05175
3271.55332,0.05155
3269.49315,0.05155
3267.43298,0.05169
3265.37281,0.05165
3263.31263,0.05130
3261.25246,0.05127
3259.19229,0.05171
3257.13212,0.05195
3255.07194,0.05181
3253.01177,0.05167
3250.95160,0.05142
3248.89143,0.05091
3246.83126,0.05039
3244.77108,0.05025
3242.71091,0.05052
3240.65074,0.05079
3238.59057,0.05089
3236.53040,0.05097
3234.47022,0.05091
3232.41005,0.05064
3230.34988,0.05032
3228.28971,0.05017
3226.22954,0.05001
3224.16936,0.04953
3222.10919,0.04901
3220.04902,0.04863
3217.98885,0.04841
3215.92867,0.04855
3213.86850,0.04877
3211.80833,0.04856
3209.74816,0.04819
3207.68799,0.04812
3205.62781,0.04827
3203.56764,0.04798
3201.50747,0.04721
3199.44730,0.04675
3197.38713,0.04690
3195.32695,0.04722
3193.26678,0.04729
3191.20661,0.04704
3189.14644,0.04676
3187.08626,0.04679
3185.02609,0.04675
3182.96592,0.04626
3180.90575,0.04569
3178.84558,0.04530
3176.78540,0.04500
3174.72523,0.04470
3172.66506,0.04430
3170.60489,0.04386
3168.54472,0.04343
3166.48454,0.04315
3164.42437,0.04308
3162.36420,0.04283
3160.30403,0.04238
3158.24386,0.04215
3156.18368,0.04199
3154.12351,0.04172
3152.06334,0.04163
3150.00317,0.04182
3147.94299,0.04188
3145.88282,0.04144
3143.82265,0.04074
3141.76248,0.04021
3139.70231,0.03993
3137.64213,0.03985
3135.58196,0.03966
3133.52179,0.03913
3131.46162,0.03855
3129.40145,0.03820
3127.34127,0.03812
3125.28110,0.03812
3123.22093,0.03787
3121.16076,0.03749
3119.10058,0.03732
3117.04041,0.03727
3114.98024,0.03701
3112.92007,0.03650
3110.85990,0.03592
3108.79972,0.03568
3106.73955,0.03589
3104.67938,0.03597
3102.61921,0.03547
3100.55904,0.03484
3098.49886,0.03457
3096.43869,0.03442
3094.37852,0.03421
3092.31835,0.03392
3090.25818,0.03354
3088.19800,0.03341
3086.13783,0.03356
3084.07766,0.03354
3082.01749,0.03315
3079.95731,0.03257
3077.89714,0.03213
3075.83697,0.03200
3073.77680,0.03184
3071.71663,0.03161
3069.65645,0.03161
3067.59628,0.03152
3065.53611,0.03093
3063.47594,0.03009
3061.41577,0.02951
3059.35559,0.02926
3057.29542,0.02929
3055.23525,0.02934
3053.17508,0.02909
3051.11491,0.02875
3049.05473,0.02858
3046.99456,0.02846
3044.93439,0.02829
3042.87422,0.02810
3040.81404,0.02800
3038.75387,0.02805
3036.69370,0.02795
3034.63353,0.02729
3032.57336,0.02647
3030.51318,0.02622
3028.45301,0.02632
3026.39284,0.02623
3024.33267,0.02597
3022.27250,0.02554
3020.21232,0.02496
3018.15215,0.02469
3016.09198,0.02503
3014.03181,0.02556
3011.97163,0.02563
3009.91146,0.02520
3007.85129,0.02463
3005.79112,0.02410
3003.73095,0.02380
3001.67077,0.02377
2999.61060,0.02382
2997.55043,0.02371
2995.49026,0.02339
2993.43009,0.02311
2991.36991,0.02312
2989.30974,0.02324
2987.24957,0.02327
2985.18940,0.02334
2983.12923,0.02350
2981.06905,0.02373
2979.00888,0.02405
2976.94871,0.02439
2974.88854,0.02479
2972.82836,0.02545
2970.76819,0.02637
2968.70802,0.02747
2966.64785,0.02871
2964.58768,0.02988
2962.52750,0.03092
2960.46733,0.03221
2958.40716,0.03395
2956.34699,0.03578
2954.28682,0.03758
2952.22664,0.03949
2950.16647,0.04128
2948.10630,0.04294
2946.04613,0.04488
2943.98596,0.04715
2941.92578,0.04956
2939.86561,0.05215
2937.80544,0.05468
2935.74527,0.05704
2933.68509,0.05954
2931.62492,0.06203
2929.56475,0.06404
2927.50458,0.06569
2925.44441,0.06732
2923.38423,0.06874
2921.32406,0.06978
2919.26389,0.07041
2917.20372,0.07009
2915.14355,0.06835
2913.08337,0.06559
2911.02320,0.06270
2908.96303,0.06019
2906.90286,0.05820
2904.84268,0.05641
2902.78251,0.05458
2900.72234,0.05302
2898.66217,0.05162
2896.60200,0.05006
2894.54182,0.04858
2892.48165,0.04732
2890.42148,0.04631
2888.36131,0.04557
2886.30114,0.04489
2884.24096,0.04429
2882.18079,0.04371
2880.12062,0.04295
2878.06045,0.04245
2876.00028,0.04251
2873.94010,0.04292
2871.87993,0.04348
2869.81976,0.04392
2867.75959,0.04414
2865.69941,0.04468
2863.63924,0.04605
2861.57907,0.04791
2859.51890,0.04979
2857.45873,0.05167
2855.39855,0.05339
2853.33838,0.05474
2851.27821,0.05535
2849.21804,0.05452
2847.15787,0.05202
2845.09769,0.04869
2843.03752,0.04548
2840.97735,0.04253
2838.91718,0.03986
2836.85700,0.03790
2834.79683,0.03663
2832.73666,0.03539
2830.67649,0.03398
2828.61632,0.03292
2826.55614,0.03232
2824.49597,0.03180
2822.43580,0.03125
2820.37563,0.03076
2818.31546,0.03026
2816.25528,0.02970
2814.19511,0.02923
2812.13494,0.02893
2810.07477,0.02847
2808.01460,0.02787
2805.95442,0.02746
2803.89425,0.02721
2801.83408,0.02714
2799.77391,0.02723
2797.71373,0.02697
2795.65356,0.02636
2793.59339,0.02614
2791.53322,0.02626
2789.47305,0.02626
2787.41287,0.02596
2785.35270,0.02547
2783.29253,0.02505
2781.23236,0.02471
2779.17219,0.02445
2777.11201,0.02427
2775.05184,0.02419
2772.99167,0.02414
2770.93150,0.02384
2768.87133,0.02346
2766.81115,0.02338
2764.75098,0.02358
2762.69081,0.02369
2760.63064,0.02347
2758.57046,0.02309
2756.51029,0.02273
2754.45012,0.02265
2752.38995,0.02285
2750.32978,0.02287
2748.26960,0.02270
2746.20943,0.02269
2744.14926,0.02278
2742.08909,0.02276
2740.02892,0.02267
2737.96874,0.02261
2735.90857,0.02246
2733.84840,0.02222
2731.78823,0.02201
2729.72805,0.02182
2727.66788,0.02191
2725.60771,0.02220
2723.54754,0.02231
2721.48737,0.02226
2719.42719,0.02228
2717.36702,0.02230
2715.30685,0.02213
2713.24668,0.02186
2711.18651,0.02170
2709.12633,0.02143
2707.06616,0.02102
2705.00599,0.02090
2702.94582,0.02098
2700.88565,0.02113
2698.82547,0.02142
2696.76530,0.02142
2694.70513,0.02109
2692.64496,0.02083
2690.58478,0.02082
2688.52461,0.02097
2686.46444,0.02088
2684.40427,0.02054
2682.34410,0.02057
2680.28392,0.02093
2678.22375,0.02084
2676.16358,0.02040
2674.10341,0.02024
2672.04324,0.02014
2669.98306,0.01994
2667.92289,0.01990
2665.86272,0.01993
2663.80255,0.02006
2661.74238,0.02020
2659.68220,0.02002
2657.62203,0.01962
2655.56186,0.01927
2653.50169,0.01906
2651.44151,0.01906
2649.38134,0.01912
2647.32117,0.01908
2645.26100,0.01906
2643.20083,0.01893
2641.14065,0.01860
2639.08048,0.01834
2637.02031,0.01837
2634.96014,0.01835
2632.89997,0.01816
2630.83979,0.01838
2628.77962,0.01875
2626.71945,0.01860
2624.65928,0.01817
2622.59910,0.01780
2620.53893,0.01746
2618.47876,0.01737
2616.41859,0.01755
2614.35842,0.01763
2612.29824,0.01754
2610.23807,0.01725
2608.17790,0.01687
2606.11773,0.01688
2604.05756,0.01723
2601.99738,0.01725
2599.93721,0.01688
2597.87704,0.01670
2595.81687,0.01677
2593.75670,0.01650
2591.69652,0.01602
2589.63635,0.01610
2587.57618,0.01634
2585.51601,0.01576
2583.45583,0.01506
2581.39566,0.01519
2579.33549,0.01580
2577.27532,0.01628
2575.21515,0.01620
2573.15497,0.01574
2571.09480,0.01551
2569.03463,0.01554
2566.97446,0.01554
2564.91429,0.01564
2562.85411,0.01561
2560.79394,0.01504
2558.73377,0.01465
2556.67360,0.01496
2554.61342,0.01534
2552.55325,0.01519
2550.49308,0.01480
2548.43291,0.01497
2546.37274,0.01558
2544.31256,0.01559
2542.25239,0.01470
2540.19222,0.01399
2538.13205,0.01409
2536.07188,0.01427
2534.01170,0.01414
2531.95153,0.01399
2529.89136,0.01386
2527.83119,0.01360
2525.77102,0.01328
2523.71084,0.01340
2521.65067,0.01395
2519.59050,0.01411
2517.53033,0.01360
2515.47015,0.01322
2513.40998,0.01344
2511.34981,0.01361
2509.28964,0.01361
2507.22947,0.01373
2505.16929,0.01371
2503.10912,0.01359
2501.04895,0.01354
2498.98878,0.01341
2496.92861,0.01314
2494.86843,0.01288
2492.80826,0.01290
2490.74809,0.01303
2488.68792,0.01286
2486.62775,0.01254
2484.56757,0.01240
2482.50740,0.01249
2480.44723,0.01233
2478.38706,0.01189
2476.32688,0.01191
2474.26671,0.01211
2472.20654,0.01203
2470.14637,0.01199
2468.08620,0.01198
2466.02602,0.01218
2463.96585,0.01264
2461.90568,0.01281
2459.84551,0.01258
2457.78534,0.01205
2455.72516,0.01177
2453.66499,0.01229
2451.60482,0.01279
2449.54465,0.01247
2447.48447,0.01169
2445.42430,0.01121
2443.36413,0.01114
2441.30396,0.01150
2439.24379,0.01201
2437.18361,0.01193
2435.12344,0.01142
2433.06327,0.01102
2431.00310,0.01093
2428.94293,0.01111
2426.88275,0.01116
2424.82258,0.01095
2422.76241,0.01091
2420.70224,0.01123
2418.64207,0.01149
2416.58189,0.01127
2414.52172,0.01074
2412.46155,0.01032
2410.40138,0.01015
2408.34120,0.01018
2406.28103,0.01016
2404.22086,0.00998
2402.16069,0.01020
2400.10052,0.01077
2398.04034,0.01105
2395.98017,0.01120
2393.92000,0.01132
2391.85983,0.01124
2389.79966,0.01087
2387.73948,0.01064
2385.67931,0.01086
2383.61914,0.01119
2381.55897,0.01131
2379.49880,0.01120
2377.43862,0.01098
2375.37845,0.01073
2373.31828,0.01145
2371.25811,0.01327
2369.19793,0.01391
2367.13776,0.01188
2365.07759,0.00826
2363.01742,0.00694
2360.95725,0.01151
2358.89707,0.01316
2356.83690,0.01064
2354.77673,0.00896
2352.71656,0.00958
2350.65639,0.01305
2348.59621,0.01422
2346.53604,0.00899
2344.47587,0.00712
2342.41570,0.00837
2340.35552,0.01012
2338.29535,0.01113
2336.23518,0.01049
2334.17501,0.00993
2332.11484,0.01008
2330.05466,0.01111
2327.99449,0.01192
2325.93432,0.01249
2323.87415,0.01154
2321.81398,0.01053
2319.75380,0.00990
2317.69363,0.01036
2315.63346,0.01055
2313.57329,0.01048
2311.51312,0.01026
2309.45294,0.00980
2307.39277,0.00976
2305.33260,0.01038
2303.27243,0.01090
2301.21225,0.01066
2299.15208,0.01039
2297.09191,0.01023
2295.03174,0.00995
2292.97157,0.00972
2290.91139,0.00970
2288.85122,0.00973
2286.79105,0.00939
2284.73088,0.00881
2282.67071,0.00865
2280.61053,0.00899
2278.55036,0.00939
2276.49019,0.00913
2274.43002,0.00826
2272.36984,0.00793
2270.30967,0.00846
2268.24950,0.00888
2266.18933,0.00912
2264.12916,0.00967
2262.06898,0.01004
2260.00881,0.00966
2257.94864,0.00883
2255.88847,0.00800
2253.82830,0.00791
2251.76812,0.00835
2249.70795,0.00803
2247.64778,0.00705
2245.58761,0.00699
2243.52744,0.00739
2241.46726,0.00718
2239.40709,0.00763
2237.34692,0.00893
2235.28675,0.00878
2233.22657,0.00748
2231.16640,0.00698
2229.10623,0.00708
2227.04606,0.00712
2224.98589,0.00714
2222.92571,0.00663
2220.86554,0.00543
2218.80537,0.00503
2216.74520,0.00526
2214.68503,0.00515
2212.62485,0.00594
2210.56468,0.00763
2208.50451,0.00854
2206.44434,0.00753
2204.38417,0.00564
2202.32399,0.00556
2200.26382,0.00650
2198.20365,0.00611
2196.14348,0.00544
2194.08330,0.00544
2192.02313,0.00530
2189.96296,0.00519
2187.90279,0.00518
2185.84262,0.00483
2183.78244,0.00505
2181.72227,0.00470
2179.66210,0.00317
2177.60193,0.00381
2175.54176,0.00554
2173.48158,0.00531
2171.42141,0.00451
2169.36124,0.00412
2167.30107,0.00435
2165.24089,0.00520
2163.18072,0.00524
2161.12055,0.00446
2159.06038,0.00285
2157.00021,0.00073
2154.94003,0.00109
2152.87986,0.00344
2150.81969,0.00446
2148.75952,0.00415
2146.69935,0.00385
2144.63917,0.00339
2142.57900,0.00321
2140.51883,0.00381
2138.45866,0.00475
2136.39849,0.00565
2134.33831,0.00538
2132.27814,0.00472
2130.21797,0.00581
2128.15780,0.00694
2126.09762,0.00680
2124.03745,0.00681
2121.97728,0.00702
2119.91711,0.00706
2117.85694,0.00685
2115.79676,0.00613
2113.73659,0.00545
2111.67642,0.00493
2109.61625,0.00451
2107.55608,0.00496
2105.49590,0.00609
2103.43573,0.00647
2101.37556,0.00547
2099.31539,0.00388
2097.25521,0.00305
2095.19504,0.00363
2093.13487,0.00494
2091.07470,0.00618
2089.01453,0.00701
2086.95435,0.00666
2084.89418,0.00534
2082.83401,0.00480
2080.77384,0.00553
2078.71367,0.00622
2076.65349,0.00628
2074.59332,0.00613
2072.53315,0.00534
2070.47298,0.00398
2068.41281,0.00341
2066.35263,0.00341
2064.29246,0.00343
2062.23229,0.00428
2060.17212,0.00544
2058.11194,0.00514
2056.05177,0.00423
2053.99160,0.00468
2051.93143,0.00558
2049.87126,0.00568
2047.81108,0.00522
2045.75091,0.00439
2043.69074,0.00387
2041.63057,0.00437
2039.57040,0.00465
2037.51022,0.00304
2035.45005,0.00087
2033.38988,0.00034
2031.32971,0.00079
2029.26954,0.00094
2027.20936,0.00069
2025.14919,0.00031
2023.08902,0.00000
2021.02885,0.00005
2018.96867,0.00087
2016.90850,0.00249
2014.84833,0.00371
2012.78816,0.00358
2010.72799,0.00362
2008.66781,0.00480
2006.60764,0.00542
2004.54747,0.00454
2002.48730,0.00313
2000.42713,0.00256
1998.36695,0.00237
1996.30678,0.00142
1994.24661,0.00126
1992.18644,0.00247
1990.12626,0.00299
1988.06609,0.00338
1986.00592,0.00447
1983.94575,0.00494
1981.88558,0.00469
1979.82540,0.00427
1977.76523,0.00366
1975.70506,0.00263
1973.64489,0.00180
1971.58472,0.00194
1969.52454,0.00198
1967.46437,0.00100
1965.40420,0.00000
1963.34403,0.00038
1961.28386,0.00169
1959.22368,0.00233
1957.16351,0.00222
1955.10334,0.00213
1953.04317,0.00206
1950.98299,0.00139
1948.92282,0.00040
1946.86265,0.00090
1944.80248,0.00251
1942.74231,0.00270
1940.68213,0.00211
1938.62196,0.00271
1936.56179,0.00363
1934.50162,0.00346
1932.44145,0.00297
1930.38127,0.00304
1928.32110,0.00323
1926.26093,0.00309
1924.20076,0.00278
1922.14059,0.00295
1920.08041,0.00352
1918.02024,0.00374
1915.96007,0.00376
1913.89990,0.00392
1911.83972,0.00390
1909.77955,0.00395
1907.71938,0.00413
1905.65921,0.00382
1903.59904,0.00325
1901.53886,0.00303
1899.47869,0.00289
1897.41852,0.00254
1895.35835,0.00225
1893.29818,0.00215
1891.23800,0.00219
1889.17783,0.00257
1887.11766,0.00299
1885.05749,0.00281
1882.99731,0.00246
1880.93714,0.00272
1878.87697,0.00327
1876.81680,0.00322
1874.75663,0.00253
1872.69645,0.00180
1870.63628,0.00155
1868.57611,0.00187
1866.51594,0.00232
1864.45577,0.00253
1862.39559,0.00253
1860.33542,0.00252
1858.27525,0.00267
1856.21508,0.00259
1854.15491,0.00215
1852.09473,0.00174
1850.03456,0.00161
1847.97439,0.00160
1845.91422,0.00168
1843.85404,0.00199
1841.79387,0.00233
1839.73370,0.00226
1837.67353,0.00189
1835.61336,0.00163
1833.55318,0.00150
1831.49301,0.00134
1829.43284,0.00139
1827.37267,0.00180
1825.31250,0.00227
1823.25232,0.00230
1821.19215,0.00171
1819.13198,0.00108
1817.07181,0.00113
1815.01163,0.00172
1812.95146,0.00207
1810.89129,0.00187
1808.83112,0.00147
1806.77095,0.00137
1804.71077,0.00157
1802.65060,0.00167
1800.59043,0.00144
1798.53026,0.00107
1796.47009,0.00086
1794.40991,0.00092
1792.34974,0.00105
1790.28957,0.00100
1788.22940,0.00093
1786.16923,0.00089
1784.10905,0.00063
1782.04888,0.00020
1779.98871,0.00000
1777.92854,0.00012
1775.86836,0.00036
1773.80819,0.00041
1771.74802,0.00033
1769.68785,0.00060
1767.62768,0.00121
1765.56750,0.00181
1763.50733,0.00224
1761.44716,0.00261
1759.38699,0.00318
1757.32682,0.00426
1755.26664,0.00580
1753.20647,0.00733
1751.14630,0.00882
1749.08613,0.01043
1747.02596,0.01189
1744.96578,0.01307
1742.90561,0.01423
1740.84544,0.01536
1738.78527,0.01609
1736.72509,0.01629
1734.66492,0.01639
1732.60475,0.01681
1730.54458,0.01728
1728.48441,0.01734
1726.42423,0.01707
1724.36406,0.01682
1722.30389,0.01682
1720.24372,0.01707
1718.18355,0.01743
1716.12337,0.01772
1714.06320,0.01785
1712.00303,0.01780
1709.94286,0.01758
1707.88268,0.01718
1705.82251,0.01667
1703.76234,0.01625
1701.70217,0.01606
1699.64200,0.01633
1697.58182,0.01698
1695.52165,0.01749
1693.46148,0.01782
1691.40131,0.01852
1689.34114,0.01984
1687.28096,0.02156
1685.22079,0.02398
1683.16062,0.02691
1681.10045,0.02891
1679.04028,0.03019
1676.98010,0.03152
1674.91993,0.03286
1672.85976,0.03371
1670.79959,0.03382
1668.73941,0.03336
1666.67924,0.03267
1664.61907,0.03197
1662.55890,0.03116
1660.49873,0.03038
1658.43855,0.02987
1656.37838,0.02951
1654.31821,0.02899
1652.25804,0.02847
1650.19787,0.02842
1648.13769,0.02868
1646.07752,0.02906
1644.01735,0.02935
1641.95718,0.02957
1639.89701,0.02979
1637.83683,0.03012
1635.77666,0.03093
1633.71649,0.03207
1631.65632,0.03277
1629.59614,0.03311
1627.53597,0.03330
1625.47580,0.03342
1623.41563,0.03360
1621.35546,0.03400
1619.29528,0.03453
1617.23511,0.03512
1615.17494,0.03587
1613.11477,0.03695
1611.05460,0.03836
1608.99442,0.03997
1606.93425,0.04142
1604.87408,0.04205
1602.81391,0.04149
1600.75373,0.04016
1598.69356,0.03861
1596.63339,0.03704
1594.57322,0.03557
1592.51305,0.03446
1590.45287,0.03371
1588.39270,0.03295
1586.33253,0.03189
1584.27236,0.03061
1582.21219,0.02951
1580.15201,0.02888
1578.09184,0.02843
1576.03167,0.02762
1573.97150,0.02654
1571.91133,0.02567
1569.85115,0.02505
1567.79098,0.02439
1565.73081,0.02342
1563.67064,0.02228
1561.61046,0.02125
1559.55029,0.02034
1557.49012,0.01947
1555.42995,0.01850
1553.36978,0.01733
1551.30960,0.01622
1549.24943,0.01532
1547.18926,0.01466
1545.12909,0.01398
1543.06892,0.01300
1541.00874,0.01198
1538.94857,0.01121
1536.88840,0.01056
1534.82823,0.00978
1532.76805,0.00887
1530.70788,0.00817
1528.64771,0.00771
1526.58754,0.00751
1524.52737,0.00779
1522.46719,0.00868
1520.40702,0.01011
1518.34685,0.01169
1516.28668,0.01308
1514.22651,0.01368
1512.16633,0.01314
1510.10616,0.01162
1508.04599,0.00939
1505.98582,0.00726
1503.92565,0.00622
1501.86547,0.00577
1499.80530,0.00532
1497.74513,0.00464
1495.68496,0.00381
1493.62478,0.00308
1491.56461,0.00242
1489.50444,0.00174
1487.44427,0.00122
1485.38410,0.00108
1483.32392,0.00121
1481.26375,0.00151
1479.20358,0.00192
1477.14341,0.00251
1475.08324,0.00371
1473.02306,0.00595
1470.96289,0.00873
1468.90272,0.01105
1466.84255,0.01301
1464.78238,0.01476
1462.72220,0.01597
1460.66203,0.01685
1458.60186,0.01803
1456.54169,0.01964
1454.48151,0.02096
1452.42134,0.02166
1450.36117,0.02218
1448.30100,0.02294
1446.24083,0.02387
1444.18065,0.02479
1442.12048,0.02575
1440.06031,0.02672
1438.00014,0.02768
1435.93997,0.02852
1433.87979,0.02891
1431.81962,0.02902
1429.75945,0.02918
1427.69928,0.02938
1425.63910,0.02945
1423.57893,0.02954
1421.51876,0.02981
1419.45859,0.03013
1417.39842,0.03026
1415.33824,0.03006
1413.27807,0.02957
1411.21790,0.02889
1409.15773,0.02817
1407.09756,0.02743
1405.03738,0.02663
1402.97721,0.02593
1400.91704,0.02526
1398.85687,0.02435
1396.79670,0.02335
1394.73652,0.02271
1392.67635,0.02240
1390.61618,0.02229
1388.55601,0.02253
1386.49583,0.02317
1384.43566,0.02389
1382.37549,0.02449
1380.31532,0.02502
1378.25515,0.02547
1376.19497,0.02589
1374.13480,0.02629
1372.07463,0.02659
1370.01446,0.02677
1367.95429,0.02684
1365.89411,0.02675
1363.83394,0.02640
1361.77377,0.02592
1359.71360,0.02549
1357.65343,0.02507
1355.59325,0.02462
1353.53308,0.02426
1351.47291,0.02414
1349.41274,0.02427
1347.35256,0.02446
1345.29239,0.02449
1343.23222,0.02430
1341.17205,0.02394
1339.11188,0.02362
1337.05170,0.02351
1334.99153,0.02359
1332.93136,0.02378
1330.87119,0.02403
1328.81102,0.02430
1326.75084,0.02443
1324.69067,0.02448
1322.63050,0.02461
1320.57033,0.02469
1318.51015,0.02455
1316.44998,0.02438
1314.38981,0.02429
1312.32964,0.02406
1310.26947,0.02357
1308.20929,0.02291
1306.14912,0.02210
1304.08895,0.02118
1302.02878,0.02038
1299.96861,0.01971
1297.90843,0.01911
1295.84826,0.01885
1293.78809,0.01904
1291.72792,0.01943
1289.66775,0.01983
1287.60757,0.02024
1285.54740,0.02056
1283.48723,0.02065
1281.42706,0.02053
1279.36688,0.02039
1277.30671,0.02051
1275.24654,0.02080
1273.18637,0.02094
1271.12620,0.02120
1269.06602,0.02210
1267.00585,0.02330
1264.94568,0.02409
1262.88551,0.02461
1260.82534,0.02535
1258.76516,0.02617
1256.70499,0.02688
1254.64482,0.02751
1252.58465,0.02808
1250.52447,0.02862
1248.46430,0.02918
1246.40413,0.02967
1244.34396,0.02989
1242.28379,0.02988
1240.22361,0.02980
1238.16344,0.02954
1236.10327,0.02914
1234.04310,0.02876
1231.98293,0.02821
1229.92275,0.02726
1227.86258,0.02618
1225.80241,0.02497
1223.74224,0.02357
1221.68207,0.02221
1219.62189,0.02085
1217.56172,0.01936
1215.50155,0.01778
1213.44138,0.01625
1211.38120,0.01510
1209.32103,0.01417
1207.26086,0.01301
1205.20069,0.01160
1203.14052,0.01011
1201.08034,0.00856
1199.02017,0.00690
1196.96000,0.00521
1194.89983,0.00361
1192.83966,0.00216
1190.77948,0.00118
1188.71931,0.00066
1186.65914,0.00025
1184.59897,0.00000
1182.53880,0.00001
1180.47862,0.00032
1178.41845,0.00113
1176.35828,0.00263
1174.29811,0.00477
1172.23793,0.00746
1170.17776,0.01010
1168.11759,0.01204
1166.05742,0.01313
1163.99725,0.01370
1161.93707,0.01426
1159.87690,0.01473
1157.81673,0.01514
1155.75656,0.01589
1153.69639,0.01674
1151.63621,0.01760
1149.57604,0.01866
1147.51587,0.01975
1145.45570,0.02080
1143.39552,0.02185
1141.33535,0.02290
1139.27518,0.02391
1137.21501,0.02476
1135.15484,0.02529
1133.09466,0.02561
1131.03449,0.02632
1128.97432,0.02770
1126.91415,0.02929
1124.85398,0.03073
1122.79380,0.03200
1120.73363,0.03319
1118.67346,0.03454
1116.61329,0.03598
1114.55312,0.03723
1112.49294,0.03845
1110.43277,0.03981
1108.37260,0.04115
1106.31243,0.04243
1104.25225,0.04372
1102.19208,0.04508
1100.13191,0.04661
1098.07174,0.04849
1096.01157,0.05085
1093.95139,0.05327
1091.89122,0.05516
1089.83105,0.05685
1087.77088,0.05887
1085.71071,0.06105
1083.65053,0.06316
1081.59036,0.06533
1079.53019,0.06773
1077.47002,0.07031
1075.40985,0.07306
1073.34967,0.07595
1071.28950,0.07862
1069.22933,0.08051
1067.16916,0.08190
1065.10898,0.08342
1063.04881,0.08505
1060.98864,0.08662
1058.92847,0.08830
1056.86830,0.09021
1054.80812,0.09225
1052.74795,0.09449
1050.68778,0.09696
1048.62761,0.09947
1046.56744,0.10221
1044.50726,0.10515
1042.44709,0.10791
1040.38692,0.11059
1038.32675,0.11301
1036.26657,0.11478
1034.20640,0.11589
1032.14623,0.11629
1030.08606,0.11630
1028.02589,0.11637
1025.96571,0.11636
1023.90554,0.11605
1021.84537,0.11561
1019.78520,0.11516
1017.72503,0.11479
1015.66485,0.11464
1013.60468,0.11482
1011.54451,0.11531
1009.48434,0.11583
1007.42417,0.11575
1005.36399,0.11508
1003.30382,0.11449
1001.24365,0.11404
999.18348,0.11308
997.12330,0.11137
995.06313,0.10938
993.00296,0.10752
990.94279,0.10596
988.88262,0.10448
986.82244,0.10255
984.76227,0.10024
982.70210,0.09808
980.64193,0.09637
978.58176,0.09489
976.52158,0.09344
974.46141,0.09204
972.40124,0.09047
970.34107,0.08837
968.28089,0.08580
966.22072,0.08342
964.16055,0.08153
962.10038,0.07960
960.04021,0.07761
957.98003,0.07581
955.91986,0.07417
953.85969,0.07287
951.79952,0.07182
949.73935,0.07039
947.67917,0.06840
945.61900,0.06623
943.55883,0.06399
941.49866,0.06139
939.43849,0.05819
937.37831,0.05463
935.31814,0.05102
933.25797,0.04740
931.19780,0.04397
929.13762,0.04097
927.07745,0.03839
925.01728,0.03620
922.95711,0.03425
920.89694,0.03219
918.83676,0.03002
916.77659,0.02819
914.71642,0.02670
912.65625,0.02517
910.59608,0.02342
908.53590,0.02148
906.47573,0.01972
904.41556,0.01864
902.35539,0.01834
900.29522,0.01836
898.23504,0.01840
896.17487,0.01861
894.11470,0.01886
892.05453,0.01912
889.99435,0.01932
887.93418,0.01908
885.87401,0.01829
883.81384,0.01713
881.75367,0.01545
879.69349,0.01322
877.63332,0.01129
875.57315,0.01013
873.51298,0.00929
871.45281,0.00870
869.39263,0.00867
867.33246,0.00866
865.27229,0.00824
863.21212,0.00806
861.15194,0.00801
859.09177,0.00760
857.03160,0.00734
854.97143,0.00744
852.91126,0.00764
850.85108,0.00792
848.79091,0.00765
846.73074,0.00670
844.67057,0.00608
842.61040,0.00578
840.55022,0.00549
838.49005,0.00543
836.42988,0.00554
834.36971,0.00548
832.30954,0.00498
830.24936,0.00455
828.18919,0.00434
826.12902,0.00373
824.06885,0.00320
822.00867,0.00331
819.94850,0.00355
817.88833,0.00325
815.82816,0.00297
813.76799,0.00375
811.70781,0.00462
809.64764,0.00418
807.58747,0.00335
805.52730,0.00281
803.46713,0.00157
801.40695,0.00033
799.34678,0.00066
797.28661,0.00165
795.22644,0.00164
793.16627,0.00105
791.10609,0.00109
789.04592,0.00139
786.98575,0.00092
784.92558,0.00035
782.86540,0.00097
780.80523,0.00175
778.74506,0.00128
776.68489,0.00056
774.62472,0.00027
772.56454,0.00011
770.50437,0.00015
768.44420,-0.00015
766.38403,-0.00037
764.32386,0.00040
762.26368,0.00103
760.20351,0.00100
758.14334,0.00129
756.08317,0.00164
754.02299,0.00097
751.96282,0.00000
749.90265,-0.00031
747.84248,0.00037
745.78231,0.00080
743.72213,-0.00007
741.66196,-0.00126
739.60179,-0.00157
737.54162,-0.00098
735.48145,-0.00058
733.42127,-0.00116
731.36110,-0.00173
729.30093,-0.00100
727.24076,0.00046
725.18059,0.00056
723.12041,0.00001
721.06024,-0.00060
719.00007,-0.00008
716.93990,0.00055
714.87972,0.00127
712.81955,0.00258
710.75938,0.00373
708.69921,0.00414
706.63904,0.00464
704.57886,0.00660
702.51869,0.00940
700.45852,0.01071
698.39835,0.00996
696.33818,0.00892
694.27800,0.00887
692.21783,0.00946
690.15766,0.00984
688.09749,0.00914
686.03731,0.00710
683.97714,0.00492
681.91697,0.00389
679.85680,0.00430
677.79663,0.00536
675.73645,0.00614
673.67628,0.00738
671.61611,0.00816
669.55594,0.00225
667.49577,0.00025
665.43559,0.01212
663.37542,0.01199
661.31525,0.00846
659.25508,0.00654
657.19491,0.00566
655.13473,0.00677
653.07456,0.00965
651.01439,0.01113
648.95422,0.01009
646.89404,0.00975
644.83387,0.01097
642.77370,0.01124
640.71353,0.00934
638.65336,0.00701
636.59318,0.00521
634.53301,0.00422
632.47284,0.00374
630.41267,0.00234
628.35250,0.00000
626.29232,-0.00164
624.23215,0.00044
622.17198,0.00418
620.11181,0.00850
618.05164,0.00965
615.99146,0.00604
613.93129,0.00393
611.87112,0.00161
609.81095,-0.00337
607.75077,-0.00549
605.69060,-0.00484
603.63043,-0.00356
601.57026,-0.00120
599.51009,0.00000
