3996.73391,-0.00041
3994.67373,-0.00032
3992.61356,-0.00062
3990.55339,-0.00093
3988.49322,-0.00101
3986.43305,-0.00100
3984.37287,-0.00108
3982.31270,-0.00100
3980.25253,-0.00061
3978.19236,-0.00036
3976.13219,-0.00056
3974.07201,-0.00067
3972.01184,-0.00024
3969.95167,0.00026
3967.89150,0.00038
3965.83133,0.00036
3963.77115,0.00041
3961.71098,0.00050
3959.65081,0.00049
3957.59064,0.00035
3955.53046,0.00008
3953.47029,0.00000
3951.41012,0.00052
3949.34995,0.00110
3947.28978,0.00092
3945.22960,0.00044
3943.16943,0.00047
3941.10926,0.00091
3939.04909,0.00120
3936.98892,0.00104
3934.92874,0.00046
3932.86857,0.00000
3930.80840,0.00040
3928.74823,0.00149
3926.68805,0.00218
3924.62788,0.00202
3922.56771,0.00157
3920.50754,0.00139
3918.44737,0.00127
3916.38719,0.00079
3914.32702,0.00039
3912.26685,0.00085
3910.20668,0.00197
3908.14651,0.00263
3906.08633,0.00222
3904.02616,0.00142
3901.96599,0.00140
3899.90582,0.00198
3897.84565,0.00204
3895.78547,0.00160
3893.72530,0.00141
3891.66513,0.00164
3889.60496,0.00191
3887.54478,0.00174
3885.48461,0.00108
3883.42444,0.00038
3881.36427,0.00035
3879.30410,0.00125
3877.24392,0.00230
3875.18375,0.00284
3873.12358,0.00268
3871.06341,0.00175
3869.00324,0.00061
3866.94306,0.00013
3864.88289,0.00026
3862.82272,0.00080
3860.76255,0.00154
3858.70237,0.00200
3856.64220,0.00188
3854.58203,0.00103
3852.52186,0.00013
3850.46169,0.00033
3848.40151,0.00081
3846.34134,0.00098
3844.28117,0.00116
3842.22100,0.00138
3840.16083,0.00145
3838.10065,0.00159
3836.04048,0.00188
3833.98031,0.00190
3831.92014,0.00161
3829.85997,0.00149
3827.79979,0.00162
3825.73962,0.00157
3823.67945,0.00116
3821.61928,0.00097
3819.55910,0.00153
3817.49893,0.00204
3815.43876,0.00199
3813.37859,0.00179
3811.31842,0.00175
3809.25824,0.00167
3807.19807,0.00152
3805.13790,0.00171
3803.07773,0.00221
3801.01756,0.00247
3798.95738,0.00221
3796.89721,0.00188
3794.83704,0.00179
3792.77687,0.00166
3790.71670,0.00152
3788.65652,0.00175
3786.59635,0.00222
3784.53618,0.00242
3782.47601,0.00233
3780.41583,0.00225
3778.35566,0.00219
3776.29549,0.00200
3774.23532,0.00178
3772.17515,0.00157
3770.11497,0.00139
3768.05480,0.00129
3765.99463,0.00140
3763.93446,0.00182
3761.87429,0.00212
3759.81411,0.00202
3757.75394,0.00194
3755.69377,0.00220
3753.63360,0.00261
3751.57342,0.00283
3749.51325,0.00249
3747.45308,0.00167
3745.39291,0.00100
3743.33274,0.00107
3741.27256,0.00168
3739.21239,0.00206
3737.15222,0.00177
3735.09205,0.00082
3733.03188,-0.00003
3730.97170,-0.00004
3728.91153,0.00044
3726.85136,0.00091
3724.79119,0.00112
3722.73102,0.00078
3720.67084,0.00009
3718.61067,0.00000
3716.55050,0.00087
3714.49033,0.00205
3712.43015,0.00267
3710.36998,0.00229
3708.30981,0.00144
3706.24964,0.00116
3704.18947,0.00176
3702.12929,0.00243
3700.06912,0.00245
3698.00895,0.00230
3695.94878,0.00221
3693.88861,0.00180
3691.82843,0.00092
3689.76826,0.00013
3687.70809,0.00014
3685.64792,0.00074
3683.58775,0.00147
3681.52757,0.00214
3679.46740,0.00233
3677.40723,0.00211
3675.34706,0.00180
3673.28688,0.00109
3671.22671,0.00023
3669.16654,0.00035
3667.10637,0.00133
3665.04620,0.00200
3662.98602,0.00221
3660.92585,0.00230
3658.86568,0.00241
3656.80551,0.00236
3654.74534,0.00200
3652.68516,0.00183
3650.62499,0.00263
3648.56482,0.00396
3646.50465,0.00433
3644.44447,0.00400
3642.38430,0.00373
3640.32413,0.00361
3638.26396,0.00352
3636.20379,0.00338
3634.14361,0.00308
3632.08344,0.00257
3630.02327,0.00252
3627.96310,0.00331
3625.90293,0.00388
3623.84275,0.00384
3621.78258,0.00380
3619.72241,0.00376
3617.66224,0.00361
3615.60207,0.00367
3613.54189,0.00353
3611.48172,0.00305
3609.42155,0.00343
3607.36138,0.00510
3605.30120,0.00672
3603.24103,0.00771
3601.18086,0.00829
3599.12069,0.00810
3597.06052,0.00770
3595.00034,0.00817
3592.94017,0.00879
3590.88000,0.00864
3588.81983,0.00806
3586.75966,0.00759
3584.69948,0.00767
3582.63931,0.00833
3580.57914,0.00923
3578.51897,0.01027
3576.45879,0.01104
3574.39862,0.01116
3572.33845,0.01110
3570.27828,0.01130
3568.21811,0.01172
3566.15793,0.01230
3564.09776,0.01276
3562.03759,0.01304
3559.97742,0.01338
3557.91725,0.01386
3555.85707,0.01431
3553.79690,0.01443
3551.73673,0.01429
3549.67656,0.01410
3547.61639,0.01400
3545.55621,0.01443
3543.49604,0.01558
3541.43587,0.01670
3539.37570,0.01705
3537.31552,0.01700
3535.25535,0.01724
3533.19518,0.01760
3531.13501,0.01782
3529.07484,0.01814
3527.01466,0.01874
3524.95449,0.01938
3522.89432,0.01988
3520.83415,0.02048
3518.77398,0.02160
3516.71380,0.02302
3514.65363,0.02390
3512.59346,0.02391
3510.53329,0.02350
3508.47312,0.02324
3506.41294,0.02328
3504.35277,0.02361
3502.29260,0.02417
3500.23243,0.02483
3498.17225,0.02549
3496.11208,0.02617
3494.05191,0.02686
3491.99174,0.02737
3489.93157,0.02759
3487.87139,0.02758
3485.81122,0.02773
3483.75105,0.02828
3481.69088,0.02879
3479.63071,0.02890
3477.57053,0.02916
3475.51036,0.02984
3473.45019,0.03039
3471.39002,0.03093
3469.32984,0.03179
3467.26967,0.03238
3465.20950,0.03250
3463.14933,0.03257
3461.08916,0.03270
3459.02898,0.03295
3456.96881,0.03332
3454.90864,0.03369
3452.84847,0.03402
3450.78830,0.03427
3448.72812,0.03485
3446.66795,0.03575
3444.60778,0.03627
3442.54761,0.03640
3440.48744,0.03667
3438.42726,0.03701
3436.36709,0.03712
3434.30692,0.03710
3432.24675,0.03739
3430.18657,0.03810
3428.12640,0.03874
3426.06623,0.03893
3424.00606,0.03895
3421.94589,0.03931
3419.88571,0.03988
3417.82554,0.04022
3415.76537,0.04060
3413.70520,0.04122
3411.64503,0.04178
3409.58485,0.04216
3407.52468,0.04249
3405.46451,0.04271
3403.40434,0.04256
3401.34416,0.04259
3399.28399,0.04329
3397.22382,0.04398
3395.16365,0.04421
3393.10348,0.04405
3391.04330,0.04388
3388.98313,0.04408
3386.92296,0.04434
3384.86279,0.04439
3382.80262,0.04465
3380.74244,0.04511
3378.68227,0.04570
3376.62210,0.04646
3374.56193,0.04674
3372.50176,0.04664
3370.44158,0.04712
3368.38141,0.04794
3366.32124,0.04809
3364.26107,0.04775
3362.20089,0.04767
3360.14072,0.04773
3358.08055,0.04755
3356.02038,0.04754
3353.96021,0.04816
3351.90003,0.04914
3349.83986,0.04969
3347.77969,0.04938
3345.71952,0.04884
3343.65935,0.04891
3341.59917,0.04936
3339.53900,0.04956
3337.47883,0.04944
3335.41866,0.04940
3333.35849,0.04987
3331.29831,0.05055
3329.23814,0.05080
3327.17797,0.05053
3325.11780,0.05001
3323.05762,0.04967
3320.99745,0.04970
3318.93728,0.04982
3316.87711,0.04989
3314.81694,0.05011
3312.75676,0.05049
3310.69659,0.05085
3308.63642,0.05110
3306.57625,0.05130
3304.51608,0.05106
3302.45590,0.05051
3300.39573,0.05047
3298.33556,0.05074
3296.27539,0.05087
3294.21521,0.05101
3292.15504,0.05115
3290.09487,0.05111
3288.03470,0.05097
3285.97453,0.05113
3283.91435,0.05159
3281.85418,0.05169
3279.79401,0.05134
3277.73384,0.05109
3275.67367,0.05100
3273.61349,0.05088
3271.55332,0.05066
3269.49315,0.05038
3267.43298,0.05026
3265.37281,0.05027
3263.31263,0.05020
3261.25246,0.05022
3259.19229,0.05065
3257.13212,0.05130
3255.07194,0.05153
3253.01177,0.05113
3250.95160,0.05052
3248.89143,0.05002
3246.83126,0.04968
3244.77108,0.04958
3242.71091,0.04972
3240.65074,0.04979
3238.59057,0.04975
3236.53040,0.04983
3234.47022,0.04965
3232.41005,0.04921
3230.34988,0.04912
3228.28971,0.04936
3226.22954,0.04924
3224.16936,0.04865
3222.10919,0.04796
3220.04902,0.04736
3217.98885,0.04714
3215.92867,0.04742
3213.86850,0.04782
3211.80833,0.04798
3209.74816,0.04776
3207.68799,0.04746
3205.62781,0.04737
3203.56764,0.04697
3201.50747,0.04624
3199.44730,0.04608
3197.38713,0.04656
3195.32695,0.04690
3193.26678,0.04670
3191.20661,0.04603
3189.14644,0.04567
3187.08626,0.04608
3185.02609,0.04634
3182.96592,0.04580
3180.90575,0.04495
3178.84558,0.04424
3176.78540,0.04399
3174.72523,0.04396
3172.66506,0.04354
3170.60489,0.04292
3168.54472,0.04275
3166.48454,0.04305
3164.42437,0.04320
3162.36420,0.04258
3160.30403,0.04154
3158.24386,0.04106
3156.18368,0.04117
3154.12351,0.04119
3152.06334,0.04097
3150.00317,0.04070
3147.94299,0.04041
3145.88282,0.04004
3143.82265,0.03986
3141.76248,0.03993
3139.70231,0.03969
3137.64213,0.03919
3135.58196,0.03876
3133.52179,0.03829
3131.46162,0.03778
3129.40145,0.03743
3127.34127,0.03739
3125.28110,0.03748
3123.22093,0.03740
3121.16076,0.03713
3119.10058,0.03698
3117.04041,0.03703
3114.98024,0.03716
3112.92007,0.03724
3110.85990,0.03690
3108.79972,0.03628
3106.73955,0.03601
3104.67938,0.03576
3102.61921,0.03512
3100.55904,0.03461
3098.49886,0.03439
3096.43869,0.03403
3094.37852,0.03380
3092.31835,0.03384
3090.25818,0.03351
3088.19800,0.03289
3086.13783,0.03279
3084.07766,0.03313
3082.01749,0.03316
3079.95731,0.03271
3077.89714,0.03225
3075.83697,0.03215
3073.77680,0.03210
3071.71663,0.03177
3069.65645,0.03137
3067.59628,0.03104
3065.53611,0.03054
3063.47594,0.02985
3061.41577,0.02922
3059.35559,0.02886
3057.29542,0.02896
3055.23525,0.02927
3053.17508,0.02899
3051.11491,0.02833
3049.05473,0.02812
3046.99456,0.02822
3044.93439,0.02803
3042.87422,0.02750
3040.81404,0.02707
3038.75387,0.02709
3036.69370,0.02721
3034.63353,0.02694
3032.57336,0.02638
3030.51318,0.02617
3028.45301,0.02624
3026.39284,0.02607
3024.33267,0.02579
3022.27250,0.02550
3020.21232,0.02494
3018.15215,0.02454
3016.09198,0.02472
3014.03181,0.02508
3011.97163,0.02501
3009.91146,0.02458
3007.85129,0.02403
3005.79112,0.02350
3003.73095,0.02341
3001.67077,0.02376
2999.61060,0.02396
2997.55043,0.02370
2995.49026,0.02320
2993.43009,0.02290
2991.36991,0.02287
2989.30974,0.02292
2987.24957,0.02304
2985.18940,0.02327
2983.12923,0.02335
2981.06905,0.02318
2979.00888,0.02314
2976.94871,0.02358
2974.88854,0.02445
2972.82836,0.02541
2970.76819,0.02621
2968.70802,0.02696
2966.64785,0.02794
2964.58768,0.02907
2962.52750,0.03016
2960.46733,0.03141
2958.40716,0.03292
2956.34699,0.03455
2954.28682,0.03642
2952.22664,0.03850
2950.16647,0.04041
2948.10630,0.04210
2946.04613,0.04402
2943.98596,0.04620
2941.92578,0.04836
2939.86561,0.05054
2937.80544,0.05277
2935.74527,0.05488
2933.68509,0.05702
2931.62492,0.05927
2929.56475,0.06127
2927.50458,0.06298
2925.44441,0.06457
2923.38423,0.06580
2921.32406,0.06681
2919.26389,0.06761
2917.20372,0.06746
2915.14355,0.06576
2913.08337,0.06282
2911.02320,0.05987
2908.96303,0.05781
2906.90286,0.05641
2904.84268,0.05485
2902.78251,0.05292
2900.72234,0.05101
2898.66217,0.04931
2896.60200,0.04795
2894.54182,0.04692
2892.48165,0.04581
2890.42148,0.04477
2888.36131,0.04423
2886.30114,0.04393
2884.24096,0.04339
2882.18079,0.04262
2880.12062,0.04193
2878.06045,0.04157
2876.00028,0.04157
2873.94010,0.04167
2871.87993,0.04192
2869.81976,0.04243
2867.75959,0.04293
2865.69941,0.04353
2863.63924,0.04468
2861.57907,0.04642
2859.51890,0.04828
2857.45873,0.04996
2855.39855,0.05161
2853.33838,0.05303
2851.27821,0.05358
2849.21804,0.05273
2847.15787,0.05037
2845.09769,0.04715
2843.03752,0.04414
2840.97735,0.04151
2838.91718,0.03912
2836.85700,0.03730
2834.79683,0.03603
2832.73666,0.03483
2830.67649,0.03348
2828.61632,0.03233
2826.55614,0.03167
2824.49597,0.03128
2822.43580,0.03082
2820.37563,0.03037
2818.31546,0.03006
2816.25528,0.02962
2814.19511,0.02903
2812.13494,0.02856
2810.07477,0.02804
2808.01460,0.02722
2805.95442,0.02656
2803.89425,0.02647
2801.83408,0.02671
2799.77391,0.02678
2797.71373,0.02634
2795.65356,0.02575
2793.59339,0.02565
2791.53322,0.02577
2789.47305,0.02567
2787.41287,0.02526
2785.35270,0.02461
2783.29253,0.02399
2781.23236,0.02366
2779.17219,0.02363
2777.11201,0.02347
2775.05184,0.02316
2772.99167,0.02315
2770.93150,0.02325
2768.87133,0.02328
2766.81115,0.02326
2764.75098,0.02313
2762.69081,0.02296
2760.63064,0.02280
2758.57046,0.02247
2756.51029,0.02208
2754.45012,0.02216
2752.38995,0.02256
2750.32978,0.02254
2748.26960,0.02227
2746.20943,0.02227
2744.14926,0.02238
2742.08909,0.02225
2740.02892,0.02212
2737.96874,0.02213
2735.90857,0.02197
2733.84840,0.02180
2731.78823,0.02176
2729.72805,0.02161
2727.66788,0.02156
2725.60771,0.02158
2723.54754,0.02146
2721.48737,0.02154
2719.42719,0.02167
2717.36702,0.02139
2715.30685,0.02088
2713.24668,0.02062
2711.18651,0.02072
2709.12633,0.02083
2707.06616,0.02079
2705.00599,0.02085
2702.94582,0.02088
2700.88565,0.02083
2698.82547,0.02095
2696.76530,0.02106
2694.70513,0.02105
2692.64496,0.02098
2690.58478,0.02071
2688.52461,0.02042
2686.46444,0.02017
2684.40427,0.01986
2682.34410,0.01991
2680.28392,0.02021
2678.22375,0.02001
2676.16358,0.01949
2674.10341,0.01937
2672.04324,0.01932
2669.98306,0.01913
2667.92289,0.01921
2665.86272,0.01939
2663.80255,0.01952
2661.74238,0.01967
2659.68220,0.01961
2657.62203,0.01926
2655.56186,0.01889
2653.50169,0.01871
2651.44151,0.01871
2649.38134,0.01856
2647.32117,0.01836
2645.26100,0.01840
2643.20083,0.01844
2641.14065,0.01829
2639.08048,0.01828
2637.02031,0.01862
2634.96014,0.01872
2632.89997,0.01834
2630.83979,0.01810
2628.77962,0.01794
2626.71945,0.01760
2624.65928,0.01742
2622.59910,0.01737
2620.53893,0.01730
2618.47876,0.01752
2616.41859,0.01788
2614.35842,0.01786
2612.29824,0.01773
2610.23807,0.01758
2608.17790,0.01682
2606.11773,0.01612
2604.05756,0.01632
2601.99738,0.01676
2599.93721,0.01635
2597.87704,0.01550
2595.81687,0.01548
2593.75670,0.01586
2591.69652,0.01578
2589.63635,0.01570
2587.57618,0.01570
2585.51601,0.01515
2583.45583,0.01456
2581.39566,0.01449
2579.33549,0.01477
2577.27532,0.01536
2575.21515,0.01578
2573.15497,0.01582
2571.09480,0.01580
2569.03463,0.01552
2566.97446,0.01528
2564.91429,0.01553
2562.85411,0.01556
2560.79394,0.01511
2558.73377,0.01488
2556.67360,0.01513
2554.61342,0.01546
2552.55325,0.01517
2550.49308,0.01461
2548.43291,0.01498
2546.37274,0.01578
2544.31256,0.01591
2542.25239,0.01556
2540.19222,0.01510
2538.13205,0.01476
2536.07188,0.01441
2534.01170,0.01376
2531.95153,0.01311
2529.89136,0.01275
2527.83119,0.01244
2525.77102,0.01236
2523.71084,0.01288
2521.65067,0.01353
2519.59050,0.01351
2517.53033,0.01290
2515.47015,0.01279
2513.40998,0.01337
2511.34981,0.01361
2509.28964,0.01326
2507.22947,0.01295
2505.16929,0.01303
2503.10912,0.01319
2501.04895,0.01301
2498.98878,0.01253
2496.92861,0.01201
2494.86843,0.01178
2492.80826,0.01196
2490.74809,0.01214
2488.68792,0.01203
2486.62775,0.01182
2484.56757,0.01191
2482.50740,0.01232
2480.44723,0.01228
2478.38706,0.01192
2476.32688,0.01199
2474.26671,0.01190
2472.20654,0.01160
2470.14637,0.01161
2468.08620,0.01144
2466.02602,0.01147
2463.96585,0.01220
2461.90568,0.01248
2459.84551,0.01207
2457.78534,0.01161
2455.72516,0.01157
2453.66499,0.01228
2451.60482,0.01295
2449.54465,0.01285
2447.48447,0.01238
2445.42430,0.01191
2443.36413,0.01161
2441.30396,0.01175
2439.24379,0.01185
2437.18361,0.01135
2435.12344,0.01079
2433.06327,0.01033
2431.00310,0.01030
2428.94293,0.01121
2426.88275,0.01193
2424.82258,0.01166
2422.76241,0.01099
2420.70224,0.01049
2418.64207,0.01044
2416.58189,0.01051
2414.52172,0.01015
2412.46155,0.00976
2410.40138,0.00981
2408.34120,0.01015
2406.28103,0.01025
2404.22086,0.00993
2402.16069,0.00995
2400.10052,0.01039
2398.04034,0.01071
2395.98017,0.01090
2393.92000,0.01111
2391.85983,0.01110
2389.79966,0.01077
2387.73948,0.01061
2385.67931,0.01079
2383.61914,0.01090
2381.55897,0.01089
2379.49880,0.01105
2377.43862,0.01132
2375.37845,0.01167
2373.31828,0.01274
2371.25811,0.01524
2369.19793,0.01729
2367.13776,0.01516
2365.07759,0.00959
2363.01742,0.00703
2360.95725,0.00898
2358.89707,0.01089
2356.83690,0.01134
2354.77673,0.01249
2352.71656,0.01273
2350.65639,0.01048
2348.59621,0.00852
2346.53604,0.00870
2344.47587,0.00810
2342.41570,0.00764
2340.35552,0.00825
2338.29535,0.00871
2336.23518,0.00848
2334.17501,0.00861
2332.11484,0.01005
2330.05466,0.01166
2327.99449,0.01247
2325.93432,0.01175
2323.87415,0.01005
2321.81398,0.00861
2319.75380,0.00880
2317.69363,0.00984
2315.63346,0.01095
2313.57329,0.01148
2311.51312,0.01108
2309.45294,0.01028
2307.39277,0.00987
2305.33260,0.01010
2303.27243,0.01039
2301.21225,0.01041
2299.15208,0.01022
2297.09191,0.00988
2295.03174,0.00940
2292.97157,0.00918
2290.91139,0.00954
2288.85122,0.00982
2286.79105,0.00926
2284.73088,0.00837
2282.67071,0.00798
2280.61053,0.00801
2278.55036,0.00826
2276.49019,0.00823
2274.43002,0.00748
2272.36984,0.00672
2270.30967,0.00658
2268.24950,0.00702
2266.18933,0.00779
2264.12916,0.00856
2262.06898,0.00907
2260.00881,0.00900
2257.94864,0.00825
2255.88847,0.00737
2253.82830,0.00696
2251.76812,0.00683
2249.70795,0.00624
2247.64778,0.00547
2245.58761,0.00622
2243.52744,0.00778
2241.46726,0.00789
2239.40709,0.00719
2237.34692,0.00707
2235.28675,0.00664
2233.22657,0.00610
2231.16640,0.00601
2229.10623,0.00600
2227.04606,0.00652
2224.98589,0.00706
2222.92571,0.00618
2220.86554,0.00445
2218.80537,0.00397
2216.74520,0.00426
2214.68503,0.00442
2212.62485,0.00544
2210.56468,0.00717
2208.50451,0.00866
2206.44434,0.00886
2204.38417,0.00796
2202.32399,0.00804
2200.26382,0.00797
2198.20365,0.00605
2196.14348,0.00506
2194.08330,0.00604
2192.02313,0.00625
2189.96296,0.00490
2187.90279,0.00384
2185.84262,0.00385
2183.78244,0.00366
2181.72227,0.00206
2179.66210,0.00165
2177.60193,0.00482
2175.54176,0.00736
2173.48158,0.00676
2171.42141,0.00610
2169.36124,0.00718
2167.30107,0.00842
2165.24089,0.00799
2163.18072,0.00699
2161.12055,0.00667
2159.06038,0.00590
2157.00021,0.00472
2154.94003,0.00513
2152.87986,0.00594
2150.81969,0.00498
2148.75952,0.00374
2146.69935,0.00342
2144.63917,0.00318
2142.57900,0.00329
2140.51883,0.00390
2138.45866,0.00480
2136.39849,0.00594
2134.33831,0.00567
2132.27814,0.00471
2130.21797,0.00546
2128.15780,0.00627
2126.09762,0.00562
2124.03745,0.00483
2121.97728,0.00471
2119.91711,0.00535
2117.85694,0.00620
2115.79676,0.00635
2113.73659,0.00575
2111.67642,0.00493
2109.61625,0.00488
2107.55608,0.00570
2105.49590,0.00638
2103.43573,0.00644
2101.37556,0.00523
2099.31539,0.00380
2097.25521,0.00392
2095.19504,0.00517
2093.13487,0.00643
2091.07470,0.00722
2089.01453,0.00744
2086.95435,0.00659
2084.89418,0.00501
2082.83401,0.00482
2080.77384,0.00608
2078.71367,0.00614
2076.65349,0.00475
2074.59332,0.00372
2072.53315,0.00305
2070.47298,0.00214
2068.41281,0.00182
2066.35263,0.00219
2064.29246,0.00287
2062.23229,0.00374
2060.17212,0.00402
2058.11194,0.00362
2056.05177,0.00334
2053.99160,0.00340
2051.93143,0.00347
2049.87126,0.00341
2047.81108,0.00314
2045.75091,0.00285
2043.69074,0.00326
2041.63057,0.00409
2039.57040,0.00366
2037.51022,0.00160
2035.45005,0.00028
2033.38988,0.00127
2031.32971,0.00365
2029.26954,0.00502
2027.20936,0.00347
2025.14919,0.00064
2023.08902,0.00032
2021.02885,0.00195
2018.96867,0.00223
2016.90850,0.00172
2014.84833,0.00193
2012.78816,0.00265
2010.72799,0.00398
2008.66781,0.00518
2006.60764,0.00480
2004.54747,0.00336
2002.48730,0.00229
2000.42713,0.00256
1998.36695,0.00328
1996.30678,0.00291
1994.24661,0.00264
1992.18644,0.00335
1990.12626,0.00424
1988.06609,0.00549
1986.00592,0.00629
1983.94575,0.00570
1981.88558,0.00483
1979.82540,0.00373
1977.76523,0.00198
1975.70506,0.00060
1973.64489,0.00049
1971.58472,0.00155
1969.52454,0.00213
1967.46437,0.00119
1965.40420,0.00056
1963.34403,0.00180
1961.28386,0.00316
1959.22368,0.00330
1957.16351,0.00294
1955.10334,0.00256
1953.04317,0.00228
1950.98299,0.00150
1948.92282,0.00016
1946.86265,0.00027
1944.80248,0.00202
1942.74231,0.00290
1940.68213,0.00254
1938.62196,0.00258
1936.56179,0.00334
1934.50162,0.00377
1932.44145,0.00349
1930.38127,0.00328
1928.32110,0.00354
1926.26093,0.00386
1924.20076,0.00381
1922.14059,0.00358
1920.08041,0.00328
1918.02024,0.00278
1915.96007,0.00248
1913.89990,0.00258
1911.83972,0.00282
1909.77955,0.00338
1907.71938,0.00408
1905.65921,0.00412
1903.59904,0.00349
1901.53886,0.00289
1899.47869,0.00253
1897.41852,0.00219
1895.35835,0.00205
1893.29818,0.00205
1891.23800,0.00191
1889.17783,0.00202
1887.11766,0.00239
1885.05749,0.00220
1882.99731,0.00183
1880.93714,0.00235
1878.87697,0.00320
1876.81680,0.00312
1874.75663,0.00222
1872.69645,0.00160
1870.63628,0.00177
1868.57611,0.00225
1866.51594,0.00242
1864.45577,0.00236
1862.39559,0.00225
1860.33542,0.00227
1858.27525,0.00246
1856.21508,0.00230
1854.15491,0.00180
1852.09473,0.00143
1850.03456,0.00110
1847.97439,0.00062
1845.91422,0.00047
1843.85404,0.00099
1841.79387,0.00187
1839.73370,0.00255
1837.67353,0.00271
1835.61336,0.00239
1833.55318,0.00177
1831.49301,0.00108
1829.43284,0.00075
1827.37267,0.00118
1825.31250,0.00187
1823.25232,0.00195
1821.19215,0.00150
1819.13198,0.00128
1817.07181,0.00163
1815.01163,0.00224
1812.95146,0.00255
1810.89129,0.00238
1808.83112,0.00206
1806.77095,0.00199
1804.71077,0.00209
1802.65060,0.00208
1800.59043,0.00190
1798.53026,0.00157
1796.47009,0.00103
1794.40991,0.00053
1792.34974,0.00047
1790.28957,0.00089
1788.22940,0.00127
1786.16923,0.00132
1784.10905,0.00100
1782.04888,0.00044
1779.98871,0.00017
1777.92854,0.00044
1775.86836,0.00069
1773.80819,0.00032
1771.74802,0.00000
1769.68785,0.00074
1767.62768,0.00201
1765.56750,0.00279
1763.50733,0.00303
1761.44716,0.00320
1759.38699,0.00362
1757.32682,0.00457
1755.26664,0.00606
1753.20647,0.00741
1751.14630,0.00842
1749.08613,0.00964
1747.02596,0.01107
1744.96578,0.01243
1742.90561,0.01381
1740.84544,0.01498
1738.78527,0.01542
1736.72509,0.01520
1734.66492,0.01514
1732.60475,0.01599
1730.54458,0.01707
1728.48441,0.01738
1726.42423,0.01711
1724.36406,0.01694
1722.30389,0.01710
1720.24372,0.01719
1718.18355,0.01681
1716.12337,0.01662
1714.06320,0.01721
1712.00303,0.01779
1709.94286,0.01774
1707.88268,0.01701
1705.82251,0.01591
1703.76234,0.01502
1701.70217,0.01454
1699.64200,0.01463
1697.58182,0.01571
1695.52165,0.01718
1693.46148,0.01806
1691.40131,0.01855
1689.34114,0.01936
1687.28096,0.02066
1685.22079,0.02295
1683.16062,0.02611
1681.10045,0.02828
1679.04028,0.02954
1676.98010,0.03072
1674.91993,0.03189
1672.85976,0.03277
1670.79959,0.03314
1668.73941,0.03312
1666.67924,0.03275
1664.61907,0.03192
1662.55890,0.03085
1660.49873,0.03016
1658.43855,0.02995
1656.37838,0.02970
1654.31821,0.02906
1652.25804,0.02831
1650.19787,0.02801
1648.13769,0.02810
1646.07752,0.02863
1644.01735,0.02927
1641.95718,0.02959
1639.89701,0.02960
1637.83683,0.02948
1635.77666,0.02988
1633.71649,0.03111
1631.65632,0.03214
1629.59614,0.03275
1627.53597,0.03329
1625.47580,0.03363
1623.41563,0.03369
1621.35546,0.03394
1619.29528,0.03449
1617.23511,0.03507
1615.17494,0.03563
1613.11477,0.03655
1611.05460,0.03799
1608.99442,0.03962
1606.93425,0.04083
1604.87408,0.04124
1602.81391,0.04082
1600.75373,0.03981
1598.69356,0.03846
1596.63339,0.03683
1594.57322,0.03525
1592.51305,0.03419
1590.45287,0.03373
1588.39270,0.03336
1586.33253,0.03255
1584.27236,0.03130
1582.21219,0.03000
1580.15201,0.02893
1578.09184,0.02791
1576.03167,0.02683
1573.97150,0.02596
1571.91133,0.02538
1569.85115,0.02487
1567.79098,0.02420
1565.73081,0.02315
1563.67064,0.02188
1561.61046,0.02062
1559.55029,0.01931
1557.49012,0.01829
1555.42995,0.01770
1553.36978,0.01715
1551.30960,0.01640
1549.24943,0.01548
1547.18926,0.01462
1545.12909,0.01373
1543.06892,0.01267
1541.00874,0.01170
1538.94857,0.01102
1536.88840,0.01044
1534.82823,0.00973
1532.76805,0.00908
1530.70788,0.00863
1528.64771,0.00802
1526.58754,0.00739
1524.52737,0.00726
1522.46719,0.00788
1520.40702,0.00948
1518.34685,0.01154
1516.28668,0.01329
1514.22651,0.01415
1512.16633,0.01366
1510.10616,0.01165
1508.04599,0.00856
1505.98582,0.00636
1503.92565,0.00609
1501.86547,0.00610
1499.80530,0.00558
1497.74513,0.00480
1495.68496,0.00405
1493.62478,0.00327
1491.56461,0.00241
1489.50444,0.00174
1487.44427,0.00145
1485.38410,0.00129
1483.32392,0.00125
1481.26375,0.00151
1479.20358,0.00202
1477.14341,0.00253
1475.08324,0.00337
1473.02306,0.00561
1470.96289,0.00902
1468.90272,0.01165
1466.84255,0.01329
1464.78238,0.01463
1462.72220,0.01577
1460.66203,0.01657
1458.60186,0.01738
1456.54169,0.01859
1454.48151,0.01993
1452.42134,0.02098
1450.36117,0.02171
1448.30100,0.02240
1446.24083,0.02325
1444.18065,0.02418
1442.12048,0.02525
1440.06031,0.02643
1438.00014,0.02750
1435.93997,0.02817
1433.87979,0.02832
1431.81962,0.02828
1429.75945,0.02836
1427.69928,0.02855
1425.63910,0.02871
1423.57893,0.02881
1421.51876,0.02896
1419.45859,0.02925
1417.39842,0.02956
1415.33824,0.02965
1413.27807,0.02933
1411.21790,0.02860
1409.15773,0.02774
1407.09756,0.02690
1405.03738,0.02603
1402.97721,0.02535
1400.91704,0.02471
1398.85687,0.02364
1396.79670,0.02238
1394.73652,0.02168
1392.67635,0.02162
1390.61618,0.02173
1388.55601,0.02190
1386.49583,0.02244
1384.43566,0.02329
1382.37549,0.02410
1380.31532,0.02466
1378.25515,0.02488
1376.19497,0.02499
1374.13480,0.02532
1372.07463,0.02578
1370.01446,0.02612
1367.95429,0.02627
1365.89411,0.02618
1363.83394,0.02576
1361.77377,0.02523
1359.71360,0.02488
1357.65343,0.02459
1355.59325,0.02425
1353.53308,0.02397
1351.47291,0.02383
1349.41274,0.02385
1347.35256,0.02396
1345.29239,0.02399
1343.23222,0.02375
1341.17205,0.02325
1339.11188,0.02276
1337.05170,0.02276
1334.99153,0.02322
1332.93136,0.02369
1330.87119,0.02392
1328.81102,0.02401
1326.75084,0.02413
1324.69067,0.02421
1322.63050,0.02414
1320.57033,0.02405
1318.51015,0.02405
1316.44998,0.02402
1314.38981,0.02382
1312.32964,0.02345
1310.26947,0.02306
1308.20929,0.02260
1306.14912,0.02182
1304.08895,0.02072
1302.02878,0.01967
1299.96861,0.01895
1297.90843,0.01841
1295.84826,0.01812
1293.78809,0.01833
1291.72792,0.01889
1289.66775,0.01945
1287.60757,0.01996
1285.54740,0.02041
1283.48723,0.02055
1281.42706,0.02028
1279.36688,0.02002
1277.30671,0.02024
1275.24654,0.02072
1273.18637,0.02084
1271.12620,0.02088
1269.06602,0.02160
1267.00585,0.02275
1264.94568,0.02358
1262.88551,0.02419
1260.82534,0.02492
1258.76516,0.02553
1256.70499,0.02604
1254.64482,0.02680
1252.58465,0.02771
1250.52447,0.02846
1248.46430,0.02887
1246.40413,0.02891
1244.34396,0.02887
1242.28379,0.02898
1240.22361,0.02897
1238.16344,0.02873
1236.10327,0.02840
1234.04310,0.02803
1231.98293,0.02749
1229.92275,0.02664
1227.86258,0.02566
1225.80241,0.02463
1223.74224,0.02335
1221.68207,0.02178
1219.62189,0.02018
1217.56172,0.01881
1215.50155,0.01746
1213.44138,0.01609
1211.38120,0.01501
1209.32103,0.01397
1207.26086,0.01268
1205.20069,0.01123
1203.14052,0.00983
1201.08034,0.00854
1199.02017,0.00711
1196.96000,0.00543
1194.89983,0.00378
1192.83966,0.00247
1190.77948,0.00157
1188.71931,0.00090
1186.65914,0.00035
1184.59897,0.00000
1182.53880,-0.00004
1180.47862,0.00046
1178.41845,0.00141
1176.35828,0.00264
1174.29811,0.00448
1172.23793,0.00727
1170.17776,0.01001
1168.11759,0.01179
1166.05742,0.01261
1163.99725,0.01298
1161.93707,0.01363
1159.87690,0.01428
1157.81673,0.01473
1155.75656,0.01548
1153.69639,0.01637
1151.63621,0.01717
1149.57604,0.01812
1147.51587,0.01917
1145.45570,0.02023
1143.39552,0.02124
1141.33535,0.02231
1139.27518,0.02338
1137.21501,0.02395
1135.15484,0.02401
1133.09466,0.02436
1131.03449,0.02547
1128.97432,0.02688
1126.91415,0.02824
1124.85398,0.02964
1122.79380,0.03108
1120.73363,0.03229
1118.67346,0.03330
1116.61329,0.03433
1114.55312,0.03550
1112.49294,0.03677
1110.43277,0.03809
1108.37260,0.03956
1106.31243,0.04097
1104.25225,0.04222
1102.19208,0.04352
1100.13191,0.04509
1098.07174,0.04704
1096.01157,0.04911
1093.95139,0.05102
1091.89122,0.05284
1089.83105,0.05481
1087.77088,0.05689
1085.71071,0.05893
1083.65053,0.06089
1081.59036,0.06285
1079.53019,0.06518
1077.47002,0.06774
1075.40985,0.07022
1073.34967,0.07291
1071.28950,0.07570
1069.22933,0.07778
1067.16916,0.07900
1065.10898,0.08024
1063.04881,0.08180
1060.98864,0.08320
1058.92847,0.08457
1056.86830,0.08640
1054.80812,0.08882
1052.74795,0.09130
1050.68778,0.09345
1048.62761,0.09566
1046.56744,0.09831
1044.50726,0.10124
1042.44709,0.10419
1040.38692,0.10697
1038.32675,0.10928
1036.26657,0.11108
1034.20640,0.11221
1032.14623,0.11238
1030.08606,0.11202
1028.02589,0.11195
1025.96571,0.11208
1023.90554,0.11172
1021.84537,0.11082
1019.78520,0.11007
1017.72503,0.10981
1015.66485,0.11002
1013.60468,0.11034
1011.54451,0.11068
1009.48434,0.11123
1007.42417,0.11101
1005.36399,0.10976
1003.30382,0.10895
1001.24365,0.10893
999.18348,0.10863
997.12330,0.10754
995.06313,0.10575
993.00296,0.10354
990.94279,0.10159
988.88262,0.09980
986.82244,0.09786
984.76227,0.09599
982.70210,0.09422
980.64193,0.09259
978.58176,0.09119
976.52158,0.08957
974.46141,0.08778
972.40124,0.08641
970.34107,0.08479
968.28089,0.08246
966.22072,0.08034
964.16055,0.07861
962.10038,0.07661
960.04021,0.07441
957.98003,0.07232
955.91986,0.07045
953.85969,0.06902
951.79952,0.06792
949.73935,0.06684
947.67917,0.06556
945.61900,0.06371
943.55883,0.06107
941.49866,0.05790
939.43849,0.05467
937.37831,0.05159
935.31814,0.04860
933.25797,0.04549
931.19780,0.04231
929.13762,0.03900
927.07745,0.03579
925.01728,0.03354
922.95711,0.03200
920.89694,0.03006
918.83676,0.02787
916.77659,0.02614
914.71642,0.02470
912.65625,0.02324
910.59608,0.02183
908.53590,0.02022
906.47573,0.01852
904.41556,0.01735
902.35539,0.01679
900.29522,0.01665
898.23504,0.01687
896.17487,0.01725
894.11470,0.01748
892.05453,0.01756
889.99435,0.01764
887.93418,0.01747
885.87401,0.01678
883.81384,0.01583
881.75367,0.01465
879.69349,0.01293
877.63332,0.01127
875.57315,0.01023
873.51298,0.00928
871.45281,0.00870
869.39263,0.00900
867.33246,0.00869
865.27229,0.00769
863.21212,0.00756
861.15194,0.00755
859.09177,0.00689
857.03160,0.00655
854.97143,0.00673
852.91126,0.00725
850.85108,0.00804
848.79091,0.00809
846.73074,0.00698
844.67057,0.00573
842.61040,0.00494
840.55022,0.00448
838.49005,0.00457
836.42988,0.00510
834.36971,0.00510
832.30954,0.00426
830.24936,0.00365
828.18919,0.00383
826.12902,0.00411
824.06885,0.00383
822.00867,0.00333
819.94850,0.00321
817.88833,0.00293
815.82816,0.00266
813.76799,0.00363
811.70781,0.00487
809.64764,0.00451
807.58747,0.00325
805.52730,0.00253
803.46713,0.00147
801.40695,0.00003
799.34678,0.00012
797.28661,0.00110
795.22644,0.00085
793.16627,-0.00012
791.10609,0.00009
789.04592,0.00135
786.98575,0.00172
784.92558,0.00133
782.86540,0.00193
780.80523,0.00262
778.74506,0.00218
776.68489,0.00218
774.62472,0.00299
772.56454,0.00337
770.50437,0.00305
768.44420,0.00194
766.38403,0.00088
764.32386,0.00111
762.26368,0.00161
760.20351,0.00170
758.14334,0.00215
756.08317,0.00234
754.02299,0.00158
751.96282,0.00066
749.90265,0.00000
747.84248,0.00058
745.78231,0.00250
743.72213,0.00246
741.66196,-0.00004
739.60179,-0.00171
737.54162,-0.00159
735.48145,-0.00141
733.42127,-0.00158
731.36110,-0.00190
729.30093,-0.00151
727.24076,0.00002
725.18059,0.00058
723.12041,0.00022
721.06024,0.00058
719.00007,0.00087
716.93990,0.00117
714.87972,0.00239
712.81955,0.00363
710.75938,0.00400
708.69921,0.00443
706.63904,0.00548
704.57886,0.00719
702.51869,0.00954
700.45852,0.01076
698.39835,0.00941
696.33818,0.00693
694.27800,0.00540
692.21783,0.00576
690.15766,0.00742
688.09749,0.00816
686.03731,0.00705
683.97714,0.00554
681.91697,0.00454
679.85680,0.00414
677.79663,0.00430
675.73645,0.00455
673.67628,0.00422
671.61611,0.00298
669.55594,0.00391
667.49577,0.00692
665.43559,0.00639
663.37542,0.00645
661.31525,0.00615
659.25508,0.00577
657.19491,0.00580
655.13473,0.00692
653.07456,0.00868
651.01439,0.00953
648.95422,0.00910
646.89404,0.00856
644.83387,0.00903
642.77370,0.00901
640.71353,0.00767
638.65336,0.00647
636.59318,0.00507
634.53301,0.00289
632.47284,0.00148
630.41267,0.00074
628.35250,0.00000
626.29232,-0.00098
624.23215,-0.00086
622.17198,0.00035
620.11181,0.00346
618.05164,0.00194
615.99146,-0.00207
613.93129,0.00160
611.87112,0.00485
609.81095,0.00071
607.75077,-0.00470
605.69060,-0.00621
603.63043,-0.00223
601.57026,0.00149
599.51009,0.00000
