3996.73391,0.00052
3994.67373,0.00054
3992.61356,0.00064
3990.55339,0.00084
3988.49322,0.00076
3986.43305,0.00032
3984.37287,0.00000
3982.31270,0.00009
3980.25253,0.00046
3978.19236,0.00072
3976.13219,0.00052
3974.07201,0.00026
3972.01184,0.00049
3969.95167,0.00092
3967.89150,0.00112
3965.83133,0.00111
3963.77115,0.00106
3961.71098,0.00100
3959.65081,0.00102
3957.59064,0.00111
3955.53046,0.00098
3953.47029,0.00079
3951.41012,0.00104
3949.34995,0.00154
3947.28978,0.00169
3945.22960,0.00149
3943.16943,0.00132
3941.10926,0.00130
3939.04909,0.00136
3936.98892,0.00147
3934.92874,0.00131
3932.86857,0.00080
3930.80840,0.00064
3928.74823,0.00122
3926.68805,0.00193
3924.62788,0.00229
3922.56771,0.00244
3920.50754,0.00238
3918.44737,0.00185
3916.38719,0.00096
3914.32702,0.00048
3912.26685,0.00100
3910.20668,0.00215
3908.14651,0.00289
3906.08633,0.00273
3904.02616,0.00211
3901.96599,0.00175
3899.90582,0.00169
3897.84565,0.00157
3895.78547,0.00137
3893.72530,0.00120
3891.66513,0.00125
3889.60496,0.00138
3887.54478,0.00122
3885.48461,0.00092
3883.42444,0.00088
3881.36427,0.00129
3879.30410,0.00210
3877.24392,0.00281
3875.18375,0.00307
3873.12358,0.00275
3871.06341,0.00180
3869.00324,0.00061
3866.94306,0.00000
3864.88289,0.00028
3862.82272,0.00115
3860.76255,0.00188
3858.70237,0.00205
3856.64220,0.00183
3854.58203,0.00126
3852.52186,0.00051
3850.46169,0.00047
3848.40151,0.00092
3846.34134,0.00120
3844.28117,0.00113
3842.22100,0.00086
3840.16083,0.00074
3838.10065,0.00103
3836.04048,0.00161
3833.98031,0.00189
3831.92014,0.00156
3829.85997,0.00116
3827.79979,0.00119
3825.73962,0.00151
3823.67945,0.00180
3821.61928,0.00218
3819.55910,0.00279
3817.49893,0.00322
3815.43876,0.00309
3813.37859,0.00260
3811.31842,0.00208
3809.25824,0.00159
3807.19807,0.00132
3805.13790,0.00159
3803.07773,0.00200
3801.01756,0.00212
3798.95738,0.00206
3796.89721,0.00198
3794.83704,0.00189
3792.77687,0.00181
3790.71670,0.00178
3788.65652,0.00184
3786.59635,0.00209
3784.53618,0.00230
3782.47601,0.00233
3780.41583,0.00235
3778.35566,0.00244
3776.29549,0.00243
3774.23532,0.00232
3772.17515,0.00215
3770.11497,0.00203
3768.05480,0.00210
3765.99463,0.00211
3763.93446,0.00189
3761.87429,0.00170
3759.81411,0.00191
3757.75394,0.00258
3755.69377,0.00299
3753.63360,0.00293
3751.57342,0.00271
3749.51325,0.00246
3747.45308,0.00237
3745.39291,0.00214
3743.33274,0.00161
3741.27256,0.00130
3739.21239,0.00095
3737.15222,0.00045
3735.09205,0.00064
3733.03188,0.00146
3730.97170,0.00150
3728.91153,0.00082
3726.85136,0.00048
3724.79119,0.00069
3722.73102,0.00074
3720.67084,0.00035
3718.61067,0.00009
3716.55050,0.00017
3714.49033,0.00050
3712.43015,0.00103
3710.36998,0.00144
3708.30981,0.00148
3706.24964,0.00122
3704.18947,0.00115
3702.12929,0.00141
3700.06912,0.00166
3698.00895,0.00183
3695.94878,0.00206
3693.88861,0.00194
3691.82843,0.00104
3689.76826,0.00007
3687.70809,0.00000
3685.64792,0.00038
3683.58775,0.00050
3681.52757,0.00064
3679.46740,0.00120
3677.40723,0.00198
3675.34706,0.00226
3673.28688,0.00151
3671.22671,0.00055
3669.16654,0.00042
3667.10637,0.00086
3665.04620,0.00128
3662.98602,0.00175
3660.92585,0.00200
3658.86568,0.00169
3656.80551,0.00117
3654.74534,0.00107
3652.68516,0.00152
3650.62499,0.00221
3648.56482,0.00273
3646.50465,0.00298
3644.44447,0.00325
3642.38430,0.00354
3640.32413,0.00379
3638.26396,0.00394
3636.20379,0.00385
3634.14361,0.00348
3632.08344,0.00316
3630.02327,0.00365
3627.96310,0.00478
3625.90293,0.00519
3623.84275,0.00478
3621.78258,0.00441
3619.72241,0.00412
3617.66224,0.00372
3615.60207,0.00372
3613.54189,0.00381
3611.48172,0.00374
3609.42155,0.00432
3607.36138,0.00587
3605.30120,0.00706
3603.24103,0.00729
3601.18086,0.00725
3599.12069,0.00719
3597.06052,0.00746
3595.00034,0.00807
3592.94017,0.00831
3590.88000,0.00801
3588.81983,0.00788
3586.75966,0.00795
3584.69948,0.00802
3582.63931,0.00812
3580.57914,0.00837
3578.51897,0.00896
3576.45879,0.00968
3574.39862,0.01008
3572.33845,0.01031
3570.27828,0.01054
3568.21811,0.01066
3566.15793,0.01103
3564.09776,0.01201
3562.03759,0.01320
3559.97742,0.01409
3557.91725,0.01444
3555.85707,0.01447
3553.79690,0.01452
3551.73673,0.01460
3549.67656,0.01464
3547.61639,0.01479
3545.55621,0.01527
3543.49604,0.01617
3541.43587,0.01702
3539.37570,0.01734
3537.31552,0.01742
3535.25535,0.01778
3533.19518,0.01832
3531.13501,0.01864
3529.07484,0.01878
3527.01466,0.01906
3524.95449,0.01943
3522.89432,0.01964
3520.83415,0.01998
3518.77398,0.02090
3516.71380,0.02217
3514.65363,0.02309
3512.59346,0.02341
3510.53329,0.02335
3508.47312,0.02332
3506.41294,0.02361
3504.35277,0.02411
3502.29260,0.02456
3500.23243,0.02501
3498.17225,0.02559
3496.11208,0.02611
3494.05191,0.02639
3491.99174,0.02670
3489.93157,0.02725
3487.87139,0.02778
3485.81122,0.02826
3483.75105,0.02883
3481.69088,0.02925
3479.63071,0.02940
3477.57053,0.02964
3475.51036,0.03014
3473.45019,0.03059
3471.39002,0.03103
3469.32984,0.03178
3467.26967,0.03236
3465.20950,0.03244
3463.14933,0.03228
3461.08916,0.03215
3459.02898,0.03244
3456.96881,0.03321
3454.90864,0.03403
3452.84847,0.03457
3450.78830,0.03500
3448.72812,0.03560
3446.66795,0.03620
3444.60778,0.03661
3442.54761,0.03698
3440.48744,0.03727
3438.42726,0.03731
3436.36709,0.03731
3434.30692,0.03747
3432.24675,0.03794
3430.18657,0.03888
3428.12640,0.03976
3426.06623,0.03996
3424.00606,0.03993
3421.94589,0.04030
3419.88571,0.04093
3417.82554,0.04147
3415.76537,0.04193
3413.70520,0.04243
3411.64503,0.04279
3409.58485,0.04292
3407.52468,0.04304
3405.46451,0.04322
3403.40434,0.04324
3401.34416,0.04333
3399.28399,0.04374
3397.22382,0.04438
3395.16365,0.04491
3393.10348,0.04498
3391.04330,0.04470
3388.98313,0.04453
3386.92296,0.04456
3384.86279,0.04474
3382.80262,0.04514
3380.74244,0.04566
3378.68227,0.04630
3376.62210,0.04718
3374.56193,0.04776
3372.50176,0.04778
3370.44158,0.04780
3368.38141,0.04798
3366.32124,0.04797
3364.26107,0.04786
3362.20089,0.04799
3360.14072,0.04836
3358.08055,0.04878
3356.02038,0.04920
3353.96021,0.04954
3351.90003,0.04990
3349.83986,0.05016
3347.77969,0.04991
3345.71952,0.04933
3343.65935,0.04920
3341.59917,0.04969
3339.53900,0.05016
3337.47883,0.05023
3335.41866,0.05029
3333.35849,0.05070
3331.29831,0.05114
3329.23814,0.05135
3327.17797,0.05133
3325.11780,0.05111
3323.05762,0.05090
3320.99745,0.05094
3318.93728,0.05104
3316.87711,0.05094
3314.81694,0.05095
3312.75676,0.05136
3310.69659,0.05187
3308.63642,0.05213
3306.57625,0.05220
3304.51608,0.05203
3302.45590,0.05153
3300.39573,0.05122
3298.33556,0.05148
3296.27539,0.05197
3294.21521,0.05226
3292.15504,0.05232
3290.09487,0.05238
3288.03470,0.05249
3285.97453,0.05259
3283.91435,0.05270
3281.85418,0.05272
3279.79401,0.05256
3277.73384,0.05235
3275.67367,0.05217
3273.61349,0.05213
3271.55332,0.05212
3269.49315,0.05195
3267.43298,0.05183
3265.37281,0.05167
3263.31263,0.05121
3261.25246,0.05106
3259.19229,0.05143
3257.13212,0.05155
3255.07194,0.05136
3253.01177,0.05129
3250.95160,0.05116
3248.89143,0.05089
3246.83126,0.05077
3244.77108,0.05082
3242.71091,0.05083
3240.65074,0.05075
3238.59057,0.05075
3236.53040,0.05087
3234.47022,0.05075
3232.41005,0.05035
3230.34988,0.05007
3228.28971,0.05003
3226.22954,0.04977
3224.16936,0.04911
3222.10919,0.04855
3220.04902,0.04832
3217.98885,0.04827
3215.92867,0.04850
3213.86850,0.04883
3211.80833,0.04876
3209.74816,0.04834
3207.68799,0.04811
3205.62781,0.04809
3203.56764,0.04775
3201.50747,0.04710
3199.44730,0.04677
3197.38713,0.04697
3195.32695,0.04736
3193.26678,0.04753
3191.20661,0.04716
3189.14644,0.04657
3187.08626,0.04639
3185.02609,0.04631
3182.96592,0.04574
3180.90575,0.04507
3178.84558,0.04481
3176.78540,0.04471
3174.72523,0.04431
3172.66506,0.04366
3170.60489,0.04325
3168.54472,0.04317
3166.48454,0.04320
3164.42437,0.04320
3162.36420,0.04298
3160.30403,0.04258
3158.24386,0.04228
3156.18368,0.04211
3154.12351,0.04198
3152.06334,0.04182
3150.00317,0.04174
3147.94299,0.04174
3145.88282,0.04135
3143.82265,0.04071
3141.76248,0.04034
3139.70231,0.04013
3137.64213,0.03984
3135.58196,0.03943
3133.52179,0.03883
3131.46162,0.03823
3129.40145,0.03791
3127.34127,0.03797
3125.28110,0.03815
3123.22093,0.03802
3121.16076,0.03764
3119.10058,0.03744
3117.04041,0.03733
3114.98024,0.03703
3112.92007,0.03648
3110.85990,0.03592
3108.79972,0.03561
3106.73955,0.03564
3104.67938,0.03571
3102.61921,0.03539
3100.55904,0.03475
3098.49886,0.03429
3096.43869,0.03403
3094.37852,0.03389
3092.31835,0.03383
3090.25818,0.03359
3088.19800,0.03328
3086.13783,0.03312
3084.07766,0.03305
3082.01749,0.03295
3079.95731,0.03262
3077.89714,0.03208
3075.83697,0.03171
3073.77680,0.03154
3071.71663,0.03145
3069.65645,0.03135
3067.59628,0.03111
3065.53611,0.03062
3063.47594,0.03013
3061.41577,0.02991
3059.35559,0.02982
3057.29542,0.02978
3055.23525,0.02979
3053.17508,0.02956
3051.11491,0.02905
3049.05473,0.02853
3046.99456,0.02816
3044.93439,0.02792
3042.87422,0.02765
3040.81404,0.02749
3038.75387,0.02748
3036.69370,0.02738
3034.63353,0.02699
3032.57336,0.02652
3030.51318,0.02627
3028.45301,0.02608
3026.39284,0.02583
3024.33267,0.02565
3022.27250,0.02547
3020.21232,0.02514
3018.15215,0.02489
3016.09198,0.02511
3014.03181,0.02553
3011.97163,0.02536
3009.91146,0.02466
3007.85129,0.02413
3005.79112,0.02377
3003.73095,0.02362
3001.67077,0.02374
2999.61060,0.02380
2997.55043,0.02372
2995.49026,0.02357
2993.43009,0.02337
2991.36991,0.02325
2989.30974,0.02320
2987.24957,0.02314
2985.18940,0.02321
2983.12923,0.02340
2981.06905,0.02356
2979.00888,0.02380
2976.94871,0.02419
2974.88854,0.02473
2972.82836,0.02550
2970.76819,0.02646
2968.70802,0.02756
2966.64785,0.02869
2964.58768,0.02971
2962.52750,0.03068
2960.46733,0.03195
2958.40716,0.03369
2956.34699,0.03547
2954.28682,0.03720
2952.22664,0.03909
2950.16647,0.04100
2948.10630,0.04292
2946.04613,0.04508
2943.98596,0.04737
2941.92578,0.04968
2939.86561,0.05219
2937.80544,0.05456
2935.74527,0.05669
2933.68509,0.05906
2931.62492,0.06157
2929.56475,0.06373
2927.50458,0.06540
2925.44441,0.06688
2923.38423,0.06829
2921.32406,0.06946
2919.26389,0.06997
2917.20372,0.06943
2915.14355,0.06786
2913.08337,0.06536
2911.02320,0.06247
2908.96303,0.05992
2906.90286,0.05792
2904.84268,0.05613
2902.78251,0.05434
2900.72234,0.05257
2898.66217,0.05087
2896.60200,0.04939
2894.54182,0.04813
2892.48165,0.04699
2890.42148,0.04602
2888.36131,0.04531
2886.30114,0.04481
2884.24096,0.04425
2882.18079,0.04343
2880.12062,0.04262
2878.06045,0.04220
2876.00028,0.04218
2873.94010,0.04247
2871.87993,0.04310
2869.81976,0.04371
2867.75959,0.04403
2865.69941,0.04455
2863.63924,0.04582
2861.57907,0.04747
2859.51890,0.04912
2857.45873,0.05097
2855.39855,0.05291
2853.33838,0.05439
2851.27821,0.05492
2849.21804,0.05405
2847.15787,0.05164
2845.09769,0.04835
2843.03752,0.04516
2840.97735,0.04233
2838.91718,0.03978
2836.85700,0.03790
2834.79683,0.03674
2832.73666,0.03553
2830.67649,0.03403
2828.61632,0.03285
2826.55614,0.03224
2824.49597,0.03178
2822.43580,0.03124
2820.37563,0.03071
2818.31546,0.03021
2816.25528,0.02980
2814.19511,0.02953
2812.13494,0.02921
2810.07477,0.02863
2808.01460,0.02783
2805.95442,0.02718
2803.89425,0.02698
2801.83408,0.02707
2799.77391,0.02706
2797.71373,0.02668
2795.65356,0.02614
2793.59339,0.02596
2791.53322,0.02605
2789.47305,0.02589
2787.41287,0.02543
2785.35270,0.02494
2783.29253,0.02467
2781.23236,0.02451
2779.17219,0.02427
2777.11201,0.02401
2775.05184,0.02400
2772.99167,0.02415
2770.93150,0.02401
2768.87133,0.02371
2766.81115,0.02359
2764.75098,0.02362
2762.69081,0.02357
2760.63064,0.02341
2758.57046,0.02318
2756.51029,0.02290
2754.45012,0.02286
2752.38995,0.02303
2750.32978,0.02299
2748.26960,0.02285
2746.20943,0.02287
2744.14926,0.02282
2742.08909,0.02250
2740.02892,0.02232
2737.96874,0.02249
2735.90857,0.02250
2733.84840,0.02228
2731.78823,0.02215
2729.72805,0.02207
2727.66788,0.02209
2725.60771,0.02209
2723.54754,0.02203
2721.48737,0.02203
2719.42719,0.02200
2717.36702,0.02178
2715.30685,0.02149
2713.24668,0.02129
2711.18651,0.02126
2709.12633,0.02121
2707.06616,0.02101
2705.00599,0.02085
2702.94582,0.02062
2700.88565,0.02049
2698.82547,0.02064
2696.76530,0.02075
2694.70513,0.02083
2692.64496,0.02092
2690.58478,0.02082
2688.52461,0.02081
2686.46444,0.02076
2684.40427,0.02043
2682.34410,0.02039
2680.28392,0.02073
2678.22375,0.02072
2676.16358,0.02036
2674.10341,0.02020
2672.04324,0.02017
2669.98306,0.01999
2667.92289,0.01976
2665.86272,0.01967
2663.80255,0.01987
2661.74238,0.02015
2659.68220,0.02000
2657.62203,0.01947
2655.56186,0.01897
2653.50169,0.01872
2651.44151,0.01877
2649.38134,0.01885
2647.32117,0.01890
2645.26100,0.01908
2643.20083,0.01905
2641.14065,0.01876
2639.08048,0.01858
2637.02031,0.01861
2634.96014,0.01848
2632.89997,0.01816
2630.83979,0.01830
2628.77962,0.01859
2626.71945,0.01838
2624.65928,0.01802
2622.59910,0.01763
2620.53893,0.01719
2618.47876,0.01712
2616.41859,0.01730
2614.35842,0.01735
2612.29824,0.01737
2610.23807,0.01733
2608.17790,0.01698
2606.11773,0.01670
2604.05756,0.01696
2601.99738,0.01716
2599.93721,0.01665
2597.87704,0.01617
2595.81687,0.01644
2593.75670,0.01668
2591.69652,0.01653
2589.63635,0.01656
2587.57618,0.01651
2585.51601,0.01581
2583.45583,0.01509
2581.39566,0.01500
2579.33549,0.01530
2577.27532,0.01563
2575.21515,0.01571
2573.15497,0.01552
2571.09480,0.01543
2569.03463,0.01548
2566.97446,0.01559
2564.91429,0.01579
2562.85411,0.01576
2560.79394,0.01514
2558.73377,0.01465
2556.67360,0.01494
2554.61342,0.01534
2552.55325,0.01518
2550.49308,0.01475
2548.43291,0.01483
2546.37274,0.01531
2544.31256,0.01530
2542.25239,0.01462
2540.19222,0.01396
2538.13205,0.01371
2536.07188,0.01377
2534.01170,0.01378
2531.95153,0.01359
2529.89136,0.01345
2527.83119,0.01327
2525.77102,0.01296
2523.71084,0.01320
2521.65067,0.01378
2519.59050,0.01370
2517.53033,0.01302
2515.47015,0.01266
2513.40998,0.01296
2511.34981,0.01311
2509.28964,0.01284
2507.22947,0.01279
2505.16929,0.01291
2503.10912,0.01286
2501.04895,0.01271
2498.98878,0.01264
2496.92861,0.01262
2494.86843,0.01246
2492.80826,0.01244
2490.74809,0.01273
2488.68792,0.01287
2486.62775,0.01268
2484.56757,0.01254
2482.50740,0.01255
2480.44723,0.01223
2478.38706,0.01192
2476.32688,0.01220
2474.26671,0.01229
2472.20654,0.01202
2470.14637,0.01189
2468.08620,0.01164
2466.02602,0.01157
2463.96585,0.01200
2461.90568,0.01225
2459.84551,0.01192
2457.78534,0.01123
2455.72516,0.01111
2453.66499,0.01194
2451.60482,0.01261
2449.54465,0.01250
2447.48447,0.01204
2445.42430,0.01150
2443.36413,0.01105
2441.30396,0.01113
2439.24379,0.01134
2437.18361,0.01103
2435.12344,0.01089
2433.06327,0.01106
2431.00310,0.01095
2428.94293,0.01096
2426.88275,0.01116
2424.82258,0.01106
2422.76241,0.01080
2420.70224,0.01075
2418.64207,0.01099
2416.58189,0.01106
2414.52172,0.01071
2412.46155,0.01057
2410.40138,0.01066
2408.34120,0.01044
2406.28103,0.01003
2404.22086,0.00981
2402.16069,0.01010
2400.10052,0.01063
2398.04034,0.01087
2395.98017,0.01090
2393.92000,0.01097
2391.85983,0.01097
2389.79966,0.01075
2387.73948,0.01047
2385.67931,0.01028
2383.61914,0.01030
2381.55897,0.01065
2379.49880,0.01103
2377.43862,0.01099
2375.37845,0.01124
2373.31828,0.01215
2371.25811,0.01385
2369.19793,0.01608
2367.13776,0.01540
2365.07759,0.01067
2363.01742,0.00785
2360.95725,0.00830
2358.89707,0.01214
2356.83690,0.01475
2354.77673,0.01452
2352.71656,0.01274
2350.65639,0.00807
2348.59621,0.00590
2346.53604,0.01053
2344.47587,0.01098
2342.41570,0.01006
2340.35552,0.01030
2338.29535,0.00934
2336.23518,0.00812
2334.17501,0.00777
2332.11484,0.00929
2330.05466,0.01123
2327.99449,0.01229
2325.93432,0.01095
2323.87415,0.01010
2321.81398,0.01043
2319.75380,0.01126
2317.69363,0.01071
2315.63346,0.01096
2313.57329,0.01195
2311.51312,0.01189
2309.45294,0.01070
2307.39277,0.00970
2305.33260,0.00966
2303.27243,0.00996
2301.21225,0.01023
2299.15208,0.01030
2297.09191,0.01034
2295.03174,0.01027
2292.97157,0.01014
2290.91139,0.01013
2288.85122,0.01009
2286.79105,0.00965
2284.73088,0.00875
2282.67071,0.00797
2280.61053,0.00804
2278.55036,0.00870
2276.49019,0.00869
2274.43002,0.00772
2272.36984,0.00728
2270.30967,0.00782
2268.24950,0.00858
2266.18933,0.00953
2264.12916,0.01041
2262.06898,0.01044
2260.00881,0.00990
2257.94864,0.00942
2255.88847,0.00903
2253.82830,0.00872
2251.76812,0.00857
2249.70795,0.00830
2247.64778,0.00794
2245.58761,0.00810
2243.52744,0.00807
2241.46726,0.00730
2239.40709,0.00746
2237.34692,0.00824
2235.28675,0.00766
2233.22657,0.00703
2231.16640,0.00726
2229.10623,0.00718
2227.04606,0.00674
2224.98589,0.00645
2222.92571,0.00595
2220.86554,0.00485
2218.80537,0.00422
2216.74520,0.00411
2214.68503,0.00386
2212.62485,0.00424
2210.56468,0.00517
2208.50451,0.00592
2206.44434,0.00567
2204.38417,0.00475
2202.32399,0.00530
2200.26382,0.00665
2198.20365,0.00650
2196.14348,0.00601
2194.08330,0.00651
2192.02313,0.00623
2189.96296,0.00505
2187.90279,0.00468
2185.84262,0.00507
2183.78244,0.00553
2181.72227,0.00499
2179.66210,0.00413
2177.60193,0.00526
2175.54176,0.00656
2173.48158,0.00639
2171.42141,0.00640
2169.36124,0.00579
2167.30107,0.00385
2165.24089,0.00296
2163.18072,0.00358
2161.12055,0.00326
2159.06038,0.00173
2157.00021,0.00184
2154.94003,0.00450
2152.87986,0.00640
2150.81969,0.00551
2148.75952,0.00434
2146.69935,0.00402
2144.63917,0.00345
2142.57900,0.00327
2140.51883,0.00384
2138.45866,0.00450
2136.39849,0.00542
2134.33831,0.00569
2132.27814,0.00516
2130.21797,0.00571
2128.15780,0.00646
2126.09762,0.00606
2124.03745,0.00534
2121.97728,0.00523
2119.91711,0.00608
2117.85694,0.00682
2115.79676,0.00628
2113.73659,0.00517
2111.67642,0.00437
2109.61625,0.00412
2107.55608,0.00472
2105.49590,0.00586
2103.43573,0.00656
2101.37556,0.00594
2099.31539,0.00448
2097.25521,0.00395
2095.19504,0.00500
2093.13487,0.00630
2091.07470,0.00703
2089.01453,0.00715
2086.95435,0.00602
2084.89418,0.00426
2082.83401,0.00386
2080.77384,0.00492
2078.71367,0.00551
2076.65349,0.00539
2074.59332,0.00575
2072.53315,0.00571
2070.47298,0.00411
2068.41281,0.00250
2066.35263,0.00230
2064.29246,0.00312
2062.23229,0.00448
2060.17212,0.00531
2058.11194,0.00460
2056.05177,0.00359
2053.99160,0.00349
2051.93143,0.00350
2049.87126,0.00375
2047.81108,0.00469
2045.75091,0.00474
2043.69074,0.00448
2041.63057,0.00551
2039.57040,0.00559
2037.51022,0.00314
2035.45005,0.00092
2033.38988,0.00118
2031.32971,0.00202
2029.26954,0.00143
2027.20936,0.00051
2025.14919,0.00043
2023.08902,0.00133
2021.02885,0.00210
2018.96867,0.00169
2016.90850,0.00153
2014.84833,0.00182
2012.78816,0.00137
2010.72799,0.00131
2008.66781,0.00269
2006.60764,0.00422
2004.54747,0.00448
2002.48730,0.00330
2000.42713,0.00202
1998.36695,0.00141
1996.30678,0.00045
1994.24661,0.00001
1992.18644,0.00137
1990.12626,0.00265
1988.06609,0.00267
1986.00592,0.00250
1983.94575,0.00287
1981.88558,0.00364
1979.82540,0.00356
1977.76523,0.00225
1975.70506,0.00083
1973.64489,0.00074
1971.58472,0.00207
1969.52454,0.00268
1967.46437,0.00170
1965.40420,0.00088
1963.34403,0.00137
1961.28386,0.00239
1959.22368,0.00274
1957.16351,0.00241
1955.10334,0.00217
1953.04317,0.00218
1950.98299,0.00169
1948.92282,0.00038
1946.86265,0.00000
1944.80248,0.00134
1942.74231,0.00213
1940.68213,0.00178
1938.62196,0.00200
1936.56179,0.00266
1934.50162,0.00291
1932.44145,0.00334
1930.38127,0.00399
1928.32110,0.00384
1926.26093,0.00291
1924.20076,0.00235
1922.14059,0.00282
1920.08041,0.00338
1918.02024,0.00337
1915.96007,0.00340
1913.89990,0.00341
1911.83972,0.00314
1909.77955,0.00344
1907.71938,0.00435
1905.65921,0.00457
1903.59904,0.00383
1901.53886,0.00306
1899.47869,0.00275
1897.41852,0.00281
1895.35835,0.00293
1893.29818,0.00268
1891.23800,0.00222
1889.17783,0.00247
1887.11766,0.00319
1885.05749,0.00303
1882.99731,0.00235
1880.93714,0.00230
1878.87697,0.00256
1876.81680,0.00238
1874.75663,0.00197
1872.69645,0.00176
1870.63628,0.00179
1868.57611,0.00189
1866.51594,0.00194
1864.45577,0.00220
1862.39559,0.00262
1860.33542,0.00290
1858.27525,0.00288
1856.21508,0.00249
1854.15491,0.00194
1852.09473,0.00167
1850.03456,0.00160
1847.97439,0.00140
1845.91422,0.00120
1843.85404,0.00151
1841.79387,0.00214
1839.73370,0.00227
1837.67353,0.00198
1835.61336,0.00183
1833.55318,0.00180
1831.49301,0.00163
1829.43284,0.00153
1827.37267,0.00176
1825.31250,0.00211
1823.25232,0.00216
1821.19215,0.00180
1819.13198,0.00140
1817.07181,0.00144
1815.01163,0.00181
1812.95146,0.00201
1810.89129,0.00194
1808.83112,0.00183
1806.77095,0.00182
1804.71077,0.00180
1802.65060,0.00165
1800.59043,0.00142
1798.53026,0.00118
1796.47009,0.00092
1794.40991,0.00071
1792.34974,0.00070
1790.28957,0.00086
1788.22940,0.00098
1786.16923,0.00096
1784.10905,0.00069
1782.04888,0.00020
1779.98871,0.00000
1777.92854,0.00028
1775.86836,0.00052
1773.80819,0.00023
1771.74802,-0.00002
1769.68785,0.00055
1767.62768,0.00161
1765.56750,0.00242
1763.50733,0.00278
1761.44716,0.00307
1759.38699,0.00362
1757.32682,0.00466
1755.26664,0.00618
1753.20647,0.00769
1751.14630,0.00900
1749.08613,0.01030
1747.02596,0.01169
1744.96578,0.01303
1742.90561,0.01426
1740.84544,0.01527
1738.78527,0.01586
1736.72509,0.01596
1734.66492,0.01592
1732.60475,0.01633
1730.54458,0.01701
1728.48441,0.01733
1726.42423,0.01722
1724.36406,0.01706
1722.30389,0.01714
1720.24372,0.01745
1718.18355,0.01754
1716.12337,0.01734
1714.06320,0.01730
1712.00303,0.01736
1709.94286,0.01723
1707.88268,0.01678
1705.82251,0.01632
1703.76234,0.01619
1701.70217,0.01622
1699.64200,0.01625
1697.58182,0.01651
1695.52165,0.01705
1693.46148,0.01771
1691.40131,0.01854
1689.34114,0.01963
1687.28096,0.02094
1685.22079,0.02300
1683.16062,0.02597
1681.10045,0.02826
1679.04028,0.02980
1676.98010,0.03123
1674.91993,0.03268
1672.85976,0.03373
1670.79959,0.03400
1668.73941,0.03366
1666.67924,0.03308
1664.61907,0.03220
1662.55890,0.03113
1660.49873,0.03040
1658.43855,0.03015
1656.37838,0.02993
1654.31821,0.02926
1652.25804,0.02835
1650.19787,0.02795
1648.13769,0.02806
1646.07752,0.02858
1644.01735,0.02915
1641.95718,0.02946
1639.89701,0.02963
1637.83683,0.02991
1635.77666,0.03078
1633.71649,0.03198
1631.65632,0.03271
1629.59614,0.03307
1627.53597,0.03334
1625.47580,0.03351
1623.41563,0.03368
1621.35546,0.03406
1619.29528,0.03451
1617.23511,0.03495
1615.17494,0.03568
1613.11477,0.03689
1611.05460,0.03837
1608.99442,0.03994
1606.93425,0.04131
1604.87408,0.04192
1602.81391,0.04143
1600.75373,0.04014
1598.69356,0.03862
1596.63339,0.03702
1594.57322,0.03554
1592.51305,0.03446
1590.45287,0.03382
1588.39270,0.03331
1586.33253,0.03247
1584.27236,0.03120
1582.21219,0.02990
1580.15201,0.02884
1578.09184,0.02798
1576.03167,0.02714
1573.97150,0.02630
1571.91133,0.02549
1569.85115,0.02475
1567.79098,0.02412
1565.73081,0.02328
1563.67064,0.02208
1561.61046,0.02073
1559.55029,0.01939
1557.49012,0.01840
1555.42995,0.01772
1553.36978,0.01692
1551.30960,0.01600
1549.24943,0.01510
1547.18926,0.01437
1545.12909,0.01353
1543.06892,0.01212
1541.00874,0.01065
1538.94857,0.01018
1536.88840,0.01015
1534.82823,0.00958
1532.76805,0.00861
1530.70788,0.00786
1528.64771,0.00737
1526.58754,0.00708
1524.52737,0.00724
1522.46719,0.00803
1520.40702,0.00946
1518.34685,0.01117
1516.28668,0.01277
1514.22651,0.01357
1512.16633,0.01315
1510.10616,0.01159
1508.04599,0.00914
1505.98582,0.00697
1503.92565,0.00626
1501.86547,0.00607
1499.80530,0.00560
1497.74513,0.00482
1495.68496,0.00397
1493.62478,0.00315
1491.56461,0.00218
1489.50444,0.00122
1487.44427,0.00086
1485.38410,0.00095
1483.32392,0.00113
1481.26375,0.00152
1479.20358,0.00213
1477.14341,0.00276
1475.08324,0.00370
1473.02306,0.00577
1470.96289,0.00871
1468.90272,0.01120
1466.84255,0.01313
1464.78238,0.01483
1462.72220,0.01607
1460.66203,0.01676
1458.60186,0.01758
1456.54169,0.01913
1454.48151,0.02073
1452.42134,0.02164
1450.36117,0.02215
1448.30100,0.02281
1446.24083,0.02376
1444.18065,0.02475
1442.12048,0.02563
1440.06031,0.02656
1438.00014,0.02762
1435.93997,0.02851
1433.87979,0.02884
1431.81962,0.02886
1429.75945,0.02888
1427.69928,0.02898
1425.63910,0.02910
1423.57893,0.02914
1421.51876,0.02917
1419.45859,0.02946
1417.39842,0.02984
1415.33824,0.02985
1413.27807,0.02941
1411.21790,0.02871
1409.15773,0.02797
1407.09756,0.02717
1405.03738,0.02631
1402.97721,0.02562
1400.91704,0.02500
1398.85687,0.02406
1396.79670,0.02296
1394.73652,0.02219
1392.67635,0.02185
1390.61618,0.02179
1388.55601,0.02206
1386.49583,0.02267
1384.43566,0.02341
1382.37549,0.02415
1380.31532,0.02493
1378.25515,0.02558
1376.19497,0.02598
1374.13480,0.02624
1372.07463,0.02643
1370.01446,0.02654
1367.95429,0.02662
1365.89411,0.02660
1363.83394,0.02621
1361.77377,0.02561
1359.71360,0.02520
1357.65343,0.02497
1355.59325,0.02462
1353.53308,0.02415
1351.47291,0.02383
1349.41274,0.02381
1347.35256,0.02398
1345.29239,0.02405
1343.23222,0.02388
1341.17205,0.02355
1339.11188,0.02328
1337.05170,0.02327
1334.99153,0.02353
1332.93136,0.02386
1330.87119,0.02406
1328.81102,0.02417
1326.75084,0.02433
1324.69067,0.02453
1322.63050,0.02464
1320.57033,0.02461
1318.51015,0.02445
1316.44998,0.02422
1314.38981,0.02396
1312.32964,0.02364
1310.26947,0.02321
1308.20929,0.02263
1306.14912,0.02184
1304.08895,0.02094
1302.02878,0.02018
1299.96861,0.01962
1297.90843,0.01911
1295.84826,0.01880
1293.78809,0.01889
1291.72792,0.01924
1289.66775,0.01963
1287.60757,0.01998
1285.54740,0.02027
1283.48723,0.02043
1281.42706,0.02036
1279.36688,0.02020
1277.30671,0.02032
1275.24654,0.02064
1273.18637,0.02082
1271.12620,0.02100
1269.06602,0.02172
1267.00585,0.02288
1264.94568,0.02386
1262.88551,0.02452
1260.82534,0.02522
1258.76516,0.02597
1256.70499,0.02665
1254.64482,0.02721
1252.58465,0.02775
1250.52447,0.02837
1248.46430,0.02896
1246.40413,0.02945
1244.34396,0.02975
1242.28379,0.02976
1240.22361,0.02954
1238.16344,0.02924
1236.10327,0.02888
1234.04310,0.02842
1231.98293,0.02780
1229.92275,0.02693
1227.86258,0.02593
1225.80241,0.02475
1223.74224,0.02333
1221.68207,0.02194
1219.62189,0.02060
1217.56172,0.01911
1215.50155,0.01746
1213.44138,0.01592
1211.38120,0.01473
1209.32103,0.01368
1207.26086,0.01250
1205.20069,0.01115
1203.14052,0.00967
1201.08034,0.00819
1199.02017,0.00665
1196.96000,0.00511
1194.89983,0.00366
1192.83966,0.00228
1190.77948,0.00126
1188.71931,0.00064
1186.65914,0.00024
1184.59897,0.00000
1182.53880,-0.00000
1180.47862,0.00032
1178.41845,0.00105
1176.35828,0.00244
1174.29811,0.00454
1172.23793,0.00725
1170.17776,0.00984
1168.11759,0.01161
1166.05742,0.01264
1163.99725,0.01331
1161.93707,0.01393
1159.87690,0.01445
1157.81673,0.01492
1155.75656,0.01563
1153.69639,0.01642
1151.63621,0.01735
1149.57604,0.01861
1147.51587,0.01984
1145.45570,0.02083
1143.39552,0.02174
1141.33535,0.02273
1139.27518,0.02369
1137.21501,0.02440
1135.15484,0.02494
1133.09466,0.02546
1131.03449,0.02621
1128.97432,0.02749
1126.91415,0.02908
1124.85398,0.03054
1122.79380,0.03182
1120.73363,0.03300
1118.67346,0.03423
1116.61329,0.03558
1114.55312,0.03689
1112.49294,0.03819
1110.43277,0.03957
1108.37260,0.04097
1106.31243,0.04233
1104.25225,0.04361
1102.19208,0.04479
1100.13191,0.04615
1098.07174,0.04815
1096.01157,0.05076
1093.95139,0.05324
1091.89122,0.05497
1089.83105,0.05649
1087.77088,0.05848
1085.71071,0.06081
1083.65053,0.06303
1081.59036,0.06511
1079.53019,0.06749
1077.47002,0.07025
1075.40985,0.07303
1073.34967,0.07569
1071.28950,0.07824
1069.22933,0.08017
1067.16916,0.08145
1065.10898,0.08290
1063.04881,0.08448
1060.98864,0.08586
1058.92847,0.08739
1056.86830,0.08921
1054.80812,0.09140
1052.74795,0.09396
1050.68778,0.09657
1048.62761,0.09931
1046.56744,0.10250
1044.50726,0.10562
1042.44709,0.10811
1040.38692,0.11028
1038.32675,0.11242
1036.26657,0.11433
1034.20640,0.11578
1032.14623,0.11655
1030.08606,0.11672
1028.02589,0.11649
1025.96571,0.11600
1023.90554,0.11550
1021.84537,0.11501
1019.78520,0.11457
1017.72503,0.11440
1015.66485,0.11440
1013.60468,0.11444
1011.54451,0.11491
1009.48434,0.11569
1007.42417,0.11555
1005.36399,0.11433
1003.30382,0.11336
1001.24365,0.11307
999.18348,0.11260
997.12330,0.11133
995.06313,0.10954
993.00296,0.10776
990.94279,0.10601
988.88262,0.10385
986.82244,0.10147
984.76227,0.09951
982.70210,0.09781
980.64193,0.09597
978.58176,0.09409
976.52158,0.09246
974.46141,0.09112
972.40124,0.08975
970.34107,0.08796
968.28089,0.08578
966.22072,0.08372
964.16055,0.08181
962.10038,0.07948
960.04021,0.07704
957.98003,0.07520
955.91986,0.07370
953.85969,0.07215
951.79952,0.07070
949.73935,0.06945
947.67917,0.06798
945.61900,0.06599
943.55883,0.06378
941.49866,0.06132
939.43849,0.05822
937.37831,0.05473
935.31814,0.05112
933.25797,0.04749
931.19780,0.04412
929.13762,0.04104
927.07745,0.03818
925.01728,0.03590
922.95711,0.03404
920.89694,0.03195
918.83676,0.02974
916.77659,0.02772
914.71642,0.02593
912.65625,0.02445
910.59608,0.02293
908.53590,0.02123
906.47573,0.01998
904.41556,0.01924
902.35539,0.01851
900.29522,0.01790
898.23504,0.01791
896.17487,0.01834
894.11470,0.01858
892.05453,0.01881
889.99435,0.01922
887.93418,0.01914
885.87401,0.01832
883.81384,0.01722
881.75367,0.01567
879.69349,0.01352
877.63332,0.01156
875.57315,0.01030
873.51298,0.00935
871.45281,0.00881
869.39263,0.00893
867.33246,0.00895
865.27229,0.00861
863.21212,0.00859
861.15194,0.00847
859.09177,0.00773
857.03160,0.00708
854.97143,0.00692
852.91126,0.00708
850.85108,0.00749
848.79091,0.00764
846.73074,0.00708
844.67057,0.00629
842.61040,0.00566
840.55022,0.00508
838.49005,0.00485
836.42988,0.00522
834.36971,0.00584
832.30954,0.00604
830.24936,0.00591
828.18919,0.00556
826.12902,0.00455
824.06885,0.00372
822.00867,0.00385
819.94850,0.00426
817.88833,0.00396
815.82816,0.00356
813.76799,0.00451
811.70781,0.00566
809.64764,0.00507
807.58747,0.00380
805.52730,0.00311
803.46713,0.00220
801.40695,0.00138
799.34678,0.00155
797.28661,0.00178
795.22644,0.00092
793.16627,0.00000
791.10609,0.00042
789.04592,0.00132
786.98575,0.00132
784.92558,0.00112
782.86540,0.00163
780.80523,0.00176
778.74506,0.00102
776.68489,0.00084
774.62472,0.00129
772.56454,0.00116
770.50437,0.00081
768.44420,0.00077
766.38403,0.00082
764.32386,0.00098
762.26368,0.00073
760.20351,0.00046
758.14334,0.00121
756.08317,0.00191
754.02299,0.00119
751.96282,0.00000
749.90265,0.00000
747.84248,0.00129
745.78231,0.00189
743.72213,0.00075
741.66196,-0.00095
739.60179,-0.00165
737.54162,-0.00109
735.48145,-0.00055
733.42127,-0.00088
731.36110,-0.00135
729.30093,-0.00071
727.24076,0.00078
725.18059,0.00105
723.12041,0.00039
721.06024,0.00110
719.00007,0.00097
716.93990,0.00044
714.87972,0.00136
712.81955,0.00344
710.75938,0.00542
708.69921,0.00664
706.63904,0.00742
704.57886,0.00853
702.51869,0.00999
700.45852,0.01056
698.39835,0.00967
696.33818,0.00860
694.27800,0.00874
692.21783,0.01010
690.15766,0.01115
688.09749,0.01002
686.03731,0.00719
683.97714,0.00504
681.91697,0.00444
679.85680,0.00486
677.79663,0.00562
675.73645,0.00574
673.67628,0.00364
671.61611,0.00000
669.55594,0.00488
667.49577,0.01146
665.43559,0.00446
663.37542,0.00715
661.31525,0.00984
659.25508,0.00935
657.19491,0.00819
655.13473,0.00796
653.07456,0.00887
651.01439,0.00996
648.95422,0.01045
646.89404,0.01027
644.83387,0.01032
642.77370,0.00960
640.71353,0.00807
638.65336,0.00672
636.59318,0.00545
634.53301,0.00414
632.47284,0.00302
630.41267,0.00142
628.35250,0.00000
626.29232,-0.00011
624.23215,0.00156
622.17198,0.00234
620.11181,0.00347
618.05164,0.00406
615.99146,0.00144
613.93129,0.00005
611.87112,-0.00023
609.81095,-0.00343
607.75077,-0.00673
605.69060,-0.00666
603.63043,-0.00399
601.57026,-0.00136
599.51009,0.00000
