3996.73391,0.00019
3994.67373,0.00000
3992.61356,0.00013
3990.55339,0.00054
3988.49322,0.00096
3986.43305,0.00118
3984.37287,0.00119
3982.31270,0.00111
3980.25253,0.00098
3978.19236,0.00078
3976.13219,0.00068
3974.07201,0.00072
3972.01184,0.00071
3969.95167,0.00057
3967.89150,0.00049
3965.83133,0.00052
3963.77115,0.00048
3961.71098,0.00043
3959.65081,0.00052
3957.59064,0.00070
3955.53046,0.00077
3953.47029,0.00061
3951.41012,0.00045
3949.34995,0.00051
3947.28978,0.00059
3945.22960,0.00051
3943.16943,0.00046
3941.10926,0.00052
3939.04909,0.00041
3936.98892,0.00018
3934.92874,0.00015
3932.86857,0.00035
3930.80840,0.00049
3928.74823,0.00047
3926.68805,0.00043
3924.62788,0.00052
3922.56771,0.00068
3920.50754,0.00079
3918.44737,0.00083
3916.38719,0.00079
3914.32702,0.00067
3912.26685,0.00054
3910.20668,0.00056
3908.14651,0.00069
3906.08633,0.00068
3904.02616,0.00066
3901.96599,0.00074
3899.90582,0.00062
3897.84565,0.00034
3895.78547,0.00017
3893.72530,0.00005
3891.66513,0.00012
3889.60496,0.00053
3887.54478,0.00092
3885.48461,0.00092
3883.42444,0.00060
3881.36427,0.00047
3879.30410,0.00071
3877.24392,0.00094
3875.18375,0.00089
3873.12358,0.00066
3871.06341,0.00052
3869.00324,0.00063
3866.94306,0.00074
3864.88289,0.00075
3862.82272,0.00086
3860.76255,0.00103
3858.70237,0.00105
3856.64220,0.00085
3854.58203,0.00066
3852.52186,0.00083
3850.46169,0.00109
3848.40151,0.00120
3846.34134,0.00118
3844.28117,0.00091
3842.22100,0.00050
3840.16083,0.00048
3838.10065,0.00095
3836.04048,0.00121
3833.98031,0.00102
3831.92014,0.00092
3829.85997,0.00114
3827.79979,0.00135
3825.73962,0.00125
3823.67945,0.00100
3821.61928,0.00095
3819.55910,0.00115
3817.49893,0.00116
3815.43876,0.00094
3813.37859,0.00087
3811.31842,0.00099
3809.25824,0.00106
3807.19807,0.00101
3805.13790,0.00083
3803.07773,0.00050
3801.01756,0.00027
3798.95738,0.00033
3796.89721,0.00062
3794.83704,0.00090
3792.77687,0.00093
3790.71670,0.00075
3788.65652,0.00062
3786.59635,0.00073
3784.53618,0.00092
3782.47601,0.00094
3780.41583,0.00094
3778.35566,0.00105
3776.29549,0.00110
3774.23532,0.00104
3772.17515,0.00102
3770.11497,0.00107
3768.05480,0.00105
3765.99463,0.00090
3763.93446,0.00083
3761.87429,0.00084
3759.81411,0.00073
3757.75394,0.00051
3755.69377,0.00030
3753.63360,0.00006
3751.57342,0.00000
3749.51325,0.00049
3747.45308,0.00101
3745.39291,0.00121
3743.33274,0.00126
3741.27256,0.00114
3739.21239,0.00100
3737.15222,0.00110
3735.09205,0.00148
3733.03188,0.00190
3730.97170,0.00199
3728.91153,0.00166
3726.85136,0.00110
3724.79119,0.00074
3722.73102,0.00085
3720.67084,0.00113
3718.61067,0.00134
3716.55050,0.00155
3714.49033,0.00184
3712.43015,0.00203
3710.36998,0.00190
3708.30981,0.00158
3706.24964,0.00134
3704.18947,0.00116
3702.12929,0.00104
3700.06912,0.00106
3698.00895,0.00111
3695.94878,0.00114
3693.88861,0.00133
3691.82843,0.00173
3689.76826,0.00203
3687.70809,0.00192
3685.64792,0.00169
3683.58775,0.00157
3681.52757,0.00139
3679.46740,0.00113
3677.40723,0.00092
3675.34706,0.00063
3673.28688,0.00015
3671.22671,0.00000
3669.16654,0.00075
3667.10637,0.00173
3665.04620,0.00211
3662.98602,0.00204
3660.92585,0.00186
3658.86568,0.00170
3656.80551,0.00175
3654.74534,0.00194
3652.68516,0.00196
3650.62499,0.00188
3648.56482,0.00211
3646.50465,0.00250
3644.44447,0.00254
3642.38430,0.00232
3640.32413,0.00223
3638.26396,0.00231
3636.20379,0.00233
3634.14361,0.00231
3632.08344,0.00243
3630.02327,0.00262
3627.96310,0.00269
3625.90293,0.00267
3623.84275,0.00263
3621.78258,0.00253
3619.72241,0.00254
3617.66224,0.00284
3615.60207,0.00327
3613.54189,0.00355
3611.48172,0.00374
3609.42155,0.00402
3607.36138,0.00423
3605.30120,0.00414
3603.24103,0.00384
3601.18086,0.00363
3599.12069,0.00368
3597.06052,0.00396
3595.00034,0.00436
3592.94017,0.00477
3590.88000,0.00502
3588.81983,0.00508
3586.75966,0.00514
3584.69948,0.00542
3582.63931,0.00573
3580.57914,0.00583
3578.51897,0.00584
3576.45879,0.00583
3574.39862,0.00576
3572.33845,0.00579
3570.27828,0.00606
3568.21811,0.00632
3566.15793,0.00636
3564.09776,0.00644
3562.03759,0.00676
3559.97742,0.00715
3557.91725,0.00744
3555.85707,0.00761
3553.79690,0.00772
3551.73673,0.00799
3549.67656,0.00836
3547.61639,0.00855
3545.55621,0.00855
3543.49604,0.00855
3541.43587,0.00872
3539.37570,0.00893
3537.31552,0.00891
3535.25535,0.00871
3533.19518,0.00865
3531.13501,0.00889
3529.07484,0.00921
3527.01466,0.00939
3524.95449,0.00940
3522.89432,0.00947
3520.83415,0.00971
3518.77398,0.00992
3516.71380,0.01007
3514.65363,0.01021
3512.59346,0.01031
3510.53329,0.01038
3508.47312,0.01045
3506.41294,0.01047
3504.35277,0.01050
3502.29260,0.01075
3500.23243,0.01124
3498.17225,0.01159
3496.11208,0.01141
3494.05191,0.01107
3491.99174,0.01109
3489.93157,0.01130
3487.87139,0.01133
3485.81122,0.01132
3483.75105,0.01149
3481.69088,0.01181
3479.63071,0.01201
3477.57053,0.01197
3475.51036,0.01200
3473.45019,0.01221
3471.39002,0.01243
3469.32984,0.01270
3467.26967,0.01306
3465.20950,0.01332
3463.14933,0.01341
3461.08916,0.01339
3459.02898,0.01341
3456.96881,0.01350
3454.90864,0.01344
3452.84847,0.01320
3450.78830,0.01309
3448.72812,0.01346
3446.66795,0.01393
3444.60778,0.01408
3442.54761,0.01418
3440.48744,0.01429
3438.42726,0.01429
3436.36709,0.01432
3434.30692,0.01436
3432.24675,0.01443
3430.18657,0.01470
3428.12640,0.01503
3426.06623,0.01514
3424.00606,0.01504
3421.94589,0.01489
3419.88571,0.01487
3417.82554,0.01503
3415.76537,0.01515
3413.70520,0.01504
3411.64503,0.01500
3409.58485,0.01530
3407.52468,0.01564
3405.46451,0.01584
3403.40434,0.01599
3401.34416,0.01602
3399.28399,0.01617
3397.22382,0.01635
3395.16365,0.01628
3393.10348,0.01607
3391.04330,0.01609
3388.98313,0.01634
3386.92296,0.01663
3384.86279,0.01681
3382.80262,0.01697
3380.74244,0.01716
3378.68227,0.01725
3376.62210,0.01726
3374.56193,0.01725
3372.50176,0.01717
3370.44158,0.01709
3368.38141,0.01718
3366.32124,0.01732
3364.26107,0.01741
3362.20089,0.01749
3360.14072,0.01756
3358.08055,0.01770
3356.02038,0.01783
3353.96021,0.01786
3351.90003,0.01791
3349.83986,0.01796
3347.77969,0.01801
3345.71952,0.01812
3343.65935,0.01833
3341.59917,0.01852
3339.53900,0.01859
3337.47883,0.01853
3335.41866,0.01838
3333.35849,0.01831
3331.29831,0.01850
3329.23814,0.01871
3327.17797,0.01867
3325.11780,0.01852
3323.05762,0.01829
3320.99745,0.01809
3318.93728,0.01825
3316.87711,0.01872
3314.81694,0.01917
3312.75676,0.01934
3310.69659,0.01916
3308.63642,0.01885
3306.57625,0.01867
3304.51608,0.01863
3302.45590,0.01870
3300.39573,0.01881
3298.33556,0.01894
3296.27539,0.01929
3294.21521,0.01982
3292.15504,0.02014
3290.09487,0.02011
3288.03470,0.02006
3285.97453,0.01997
3283.91435,0.01965
3281.85418,0.01938
3279.79401,0.01938
3277.73384,0.01953
3275.67367,0.01966
3273.61349,0.01965
3271.55332,0.01950
3269.49315,0.01929
3267.43298,0.01926
3265.37281,0.01947
3263.31263,0.01979
3261.25246,0.01993
3259.19229,0.01976
3257.13212,0.01960
3255.07194,0.01979
3253.01177,0.02002
3250.95160,0.01986
3248.89143,0.01960
3246.83126,0.01975
3244.77108,0.02005
3242.71091,0.02012
3240.65074,0.02023
3238.59057,0.02041
3236.53040,0.02029
3234.47022,0.01996
3232.41005,0.01971
3230.34988,0.01950
3228.28971,0.01926
3226.22954,0.01920
3224.16936,0.01921
3222.10919,0.01908
3220.04902,0.01907
3217.98885,0.01926
3215.92867,0.01945
3213.86850,0.01960
3211.80833,0.01978
3209.74816,0.01988
3207.68799,0.01971
3205.62781,0.01943
3203.56764,0.01941
3201.50747,0.01947
3199.44730,0.01926
3197.38713,0.01901
3195.32695,0.01905
3193.26678,0.01918
3191.20661,0.01918
3189.14644,0.01905
3187.08626,0.01876
3185.02609,0.01851
3182.96592,0.01850
3180.90575,0.01866
3178.84558,0.01875
3176.78540,0.01865
3174.72523,0.01844
3172.66506,0.01827
3170.60489,0.01819
3168.54472,0.01813
3166.48454,0.01790
3164.42437,0.01764
3162.36420,0.01751
3160.30403,0.01740
3158.24386,0.01730
3156.18368,0.01739
3154.12351,0.01750
3152.06334,0.01738
3150.00317,0.01728
3147.94299,0.01731
3145.88282,0.01719
3143.82265,0.01689
3141.76248,0.01672
3139.70231,0.01679
3137.64213,0.01679
3135.58196,0.01651
3133.52179,0.01609
3131.46162,0.01583
3129.40145,0.01583
3127.34127,0.01577
3125.28110,0.01556
3123.22093,0.01542
3121.16076,0.01532
3119.10058,0.01523
3117.04041,0.01524
3114.98024,0.01532
3112.92007,0.01531
3110.85990,0.01513
3108.79972,0.01484
3106.73955,0.01463
3104.67938,0.01453
3102.61921,0.01443
3100.55904,0.01428
3098.49886,0.01410
3096.43869,0.01400
3094.37852,0.01400
3092.31835,0.01399
3090.25818,0.01380
3088.19800,0.01346
3086.13783,0.01324
3084.07766,0.01312
3082.01749,0.01299
3079.95731,0.01280
3077.89714,0.01262
3075.83697,0.01252
3073.77680,0.01252
3071.71663,0.01254
3069.65645,0.01245
3067.59628,0.01225
3065.53611,0.01214
3063.47594,0.01211
3061.41577,0.01206
3059.35559,0.01196
3057.29542,0.01188
3055.23525,0.01183
3053.17508,0.01186
3051.11491,0.01186
3049.05473,0.01171
3046.99456,0.01159
3044.93439,0.01154
3042.87422,0.01140
3040.81404,0.01118
3038.75387,0.01101
3036.69370,0.01093
3034.63353,0.01086
3032.57336,0.01069
3030.51318,0.01046
3028.45301,0.01031
3026.39284,0.01033
3024.33267,0.01031
3022.27250,0.01002
3020.21232,0.00966
3018.15215,0.00968
3016.09198,0.00996
3014.03181,0.01011
3011.97163,0.01002
3009.91146,0.00978
3007.85129,0.00960
3005.79112,0.00963
3003.73095,0.00968
3001.67077,0.00954
2999.61060,0.00936
2997.55043,0.00940
2995.49026,0.00953
2993.43009,0.00951
2991.36991,0.00942
2989.30974,0.00946
2987.24957,0.00959
2985.18940,0.00962
2983.12923,0.00959
2981.06905,0.00966
2979.00888,0.00985
2976.94871,0.00991
2974.88854,0.00974
2972.82836,0.00967
2970.76819,0.00982
2968.70802,0.01011
2966.64785,0.01047
2964.58768,0.01081
2962.52750,0.01097
2960.46733,0.01093
2958.40716,0.01096
2956.34699,0.01118
2954.28682,0.01138
2952.22664,0.01156
2950.16647,0.01190
2948.10630,0.01220
2946.04613,0.01227
2943.98596,0.01229
2941.92578,0.01251
2939.86561,0.01281
2937.80544,0.01303
2935.74527,0.01325
2933.68509,0.01351
2931.62492,0.01374
2929.56475,0.01391
2927.50458,0.01415
2925.44441,0.01456
2923.38423,0.01507
2921.32406,0.01549
2919.26389,0.01573
2917.20372,0.01573
2915.14355,0.01538
2913.08337,0.01473
2911.02320,0.01395
2908.96303,0.01334
2906.90286,0.01301
2904.84268,0.01285
2902.78251,0.01269
2900.72234,0.01247
2898.66217,0.01224
2896.60200,0.01202
2894.54182,0.01190
2892.48165,0.01189
2890.42148,0.01188
2888.36131,0.01191
2886.30114,0.01194
2884.24096,0.01182
2882.18079,0.01166
2880.12062,0.01150
2878.06045,0.01133
2876.00028,0.01132
2873.94010,0.01137
2871.87993,0.01119
2869.81976,0.01091
2867.75959,0.01073
2865.69941,0.01067
2863.63924,0.01065
2861.57907,0.01057
2859.51890,0.01049
2857.45873,0.01057
2855.39855,0.01090
2853.33838,0.01137
2851.27821,0.01170
2849.21804,0.01164
2847.15787,0.01104
2845.09769,0.01017
2843.03752,0.00962
2840.97735,0.00947
2838.91718,0.00926
2836.85700,0.00902
2834.79683,0.00887
2832.73666,0.00869
2830.67649,0.00844
2828.61632,0.00821
2826.55614,0.00811
2824.49597,0.00811
2822.43580,0.00809
2820.37563,0.00802
2818.31546,0.00795
2816.25528,0.00796
2814.19511,0.00799
2812.13494,0.00786
2810.07477,0.00775
2808.01460,0.00777
2805.95442,0.00776
2803.89425,0.00764
2801.83408,0.00752
2799.77391,0.00747
2797.71373,0.00740
2795.65356,0.00723
2793.59339,0.00711
2791.53322,0.00711
2789.47305,0.00710
2787.41287,0.00708
2785.35270,0.00714
2783.29253,0.00711
2781.23236,0.00692
2779.17219,0.00673
2777.11201,0.00661
2775.05184,0.00661
2772.99167,0.00677
2770.93150,0.00683
2768.87133,0.00675
2766.81115,0.00673
2764.75098,0.00677
2762.69081,0.00680
2760.63064,0.00686
2758.57046,0.00690
2756.51029,0.00676
2754.45012,0.00661
2752.38995,0.00656
2750.32978,0.00661
2748.26960,0.00670
2746.20943,0.00663
2744.14926,0.00645
2742.08909,0.00630
2740.02892,0.00628
2737.96874,0.00633
2735.90857,0.00633
2733.84840,0.00635
2731.78823,0.00641
2729.72805,0.00652
2727.66788,0.00658
2725.60771,0.00642
2723.54754,0.00616
2721.48737,0.00607
2719.42719,0.00614
2717.36702,0.00619
2715.30685,0.00620
2713.24668,0.00622
2711.18651,0.00623
2709.12633,0.00610
2707.06616,0.00587
2705.00599,0.00570
2702.94582,0.00569
2700.88565,0.00573
2698.82547,0.00568
2696.76530,0.00552
2694.70513,0.00549
2692.64496,0.00565
2690.58478,0.00579
2688.52461,0.00569
2686.46444,0.00558
2684.40427,0.00556
2682.34410,0.00543
2680.28392,0.00528
2678.22375,0.00521
2676.16358,0.00512
2674.10341,0.00494
2672.04324,0.00496
2669.98306,0.00530
2667.92289,0.00551
2665.86272,0.00540
2663.80255,0.00530
2661.74238,0.00533
2659.68220,0.00544
2657.62203,0.00565
2655.56186,0.00572
2653.50169,0.00559
2651.44151,0.00547
2649.38134,0.00543
2647.32117,0.00536
2645.26100,0.00524
2643.20083,0.00518
2641.14065,0.00520
2639.08048,0.00516
2637.02031,0.00509
2634.96014,0.00505
2632.89997,0.00511
2630.83979,0.00522
2628.77962,0.00516
2626.71945,0.00489
2624.65928,0.00462
2622.59910,0.00461
2620.53893,0.00475
2618.47876,0.00486
2616.41859,0.00497
2614.35842,0.00491
2612.29824,0.00460
2610.23807,0.00429
2608.17790,0.00421
2606.11773,0.00428
2604.05756,0.00438
2601.99738,0.00454
2599.93721,0.00456
2597.87704,0.00439
2595.81687,0.00420
2593.75670,0.00396
2591.69652,0.00375
2589.63635,0.00381
2587.57618,0.00407
2585.51601,0.00426
2583.45583,0.00426
2581.39566,0.00409
2579.33549,0.00398
2577.27532,0.00408
2575.21515,0.00420
2573.15497,0.00414
2571.09480,0.00402
2569.03463,0.00407
2566.97446,0.00415
2564.91429,0.00403
2562.85411,0.00382
2560.79394,0.00371
2558.73377,0.00359
2556.67360,0.00355
2554.61342,0.00364
2552.55325,0.00386
2550.49308,0.00414
2548.43291,0.00420
2546.37274,0.00394
2544.31256,0.00374
2542.25239,0.00389
2540.19222,0.00407
2538.13205,0.00399
2536.07188,0.00371
2534.01170,0.00336
2531.95153,0.00319
2529.89136,0.00347
2527.83119,0.00387
2525.77102,0.00383
2523.71084,0.00357
2521.65067,0.00350
2519.59050,0.00359
2517.53033,0.00363
2515.47015,0.00364
2513.40998,0.00360
2511.34981,0.00346
2509.28964,0.00347
2507.22947,0.00379
2505.16929,0.00406
2503.10912,0.00384
2501.04895,0.00349
2498.98878,0.00344
2496.92861,0.00368
2494.86843,0.00397
2492.80826,0.00396
2490.74809,0.00365
2488.68792,0.00321
2486.62775,0.00303
2484.56757,0.00332
2482.50740,0.00350
2480.44723,0.00328
2478.38706,0.00313
2476.32688,0.00327
2474.26671,0.00334
2472.20654,0.00322
2470.14637,0.00308
2468.08620,0.00294
2466.02602,0.00286
2463.96585,0.00288
2461.90568,0.00289
2459.84551,0.00283
2457.78534,0.00283
2455.72516,0.00304
2453.66499,0.00314
2451.60482,0.00297
2449.54465,0.00291
2447.48447,0.00298
2445.42430,0.00311
2443.36413,0.00338
2441.30396,0.00361
2439.24379,0.00368
2437.18361,0.00364
2435.12344,0.00350
2433.06327,0.00330
2431.00310,0.00316
2428.94293,0.00320
2426.88275,0.00320
2424.82258,0.00302
2422.76241,0.00286
2420.70224,0.00290
2418.64207,0.00313
2416.58189,0.00338
2414.52172,0.00337
2412.46155,0.00334
2410.40138,0.00345
2408.34120,0.00332
2406.28103,0.00315
2404.22086,0.00326
2402.16069,0.00315
2400.10052,0.00301
2398.04034,0.00304
2395.98017,0.00296
2393.92000,0.00274
2391.85983,0.00267
2389.79966,0.00278
2387.73948,0.00294
2385.67931,0.00306
2383.61914,0.00314
2381.55897,0.00310
2379.49880,0.00290
2377.43862,0.00270
2375.37845,0.00265
2373.31828,0.00276
2371.25811,0.00333
2369.19793,0.00432
2367.13776,0.00447
2365.07759,0.00288
2363.01742,0.00083
2360.95725,0.00022
2358.89707,0.00074
2356.83690,0.00090
2354.77673,0.00089
2352.71656,0.00160
2350.65639,0.00274
2348.59621,0.00344
2346.53604,0.00330
2344.47587,0.00262
2342.41570,0.00238
2340.35552,0.00297
2338.29535,0.00376
2336.23518,0.00405
2334.17501,0.00360
2332.11484,0.00268
2330.05466,0.00198
2327.99449,0.00207
2325.93432,0.00283
2323.87415,0.00364
2321.81398,0.00394
2319.75380,0.00383
2317.69363,0.00366
2315.63346,0.00355
2313.57329,0.00362
2311.51312,0.00377
2309.45294,0.00372
2307.39277,0.00349
2305.33260,0.00341
2303.27243,0.00360
2301.21225,0.00394
2299.15208,0.00410
2297.09191,0.00387
2295.03174,0.00359
2292.97157,0.00346
2290.91139,0.00325
2288.85122,0.00300
2286.79105,0.00299
2284.73088,0.00322
2282.67071,0.00350
2280.61053,0.00370
2278.55036,0.00370
2276.49019,0.00345
2274.43002,0.00318
2272.36984,0.00306
2270.30967,0.00293
2268.24950,0.00272
2266.18933,0.00278
2264.12916,0.00318
2262.06898,0.00329
2260.00881,0.00288
2257.94864,0.00253
2255.88847,0.00252
2253.82830,0.00256
2251.76812,0.00261
2249.70795,0.00291
2247.64778,0.00305
2245.58761,0.00272
2243.52744,0.00272
2241.46726,0.00323
2239.40709,0.00375
2237.34692,0.00369
2235.28675,0.00288
2233.22657,0.00210
2231.16640,0.00228
2229.10623,0.00286
2227.04606,0.00276
2224.98589,0.00215
2222.92571,0.00205
2220.86554,0.00236
2218.80537,0.00251
2216.74520,0.00303
2214.68503,0.00387
2212.62485,0.00398
2210.56468,0.00359
2208.50451,0.00385
2206.44434,0.00445
2204.38417,0.00441
2202.32399,0.00387
2200.26382,0.00328
2198.20365,0.00314
2196.14348,0.00349
2194.08330,0.00353
2192.02313,0.00276
2189.96296,0.00200
2187.90279,0.00176
2185.84262,0.00178
2183.78244,0.00232
2181.72227,0.00300
2179.66210,0.00322
2177.60193,0.00357
2175.54176,0.00448
2173.48158,0.00467
2171.42141,0.00331
2169.36124,0.00179
2167.30107,0.00130
2165.24089,0.00148
2163.18072,0.00183
2161.12055,0.00205
2159.06038,0.00177
2157.00021,0.00107
2154.94003,0.00086
2152.87986,0.00109
2150.81969,0.00111
2148.75952,0.00108
2146.69935,0.00077
2144.63917,0.00056
2142.57900,0.00166
2140.51883,0.00334
2138.45866,0.00361
2136.39849,0.00224
2134.33831,0.00139
2132.27814,0.00221
2130.21797,0.00299
2128.15780,0.00246
2126.09762,0.00180
2124.03745,0.00178
2121.97728,0.00181
2119.91711,0.00211
2117.85694,0.00281
2115.79676,0.00319
2113.73659,0.00319
2111.67642,0.00311
2109.61625,0.00309
2107.55608,0.00328
2105.49590,0.00362
2103.43573,0.00365
2101.37556,0.00331
2099.31539,0.00315
2097.25521,0.00305
2095.19504,0.00268
2093.13487,0.00239
2091.07470,0.00252
2089.01453,0.00273
2086.95435,0.00256
2084.89418,0.00228
2082.83401,0.00256
2080.77384,0.00317
2078.71367,0.00327
2076.65349,0.00299
2074.59332,0.00287
2072.53315,0.00269
2070.47298,0.00260
2068.41281,0.00309
2066.35263,0.00346
2064.29246,0.00319
2062.23229,0.00282
2060.17212,0.00248
2058.11194,0.00183
2056.05177,0.00131
2053.99160,0.00186
2051.93143,0.00297
2049.87126,0.00331
2047.81108,0.00284
2045.75091,0.00240
2043.69074,0.00238
2041.63057,0.00258
2039.57040,0.00231
2037.51022,0.00156
2035.45005,0.00109
2033.38988,0.00101
2031.32971,0.00127
2029.26954,0.00180
2027.20936,0.00223
2025.14919,0.00267
2023.08902,0.00309
2021.02885,0.00318
2018.96867,0.00295
2016.90850,0.00263
2014.84833,0.00241
2012.78816,0.00215
2010.72799,0.00169
2008.66781,0.00110
2006.60764,0.00053
2004.54747,0.00028
2002.48730,0.00081
2000.42713,0.00165
1998.36695,0.00219
1996.30678,0.00292
1994.24661,0.00346
1992.18644,0.00280
1990.12626,0.00184
1988.06609,0.00182
1986.00592,0.00218
1983.94575,0.00247
1981.88558,0.00303
1979.82540,0.00330
1977.76523,0.00250
1975.70506,0.00105
1973.64489,0.00020
1971.58472,0.00057
1969.52454,0.00136
1967.46437,0.00153
1965.40420,0.00106
1963.34403,0.00080
1961.28386,0.00077
1959.22368,0.00037
1957.16351,0.00000
1955.10334,0.00032
1953.04317,0.00104
1950.98299,0.00142
1948.92282,0.00115
1946.86265,0.00067
1944.80248,0.00071
1942.74231,0.00118
1940.68213,0.00151
1938.62196,0.00179
1936.56179,0.00206
1934.50162,0.00200
1932.44145,0.00178
1930.38127,0.00158
1928.32110,0.00127
1926.26093,0.00106
1924.20076,0.00127
1922.14059,0.00156
1920.08041,0.00153
1918.02024,0.00147
1915.96007,0.00165
1913.89990,0.00182
1911.83972,0.00181
1909.77955,0.00151
1907.71938,0.00116
1905.65921,0.00106
1903.59904,0.00105
1901.53886,0.00116
1899.47869,0.00157
1897.41852,0.00192
1895.35835,0.00197
1893.29818,0.00195
1891.23800,0.00199
1889.17783,0.00192
1887.11766,0.00156
1885.05749,0.00116
1882.99731,0.00113
1880.93714,0.00140
1878.87697,0.00138
1876.81680,0.00100
1874.75663,0.00083
1872.69645,0.00105
1870.63628,0.00125
1868.57611,0.00124
1866.51594,0.00125
1864.45577,0.00134
1862.39559,0.00139
1860.33542,0.00141
1858.27525,0.00137
1856.21508,0.00128
1854.15491,0.00123
1852.09473,0.00123
1850.03456,0.00126
1847.97439,0.00134
1845.91422,0.00135
1843.85404,0.00121
1841.79387,0.00102
1839.73370,0.00089
1837.67353,0.00086
1835.61336,0.00103
1833.55318,0.00135
1831.49301,0.00153
1829.43284,0.00150
1827.37267,0.00141
1825.31250,0.00126
1823.25232,0.00095
1821.19215,0.00060
1819.13198,0.00040
1817.07181,0.00046
1815.01163,0.00064
1812.95146,0.00069
1810.89129,0.00065
1808.83112,0.00066
1806.77095,0.00072
1804.71077,0.00077
1802.65060,0.00070
1800.59043,0.00054
1798.53026,0.00047
1796.47009,0.00054
1794.40991,0.00065
1792.34974,0.00070
1790.28957,0.00066
1788.22940,0.00062
1786.16923,0.00059
1784.10905,0.00061
1782.04888,0.00073
1779.98871,0.00083
1777.92854,0.00082
1775.86836,0.00079
1773.80819,0.00082
1771.74802,0.00094
1769.68785,0.00113
1767.62768,0.00131
1765.56750,0.00136
1763.50733,0.00129
1761.44716,0.00138
1759.38699,0.00181
1757.32682,0.00232
1755.26664,0.00260
1753.20647,0.00263
1751.14630,0.00254
1749.08613,0.00258
1747.02596,0.00300
1744.96578,0.00353
1742.90561,0.00375
1740.84544,0.00362
1738.78527,0.00342
1736.72509,0.00344
1734.66492,0.00383
1732.60475,0.00440
1730.54458,0.00472
1728.48441,0.00476
1726.42423,0.00472
1724.36406,0.00470
1722.30389,0.00465
1720.24372,0.00440
1718.18355,0.00396
1716.12337,0.00364
1714.06320,0.00355
1712.00303,0.00349
1709.94286,0.00336
1707.88268,0.00324
1705.82251,0.00316
1703.76234,0.00310
1701.70217,0.00298
1699.64200,0.00282
1697.58182,0.00271
1695.52165,0.00275
1693.46148,0.00298
1691.40131,0.00316
1689.34114,0.00312
1687.28096,0.00294
1685.22079,0.00289
1683.16062,0.00333
1681.10045,0.00389
1679.04028,0.00411
1676.98010,0.00415
1674.91993,0.00436
1672.85976,0.00468
1670.79959,0.00500
1668.73941,0.00536
1666.67924,0.00573
1664.61907,0.00606
1662.55890,0.00643
1660.49873,0.00682
1658.43855,0.00720
1656.37838,0.00758
1654.31821,0.00788
1652.25804,0.00788
1650.19787,0.00782
1648.13769,0.00805
1646.07752,0.00836
1644.01735,0.00844
1641.95718,0.00844
1639.89701,0.00852
1637.83683,0.00857
1635.77666,0.00850
1633.71649,0.00852
1631.65632,0.00866
1629.59614,0.00874
1627.53597,0.00869
1625.47580,0.00862
1623.41563,0.00867
1621.35546,0.00878
1619.29528,0.00883
1617.23511,0.00884
1615.17494,0.00897
1613.11477,0.00916
1611.05460,0.00922
1608.99442,0.00909
1606.93425,0.00886
1604.87408,0.00862
1602.81391,0.00835
1600.75373,0.00797
1598.69356,0.00751
1596.63339,0.00713
1594.57322,0.00690
1592.51305,0.00675
1590.45287,0.00659
1588.39270,0.00637
1586.33253,0.00608
1584.27236,0.00578
1582.21219,0.00558
1580.15201,0.00554
1578.09184,0.00551
1576.03167,0.00525
1573.97150,0.00486
1571.91133,0.00450
1569.85115,0.00409
1567.79098,0.00369
1565.73081,0.00345
1563.67064,0.00326
1561.61046,0.00281
1559.55029,0.00208
1557.49012,0.00178
1555.42995,0.00211
1553.36978,0.00246
1551.30960,0.00260
1549.24943,0.00264
1547.18926,0.00274
1545.12909,0.00275
1543.06892,0.00246
1541.00874,0.00215
1538.94857,0.00228
1536.88840,0.00244
1534.82823,0.00218
1532.76805,0.00164
1530.70788,0.00127
1528.64771,0.00111
1526.58754,0.00099
1524.52737,0.00090
1522.46719,0.00088
1520.40702,0.00095
1518.34685,0.00095
1516.28668,0.00091
1514.22651,0.00095
1512.16633,0.00102
1510.10616,0.00099
1508.04599,0.00082
1505.98582,0.00079
1503.92565,0.00098
1501.86547,0.00105
1499.80530,0.00091
1497.74513,0.00087
1495.68496,0.00111
1493.62478,0.00133
1491.56461,0.00128
1489.50444,0.00115
1487.44427,0.00127
1485.38410,0.00172
1483.32392,0.00236
1481.26375,0.00294
1479.20358,0.00329
1477.14341,0.00341
1475.08324,0.00343
1473.02306,0.00364
1470.96289,0.00423
1468.90272,0.00483
1466.84255,0.00518
1464.78238,0.00531
1462.72220,0.00532
1460.66203,0.00529
1458.60186,0.00530
1456.54169,0.00550
1454.48151,0.00582
1452.42134,0.00604
1450.36117,0.00612
1448.30100,0.00611
1446.24083,0.00604
1444.18065,0.00605
1442.12048,0.00631
1440.06031,0.00673
1438.00014,0.00707
1435.93997,0.00727
1433.87979,0.00738
1431.81962,0.00749
1429.75945,0.00760
1427.69928,0.00774
1425.63910,0.00787
1423.57893,0.00797
1421.51876,0.00803
1419.45859,0.00810
1417.39842,0.00827
1415.33824,0.00842
1413.27807,0.00843
1411.21790,0.00834
1409.15773,0.00825
1407.09756,0.00814
1405.03738,0.00799
1402.97721,0.00785
1400.91704,0.00773
1398.85687,0.00764
1396.79670,0.00749
1394.73652,0.00719
1392.67635,0.00688
1390.61618,0.00675
1388.55601,0.00682
1386.49583,0.00699
1384.43566,0.00714
1382.37549,0.00727
1380.31532,0.00744
1378.25515,0.00759
1376.19497,0.00764
1374.13480,0.00759
1372.07463,0.00748
1370.01446,0.00743
1367.95429,0.00752
1365.89411,0.00760
1363.83394,0.00751
1361.77377,0.00728
1359.71360,0.00713
1357.65343,0.00710
1355.59325,0.00712
1353.53308,0.00712
1351.47291,0.00704
1349.41274,0.00685
1347.35256,0.00665
1345.29239,0.00657
1343.23222,0.00651
1341.17205,0.00643
1339.11188,0.00641
1337.05170,0.00640
1334.99153,0.00628
1332.93136,0.00615
1330.87119,0.00620
1328.81102,0.00641
1326.75084,0.00664
1324.69067,0.00676
1322.63050,0.00672
1320.57033,0.00661
1318.51015,0.00661
1316.44998,0.00679
1314.38981,0.00692
1312.32964,0.00680
1310.26947,0.00656
1308.20929,0.00637
1306.14912,0.00627
1304.08895,0.00619
1302.02878,0.00601
1299.96861,0.00578
1297.90843,0.00559
1295.84826,0.00544
1293.78809,0.00536
1291.72792,0.00534
1289.66775,0.00536
1287.60757,0.00539
1285.54740,0.00529
1283.48723,0.00505
1281.42706,0.00492
1279.36688,0.00504
1277.30671,0.00524
1275.24654,0.00533
1273.18637,0.00539
1271.12620,0.00554
1269.06602,0.00583
1267.00585,0.00629
1264.94568,0.00672
1262.88551,0.00688
1260.82534,0.00688
1258.76516,0.00697
1256.70499,0.00723
1254.64482,0.00753
1252.58465,0.00772
1250.52447,0.00773
1248.46430,0.00771
1246.40413,0.00780
1244.34396,0.00791
1242.28379,0.00787
1240.22361,0.00763
1238.16344,0.00743
1236.10327,0.00744
1234.04310,0.00738
1231.98293,0.00710
1229.92275,0.00677
1227.86258,0.00643
1225.80241,0.00603
1223.74224,0.00560
1221.68207,0.00520
1219.62189,0.00487
1217.56172,0.00464
1215.50155,0.00438
1213.44138,0.00397
1211.38120,0.00354
1209.32103,0.00309
1207.26086,0.00258
1205.20069,0.00209
1203.14052,0.00172
1201.08034,0.00139
1199.02017,0.00098
1196.96000,0.00053
1194.89983,0.00020
1192.83966,0.00000
1190.77948,-0.00006
1188.71931,-0.00007
1186.65914,-0.00019
1184.59897,-0.00022
1182.53880,-0.00002
1180.47862,0.00035
1178.41845,0.00081
1176.35828,0.00128
1174.29811,0.00176
1172.23793,0.00238
1170.17776,0.00301
1168.11759,0.00358
1166.05742,0.00427
1163.99725,0.00509
1161.93707,0.00588
1159.87690,0.00651
1157.81673,0.00693
1155.75656,0.00727
1153.69639,0.00765
1151.63621,0.00802
1149.57604,0.00836
1147.51587,0.00872
1145.45570,0.00906
1143.39552,0.00931
1141.33535,0.00955
1139.27518,0.00986
1137.21501,0.01024
1135.15484,0.01063
1133.09466,0.01103
1131.03449,0.01144
1128.97432,0.01184
1126.91415,0.01236
1124.85398,0.01293
1122.79380,0.01348
1120.73363,0.01409
1118.67346,0.01464
1116.61329,0.01508
1114.55312,0.01557
1112.49294,0.01619
1110.43277,0.01682
1108.37260,0.01730
1106.31243,0.01780
1104.25225,0.01847
1102.19208,0.01922
1100.13191,0.01996
1098.07174,0.02074
1096.01157,0.02154
1093.95139,0.02223
1091.89122,0.02287
1089.83105,0.02368
1087.77088,0.02450
1085.71071,0.02510
1083.65053,0.02572
1081.59036,0.02657
1079.53019,0.02743
1077.47002,0.02812
1075.40985,0.02871
1073.34967,0.02923
1071.28950,0.02978
1069.22933,0.03031
1067.16916,0.03078
1065.10898,0.03117
1063.04881,0.03145
1060.98864,0.03173
1058.92847,0.03214
1056.86830,0.03258
1054.80812,0.03300
1052.74795,0.03341
1050.68778,0.03383
1048.62761,0.03430
1046.56744,0.03491
1044.50726,0.03555
1042.44709,0.03605
1040.38692,0.03642
1038.32675,0.03675
1036.26657,0.03704
1034.20640,0.03709
1032.14623,0.03696
1030.08606,0.03686
1028.02589,0.03690
1025.96571,0.03695
1023.90554,0.03680
1021.84537,0.03664
1019.78520,0.03674
1017.72503,0.03674
1015.66485,0.03648
1013.60468,0.03632
1011.54451,0.03631
1009.48434,0.03628
1007.42417,0.03629
1005.36399,0.03621
1003.30382,0.03585
1001.24365,0.03538
999.18348,0.03500
997.12330,0.03450
995.06313,0.03379
993.00296,0.03312
990.94279,0.03253
988.88262,0.03200
986.82244,0.03167
984.76227,0.03135
982.70210,0.03098
980.64193,0.03062
978.58176,0.03007
976.52158,0.02938
974.46141,0.02897
972.40124,0.02875
970.34107,0.02832
968.28089,0.02767
966.22072,0.02700
964.16055,0.02635
962.10038,0.02570
960.04021,0.02509
957.98003,0.02451
955.91986,0.02406
953.85969,0.02371
951.79952,0.02328
949.73935,0.02276
947.67917,0.02210
945.61900,0.02121
943.55883,0.02013
941.49866,0.01885
939.43849,0.01737
937.37831,0.01595
935.31814,0.01466
933.25797,0.01336
931.19780,0.01220
929.13762,0.01120
927.07745,0.01028
925.01728,0.00950
922.95711,0.00871
920.89694,0.00790
918.83676,0.00728
916.77659,0.00682
914.71642,0.00637
912.65625,0.00599
910.59608,0.00568
908.53590,0.00531
906.47573,0.00487
904.41556,0.00456
902.35539,0.00454
900.29522,0.00470
898.23504,0.00478
896.17487,0.00484
894.11470,0.00490
892.05453,0.00483
889.99435,0.00472
887.93418,0.00457
885.87401,0.00437
883.81384,0.00430
881.75367,0.00423
879.69349,0.00395
877.63332,0.00361
875.57315,0.00340
873.51298,0.00338
871.45281,0.00349
869.39263,0.00348
867.33246,0.00309
865.27229,0.00266
863.21212,0.00257
861.15194,0.00260
859.09177,0.00258
857.03160,0.00247
854.97143,0.00214
852.91126,0.00174
850.85108,0.00159
848.79091,0.00169
846.73074,0.00174
844.67057,0.00151
842.61040,0.00110
840.55022,0.00077
838.49005,0.00068
836.42988,0.00067
834.36971,0.00057
832.30954,0.00029
830.24936,0.00000
828.18919,0.00011
826.12902,0.00049
824.06885,0.00067
822.00867,0.00063
819.94850,0.00052
817.88833,0.00039
815.82816,0.00050
813.76799,0.00080
811.70781,0.00113
809.64764,0.00133
807.58747,0.00119
805.52730,0.00111
803.46713,0.00130
801.40695,0.00145
799.34678,0.00145
797.28661,0.00123
795.22644,0.00083
793.16627,0.00063
791.10609,0.00066
789.04592,0.00057
786.98575,0.00039
784.92558,0.00046
782.86540,0.00083
780.80523,0.00133
778.74506,0.00155
776.68489,0.00127
774.62472,0.00068
772.56454,0.00019
770.50437,0.00014
768.44420,0.00041
766.38403,0.00064
764.32386,0.00079
762.26368,0.00095
760.20351,0.00097
758.14334,0.00090
756.08317,0.00083
754.02299,0.00048
751.96282,0.00000
749.90265,-0.00001
747.84248,0.00058
745.78231,0.00110
743.72213,0.00096
741.66196,0.00044
739.60179,0.00028
737.54162,0.00048
735.48145,0.00046
733.42127,0.00000
731.36110,-0.00028
729.30093,-0.00014
727.24076,0.00015
725.18059,0.00066
723.12041,0.00126
721.06024,0.00167
719.00007,0.00200
716.93990,0.00231
714.87972,0.00237
712.81955,0.00206
710.75938,0.00146
708.69921,0.00099
706.63904,0.00134
704.57886,0.00248
702.51869,0.00331
700.45852,0.00332
698.39835,0.00297
696.33818,0.00262
694.27800,0.00252
692.21783,0.00289
690.15766,0.00329
688.09749,0.00318
686.03731,0.00276
683.97714,0.00237
681.91697,0.00221
679.85680,0.00228
677.79663,0.00232
675.73645,0.00263
673.67628,0.00328
671.61611,0.00354
669.55594,0.00324
667.49577,0.00274
665.43559,0.00217
663.37542,0.00189
661.31525,0.00201
659.25508,0.00217
657.19491,0.00194
655.13473,0.00152
653.07456,0.00147
651.01439,0.00186
648.95422,0.00215
646.89404,0.00236
644.83387,0.00278
642.77370,0.00302
640.71353,0.00305
638.65336,0.00348
636.59318,0.00419
634.53301,0.00444
632.47284,0.00368
630.41267,0.00176
628.35250,0.00000
626.29232,0.00047
624.23215,0.00301
622.17198,0.00464
620.11181,0.00352
618.05164,0.00144
615.99146,0.00163
613.93129,0.00311
611.87112,0.00331
609.81095,0.00181
607.75077,0.00025
605.69060,0.00017
603.63043,-0.00041
601.57026,-0.00161
599.51009,0.00000
