3996.73391,0.00042
3994.67373,0.00059
3992.61356,0.00063
3990.55339,0.00051
3988.49322,0.00030
3986.43305,0.00010
3984.37287,-0.00006
3982.31270,-0.00016
3980.25253,-0.00018
3978.19236,-0.00018
3976.13219,-0.00018
3974.07201,-0.00017
3972.01184,-0.00013
3969.95167,-0.00006
3967.89150,0.00004
3965.83133,0.00013
3963.77115,0.00018
3961.71098,0.00016
3959.65081,0.00009
3957.59064,0.00004
3955.53046,0.00002
3953.47029,0.00000
3951.41012,0.00000
3949.34995,0.00005
3947.28978,0.00014
3945.22960,0.00023
3943.16943,0.00025
3941.10926,0.00021
3939.04909,0.00013
3936.98892,0.00004
3934.92874,-0.00004
3932.86857,-0.00003
3930.80840,0.00010
3928.74823,0.00029
3926.68805,0.00042
3924.62788,0.00043
3922.56771,0.00037
3920.50754,0.00035
3918.44737,0.00045
3916.38719,0.00070
3914.32702,0.00101
3912.26685,0.00121
3910.20668,0.00125
3908.14651,0.00111
3906.08633,0.00084
3904.02616,0.00054
3901.96599,0.00033
3899.90582,0.00029
3897.84565,0.00043
3895.78547,0.00057
3893.72530,0.00057
3891.66513,0.00043
3889.60496,0.00033
3887.54478,0.00035
3885.48461,0.00051
3883.42444,0.00074
3881.36427,0.00097
3879.30410,0.00113
3877.24392,0.00109
3875.18375,0.00086
3873.12358,0.00059
3871.06341,0.00042
3869.00324,0.00042
3866.94306,0.00053
3864.88289,0.00068
3862.82272,0.00079
3860.76255,0.00078
3858.70237,0.00058
3856.64220,0.00024
3854.58203,0.00000
3852.52186,0.00005
3850.46169,0.00035
3848.40151,0.00070
3846.34134,0.00102
3844.28117,0.00126
3842.22100,0.00140
3840.16083,0.00144
3838.10065,0.00146
3836.04048,0.00152
3833.98031,0.00156
3831.92014,0.00153
3829.85997,0.00144
3827.79979,0.00131
3825.73962,0.00118
3823.67945,0.00109
3821.61928,0.00105
3819.55910,0.00109
3817.49893,0.00118
3815.43876,0.00137
3813.37859,0.00162
3811.31842,0.00181
3809.25824,0.00187
3807.19807,0.00182
3805.13790,0.00163
3803.07773,0.00133
3801.01756,0.00114
3798.95738,0.00119
3796.89721,0.00141
3794.83704,0.00163
3792.77687,0.00174
3790.71670,0.00172
3788.65652,0.00161
3786.59635,0.00150
3784.53618,0.00148
3782.47601,0.00158
3780.41583,0.00174
3778.35566,0.00184
3776.29549,0.00184
3774.23532,0.00176
3772.17515,0.00166
3770.11497,0.00160
3768.05480,0.00157
3765.99463,0.00151
3763.93446,0.00140
3761.87429,0.00127
3759.81411,0.00121
3757.75394,0.00129
3755.69377,0.00139
3753.63360,0.00136
3751.57342,0.00119
3749.51325,0.00106
3747.45308,0.00110
3745.39291,0.00127
3743.33274,0.00147
3741.27256,0.00161
3739.21239,0.00166
3737.15222,0.00158
3735.09205,0.00144
3733.03188,0.00132
3730.97170,0.00126
3728.91153,0.00129
3726.85136,0.00145
3724.79119,0.00169
3722.73102,0.00190
3720.67084,0.00200
3718.61067,0.00199
3716.55050,0.00186
3714.49033,0.00166
3712.43015,0.00150
3710.36998,0.00145
3708.30981,0.00152
3706.24964,0.00168
3704.18947,0.00187
3702.12929,0.00211
3700.06912,0.00239
3698.00895,0.00257
3695.94878,0.00244
3693.88861,0.00196
3691.82843,0.00133
3689.76826,0.00096
3687.70809,0.00101
3685.64792,0.00131
3683.58775,0.00156
3681.52757,0.00165
3679.46740,0.00163
3677.40723,0.00159
3675.34706,0.00154
3673.28688,0.00150
3671.22671,0.00154
3669.16654,0.00178
3667.10637,0.00223
3665.04620,0.00273
3662.98602,0.00318
3660.92585,0.00347
3658.86568,0.00353
3656.80551,0.00339
3654.74534,0.00316
3652.68516,0.00293
3650.62499,0.00285
3648.56482,0.00305
3646.50465,0.00345
3644.44447,0.00382
3642.38430,0.00406
3640.32413,0.00417
3638.26396,0.00419
3636.20379,0.00417
3634.14361,0.00424
3632.08344,0.00450
3630.02327,0.00500
3627.96310,0.00563
3625.90293,0.00618
3623.84275,0.00653
3621.78258,0.00673
3619.72241,0.00687
3617.66224,0.00702
3615.60207,0.00716
3613.54189,0.00725
3611.48172,0.00732
3609.42155,0.00748
3607.36138,0.00777
3605.30120,0.00809
3603.24103,0.00827
3601.18086,0.00838
3599.12069,0.00852
3597.06052,0.00873
3595.00034,0.00898
3592.94017,0.00927
3590.88000,0.00958
3588.81983,0.00991
3586.75966,0.01023
3584.69948,0.01049
3582.63931,0.01066
3580.57914,0.01079
3578.51897,0.01090
3576.45879,0.01106
3574.39862,0.01135
3572.33845,0.01174
3570.27828,0.01212
3568.21811,0.01237
3566.15793,0.01255
3564.09776,0.01282
3562.03759,0.01328
3559.97742,0.01384
3557.91725,0.01429
3555.85707,0.01449
3553.79690,0.01458
3551.73673,0.01474
3549.67656,0.01507
3547.61639,0.01544
3545.55621,0.01575
3543.49604,0.01595
3541.43587,0.01610
3539.37570,0.01625
3537.31552,0.01643
3535.25535,0.01661
3533.19518,0.01677
3531.13501,0.01698
3529.07484,0.01728
3527.01466,0.01763
3524.95449,0.01798
3522.89432,0.01828
3520.83415,0.01856
3518.77398,0.01885
3516.71380,0.01918
3514.65363,0.01956
3512.59346,0.01992
3510.53329,0.02022
3508.47312,0.02041
3506.41294,0.02046
3504.35277,0.02047
3502.29260,0.02056
3500.23243,0.02075
3498.17225,0.02101
3496.11208,0.02127
3494.05191,0.02151
3491.99174,0.02176
3489.93157,0.02206
3487.87139,0.02246
3485.81122,0.02290
3483.75105,0.02329
3481.69088,0.02356
3479.63071,0.02375
3477.57053,0.02389
3475.51036,0.02402
3473.45019,0.02416
3471.39002,0.02439
3469.32984,0.02470
3467.26967,0.02502
3465.20950,0.02525
3463.14933,0.02540
3461.08916,0.02553
3459.02898,0.02565
3456.96881,0.02573
3454.90864,0.02576
3452.84847,0.02582
3450.78830,0.02597
3448.72812,0.02628
3446.66795,0.02668
3444.60778,0.02706
3442.54761,0.02735
3440.48744,0.02756
3438.42726,0.02774
3436.36709,0.02796
3434.30692,0.02825
3432.24675,0.02851
3430.18657,0.02867
3428.12640,0.02876
3426.06623,0.02883
3424.00606,0.02896
3421.94589,0.02921
3419.88571,0.02955
3417.82554,0.02989
3415.76537,0.03011
3413.70520,0.03020
3411.64503,0.03021
3409.58485,0.03015
3407.52468,0.03008
3405.46451,0.03006
3403.40434,0.03016
3401.34416,0.03036
3399.28399,0.03056
3397.22382,0.03069
3395.16365,0.03074
3393.10348,0.03078
3391.04330,0.03089
3388.98313,0.03113
3386.92296,0.03144
3384.86279,0.03177
3382.80262,0.03201
3380.74244,0.03216
3378.68227,0.03226
3376.62210,0.03233
3374.56193,0.03237
3372.50176,0.03244
3370.44158,0.03252
3368.38141,0.03258
3366.32124,0.03259
3364.26107,0.03259
3362.20089,0.03262
3360.14072,0.03270
3358.08055,0.03283
3356.02038,0.03299
3353.96021,0.03313
3351.90003,0.03320
3349.83986,0.03320
3347.77969,0.03313
3345.71952,0.03304
3343.65935,0.03299
3341.59917,0.03304
3339.53900,0.03319
3337.47883,0.03335
3335.41866,0.03344
3333.35849,0.03338
3331.29831,0.03324
3329.23814,0.03319
3327.17797,0.03330
3325.11780,0.03349
3323.05762,0.03365
3320.99745,0.03377
3318.93728,0.03387
3316.87711,0.03396
3314.81694,0.03406
3312.75676,0.03414
3310.69659,0.03414
3308.63642,0.03407
3306.57625,0.03401
3304.51608,0.03403
3302.45590,0.03408
3300.39573,0.03413
3298.33556,0.03415
3296.27539,0.03409
3294.21521,0.03396
3292.15504,0.03384
3290.09487,0.03381
3288.03470,0.03392
3285.97453,0.03411
3283.91435,0.03430
3281.85418,0.03439
3279.79401,0.03434
3277.73384,0.03420
3275.67367,0.03406
3273.61349,0.03396
3271.55332,0.03393
3269.49315,0.03393
3267.43298,0.03392
3265.37281,0.03390
3263.31263,0.03386
3261.25246,0.03379
3259.19229,0.03372
3257.13212,0.03367
3255.07194,0.03367
3253.01177,0.03367
3250.95160,0.03360
3248.89143,0.03344
3246.83126,0.03325
3244.77108,0.03312
3242.71091,0.03312
3240.65074,0.03322
3238.59057,0.03335
3236.53040,0.03343
3234.47022,0.03341
3232.41005,0.03329
3230.34988,0.03310
3228.28971,0.03284
3226.22954,0.03253
3224.16936,0.03224
3222.10919,0.03207
3220.04902,0.03195
3217.98885,0.03180
3215.92867,0.03161
3213.86850,0.03145
3211.80833,0.03131
3209.74816,0.03115
3207.68799,0.03093
3205.62781,0.03069
3203.56764,0.03050
3201.50747,0.03037
3199.44730,0.03022
3197.38713,0.03001
3195.32695,0.02973
3193.26678,0.02944
3191.20661,0.02921
3189.14644,0.02908
3187.08626,0.02903
3185.02609,0.02904
3182.96592,0.02905
3180.90575,0.02899
3178.84558,0.02882
3176.78540,0.02854
3174.72523,0.02819
3172.66506,0.02778
3170.60489,0.02737
3168.54472,0.02700
3166.48454,0.02667
3164.42437,0.02641
3162.36420,0.02621
3160.30403,0.02605
3158.24386,0.02587
3156.18368,0.02563
3154.12351,0.02534
3152.06334,0.02507
3150.00317,0.02487
3147.94299,0.02469
3145.88282,0.02447
3143.82265,0.02420
3141.76248,0.02393
3139.70231,0.02370
3137.64213,0.02349
3135.58196,0.02328
3133.52179,0.02303
3131.46162,0.02268
3129.40145,0.02227
3127.34127,0.02190
3125.28110,0.02162
3123.22093,0.02147
3121.16076,0.02138
3119.10058,0.02125
3117.04041,0.02102
3114.98024,0.02073
3112.92007,0.02044
3110.85990,0.02022
3108.79972,0.02008
3106.73955,0.02002
3104.67938,0.01996
3102.61921,0.01980
3100.55904,0.01953
3098.49886,0.01921
3096.43869,0.01891
3094.37852,0.01865
3092.31835,0.01841
3090.25818,0.01817
3088.19800,0.01796
3086.13783,0.01779
3084.07766,0.01762
3082.01749,0.01741
3079.95731,0.01716
3077.89714,0.01691
3075.83697,0.01671
3073.77680,0.01658
3071.71663,0.01649
3069.65645,0.01639
3067.59628,0.01623
3065.53611,0.01602
3063.47594,0.01574
3061.41577,0.01543
3059.35559,0.01515
3057.29542,0.01495
3055.23525,0.01484
3053.17508,0.01477
3051.11491,0.01469
3049.05473,0.01454
3046.99456,0.01434
3044.93439,0.01414
3042.87422,0.01399
3040.81404,0.01388
3038.75387,0.01374
3036.69370,0.01355
3034.63353,0.01333
3032.57336,0.01312
3030.51318,0.01292
3028.45301,0.01268
3026.39284,0.01237
3024.33267,0.01207
3022.27250,0.01189
3020.21232,0.01188
3018.15215,0.01196
3016.09198,0.01204
3014.03181,0.01204
3011.97163,0.01194
3009.91146,0.01178
3007.85129,0.01161
3005.79112,0.01149
3003.73095,0.01141
3001.67077,0.01133
2999.61060,0.01119
2997.55043,0.01102
2995.49026,0.01099
2993.43009,0.01109
2991.36991,0.01119
2989.30974,0.01129
2987.24957,0.01143
2985.18940,0.01150
2983.12923,0.01148
2981.06905,0.01150
2979.00888,0.01161
2976.94871,0.01174
2974.88854,0.01184
2972.82836,0.01195
2970.76819,0.01209
2968.70802,0.01223
2966.64785,0.01242
2964.58768,0.01274
2962.52750,0.01316
2960.46733,0.01354
2958.40716,0.01378
2956.34699,0.01391
2954.28682,0.01404
2952.22664,0.01423
2950.16647,0.01452
2948.10630,0.01495
2946.04613,0.01540
2943.98596,0.01568
2941.92578,0.01574
2939.86561,0.01566
2937.80544,0.01561
2935.74527,0.01568
2933.68509,0.01572
2931.62492,0.01563
2929.56475,0.01553
2927.50458,0.01549
2925.44441,0.01543
2923.38423,0.01528
2921.32406,0.01514
2919.26389,0.01497
2917.20372,0.01471
2915.14355,0.01454
2913.08337,0.01463
2911.02320,0.01475
2908.96303,0.01464
2906.90286,0.01444
2904.84268,0.01430
2902.78251,0.01423
2900.72234,0.01418
2898.66217,0.01411
2896.60200,0.01390
2894.54182,0.01366
2892.48165,0.01358
2890.42148,0.01366
2888.36131,0.01371
2886.30114,0.01371
2884.24096,0.01373
2882.18079,0.01374
2880.12062,0.01365
2878.06045,0.01347
2876.00028,0.01323
2873.94010,0.01301
2871.87993,0.01294
2869.81976,0.01295
2867.75959,0.01274
2865.69941,0.01225
2863.63924,0.01181
2861.57907,0.01165
2859.51890,0.01157
2857.45873,0.01137
2855.39855,0.01108
2853.33838,0.01085
2851.27821,0.01076
2849.21804,0.01072
2847.15787,0.01061
2845.09769,0.01045
2843.03752,0.01026
2840.97735,0.01011
2838.91718,0.01005
2836.85700,0.01007
2834.79683,0.01012
2832.73666,0.01008
2830.67649,0.00993
2828.61632,0.00974
2826.55614,0.00964
2824.49597,0.00962
2822.43580,0.00954
2820.37563,0.00937
2818.31546,0.00919
2816.25528,0.00906
2814.19511,0.00897
2812.13494,0.00893
2810.07477,0.00887
2808.01460,0.00875
2805.95442,0.00853
2803.89425,0.00834
2801.83408,0.00831
2799.77391,0.00838
2797.71373,0.00834
2795.65356,0.00826
2793.59339,0.00833
2791.53322,0.00850
2789.47305,0.00853
2787.41287,0.00835
2785.35270,0.00809
2783.29253,0.00787
2781.23236,0.00780
2779.17219,0.00788
2777.11201,0.00796
2775.05184,0.00793
2772.99167,0.00781
2770.93150,0.00769
2768.87133,0.00766
2766.81115,0.00771
2764.75098,0.00772
2762.69081,0.00766
2760.63064,0.00761
2758.57046,0.00762
2756.51029,0.00763
2754.45012,0.00756
2752.38995,0.00745
2750.32978,0.00742
2748.26960,0.00743
2746.20943,0.00734
2744.14926,0.00717
2742.08909,0.00709
2740.02892,0.00713
2737.96874,0.00710
2735.90857,0.00696
2733.84840,0.00690
2731.78823,0.00705
2729.72805,0.00729
2727.66788,0.00740
2725.60771,0.00728
2723.54754,0.00710
2721.48737,0.00703
2719.42719,0.00710
2717.36702,0.00719
2715.30685,0.00723
2713.24668,0.00723
2711.18651,0.00721
2709.12633,0.00713
2707.06616,0.00695
2705.00599,0.00672
2702.94582,0.00654
2700.88565,0.00650
2698.82547,0.00654
2696.76530,0.00658
2694.70513,0.00657
2692.64496,0.00655
2690.58478,0.00652
2688.52461,0.00638
2686.46444,0.00615
2684.40427,0.00608
2682.34410,0.00625
2680.28392,0.00639
2678.22375,0.00637
2676.16358,0.00638
2674.10341,0.00655
2672.04324,0.00665
2669.98306,0.00653
2667.92289,0.00636
2665.86272,0.00630
2663.80255,0.00627
2661.74238,0.00616
2659.68220,0.00599
2657.62203,0.00597
2655.56186,0.00617
2653.50169,0.00637
2651.44151,0.00639
2649.38134,0.00626
2647.32117,0.00615
2645.26100,0.00609
2643.20083,0.00602
2641.14065,0.00594
2639.08048,0.00590
2637.02031,0.00590
2634.96014,0.00593
2632.89997,0.00603
2630.83979,0.00607
2628.77962,0.00580
2626.71945,0.00528
2624.65928,0.00486
2622.59910,0.00480
2620.53893,0.00500
2618.47876,0.00524
2616.41859,0.00545
2614.35842,0.00563
2612.29824,0.00570
2610.23807,0.00562
2608.17790,0.00539
2606.11773,0.00514
2604.05756,0.00497
2601.99738,0.00489
2599.93721,0.00486
2597.87704,0.00485
2595.81687,0.00485
2593.75670,0.00483
2591.69652,0.00478
2589.63635,0.00470
2587.57618,0.00466
2585.51601,0.00472
2583.45583,0.00480
2581.39566,0.00478
2579.33549,0.00479
2577.27532,0.00487
2575.21515,0.00479
2573.15497,0.00447
2571.09480,0.00408
2569.03463,0.00385
2566.97446,0.00394
2564.91429,0.00411
2562.85411,0.00404
2560.79394,0.00381
2558.73377,0.00370
2556.67360,0.00373
2554.61342,0.00374
2552.55325,0.00378
2550.49308,0.00391
2548.43291,0.00409
2546.37274,0.00428
2544.31256,0.00436
2542.25239,0.00428
2540.19222,0.00418
2538.13205,0.00416
2536.07188,0.00422
2534.01170,0.00433
2531.95153,0.00441
2529.89136,0.00434
2527.83119,0.00406
2525.77102,0.00366
2523.71084,0.00347
2521.65067,0.00361
2519.59050,0.00391
2517.53033,0.00411
2515.47015,0.00406
2513.40998,0.00387
2511.34981,0.00358
2509.28964,0.00329
2507.22947,0.00325
2505.16929,0.00349
2503.10912,0.00372
2501.04895,0.00385
2498.98878,0.00409
2496.92861,0.00442
2494.86843,0.00449
2492.80826,0.00427
2490.74809,0.00402
2488.68792,0.00395
2486.62775,0.00399
2484.56757,0.00394
2482.50740,0.00372
2480.44723,0.00343
2478.38706,0.00328
2476.32688,0.00339
2474.26671,0.00357
2472.20654,0.00354
2470.14637,0.00324
2468.08620,0.00297
2466.02602,0.00309
2463.96585,0.00361
2461.90568,0.00412
2459.84551,0.00427
2457.78534,0.00415
2455.72516,0.00392
2453.66499,0.00360
2451.60482,0.00329
2449.54465,0.00303
2447.48447,0.00287
2445.42430,0.00295
2443.36413,0.00319
2441.30396,0.00330
2439.24379,0.00326
2437.18361,0.00327
2435.12344,0.00334
2433.06327,0.00345
2431.00310,0.00347
2428.94293,0.00341
2426.88275,0.00348
2424.82258,0.00358
2422.76241,0.00342
2420.70224,0.00310
2418.64207,0.00302
2416.58189,0.00327
2414.52172,0.00350
2412.46155,0.00348
2410.40138,0.00323
2408.34120,0.00298
2406.28103,0.00284
2404.22086,0.00280
2402.16069,0.00287
2400.10052,0.00294
2398.04034,0.00290
2395.98017,0.00282
2393.92000,0.00279
2391.85983,0.00278
2389.79966,0.00278
2387.73948,0.00278
2385.67931,0.00278
2383.61914,0.00280
2381.55897,0.00284
2379.49880,0.00287
2377.43862,0.00280
2375.37845,0.00259
2373.31828,0.00233
2371.25811,0.00237
2369.19793,0.00300
2367.13776,0.00425
2365.07759,0.00568
2363.01742,0.00643
2360.95725,0.00578
2358.89707,0.00397
2356.83690,0.00214
2354.77673,0.00131
2352.71656,0.00155
2350.65639,0.00217
2348.59621,0.00262
2346.53604,0.00286
2344.47587,0.00305
2342.41570,0.00318
2340.35552,0.00312
2338.29535,0.00282
2336.23518,0.00239
2334.17501,0.00202
2332.11484,0.00191
2330.05466,0.00216
2327.99449,0.00262
2325.93432,0.00311
2323.87415,0.00348
2321.81398,0.00367
2319.75380,0.00363
2317.69363,0.00345
2315.63346,0.00330
2313.57329,0.00324
2311.51312,0.00317
2309.45294,0.00307
2307.39277,0.00301
2305.33260,0.00307
2303.27243,0.00318
2301.21225,0.00321
2299.15208,0.00315
2297.09191,0.00305
2295.03174,0.00303
2292.97157,0.00309
2290.91139,0.00315
2288.85122,0.00310
2286.79105,0.00297
2284.73088,0.00296
2282.67071,0.00318
2280.61053,0.00353
2278.55036,0.00375
2276.49019,0.00366
2274.43002,0.00335
2272.36984,0.00304
2270.30967,0.00289
2268.24950,0.00292
2266.18933,0.00306
2264.12916,0.00326
2262.06898,0.00351
2260.00881,0.00374
2257.94864,0.00385
2255.88847,0.00370
2253.82830,0.00323
2251.76812,0.00254
2249.70795,0.00185
2247.64778,0.00138
2245.58761,0.00131
2243.52744,0.00160
2241.46726,0.00195
2239.40709,0.00207
2237.34692,0.00197
2235.28675,0.00198
2233.22657,0.00212
2231.16640,0.00218
2229.10623,0.00212
2227.04606,0.00198
2224.98589,0.00170
2222.92571,0.00148
2220.86554,0.00173
2218.80537,0.00250
2216.74520,0.00319
2214.68503,0.00356
2212.62485,0.00391
2210.56468,0.00410
2208.50451,0.00403
2206.44434,0.00408
2204.38417,0.00416
2202.32399,0.00398
2200.26382,0.00354
2198.20365,0.00278
2196.14348,0.00184
2194.08330,0.00118
2192.02313,0.00120
2189.96296,0.00192
2187.90279,0.00279
2185.84262,0.00335
2183.78244,0.00397
2181.72227,0.00497
2179.66210,0.00554
2177.60193,0.00461
2175.54176,0.00285
2173.48158,0.00195
2171.42141,0.00202
2169.36124,0.00195
2167.30107,0.00186
2165.24089,0.00243
2163.18072,0.00343
2161.12055,0.00414
2159.06038,0.00357
2157.00021,0.00169
2154.94003,0.00039
2152.87986,0.00103
2150.81969,0.00243
2148.75952,0.00274
2146.69935,0.00207
2144.63917,0.00179
2142.57900,0.00210
2140.51883,0.00224
2138.45866,0.00197
2136.39849,0.00164
2134.33831,0.00163
2132.27814,0.00200
2130.21797,0.00254
2128.15780,0.00307
2126.09762,0.00353
2124.03745,0.00387
2121.97728,0.00392
2119.91711,0.00362
2117.85694,0.00330
2115.79676,0.00306
2113.73659,0.00274
2111.67642,0.00246
2109.61625,0.00262
2107.55608,0.00316
2105.49590,0.00345
2103.43573,0.00335
2101.37556,0.00318
2099.31539,0.00298
2097.25521,0.00264
2095.19504,0.00221
2093.13487,0.00183
2091.07470,0.00162
2089.01453,0.00166
2086.95435,0.00195
2084.89418,0.00237
2082.83401,0.00281
2080.77384,0.00322
2078.71367,0.00346
2076.65349,0.00334
2074.59332,0.00300
2072.53315,0.00282
2070.47298,0.00302
2068.41281,0.00343
2066.35263,0.00379
2064.29246,0.00398
2062.23229,0.00393
2060.17212,0.00367
2058.11194,0.00332
2056.05177,0.00300
2053.99160,0.00268
2051.93143,0.00235
2049.87126,0.00218
2047.81108,0.00228
2045.75091,0.00255
2043.69074,0.00284
2041.63057,0.00304
2039.57040,0.00311
2037.51022,0.00297
2035.45005,0.00257
2033.38988,0.00197
2031.32971,0.00139
2029.26954,0.00089
2027.20936,0.00039
2025.14919,0.00000
2023.08902,0.00011
2021.02885,0.00084
2018.96867,0.00165
2016.90850,0.00198
2014.84833,0.00175
2012.78816,0.00130
2010.72799,0.00096
2008.66781,0.00084
2006.60764,0.00078
2004.54747,0.00073
2002.48730,0.00080
2000.42713,0.00111
1998.36695,0.00162
1996.30678,0.00214
1994.24661,0.00245
1992.18644,0.00253
1990.12626,0.00257
1988.06609,0.00266
1986.00592,0.00277
1983.94575,0.00283
1981.88558,0.00267
1979.82540,0.00213
1977.76523,0.00131
1975.70506,0.00053
1973.64489,0.00008
1971.58472,0.00000
1969.52454,0.00021
1967.46437,0.00062
1965.40420,0.00105
1963.34403,0.00132
1961.28386,0.00130
1959.22368,0.00100
1957.16351,0.00068
1955.10334,0.00063
1953.04317,0.00089
1950.98299,0.00132
1948.92282,0.00177
1946.86265,0.00215
1944.80248,0.00241
1942.74231,0.00250
1940.68213,0.00228
1938.62196,0.00168
1936.56179,0.00089
1934.50162,0.00030
1932.44145,0.00010
1930.38127,0.00020
1928.32110,0.00041
1926.26093,0.00066
1924.20076,0.00104
1922.14059,0.00158
1920.08041,0.00212
1918.02024,0.00240
1915.96007,0.00234
1913.89990,0.00206
1911.83972,0.00174
1909.77955,0.00150
1907.71938,0.00133
1905.65921,0.00119
1903.59904,0.00115
1901.53886,0.00123
1899.47869,0.00137
1897.41852,0.00150
1895.35835,0.00151
1893.29818,0.00134
1891.23800,0.00103
1889.17783,0.00077
1887.11766,0.00070
1885.05749,0.00078
1882.99731,0.00087
1880.93714,0.00089
1878.87697,0.00088
1876.81680,0.00092
1874.75663,0.00103
1872.69645,0.00117
1870.63628,0.00130
1868.57611,0.00138
1866.51594,0.00136
1864.45577,0.00122
1862.39559,0.00099
1860.33542,0.00075
1858.27525,0.00059
1856.21508,0.00053
1854.15491,0.00053
1852.09473,0.00056
1850.03456,0.00057
1847.97439,0.00057
1845.91422,0.00057
1843.85404,0.00060
1841.79387,0.00070
1839.73370,0.00080
1837.67353,0.00087
1835.61336,0.00084
1833.55318,0.00068
1831.49301,0.00045
1829.43284,0.00028
1827.37267,0.00022
1825.31250,0.00020
1823.25232,0.00017
1821.19215,0.00012
1819.13198,0.00007
1817.07181,0.00008
1815.01163,0.00019
1812.95146,0.00032
1810.89129,0.00041
1808.83112,0.00046
1806.77095,0.00050
1804.71077,0.00052
1802.65060,0.00051
1800.59043,0.00048
1798.53026,0.00042
1796.47009,0.00034
1794.40991,0.00026
1792.34974,0.00025
1790.28957,0.00035
1788.22940,0.00050
1786.16923,0.00060
1784.10905,0.00061
1782.04888,0.00051
1779.98871,0.00034
1777.92854,0.00018
1775.86836,0.00006
1773.80819,0.00002
1771.74802,0.00009
1769.68785,0.00030
1767.62768,0.00061
1765.56750,0.00092
1763.50733,0.00123
1761.44716,0.00156
1759.38699,0.00195
1757.32682,0.00234
1755.26664,0.00269
1753.20647,0.00299
1751.14630,0.00338
1749.08613,0.00390
1747.02596,0.00448
1744.96578,0.00501
1742.90561,0.00543
1740.84544,0.00573
1738.78527,0.00588
1736.72509,0.00595
1734.66492,0.00605
1732.60475,0.00624
1730.54458,0.00641
1728.48441,0.00642
1726.42423,0.00629
1724.36406,0.00605
1722.30389,0.00571
1720.24372,0.00532
1718.18355,0.00499
1716.12337,0.00475
1714.06320,0.00449
1712.00303,0.00418
1709.94286,0.00385
1707.88268,0.00352
1705.82251,0.00326
1703.76234,0.00308
1701.70217,0.00297
1699.64200,0.00296
1697.58182,0.00305
1695.52165,0.00321
1693.46148,0.00336
1691.40131,0.00345
1689.34114,0.00351
1687.28096,0.00367
1685.22079,0.00404
1683.16062,0.00464
1681.10045,0.00528
1679.04028,0.00574
1676.98010,0.00602
1674.91993,0.00626
1672.85976,0.00657
1670.79959,0.00706
1668.73941,0.00778
1666.67924,0.00862
1664.61907,0.00942
1662.55890,0.01009
1660.49873,0.01061
1658.43855,0.01094
1656.37838,0.01118
1654.31821,0.01146
1652.25804,0.01190
1650.19787,0.01233
1648.13769,0.01266
1646.07752,0.01298
1644.01735,0.01330
1641.95718,0.01353
1639.89701,0.01365
1637.83683,0.01373
1635.77666,0.01395
1633.71649,0.01430
1631.65632,0.01461
1629.59614,0.01481
1627.53597,0.01491
1625.47580,0.01498
1623.41563,0.01504
1621.35546,0.01509
1619.29528,0.01504
1617.23511,0.01493
1615.17494,0.01484
1613.11477,0.01473
1611.05460,0.01452
1608.99442,0.01421
1606.93425,0.01382
1604.87408,0.01334
1602.81391,0.01277
1600.75373,0.01211
1598.69356,0.01139
1596.63339,0.01064
1594.57322,0.00989
1592.51305,0.00915
1590.45287,0.00844
1588.39270,0.00774
1586.33253,0.00707
1584.27236,0.00643
1582.21219,0.00580
1580.15201,0.00518
1578.09184,0.00459
1576.03167,0.00409
1573.97150,0.00373
1571.91133,0.00345
1569.85115,0.00321
1567.79098,0.00296
1565.73081,0.00267
1563.67064,0.00232
1561.61046,0.00195
1559.55029,0.00166
1557.49012,0.00153
1555.42995,0.00148
1553.36978,0.00141
1551.30960,0.00128
1549.24943,0.00107
1547.18926,0.00074
1545.12909,0.00034
1543.06892,0.00005
1541.00874,0.00000
1538.94857,0.00016
1536.88840,0.00035
1534.82823,0.00045
1532.76805,0.00049
1530.70788,0.00049
1528.64771,0.00039
1526.58754,0.00022
1524.52737,0.00006
1522.46719,0.00000
1520.40702,0.00005
1518.34685,0.00013
1516.28668,0.00020
1514.22651,0.00023
1512.16633,0.00016
1510.10616,0.00003
1508.04599,-0.00004
1505.98582,0.00011
1503.92565,0.00038
1501.86547,0.00060
1499.80530,0.00071
1497.74513,0.00075
1495.68496,0.00076
1493.62478,0.00075
1491.56461,0.00071
1489.50444,0.00070
1487.44427,0.00082
1485.38410,0.00104
1483.32392,0.00131
1481.26375,0.00159
1479.20358,0.00185
1477.14341,0.00214
1475.08324,0.00253
1473.02306,0.00308
1470.96289,0.00371
1468.90272,0.00429
1466.84255,0.00479
1464.78238,0.00522
1462.72220,0.00556
1460.66203,0.00577
1458.60186,0.00592
1456.54169,0.00615
1454.48151,0.00649
1452.42134,0.00683
1450.36117,0.00715
1448.30100,0.00743
1446.24083,0.00769
1444.18065,0.00789
1442.12048,0.00804
1440.06031,0.00819
1438.00014,0.00842
1435.93997,0.00873
1433.87979,0.00907
1431.81962,0.00941
1429.75945,0.00979
1427.69928,0.01021
1425.63910,0.01061
1423.57893,0.01094
1421.51876,0.01118
1419.45859,0.01134
1417.39842,0.01151
1415.33824,0.01165
1413.27807,0.01172
1411.21790,0.01167
1409.15773,0.01150
1407.09756,0.01124
1405.03738,0.01091
1402.97721,0.01057
1400.91704,0.01023
1398.85687,0.00996
1396.79670,0.00979
1394.73652,0.00971
1392.67635,0.00968
1390.61618,0.00966
1388.55601,0.00965
1386.49583,0.00971
1384.43566,0.00984
1382.37549,0.01000
1380.31532,0.01016
1378.25515,0.01033
1376.19497,0.01050
1374.13480,0.01068
1372.07463,0.01086
1370.01446,0.01099
1367.95429,0.01096
1365.89411,0.01080
1363.83394,0.01057
1361.77377,0.01040
1359.71360,0.01027
1357.65343,0.01016
1355.59325,0.01004
1353.53308,0.00990
1351.47291,0.00975
1349.41274,0.00957
1347.35256,0.00937
1345.29239,0.00913
1343.23222,0.00884
1341.17205,0.00855
1339.11188,0.00837
1337.05170,0.00836
1334.99153,0.00848
1332.93136,0.00865
1330.87119,0.00883
1328.81102,0.00897
1326.75084,0.00907
1324.69067,0.00913
1322.63050,0.00916
1320.57033,0.00920
1318.51015,0.00925
1316.44998,0.00933
1314.38981,0.00939
1312.32964,0.00942
1310.26947,0.00936
1308.20929,0.00919
1306.14912,0.00892
1304.08895,0.00862
1302.02878,0.00839
1299.96861,0.00825
1297.90843,0.00817
1295.84826,0.00806
1293.78809,0.00792
1291.72792,0.00774
1289.66775,0.00754
1287.60757,0.00737
1285.54740,0.00731
1283.48723,0.00732
1281.42706,0.00736
1279.36688,0.00739
1277.30671,0.00742
1275.24654,0.00749
1273.18637,0.00762
1271.12620,0.00784
1269.06602,0.00819
1267.00585,0.00869
1264.94568,0.00930
1262.88551,0.00995
1260.82534,0.01052
1258.76516,0.01094
1256.70499,0.01120
1254.64482,0.01133
1252.58465,0.01143
1250.52447,0.01154
1248.46430,0.01163
1246.40413,0.01163
1244.34396,0.01153
1242.28379,0.01136
1240.22361,0.01117
1238.16344,0.01094
1236.10327,0.01065
1234.04310,0.01028
1231.98293,0.00988
1229.92275,0.00946
1227.86258,0.00903
1225.80241,0.00862
1223.74224,0.00825
1221.68207,0.00788
1219.62189,0.00748
1217.56172,0.00700
1215.50155,0.00647
1213.44138,0.00592
1211.38120,0.00534
1209.32103,0.00473
1207.26086,0.00406
1205.20069,0.00335
1203.14052,0.00263
1201.08034,0.00200
1199.02017,0.00147
1196.96000,0.00104
1194.89983,0.00065
1192.83966,0.00036
1190.77948,0.00020
1188.71931,0.00010
1186.65914,0.00000
1184.59897,-0.00008
1182.53880,0.00006
1180.47862,0.00050
1178.41845,0.00115
1176.35828,0.00196
1174.29811,0.00284
1172.23793,0.00365
1170.17776,0.00436
1168.11759,0.00509
1166.05742,0.00587
1163.99725,0.00662
1161.93707,0.00725
1159.87690,0.00789
1157.81673,0.00865
1155.75656,0.00941
1153.69639,0.01000
1151.63621,0.01044
1149.57604,0.01088
1147.51587,0.01145
1145.45570,0.01205
1143.39552,0.01241
1141.33535,0.01251
1139.27518,0.01261
1137.21501,0.01290
1135.15484,0.01326
1133.09466,0.01359
1131.03449,0.01394
1128.97432,0.01440
1126.91415,0.01494
1124.85398,0.01549
1122.79380,0.01616
1120.73363,0.01706
1118.67346,0.01794
1116.61329,0.01850
1114.55312,0.01887
1112.49294,0.01935
1110.43277,0.01994
1108.37260,0.02049
1106.31243,0.02103
1104.25225,0.02168
1102.19208,0.02241
1100.13191,0.02328
1098.07174,0.02435
1096.01157,0.02553
1093.95139,0.02665
1091.89122,0.02773
1089.83105,0.02869
1087.77088,0.02938
1085.71071,0.02986
1083.65053,0.03041
1081.59036,0.03119
1079.53019,0.03209
1077.47002,0.03296
1075.40985,0.03373
1073.34967,0.03446
1071.28950,0.03522
1069.22933,0.03596
1067.16916,0.03653
1065.10898,0.03697
1063.04881,0.03739
1060.98864,0.03779
1058.92847,0.03816
1056.86830,0.03852
1054.80812,0.03885
1052.74795,0.03931
1050.68778,0.03993
1048.62761,0.04058
1046.56744,0.04120
1044.50726,0.04188
1042.44709,0.04251
1040.38692,0.04304
1038.32675,0.04353
1036.26657,0.04394
1034.20640,0.04422
1032.14623,0.04443
1030.08606,0.04455
1028.02589,0.04455
1025.96571,0.04451
1023.90554,0.04452
1021.84537,0.04457
1019.78520,0.04456
1017.72503,0.04456
1015.66485,0.04462
1013.60468,0.04464
1011.54451,0.04457
1009.48434,0.04440
1007.42417,0.04411
1005.36399,0.04366
1003.30382,0.04309
1001.24365,0.04249
999.18348,0.04190
997.12330,0.04139
995.06313,0.04087
993.00296,0.04025
990.94279,0.03966
988.88262,0.03930
986.82244,0.03906
984.76227,0.03865
982.70210,0.03803
980.64193,0.03744
978.58176,0.03702
976.52158,0.03665
974.46141,0.03617
972.40124,0.03564
970.34107,0.03522
968.28089,0.03492
966.22072,0.03448
964.16055,0.03378
962.10038,0.03303
960.04021,0.03232
957.98003,0.03157
955.91986,0.03087
953.85969,0.03041
951.79952,0.03002
949.73935,0.02947
947.67917,0.02870
945.61900,0.02759
943.55883,0.02614
941.49866,0.02454
939.43849,0.02289
937.37831,0.02110
935.31814,0.01918
933.25797,0.01733
931.19780,0.01573
929.13762,0.01437
927.07745,0.01310
925.01728,0.01181
922.95711,0.01056
920.89694,0.00955
918.83676,0.00881
916.77659,0.00816
914.71642,0.00746
912.65625,0.00682
910.59608,0.00636
908.53590,0.00610
906.47573,0.00592
904.41556,0.00580
902.35539,0.00588
900.29522,0.00619
898.23504,0.00659
896.17487,0.00693
894.11470,0.00700
892.05453,0.00664
889.99435,0.00612
887.93418,0.00578
885.87401,0.00546
883.81384,0.00497
881.75367,0.00441
879.69349,0.00381
877.63332,0.00317
875.57315,0.00275
873.51298,0.00265
871.45281,0.00257
869.39263,0.00241
867.33246,0.00221
865.27229,0.00203
863.21212,0.00199
861.15194,0.00216
859.09177,0.00235
857.03160,0.00227
854.97143,0.00191
852.91126,0.00157
850.85108,0.00136
848.79091,0.00118
846.73074,0.00104
844.67057,0.00097
842.61040,0.00080
840.55022,0.00038
838.49005,0.00000
836.42988,-0.00002
834.36971,0.00020
832.30954,0.00025
830.24936,0.00019
828.18919,0.00011
826.12902,-0.00013
824.06885,-0.00041
822.00867,-0.00029
819.94850,0.00028
817.88833,0.00079
815.82816,0.00093
813.76799,0.00095
811.70781,0.00103
809.64764,0.00099
807.58747,0.00080
805.52730,0.00071
803.46713,0.00086
801.40695,0.00097
799.34678,0.00086
797.28661,0.00063
795.22644,0.00041
793.16627,0.00024
791.10609,0.00019
789.04592,0.00026
786.98575,0.00042
784.92558,0.00066
782.86540,0.00062
780.80523,0.00004
778.74506,-0.00064
776.68489,-0.00093
774.62472,-0.00092
772.56454,-0.00082
770.50437,-0.00051
768.44420,-0.00004
766.38403,0.00025
764.32386,0.00026
762.26368,0.00025
760.20351,0.00035
758.14334,0.00040
756.08317,0.00029
754.02299,0.00007
751.96282,0.00000
749.90265,0.00018
747.84248,0.00032
745.78231,0.00013
743.72213,-0.00016
741.66196,-0.00018
739.60179,0.00008
737.54162,0.00016
735.48145,0.00003
733.42127,-0.00005
731.36110,-0.00020
729.30093,-0.00046
727.24076,-0.00048
725.18059,-0.00036
723.12041,-0.00033
721.06024,-0.00017
719.00007,0.00031
716.93990,0.00101
714.87972,0.00172
712.81955,0.00230
710.75938,0.00265
708.69921,0.00267
706.63904,0.00235
704.57886,0.00196
702.51869,0.00181
700.45852,0.00191
698.39835,0.00206
696.33818,0.00215
694.27800,0.00218
692.21783,0.00214
690.15766,0.00206
688.09749,0.00201
686.03731,0.00205
683.97714,0.00222
681.91697,0.00247
679.85680,0.00257
677.79663,0.00231
675.73645,0.00174
673.67628,0.00117
671.61611,0.00087
669.55594,0.00096
667.49577,0.00131
665.43559,0.00168
663.37542,0.00192
661.31525,0.00193
659.25508,0.00159
657.19491,0.00093
655.13473,0.00037
653.07456,0.00042
651.01439,0.00135
648.95422,0.00276
646.89404,0.00375
644.83387,0.00366
642.77370,0.00284
640.71353,0.00220
638.65336,0.00221
636.59318,0.00263
634.53301,0.00312
632.47284,0.00357
630.41267,0.00373
628.35250,0.00307
626.29232,0.00133
624.23215,0.00000
622.17198,0.00030
620.11181,0.00195
618.05164,0.00282
615.99146,0.00201
613.93129,0.00036
611.87112,-0.00100
609.81095,-0.00149
607.75077,-0.00096
605.69060,0.00026
603.63043,0.00157
601.57026,0.00166
599.51009,0.00000
