3996.73391,0.00000
3994.67373,0.00047
3992.61356,0.00090
3990.55339,0.00118
3988.49322,0.00126
3986.43305,0.00118
3984.37287,0.00102
3982.31270,0.00087
3980.25253,0.00084
3978.19236,0.00095
3976.13219,0.00107
3974.07201,0.00115
3972.01184,0.00115
3969.95167,0.00107
3967.89150,0.00091
3965.83133,0.00075
3963.77115,0.00067
3961.71098,0.00073
3959.65081,0.00087
3957.59064,0.00102
3955.53046,0.00117
3953.47029,0.00132
3951.41012,0.00143
3949.34995,0.00146
3947.28978,0.00133
3945.22960,0.00110
3943.16943,0.00085
3941.10926,0.00065
3939.04909,0.00050
3936.98892,0.00038
3934.92874,0.00028
3932.86857,0.00032
3930.80840,0.00050
3928.74823,0.00076
3926.68805,0.00097
3924.62788,0.00111
3922.56771,0.00117
3920.50754,0.00123
3918.44737,0.00135
3916.38719,0.00144
3914.32702,0.00138
3912.26685,0.00118
3910.20668,0.00099
3908.14651,0.00090
3906.08633,0.00092
3904.02616,0.00096
3901.96599,0.00086
3899.90582,0.00062
3897.84565,0.00042
3895.78547,0.00034
3893.72530,0.00034
3891.66513,0.00041
3889.60496,0.00055
3887.54478,0.00077
3885.48461,0.00107
3883.42444,0.00139
3881.36427,0.00156
3879.30410,0.00140
3877.24392,0.00093
3875.18375,0.00041
3873.12358,0.00005
3871.06341,0.00000
3869.00324,0.00030
3866.94306,0.00084
3864.88289,0.00129
3862.82272,0.00140
3860.76255,0.00117
3858.70237,0.00084
3856.64220,0.00069
3854.58203,0.00082
3852.52186,0.00103
3850.46169,0.00101
3848.40151,0.00076
3846.34134,0.00061
3844.28117,0.00080
3842.22100,0.00131
3840.16083,0.00187
3838.10065,0.00214
3836.04048,0.00202
3833.98031,0.00167
3831.92014,0.00130
3829.85997,0.00094
3827.79979,0.00064
3825.73962,0.00049
3823.67945,0.00053
3821.61928,0.00068
3819.55910,0.00083
3817.49893,0.00087
3815.43876,0.00083
3813.37859,0.00083
3811.31842,0.00092
3809.25824,0.00103
3807.19807,0.00104
3805.13790,0.00091
3803.07773,0.00076
3801.01756,0.00076
3798.95738,0.00093
3796.89721,0.00116
3794.83704,0.00130
3792.77687,0.00131
3790.71670,0.00131
3788.65652,0.00139
3786.59635,0.00152
3784.53618,0.00159
3782.47601,0.00151
3780.41583,0.00136
3778.35566,0.00119
3776.29549,0.00098
3774.23532,0.00069
3772.17515,0.00036
3770.11497,0.00011
3768.05480,0.00004
3765.99463,0.00017
3763.93446,0.00048
3761.87429,0.00091
3759.81411,0.00137
3757.75394,0.00169
3755.69377,0.00176
3753.63360,0.00167
3751.57342,0.00162
3749.51325,0.00156
3747.45308,0.00135
3745.39291,0.00102
3743.33274,0.00072
3741.27256,0.00058
3739.21239,0.00055
3737.15222,0.00060
3735.09205,0.00071
3733.03188,0.00087
3730.97170,0.00105
3728.91153,0.00121
3726.85136,0.00129
3724.79119,0.00125
3722.73102,0.00110
3720.67084,0.00095
3718.61067,0.00089
3716.55050,0.00094
3714.49033,0.00103
3712.43015,0.00102
3710.36998,0.00084
3708.30981,0.00055
3706.24964,0.00025
3704.18947,0.00008
3702.12929,0.00010
3700.06912,0.00036
3698.00895,0.00079
3695.94878,0.00119
3693.88861,0.00138
3691.82843,0.00131
3689.76826,0.00108
3687.70809,0.00092
3685.64792,0.00090
3683.58775,0.00094
3681.52757,0.00098
3679.46740,0.00101
3677.40723,0.00095
3675.34706,0.00071
3673.28688,0.00033
3671.22671,0.00006
3669.16654,0.00012
3667.10637,0.00042
3665.04620,0.00073
3662.98602,0.00096
3660.92585,0.00111
3658.86568,0.00122
3656.80551,0.00131
3654.74534,0.00138
3652.68516,0.00147
3650.62499,0.00157
3648.56482,0.00160
3646.50465,0.00149
3644.44447,0.00132
3642.38430,0.00120
3640.32413,0.00121
3638.26396,0.00129
3636.20379,0.00135
3634.14361,0.00128
3632.08344,0.00108
3630.02327,0.00090
3627.96310,0.00090
3625.90293,0.00107
3623.84275,0.00132
3621.78258,0.00157
3619.72241,0.00179
3617.66224,0.00200
3615.60207,0.00216
3613.54189,0.00228
3611.48172,0.00241
3609.42155,0.00253
3607.36138,0.00256
3605.30120,0.00251
3603.24103,0.00241
3601.18086,0.00230
3599.12069,0.00225
3597.06052,0.00228
3595.00034,0.00234
3592.94017,0.00244
3590.88000,0.00265
3588.81983,0.00290
3586.75966,0.00301
3584.69948,0.00286
3582.63931,0.00258
3580.57914,0.00237
3578.51897,0.00236
3576.45879,0.00262
3574.39862,0.00304
3572.33845,0.00341
3570.27828,0.00359
3568.21811,0.00357
3566.15793,0.00344
3564.09776,0.00327
3562.03759,0.00308
3559.97742,0.00290
3557.91725,0.00278
3555.85707,0.00277
3553.79690,0.00290
3551.73673,0.00304
3549.67656,0.00310
3547.61639,0.00316
3545.55621,0.00345
3543.49604,0.00392
3541.43587,0.00433
3539.37570,0.00449
3537.31552,0.00443
3535.25535,0.00428
3533.19518,0.00423
3531.13501,0.00433
3529.07484,0.00446
3527.01466,0.00445
3524.95449,0.00432
3522.89432,0.00428
3520.83415,0.00436
3518.77398,0.00446
3516.71380,0.00450
3514.65363,0.00449
3512.59346,0.00445
3510.53329,0.00446
3508.47312,0.00459
3506.41294,0.00482
3504.35277,0.00499
3502.29260,0.00502
3500.23243,0.00502
3498.17225,0.00506
3496.11208,0.00512
3494.05191,0.00513
3491.99174,0.00513
3489.93157,0.00514
3487.87139,0.00518
3485.81122,0.00522
3483.75105,0.00525
3481.69088,0.00528
3479.63071,0.00533
3477.57053,0.00535
3475.51036,0.00524
3473.45019,0.00504
3471.39002,0.00494
3469.32984,0.00507
3467.26967,0.00536
3465.20950,0.00565
3463.14933,0.00587
3461.08916,0.00601
3459.02898,0.00614
3456.96881,0.00623
3454.90864,0.00630
3452.84847,0.00639
3450.78830,0.00655
3448.72812,0.00672
3446.66795,0.00683
3444.60778,0.00679
3442.54761,0.00663
3440.48744,0.00645
3438.42726,0.00635
3436.36709,0.00634
3434.30692,0.00637
3432.24675,0.00635
3430.18657,0.00631
3428.12640,0.00629
3426.06623,0.00630
3424.00606,0.00628
3421.94589,0.00621
3419.88571,0.00614
3417.82554,0.00612
3415.76537,0.00610
3413.70520,0.00608
3411.64503,0.00611
3409.58485,0.00627
3407.52468,0.00654
3405.46451,0.00685
3403.40434,0.00714
3401.34416,0.00736
3399.28399,0.00756
3397.22382,0.00770
3395.16365,0.00776
3393.10348,0.00776
3391.04330,0.00777
3388.98313,0.00781
3386.92296,0.00783
3384.86279,0.00782
3382.80262,0.00775
3380.74244,0.00760
3378.68227,0.00740
3376.62210,0.00726
3374.56193,0.00728
3372.50176,0.00747
3370.44158,0.00769
3368.38141,0.00781
3366.32124,0.00778
3364.26107,0.00766
3362.20089,0.00753
3360.14072,0.00747
3358.08055,0.00749
3356.02038,0.00757
3353.96021,0.00767
3351.90003,0.00772
3349.83986,0.00770
3347.77969,0.00770
3345.71952,0.00779
3343.65935,0.00796
3341.59917,0.00811
3339.53900,0.00823
3337.47883,0.00829
3335.41866,0.00826
3333.35849,0.00816
3331.29831,0.00801
3329.23814,0.00789
3327.17797,0.00783
3325.11780,0.00784
3323.05762,0.00792
3320.99745,0.00804
3318.93728,0.00810
3316.87711,0.00805
3314.81694,0.00795
3312.75676,0.00796
3310.69659,0.00810
3308.63642,0.00826
3306.57625,0.00828
3304.51608,0.00812
3302.45590,0.00788
3300.39573,0.00771
3298.33556,0.00772
3296.27539,0.00784
3294.21521,0.00796
3292.15504,0.00802
3290.09487,0.00804
3288.03470,0.00804
3285.97453,0.00803
3283.91435,0.00799
3281.85418,0.00793
3279.79401,0.00790
3277.73384,0.00799
3275.67367,0.00819
3273.61349,0.00844
3271.55332,0.00862
3269.49315,0.00863
3267.43298,0.00852
3265.37281,0.00840
3263.31263,0.00833
3261.25246,0.00827
3259.19229,0.00815
3257.13212,0.00799
3255.07194,0.00788
3253.01177,0.00785
3250.95160,0.00787
3248.89143,0.00791
3246.83126,0.00799
3244.77108,0.00805
3242.71091,0.00805
3240.65074,0.00799
3238.59057,0.00792
3236.53040,0.00787
3234.47022,0.00782
3232.41005,0.00775
3230.34988,0.00766
3228.28971,0.00755
3226.22954,0.00744
3224.16936,0.00733
3222.10919,0.00721
3220.04902,0.00713
3217.98885,0.00713
3215.92867,0.00721
3213.86850,0.00734
3211.80833,0.00748
3209.74816,0.00756
3207.68799,0.00753
3205.62781,0.00741
3203.56764,0.00731
3201.50747,0.00725
3199.44730,0.00720
3197.38713,0.00710
3195.32695,0.00702
3193.26678,0.00705
3191.20661,0.00718
3189.14644,0.00730
3187.08626,0.00735
3185.02609,0.00730
3182.96592,0.00713
3180.90575,0.00691
3178.84558,0.00675
3176.78540,0.00672
3174.72523,0.00681
3172.66506,0.00692
3170.60489,0.00702
3168.54472,0.00707
3166.48454,0.00707
3164.42437,0.00695
3162.36420,0.00675
3160.30403,0.00652
3158.24386,0.00636
3156.18368,0.00629
3154.12351,0.00629
3152.06334,0.00631
3150.00317,0.00633
3147.94299,0.00637
3145.88282,0.00639
3143.82265,0.00633
3141.76248,0.00617
3139.70231,0.00601
3137.64213,0.00591
3135.58196,0.00590
3133.52179,0.00589
3131.46162,0.00586
3129.40145,0.00585
3127.34127,0.00589
3125.28110,0.00598
3123.22093,0.00608
3121.16076,0.00614
3119.10058,0.00616
3117.04041,0.00610
3114.98024,0.00591
3112.92007,0.00562
3110.85990,0.00537
3108.79972,0.00527
3106.73955,0.00531
3104.67938,0.00536
3102.61921,0.00533
3100.55904,0.00520
3098.49886,0.00502
3096.43869,0.00483
3094.37852,0.00469
3092.31835,0.00462
3090.25818,0.00464
3088.19800,0.00477
3086.13783,0.00495
3084.07766,0.00510
3082.01749,0.00514
3079.95731,0.00509
3077.89714,0.00500
3075.83697,0.00494
3073.77680,0.00494
3071.71663,0.00499
3069.65645,0.00496
3067.59628,0.00477
3065.53611,0.00442
3063.47594,0.00409
3061.41577,0.00395
3059.35559,0.00408
3057.29542,0.00442
3055.23525,0.00475
3053.17508,0.00487
3051.11491,0.00471
3049.05473,0.00442
3046.99456,0.00419
3044.93439,0.00409
3042.87422,0.00410
3040.81404,0.00417
3038.75387,0.00427
3036.69370,0.00432
3034.63353,0.00424
3032.57336,0.00405
3030.51318,0.00386
3028.45301,0.00373
3026.39284,0.00369
3024.33267,0.00373
3022.27250,0.00380
3020.21232,0.00390
3018.15215,0.00398
3016.09198,0.00399
3014.03181,0.00392
3011.97163,0.00379
3009.91146,0.00362
3007.85129,0.00347
3005.79112,0.00345
3003.73095,0.00360
3001.67077,0.00388
2999.61060,0.00414
2997.55043,0.00421
2995.49026,0.00412
2993.43009,0.00400
2991.36991,0.00395
2989.30974,0.00398
2987.24957,0.00398
2985.18940,0.00383
2983.12923,0.00362
2981.06905,0.00354
2979.00888,0.00366
2976.94871,0.00393
2974.88854,0.00417
2972.82836,0.00421
2970.76819,0.00405
2968.70802,0.00379
2966.64785,0.00358
2964.58768,0.00367
2962.52750,0.00399
2960.46733,0.00428
2958.40716,0.00447
2956.34699,0.00458
2954.28682,0.00463
2952.22664,0.00480
2950.16647,0.00509
2948.10630,0.00525
2946.04613,0.00521
2943.98596,0.00513
2941.92578,0.00514
2939.86561,0.00521
2937.80544,0.00533
2935.74527,0.00550
2933.68509,0.00564
2931.62492,0.00570
2929.56475,0.00571
2927.50458,0.00573
2925.44441,0.00572
2923.38423,0.00554
2921.32406,0.00527
2919.26389,0.00508
2917.20372,0.00498
2915.14355,0.00487
2913.08337,0.00474
2911.02320,0.00467
2908.96303,0.00468
2906.90286,0.00467
2904.84268,0.00458
2902.78251,0.00449
2900.72234,0.00449
2898.66217,0.00456
2896.60200,0.00458
2894.54182,0.00451
2892.48165,0.00447
2890.42148,0.00449
2888.36131,0.00452
2886.30114,0.00460
2884.24096,0.00482
2882.18079,0.00507
2880.12062,0.00510
2878.06045,0.00488
2876.00028,0.00462
2873.94010,0.00448
2871.87993,0.00449
2869.81976,0.00464
2867.75959,0.00486
2865.69941,0.00495
2863.63924,0.00484
2861.57907,0.00472
2859.51890,0.00466
2857.45873,0.00453
2855.39855,0.00437
2853.33838,0.00434
2851.27821,0.00442
2849.21804,0.00443
2847.15787,0.00425
2845.09769,0.00396
2843.03752,0.00373
2840.97735,0.00370
2838.91718,0.00386
2836.85700,0.00401
2834.79683,0.00396
2832.73666,0.00376
2830.67649,0.00364
2828.61632,0.00367
2826.55614,0.00370
2824.49597,0.00376
2822.43580,0.00390
2820.37563,0.00395
2818.31546,0.00381
2816.25528,0.00360
2814.19511,0.00343
2812.13494,0.00329
2810.07477,0.00327
2808.01460,0.00338
2805.95442,0.00353
2803.89425,0.00359
2801.83408,0.00353
2799.77391,0.00338
2797.71373,0.00334
2795.65356,0.00358
2793.59339,0.00391
2791.53322,0.00407
2789.47305,0.00392
2787.41287,0.00361
2785.35270,0.00338
2783.29253,0.00333
2781.23236,0.00336
2779.17219,0.00344
2777.11201,0.00362
2775.05184,0.00388
2772.99167,0.00407
2770.93150,0.00408
2768.87133,0.00398
2766.81115,0.00392
2764.75098,0.00393
2762.69081,0.00395
2760.63064,0.00392
2758.57046,0.00379
2756.51029,0.00364
2754.45012,0.00356
2752.38995,0.00356
2750.32978,0.00352
2748.26960,0.00342
2746.20943,0.00342
2744.14926,0.00360
2742.08909,0.00381
2740.02892,0.00381
2737.96874,0.00363
2735.90857,0.00353
2733.84840,0.00362
2731.78823,0.00372
2729.72805,0.00369
2727.66788,0.00362
2725.60771,0.00368
2723.54754,0.00385
2721.48737,0.00397
2719.42719,0.00405
2717.36702,0.00410
2715.30685,0.00407
2713.24668,0.00396
2711.18651,0.00379
2709.12633,0.00358
2707.06616,0.00338
2705.00599,0.00336
2702.94582,0.00354
2700.88565,0.00369
2698.82547,0.00364
2696.76530,0.00348
2694.70513,0.00335
2692.64496,0.00328
2690.58478,0.00333
2688.52461,0.00347
2686.46444,0.00357
2684.40427,0.00358
2682.34410,0.00358
2680.28392,0.00362
2678.22375,0.00374
2676.16358,0.00387
2674.10341,0.00393
2672.04324,0.00385
2669.98306,0.00373
2667.92289,0.00375
2665.86272,0.00392
2663.80255,0.00399
2661.74238,0.00392
2659.68220,0.00384
2657.62203,0.00382
2655.56186,0.00381
2653.50169,0.00378
2651.44151,0.00376
2649.38134,0.00374
2647.32117,0.00363
2645.26100,0.00346
2643.20083,0.00344
2641.14065,0.00355
2639.08048,0.00357
2637.02031,0.00336
2634.96014,0.00313
2632.89997,0.00313
2630.83979,0.00338
2628.77962,0.00363
2626.71945,0.00366
2624.65928,0.00350
2622.59910,0.00332
2620.53893,0.00324
2618.47876,0.00328
2616.41859,0.00350
2614.35842,0.00368
2612.29824,0.00351
2610.23807,0.00316
2608.17790,0.00306
2606.11773,0.00331
2604.05756,0.00356
2601.99738,0.00347
2599.93721,0.00335
2597.87704,0.00358
2595.81687,0.00394
2593.75670,0.00398
2591.69652,0.00371
2589.63635,0.00336
2587.57618,0.00307
2585.51601,0.00296
2583.45583,0.00312
2581.39566,0.00341
2579.33549,0.00359
2577.27532,0.00363
2575.21515,0.00360
2573.15497,0.00352
2571.09480,0.00336
2569.03463,0.00318
2566.97446,0.00309
2564.91429,0.00304
2562.85411,0.00292
2560.79394,0.00281
2558.73377,0.00284
2556.67360,0.00304
2554.61342,0.00335
2552.55325,0.00351
2550.49308,0.00341
2548.43291,0.00330
2546.37274,0.00342
2544.31256,0.00366
2542.25239,0.00373
2540.19222,0.00355
2538.13205,0.00332
2536.07188,0.00325
2534.01170,0.00338
2531.95153,0.00363
2529.89136,0.00376
2527.83119,0.00358
2525.77102,0.00325
2523.71084,0.00304
2521.65067,0.00296
2519.59050,0.00295
2517.53033,0.00297
2515.47015,0.00306
2513.40998,0.00324
2511.34981,0.00336
2509.28964,0.00326
2507.22947,0.00297
2505.16929,0.00267
2503.10912,0.00265
2501.04895,0.00289
2498.98878,0.00312
2496.92861,0.00314
2494.86843,0.00294
2492.80826,0.00277
2490.74809,0.00299
2488.68792,0.00343
2486.62775,0.00357
2484.56757,0.00343
2482.50740,0.00327
2480.44723,0.00310
2478.38706,0.00299
2476.32688,0.00314
2474.26671,0.00349
2472.20654,0.00371
2470.14637,0.00360
2468.08620,0.00337
2466.02602,0.00334
2463.96585,0.00341
2461.90568,0.00348
2459.84551,0.00357
2457.78534,0.00355
2455.72516,0.00339
2453.66499,0.00336
2451.60482,0.00357
2449.54465,0.00379
2447.48447,0.00372
2445.42430,0.00346
2443.36413,0.00323
2441.30396,0.00313
2439.24379,0.00317
2437.18361,0.00323
2435.12344,0.00314
2433.06327,0.00298
2431.00310,0.00296
2428.94293,0.00309
2426.88275,0.00321
2424.82258,0.00328
2422.76241,0.00333
2420.70224,0.00335
2418.64207,0.00330
2416.58189,0.00320
2414.52172,0.00309
2412.46155,0.00310
2410.40138,0.00327
2408.34120,0.00334
2406.28103,0.00318
2404.22086,0.00306
2402.16069,0.00319
2400.10052,0.00344
2398.04034,0.00352
2395.98017,0.00337
2393.92000,0.00309
2391.85983,0.00288
2389.79966,0.00285
2387.73948,0.00295
2385.67931,0.00304
2383.61914,0.00308
2381.55897,0.00314
2379.49880,0.00326
2377.43862,0.00337
2375.37845,0.00334
2373.31828,0.00320
2371.25811,0.00295
2369.19793,0.00250
2367.13776,0.00194
2365.07759,0.00175
2363.01742,0.00223
2360.95725,0.00298
2358.89707,0.00339
2356.83690,0.00347
2354.77673,0.00357
2352.71656,0.00369
2350.65639,0.00360
2348.59621,0.00328
2346.53604,0.00297
2344.47587,0.00297
2342.41570,0.00340
2340.35552,0.00408
2338.29535,0.00465
2336.23518,0.00487
2334.17501,0.00482
2332.11484,0.00475
2330.05466,0.00470
2327.99449,0.00449
2325.93432,0.00407
2323.87415,0.00370
2321.81398,0.00368
2319.75380,0.00400
2317.69363,0.00436
2315.63346,0.00444
2313.57329,0.00417
2311.51312,0.00371
2309.45294,0.00328
2307.39277,0.00311
2305.33260,0.00332
2303.27243,0.00370
2301.21225,0.00392
2299.15208,0.00387
2297.09191,0.00374
2295.03174,0.00373
2292.97157,0.00392
2290.91139,0.00427
2288.85122,0.00461
2286.79105,0.00474
2284.73088,0.00462
2282.67071,0.00444
2280.61053,0.00439
2278.55036,0.00455
2276.49019,0.00480
2274.43002,0.00497
2272.36984,0.00492
2270.30967,0.00462
2268.24950,0.00416
2266.18933,0.00369
2264.12916,0.00334
2262.06898,0.00317
2260.00881,0.00328
2257.94864,0.00361
2255.88847,0.00394
2253.82830,0.00405
2251.76812,0.00397
2249.70795,0.00386
2247.64778,0.00376
2245.58761,0.00338
2243.52744,0.00282
2241.46726,0.00254
2239.40709,0.00265
2237.34692,0.00283
2235.28675,0.00291
2233.22657,0.00308
2231.16640,0.00326
2229.10623,0.00335
2227.04606,0.00361
2224.98589,0.00403
2222.92571,0.00407
2220.86554,0.00357
2218.80537,0.00328
2216.74520,0.00360
2214.68503,0.00408
2212.62485,0.00436
2210.56468,0.00436
2208.50451,0.00421
2206.44434,0.00435
2204.38417,0.00474
2202.32399,0.00466
2200.26382,0.00380
2198.20365,0.00278
2196.14348,0.00252
2194.08330,0.00337
2192.02313,0.00465
2189.96296,0.00542
2187.90279,0.00540
2185.84262,0.00472
2183.78244,0.00350
2181.72227,0.00218
2179.66210,0.00168
2177.60193,0.00208
2175.54176,0.00258
2173.48158,0.00287
2171.42141,0.00315
2169.36124,0.00306
2167.30107,0.00208
2165.24089,0.00072
2163.18072,0.00000
2161.12055,0.00031
2159.06038,0.00158
2157.00021,0.00320
2154.94003,0.00421
2152.87986,0.00437
2150.81969,0.00427
2148.75952,0.00387
2146.69935,0.00324
2144.63917,0.00305
2142.57900,0.00324
2140.51883,0.00310
2138.45866,0.00254
2136.39849,0.00212
2134.33831,0.00186
2132.27814,0.00168
2130.21797,0.00197
2128.15780,0.00259
2126.09762,0.00294
2124.03745,0.00294
2121.97728,0.00293
2119.91711,0.00293
2117.85694,0.00274
2115.79676,0.00242
2113.73659,0.00232
2111.67642,0.00233
2109.61625,0.00239
2107.55608,0.00282
2105.49590,0.00354
2103.43573,0.00404
2101.37556,0.00406
2099.31539,0.00369
2097.25521,0.00323
2095.19504,0.00291
2093.13487,0.00267
2091.07470,0.00241
2089.01453,0.00225
2086.95435,0.00234
2084.89418,0.00265
2082.83401,0.00309
2080.77384,0.00368
2078.71367,0.00425
2076.65349,0.00447
2074.59332,0.00427
2072.53315,0.00387
2070.47298,0.00351
2068.41281,0.00328
2066.35263,0.00325
2064.29246,0.00334
2062.23229,0.00341
2060.17212,0.00336
2058.11194,0.00325
2056.05177,0.00326
2053.99160,0.00344
2051.93143,0.00370
2049.87126,0.00387
2047.81108,0.00385
2045.75091,0.00368
2043.69074,0.00337
2041.63057,0.00287
2039.57040,0.00234
2037.51022,0.00208
2035.45005,0.00225
2033.38988,0.00270
2031.32971,0.00318
2029.26954,0.00347
2027.20936,0.00345
2025.14919,0.00319
2023.08902,0.00277
2021.02885,0.00225
2018.96867,0.00187
2016.90850,0.00186
2014.84833,0.00212
2012.78816,0.00254
2010.72799,0.00316
2008.66781,0.00379
2006.60764,0.00407
2004.54747,0.00382
2002.48730,0.00303
2000.42713,0.00207
1998.36695,0.00151
1996.30678,0.00152
1994.24661,0.00185
1992.18644,0.00237
1990.12626,0.00314
1988.06609,0.00402
1986.00592,0.00454
1983.94575,0.00428
1981.88558,0.00326
1979.82540,0.00193
1977.76523,0.00092
1975.70506,0.00068
1973.64489,0.00104
1971.58472,0.00145
1969.52454,0.00154
1967.46437,0.00131
1965.40420,0.00110
1963.34403,0.00116
1961.28386,0.00129
1959.22368,0.00110
1957.16351,0.00058
1955.10334,0.00017
1953.04317,0.00019
1950.98299,0.00053
1948.92282,0.00085
1946.86265,0.00100
1944.80248,0.00108
1942.74231,0.00129
1940.68213,0.00169
1938.62196,0.00205
1936.56179,0.00216
1934.50162,0.00208
1932.44145,0.00205
1930.38127,0.00213
1928.32110,0.00213
1926.26093,0.00192
1924.20076,0.00157
1922.14059,0.00133
1920.08041,0.00133
1918.02024,0.00148
1915.96007,0.00165
1913.89990,0.00175
1911.83972,0.00177
1909.77955,0.00173
1907.71938,0.00173
1905.65921,0.00172
1903.59904,0.00162
1901.53886,0.00139
1899.47869,0.00115
1897.41852,0.00104
1895.35835,0.00107
1893.29818,0.00117
1891.23800,0.00127
1889.17783,0.00140
1887.11766,0.00151
1885.05749,0.00152
1882.99731,0.00142
1880.93714,0.00129
1878.87697,0.00122
1876.81680,0.00119
1874.75663,0.00117
1872.69645,0.00119
1870.63628,0.00127
1868.57611,0.00134
1866.51594,0.00140
1864.45577,0.00153
1862.39559,0.00173
1860.33542,0.00189
1858.27525,0.00189
1856.21508,0.00175
1854.15491,0.00159
1852.09473,0.00145
1850.03456,0.00136
1847.97439,0.00131
1845.91422,0.00126
1843.85404,0.00123
1841.79387,0.00119
1839.73370,0.00105
1837.67353,0.00080
1835.61336,0.00057
1833.55318,0.00053
1831.49301,0.00064
1829.43284,0.00076
1827.37267,0.00082
1825.31250,0.00083
1823.25232,0.00086
1821.19215,0.00093
1819.13198,0.00101
1817.07181,0.00104
1815.01163,0.00100
1812.95146,0.00092
1810.89129,0.00083
1808.83112,0.00075
1806.77095,0.00069
1804.71077,0.00065
1802.65060,0.00069
1800.59043,0.00085
1798.53026,0.00111
1796.47009,0.00133
1794.40991,0.00138
1792.34974,0.00120
1790.28957,0.00092
1788.22940,0.00070
1786.16923,0.00061
1784.10905,0.00062
1782.04888,0.00065
1779.98871,0.00065
1777.92854,0.00065
1775.86836,0.00073
1773.80819,0.00089
1771.74802,0.00105
1769.68785,0.00110
1767.62768,0.00106
1765.56750,0.00102
1763.50733,0.00107
1761.44716,0.00120
1759.38699,0.00137
1757.32682,0.00153
1755.26664,0.00162
1753.20647,0.00164
1751.14630,0.00165
1749.08613,0.00169
1747.02596,0.00182
1744.96578,0.00207
1742.90561,0.00235
1740.84544,0.00253
1738.78527,0.00254
1736.72509,0.00246
1734.66492,0.00241
1732.60475,0.00242
1730.54458,0.00244
1728.48441,0.00244
1726.42423,0.00245
1724.36406,0.00246
1722.30389,0.00244
1720.24372,0.00240
1718.18355,0.00236
1716.12337,0.00231
1714.06320,0.00223
1712.00303,0.00209
1709.94286,0.00189
1707.88268,0.00168
1705.82251,0.00154
1703.76234,0.00155
1701.70217,0.00171
1699.64200,0.00192
1697.58182,0.00200
1695.52165,0.00185
1693.46148,0.00157
1691.40131,0.00134
1689.34114,0.00124
1687.28096,0.00130
1685.22079,0.00151
1683.16062,0.00179
1681.10045,0.00197
1679.04028,0.00201
1676.98010,0.00198
1674.91993,0.00196
1672.85976,0.00201
1670.79959,0.00219
1668.73941,0.00245
1666.67924,0.00273
1664.61907,0.00296
1662.55890,0.00310
1660.49873,0.00314
1658.43855,0.00314
1656.37838,0.00320
1654.31821,0.00332
1652.25804,0.00340
1650.19787,0.00341
1648.13769,0.00337
1646.07752,0.00329
1644.01735,0.00324
1641.95718,0.00327
1639.89701,0.00343
1637.83683,0.00362
1635.77666,0.00375
1633.71649,0.00378
1631.65632,0.00381
1629.59614,0.00393
1627.53597,0.00416
1625.47580,0.00441
1623.41563,0.00457
1621.35546,0.00459
1619.29528,0.00447
1617.23511,0.00429
1615.17494,0.00409
1613.11477,0.00391
1611.05460,0.00375
1608.99442,0.00361
1606.93425,0.00350
1604.87408,0.00344
1602.81391,0.00338
1600.75373,0.00324
1598.69356,0.00304
1596.63339,0.00285
1594.57322,0.00271
1592.51305,0.00261
1590.45287,0.00249
1588.39270,0.00230
1586.33253,0.00206
1584.27236,0.00180
1582.21219,0.00157
1580.15201,0.00139
1578.09184,0.00134
1576.03167,0.00142
1573.97150,0.00156
1571.91133,0.00170
1569.85115,0.00177
1567.79098,0.00171
1565.73081,0.00155
1563.67064,0.00142
1561.61046,0.00146
1559.55029,0.00158
1557.49012,0.00151
1555.42995,0.00118
1553.36978,0.00082
1551.30960,0.00062
1549.24943,0.00060
1547.18926,0.00071
1545.12909,0.00091
1543.06892,0.00113
1541.00874,0.00126
1538.94857,0.00120
1536.88840,0.00096
1534.82823,0.00062
1532.76805,0.00030
1530.70788,0.00008
1528.64771,0.00000
1526.58754,0.00005
1524.52737,0.00014
1522.46719,0.00021
1520.40702,0.00031
1518.34685,0.00040
1516.28668,0.00041
1514.22651,0.00036
1512.16633,0.00036
1510.10616,0.00052
1508.04599,0.00078
1505.98582,0.00090
1503.92565,0.00074
1501.86547,0.00044
1499.80530,0.00015
1497.74513,-0.00001
1495.68496,0.00000
1493.62478,0.00020
1491.56461,0.00047
1489.50444,0.00068
1487.44427,0.00071
1485.38410,0.00060
1483.32392,0.00044
1481.26375,0.00033
1479.20358,0.00031
1477.14341,0.00040
1475.08324,0.00059
1473.02306,0.00083
1470.96289,0.00106
1468.90272,0.00123
1466.84255,0.00133
1464.78238,0.00139
1462.72220,0.00142
1460.66203,0.00149
1458.60186,0.00164
1456.54169,0.00182
1454.48151,0.00192
1452.42134,0.00193
1450.36117,0.00193
1448.30100,0.00198
1446.24083,0.00208
1444.18065,0.00217
1442.12048,0.00222
1440.06031,0.00226
1438.00014,0.00231
1435.93997,0.00237
1433.87979,0.00242
1431.81962,0.00245
1429.75945,0.00246
1427.69928,0.00250
1425.63910,0.00259
1423.57893,0.00279
1421.51876,0.00307
1419.45859,0.00333
1417.39842,0.00343
1415.33824,0.00331
1413.27807,0.00308
1411.21790,0.00287
1409.15773,0.00275
1407.09756,0.00271
1405.03738,0.00272
1402.97721,0.00279
1400.91704,0.00292
1398.85687,0.00306
1396.79670,0.00317
1394.73652,0.00318
1392.67635,0.00308
1390.61618,0.00292
1388.55601,0.00276
1386.49583,0.00268
1384.43566,0.00269
1382.37549,0.00271
1380.31532,0.00271
1378.25515,0.00272
1376.19497,0.00275
1374.13480,0.00278
1372.07463,0.00282
1370.01446,0.00289
1367.95429,0.00299
1365.89411,0.00304
1363.83394,0.00298
1361.77377,0.00286
1359.71360,0.00276
1357.65343,0.00273
1355.59325,0.00274
1353.53308,0.00273
1351.47291,0.00266
1349.41274,0.00255
1347.35256,0.00242
1345.29239,0.00230
1343.23222,0.00223
1341.17205,0.00222
1339.11188,0.00224
1337.05170,0.00224
1334.99153,0.00222
1332.93136,0.00221
1330.87119,0.00224
1328.81102,0.00232
1326.75084,0.00241
1324.69067,0.00247
1322.63050,0.00251
1320.57033,0.00255
1318.51015,0.00257
1316.44998,0.00255
1314.38981,0.00247
1312.32964,0.00238
1310.26947,0.00230
1308.20929,0.00224
1306.14912,0.00220
1304.08895,0.00216
1302.02878,0.00211
1299.96861,0.00204
1297.90843,0.00199
1295.84826,0.00199
1293.78809,0.00201
1291.72792,0.00201
1289.66775,0.00197
1287.60757,0.00190
1285.54740,0.00179
1283.48723,0.00163
1281.42706,0.00149
1279.36688,0.00142
1277.30671,0.00145
1275.24654,0.00159
1273.18637,0.00176
1271.12620,0.00192
1269.06602,0.00209
1267.00585,0.00228
1264.94568,0.00252
1262.88551,0.00275
1260.82534,0.00295
1258.76516,0.00308
1256.70499,0.00313
1254.64482,0.00311
1252.58465,0.00308
1250.52447,0.00310
1248.46430,0.00318
1246.40413,0.00323
1244.34396,0.00318
1242.28379,0.00309
1240.22361,0.00304
1238.16344,0.00307
1236.10327,0.00308
1234.04310,0.00298
1231.98293,0.00272
1229.92275,0.00239
1227.86258,0.00209
1225.80241,0.00191
1223.74224,0.00185
1221.68207,0.00187
1219.62189,0.00191
1217.56172,0.00189
1215.50155,0.00177
1213.44138,0.00157
1211.38120,0.00131
1209.32103,0.00105
1207.26086,0.00085
1205.20069,0.00073
1203.14052,0.00065
1201.08034,0.00059
1199.02017,0.00048
1196.96000,0.00032
1194.89983,0.00015
1192.83966,0.00003
1190.77948,0.00000
1188.71931,0.00002
1186.65914,0.00004
1184.59897,-0.00000
1182.53880,-0.00003
1180.47862,0.00003
1178.41845,0.00014
1176.35828,0.00023
1174.29811,0.00040
1172.23793,0.00069
1170.17776,0.00110
1168.11759,0.00157
1166.05742,0.00203
1163.99725,0.00241
1161.93707,0.00267
1159.87690,0.00284
1157.81673,0.00301
1155.75656,0.00318
1153.69639,0.00334
1151.63621,0.00357
1149.57604,0.00383
1147.51587,0.00400
1145.45570,0.00402
1143.39552,0.00399
1141.33535,0.00406
1139.27518,0.00424
1137.21501,0.00441
1135.15484,0.00457
1133.09466,0.00482
1131.03449,0.00511
1128.97432,0.00532
1126.91415,0.00551
1124.85398,0.00577
1122.79380,0.00614
1120.73363,0.00654
1118.67346,0.00684
1116.61329,0.00705
1114.55312,0.00733
1112.49294,0.00773
1110.43277,0.00811
1108.37260,0.00834
1106.31243,0.00853
1104.25225,0.00884
1102.19208,0.00934
1100.13191,0.00995
1098.07174,0.01059
1096.01157,0.01113
1093.95139,0.01140
1091.89122,0.01150
1089.83105,0.01182
1087.77088,0.01244
1085.71071,0.01301
1083.65053,0.01325
1081.59036,0.01330
1079.53019,0.01349
1077.47002,0.01391
1075.40985,0.01439
1073.34967,0.01481
1071.28950,0.01512
1069.22933,0.01531
1067.16916,0.01544
1065.10898,0.01556
1063.04881,0.01573
1060.98864,0.01593
1058.92847,0.01604
1056.86830,0.01601
1054.80812,0.01602
1052.74795,0.01615
1050.68778,0.01639
1048.62761,0.01674
1046.56744,0.01715
1044.50726,0.01749
1042.44709,0.01778
1040.38692,0.01815
1038.32675,0.01852
1036.26657,0.01859
1034.20640,0.01841
1032.14623,0.01823
1030.08606,0.01804
1028.02589,0.01771
1025.96571,0.01733
1023.90554,0.01705
1021.84537,0.01695
1019.78520,0.01696
1017.72503,0.01694
1015.66485,0.01684
1013.60468,0.01675
1011.54451,0.01671
1009.48434,0.01649
1007.42417,0.01599
1005.36399,0.01550
1003.30382,0.01517
1001.24365,0.01480
999.18348,0.01433
997.12330,0.01386
995.06313,0.01346
993.00296,0.01313
990.94279,0.01293
988.88262,0.01295
986.82244,0.01310
984.76227,0.01310
982.70210,0.01278
980.64193,0.01231
978.58176,0.01196
976.52158,0.01174
974.46141,0.01146
972.40124,0.01106
970.34107,0.01068
968.28089,0.01042
966.22072,0.01023
964.16055,0.01007
962.10038,0.00986
960.04021,0.00954
957.98003,0.00930
955.91986,0.00933
953.85969,0.00931
951.79952,0.00902
949.73935,0.00869
947.67917,0.00838
945.61900,0.00796
943.55883,0.00746
941.49866,0.00691
939.43849,0.00624
937.37831,0.00558
935.31814,0.00522
933.25797,0.00515
931.19780,0.00505
929.13762,0.00472
927.07745,0.00427
925.01728,0.00383
922.95711,0.00332
920.89694,0.00279
918.83676,0.00244
916.77659,0.00223
914.71642,0.00214
912.65625,0.00221
910.59608,0.00238
908.53590,0.00252
906.47573,0.00259
904.41556,0.00252
902.35539,0.00224
900.29522,0.00202
898.23504,0.00215
896.17487,0.00249
894.11470,0.00264
892.05453,0.00254
889.99435,0.00240
887.93418,0.00246
885.87401,0.00286
883.81384,0.00338
881.75367,0.00347
879.69349,0.00297
877.63332,0.00236
875.57315,0.00202
873.51298,0.00187
871.45281,0.00181
869.39263,0.00175
867.33246,0.00162
865.27229,0.00153
863.21212,0.00149
861.15194,0.00142
859.09177,0.00150
857.03160,0.00175
854.97143,0.00199
852.91126,0.00221
850.85108,0.00254
848.79091,0.00287
846.73074,0.00298
844.67057,0.00263
842.61040,0.00179
840.55022,0.00100
838.49005,0.00093
836.42988,0.00136
834.36971,0.00157
832.30954,0.00121
830.24936,0.00048
828.18919,0.00000
826.12902,0.00019
824.06885,0.00074
822.00867,0.00097
819.94850,0.00074
817.88833,0.00046
815.82816,0.00051
813.76799,0.00082
811.70781,0.00104
809.64764,0.00110
807.58747,0.00132
805.52730,0.00167
803.46713,0.00163
801.40695,0.00111
799.34678,0.00070
797.28661,0.00077
795.22644,0.00089
793.16627,0.00067
791.10609,0.00023
789.04592,0.00005
786.98575,0.00033
784.92558,0.00062
782.86540,0.00059
780.80523,0.00045
778.74506,0.00040
776.68489,0.00050
774.62472,0.00075
772.56454,0.00101
770.50437,0.00110
768.44420,0.00087
766.38403,0.00043
764.32386,0.00014
762.26368,0.00037
760.20351,0.00099
758.14334,0.00155
756.08317,0.00169
754.02299,0.00149
751.96282,0.00113
749.90265,0.00092
747.84248,0.00112
745.78231,0.00145
743.72213,0.00144
741.66196,0.00104
739.60179,0.00044
737.54162,0.00000
735.48145,-0.00005
733.42127,0.00041
731.36110,0.00110
729.30093,0.00148
727.24076,0.00154
725.18059,0.00162
723.12041,0.00171
721.06024,0.00173
719.00007,0.00169
716.93990,0.00157
714.87972,0.00148
712.81955,0.00166
710.75938,0.00209
708.69921,0.00250
706.63904,0.00266
704.57886,0.00261
702.51869,0.00248
700.45852,0.00240
698.39835,0.00244
696.33818,0.00255
694.27800,0.00254
692.21783,0.00231
690.15766,0.00211
688.09749,0.00224
686.03731,0.00260
683.97714,0.00297
681.91697,0.00330
679.85680,0.00366
677.79663,0.00395
675.73645,0.00397
673.67628,0.00358
671.61611,0.00283
669.55594,0.00211
667.49577,0.00190
665.43559,0.00218
663.37542,0.00238
661.31525,0.00205
659.25508,0.00119
657.19491,0.00030
655.13473,0.00000
653.07456,0.00040
651.01439,0.00139
648.95422,0.00238
646.89404,0.00300
644.83387,0.00330
642.77370,0.00331
640.71353,0.00282
638.65336,0.00190
636.59318,0.00106
634.53301,0.00089
632.47284,0.00156
630.41267,0.00263
628.35250,0.00304
626.29232,0.00208
624.23215,0.00081
622.17198,0.00017
620.11181,0.00030
618.05164,0.00123
615.99146,0.00222
613.93129,0.00216
611.87112,0.00081
609.81095,-0.00038
607.75077,-0.00002
605.69060,0.00095
603.63043,0.00106
601.57026,0.00046
599.51009,0.00000
