3996.73391,0.00000
3994.67373,0.00028
3992.61356,0.00060
3990.55339,0.00093
3988.49322,0.00117
3986.43305,0.00124
3984.37287,0.00120
3982.31270,0.00116
3980.25253,0.00125
3978.19236,0.00147
3976.13219,0.00166
3974.07201,0.00168
3972.01184,0.00152
3969.95167,0.00128
3967.89150,0.00109
3965.83133,0.00100
3963.77115,0.00099
3961.71098,0.00103
3959.65081,0.00108
3957.59064,0.00110
3955.53046,0.00112
3953.47029,0.00119
3951.41012,0.00127
3949.34995,0.00124
3947.28978,0.00106
3945.22960,0.00079
3943.16943,0.00059
3941.10926,0.00057
3939.04909,0.00071
3936.98892,0.00089
3934.92874,0.00099
3932.86857,0.00106
3930.80840,0.00118
3928.74823,0.00122
3926.68805,0.00106
3924.62788,0.00077
3922.56771,0.00051
3920.50754,0.00041
3918.44737,0.00056
3916.38719,0.00088
3914.32702,0.00120
3912.26685,0.00133
3910.20668,0.00127
3908.14651,0.00107
3906.08633,0.00086
3904.02616,0.00076
3901.96599,0.00081
3899.90582,0.00090
3897.84565,0.00091
3895.78547,0.00070
3893.72530,0.00035
3891.66513,0.00006
3889.60496,0.00000
3887.54478,0.00014
3885.48461,0.00044
3883.42444,0.00086
3881.36427,0.00128
3879.30410,0.00141
3877.24392,0.00115
3875.18375,0.00067
3873.12358,0.00023
3871.06341,0.00006
3869.00324,0.00030
3866.94306,0.00081
3864.88289,0.00125
3862.82272,0.00134
3860.76255,0.00104
3858.70237,0.00058
3856.64220,0.00027
3854.58203,0.00033
3852.52186,0.00064
3850.46169,0.00086
3848.40151,0.00081
3846.34134,0.00067
3844.28117,0.00060
3842.22100,0.00059
3840.16083,0.00058
3838.10065,0.00072
3836.04048,0.00106
3833.98031,0.00142
3831.92014,0.00162
3829.85997,0.00156
3827.79979,0.00119
3825.73962,0.00064
3823.67945,0.00019
3821.61928,0.00011
3819.55910,0.00036
3817.49893,0.00073
3815.43876,0.00105
3813.37859,0.00118
3811.31842,0.00109
3809.25824,0.00082
3807.19807,0.00046
3805.13790,0.00014
3803.07773,0.00000
3801.01756,0.00013
3798.95738,0.00047
3796.89721,0.00088
3794.83704,0.00124
3792.77687,0.00148
3790.71670,0.00162
3788.65652,0.00170
3786.59635,0.00171
3784.53618,0.00162
3782.47601,0.00143
3780.41583,0.00125
3778.35566,0.00111
3776.29549,0.00100
3774.23532,0.00084
3772.17515,0.00068
3770.11497,0.00063
3768.05480,0.00071
3765.99463,0.00082
3763.93446,0.00094
3761.87429,0.00106
3759.81411,0.00119
3757.75394,0.00134
3755.69377,0.00150
3753.63360,0.00169
3751.57342,0.00187
3749.51325,0.00188
3747.45308,0.00175
3745.39291,0.00175
3743.33274,0.00191
3741.27256,0.00192
3739.21239,0.00161
3737.15222,0.00117
3735.09205,0.00092
3733.03188,0.00100
3730.97170,0.00123
3728.91153,0.00142
3726.85136,0.00149
3724.79119,0.00149
3722.73102,0.00140
3720.67084,0.00121
3718.61067,0.00090
3716.55050,0.00055
3714.49033,0.00028
3712.43015,0.00023
3710.36998,0.00039
3708.30981,0.00057
3706.24964,0.00068
3704.18947,0.00082
3702.12929,0.00113
3700.06912,0.00154
3698.00895,0.00184
3695.94878,0.00190
3693.88861,0.00172
3691.82843,0.00149
3689.76826,0.00132
3687.70809,0.00125
3685.64792,0.00121
3683.58775,0.00108
3681.52757,0.00084
3679.46740,0.00061
3677.40723,0.00057
3675.34706,0.00077
3673.28688,0.00105
3671.22671,0.00130
3669.16654,0.00156
3667.10637,0.00176
3665.04620,0.00184
3662.98602,0.00189
3660.92585,0.00204
3658.86568,0.00226
3656.80551,0.00243
3654.74534,0.00246
3652.68516,0.00237
3650.62499,0.00228
3648.56482,0.00228
3646.50465,0.00240
3644.44447,0.00260
3642.38430,0.00285
3640.32413,0.00311
3638.26396,0.00330
3636.20379,0.00338
3634.14361,0.00335
3632.08344,0.00329
3630.02327,0.00340
3627.96310,0.00378
3625.90293,0.00424
3623.84275,0.00452
3621.78258,0.00458
3619.72241,0.00460
3617.66224,0.00477
3615.60207,0.00510
3613.54189,0.00546
3611.48172,0.00579
3609.42155,0.00608
3607.36138,0.00632
3605.30120,0.00648
3603.24103,0.00657
3601.18086,0.00667
3599.12069,0.00684
3597.06052,0.00706
3595.00034,0.00729
3592.94017,0.00751
3590.88000,0.00768
3588.81983,0.00782
3586.75966,0.00791
3584.69948,0.00797
3582.63931,0.00810
3580.57914,0.00831
3578.51897,0.00853
3576.45879,0.00876
3574.39862,0.00900
3572.33845,0.00916
3570.27828,0.00921
3568.21811,0.00922
3566.15793,0.00931
3564.09776,0.00943
3562.03759,0.00950
3559.97742,0.00958
3557.91725,0.00972
3555.85707,0.00992
3553.79690,0.01021
3551.73673,0.01059
3549.67656,0.01100
3547.61639,0.01143
3545.55621,0.01189
3543.49604,0.01232
3541.43587,0.01257
3539.37570,0.01262
3537.31552,0.01264
3535.25535,0.01276
3533.19518,0.01302
3531.13501,0.01329
3529.07484,0.01340
3527.01466,0.01329
3524.95449,0.01312
3522.89432,0.01312
3520.83415,0.01337
3518.77398,0.01380
3516.71380,0.01429
3514.65363,0.01473
3512.59346,0.01502
3510.53329,0.01520
3508.47312,0.01533
3506.41294,0.01544
3504.35277,0.01551
3502.29260,0.01561
3500.23243,0.01587
3498.17225,0.01627
3496.11208,0.01665
3494.05191,0.01687
3491.99174,0.01694
3489.93157,0.01700
3487.87139,0.01716
3485.81122,0.01745
3483.75105,0.01779
3481.69088,0.01808
3479.63071,0.01822
3477.57053,0.01815
3475.51036,0.01787
3473.45019,0.01755
3471.39002,0.01744
3469.32984,0.01771
3467.26967,0.01828
3465.20950,0.01889
3463.14933,0.01930
3461.08916,0.01950
3459.02898,0.01960
3456.96881,0.01966
3454.90864,0.01972
3452.84847,0.01982
3450.78830,0.01995
3448.72812,0.02009
3446.66795,0.02028
3444.60778,0.02055
3442.54761,0.02085
3440.48744,0.02116
3438.42726,0.02149
3436.36709,0.02179
3434.30692,0.02201
3432.24675,0.02204
3430.18657,0.02187
3428.12640,0.02156
3426.06623,0.02127
3424.00606,0.02117
3421.94589,0.02133
3419.88571,0.02166
3417.82554,0.02196
3415.76537,0.02210
3413.70520,0.02216
3411.64503,0.02228
3409.58485,0.02252
3407.52468,0.02284
3405.46451,0.02319
3403.40434,0.02357
3401.34416,0.02400
3399.28399,0.02443
3397.22382,0.02475
3395.16365,0.02481
3393.10348,0.02463
3391.04330,0.02441
3388.98313,0.02427
3386.92296,0.02428
3384.86279,0.02443
3382.80262,0.02464
3380.74244,0.02477
3378.68227,0.02473
3376.62210,0.02464
3374.56193,0.02471
3372.50176,0.02499
3370.44158,0.02536
3368.38141,0.02566
3366.32124,0.02582
3364.26107,0.02587
3362.20089,0.02583
3360.14072,0.02574
3358.08055,0.02562
3356.02038,0.02552
3353.96021,0.02550
3351.90003,0.02560
3349.83986,0.02578
3347.77969,0.02598
3345.71952,0.02613
3343.65935,0.02622
3341.59917,0.02631
3339.53900,0.02646
3337.47883,0.02660
3335.41866,0.02666
3333.35849,0.02665
3331.29831,0.02661
3329.23814,0.02654
3327.17797,0.02645
3325.11780,0.02637
3323.05762,0.02629
3320.99745,0.02622
3318.93728,0.02617
3316.87711,0.02617
3314.81694,0.02624
3312.75676,0.02633
3310.69659,0.02640
3308.63642,0.02648
3306.57625,0.02654
3304.51608,0.02653
3302.45590,0.02645
3300.39573,0.02642
3298.33556,0.02654
3296.27539,0.02680
3294.21521,0.02703
3292.15504,0.02714
3290.09487,0.02709
3288.03470,0.02693
3285.97453,0.02677
3283.91435,0.02672
3281.85418,0.02675
3279.79401,0.02682
3277.73384,0.02689
3275.67367,0.02697
3273.61349,0.02702
3271.55332,0.02705
3269.49315,0.02704
3267.43298,0.02699
3265.37281,0.02688
3263.31263,0.02671
3261.25246,0.02654
3259.19229,0.02639
3257.13212,0.02630
3255.07194,0.02628
3253.01177,0.02630
3250.95160,0.02632
3248.89143,0.02633
3246.83126,0.02634
3244.77108,0.02630
3242.71091,0.02614
3240.65074,0.02590
3238.59057,0.02570
3236.53040,0.02564
3234.47022,0.02565
3232.41005,0.02563
3230.34988,0.02551
3228.28971,0.02534
3226.22954,0.02516
3224.16936,0.02497
3222.10919,0.02475
3220.04902,0.02453
3217.98885,0.02437
3215.92867,0.02431
3213.86850,0.02432
3211.80833,0.02432
3209.74816,0.02425
3207.68799,0.02415
3205.62781,0.02407
3203.56764,0.02404
3201.50747,0.02404
3199.44730,0.02400
3197.38713,0.02390
3195.32695,0.02377
3193.26678,0.02363
3191.20661,0.02347
3189.14644,0.02333
3187.08626,0.02319
3185.02609,0.02296
3182.96592,0.02259
3180.90575,0.02219
3178.84558,0.02192
3176.78540,0.02177
3174.72523,0.02166
3172.66506,0.02154
3170.60489,0.02138
3168.54472,0.02122
3166.48454,0.02107
3164.42437,0.02092
3162.36420,0.02071
3160.30403,0.02042
3158.24386,0.02013
3156.18368,0.01993
3154.12351,0.01985
3152.06334,0.01984
3150.00317,0.01979
3147.94299,0.01967
3145.88282,0.01951
3143.82265,0.01933
3141.76248,0.01914
3139.70231,0.01891
3137.64213,0.01867
3135.58196,0.01847
3133.52179,0.01835
3131.46162,0.01832
3129.40145,0.01831
3127.34127,0.01827
3125.28110,0.01814
3123.22093,0.01789
3121.16076,0.01759
3119.10058,0.01733
3117.04041,0.01710
3114.98024,0.01684
3112.92007,0.01653
3110.85990,0.01624
3108.79972,0.01601
3106.73955,0.01587
3104.67938,0.01580
3102.61921,0.01569
3100.55904,0.01548
3098.49886,0.01521
3096.43869,0.01496
3094.37852,0.01479
3092.31835,0.01467
3090.25818,0.01453
3088.19800,0.01442
3086.13783,0.01439
3084.07766,0.01442
3082.01749,0.01439
3079.95731,0.01422
3077.89714,0.01399
3075.83697,0.01381
3073.77680,0.01373
3071.71663,0.01367
3069.65645,0.01355
3067.59628,0.01331
3065.53611,0.01299
3063.47594,0.01269
3061.41577,0.01251
3059.35559,0.01247
3057.29542,0.01252
3055.23525,0.01255
3053.17508,0.01242
3051.11491,0.01209
3049.05473,0.01168
3046.99456,0.01130
3044.93439,0.01104
3042.87422,0.01097
3040.81404,0.01104
3038.75387,0.01112
3036.69370,0.01115
3034.63353,0.01115
3032.57336,0.01115
3030.51318,0.01113
3028.45301,0.01103
3026.39284,0.01085
3024.33267,0.01062
3022.27250,0.01038
3020.21232,0.01024
3018.15215,0.01019
3016.09198,0.01021
3014.03181,0.01023
3011.97163,0.01023
3009.91146,0.01015
3007.85129,0.00997
3005.79112,0.00982
3003.73095,0.00981
3001.67077,0.00992
2999.61060,0.00998
2997.55043,0.00984
2995.49026,0.00971
2993.43009,0.00981
2991.36991,0.01003
2989.30974,0.01011
2987.24957,0.00995
2985.18940,0.00973
2983.12923,0.00962
2981.06905,0.00969
2979.00888,0.00991
2976.94871,0.01023
2974.88854,0.01047
2972.82836,0.01046
2970.76819,0.01030
2968.70802,0.01025
2966.64785,0.01038
2964.58768,0.01061
2962.52750,0.01089
2960.46733,0.01119
2958.40716,0.01153
2956.34699,0.01189
2954.28682,0.01220
2952.22664,0.01243
2950.16647,0.01264
2948.10630,0.01292
2946.04613,0.01330
2943.98596,0.01357
2941.92578,0.01355
2939.86561,0.01337
2937.80544,0.01329
2935.74527,0.01347
2933.68509,0.01377
2931.62492,0.01392
2929.56475,0.01381
2927.50458,0.01362
2925.44441,0.01348
2923.38423,0.01341
2921.32406,0.01342
2919.26389,0.01349
2917.20372,0.01345
2915.14355,0.01315
2913.08337,0.01280
2911.02320,0.01268
2908.96303,0.01272
2906.90286,0.01263
2904.84268,0.01244
2902.78251,0.01237
2900.72234,0.01246
2898.66217,0.01255
2896.60200,0.01251
2894.54182,0.01240
2892.48165,0.01235
2890.42148,0.01239
2888.36131,0.01241
2886.30114,0.01240
2884.24096,0.01240
2882.18079,0.01236
2880.12062,0.01226
2878.06045,0.01211
2876.00028,0.01193
2873.94010,0.01170
2871.87993,0.01142
2869.81976,0.01111
2867.75959,0.01092
2865.69941,0.01094
2863.63924,0.01101
2861.57907,0.01094
2859.51890,0.01067
2857.45873,0.01029
2855.39855,0.00999
2853.33838,0.00991
2851.27821,0.00995
2849.21804,0.00986
2847.15787,0.00961
2845.09769,0.00941
2843.03752,0.00942
2840.97735,0.00955
2838.91718,0.00962
2836.85700,0.00951
2834.79683,0.00928
2832.73666,0.00907
2830.67649,0.00898
2828.61632,0.00894
2826.55614,0.00884
2824.49597,0.00873
2822.43580,0.00872
2820.37563,0.00864
2818.31546,0.00843
2816.25528,0.00827
2814.19511,0.00826
2812.13494,0.00827
2810.07477,0.00823
2808.01460,0.00814
2805.95442,0.00809
2803.89425,0.00812
2801.83408,0.00821
2799.77391,0.00819
2797.71373,0.00809
2795.65356,0.00811
2793.59339,0.00827
2791.53322,0.00832
2789.47305,0.00815
2787.41287,0.00784
2785.35270,0.00752
2783.29253,0.00739
2781.23236,0.00744
2779.17219,0.00746
2777.11201,0.00747
2775.05184,0.00760
2772.99167,0.00774
2770.93150,0.00779
2768.87133,0.00779
2766.81115,0.00775
2764.75098,0.00774
2762.69081,0.00771
2760.63064,0.00756
2758.57046,0.00731
2756.51029,0.00712
2754.45012,0.00704
2752.38995,0.00705
2750.32978,0.00711
2748.26960,0.00715
2746.20943,0.00717
2744.14926,0.00724
2742.08909,0.00738
2740.02892,0.00749
2737.96874,0.00753
2735.90857,0.00755
2733.84840,0.00757
2731.78823,0.00764
2729.72805,0.00777
2727.66788,0.00787
2725.60771,0.00783
2723.54754,0.00767
2721.48737,0.00756
2719.42719,0.00756
2717.36702,0.00757
2715.30685,0.00759
2713.24668,0.00763
2711.18651,0.00755
2709.12633,0.00732
2707.06616,0.00704
2705.00599,0.00689
2702.94582,0.00699
2700.88565,0.00715
2698.82547,0.00709
2696.76530,0.00683
2694.70513,0.00662
2692.64496,0.00661
2690.58478,0.00683
2688.52461,0.00712
2686.46444,0.00720
2684.40427,0.00701
2682.34410,0.00680
2680.28392,0.00675
2678.22375,0.00683
2676.16358,0.00690
2674.10341,0.00688
2672.04324,0.00683
2669.98306,0.00682
2667.92289,0.00685
2665.86272,0.00688
2663.80255,0.00682
2661.74238,0.00672
2659.68220,0.00671
2657.62203,0.00679
2655.56186,0.00690
2653.50169,0.00692
2651.44151,0.00675
2649.38134,0.00647
2647.32117,0.00620
2645.26100,0.00604
2643.20083,0.00602
2641.14065,0.00610
2639.08048,0.00617
2637.02031,0.00614
2634.96014,0.00607
2632.89997,0.00609
2630.83979,0.00618
2628.77962,0.00616
2626.71945,0.00596
2624.65928,0.00571
2622.59910,0.00555
2620.53893,0.00556
2618.47876,0.00571
2616.41859,0.00595
2614.35842,0.00613
2612.29824,0.00612
2610.23807,0.00603
2608.17790,0.00597
2606.11773,0.00592
2604.05756,0.00579
2601.99738,0.00560
2599.93721,0.00557
2597.87704,0.00581
2595.81687,0.00606
2593.75670,0.00606
2591.69652,0.00585
2589.63635,0.00559
2587.57618,0.00545
2585.51601,0.00537
2583.45583,0.00524
2581.39566,0.00507
2579.33549,0.00487
2577.27532,0.00476
2575.21515,0.00488
2573.15497,0.00519
2571.09480,0.00547
2569.03463,0.00552
2566.97446,0.00539
2564.91429,0.00526
2562.85411,0.00519
2560.79394,0.00502
2558.73377,0.00470
2556.67360,0.00457
2554.61342,0.00492
2552.55325,0.00532
2550.49308,0.00529
2548.43291,0.00509
2546.37274,0.00522
2544.31256,0.00567
2542.25239,0.00604
2540.19222,0.00592
2538.13205,0.00538
2536.07188,0.00483
2534.01170,0.00457
2531.95153,0.00474
2529.89136,0.00517
2527.83119,0.00555
2525.77102,0.00571
2523.71084,0.00557
2521.65067,0.00520
2519.59050,0.00483
2517.53033,0.00458
2515.47015,0.00441
2513.40998,0.00445
2511.34981,0.00471
2509.28964,0.00492
2507.22947,0.00482
2505.16929,0.00469
2503.10912,0.00491
2501.04895,0.00523
2498.98878,0.00528
2496.92861,0.00520
2494.86843,0.00522
2492.80826,0.00531
2490.74809,0.00542
2488.68792,0.00546
2486.62775,0.00517
2484.56757,0.00465
2482.50740,0.00439
2480.44723,0.00454
2478.38706,0.00475
2476.32688,0.00486
2474.26671,0.00495
2472.20654,0.00504
2470.14637,0.00502
2468.08620,0.00489
2466.02602,0.00478
2463.96585,0.00480
2461.90568,0.00495
2459.84551,0.00510
2457.78534,0.00519
2455.72516,0.00521
2453.66499,0.00515
2451.60482,0.00503
2449.54465,0.00503
2447.48447,0.00518
2445.42430,0.00516
2443.36413,0.00480
2441.30396,0.00435
2439.24379,0.00411
2437.18361,0.00409
2435.12344,0.00414
2433.06327,0.00436
2431.00310,0.00478
2428.94293,0.00516
2426.88275,0.00513
2424.82258,0.00473
2422.76241,0.00445
2420.70224,0.00450
2418.64207,0.00456
2416.58189,0.00456
2414.52172,0.00462
2412.46155,0.00475
2410.40138,0.00494
2408.34120,0.00504
2406.28103,0.00498
2404.22086,0.00492
2402.16069,0.00501
2400.10052,0.00515
2398.04034,0.00506
2395.98017,0.00478
2393.92000,0.00451
2391.85983,0.00438
2389.79966,0.00442
2387.73948,0.00451
2385.67931,0.00458
2383.61914,0.00466
2381.55897,0.00487
2379.49880,0.00522
2377.43862,0.00545
2375.37845,0.00531
2373.31828,0.00480
2371.25811,0.00413
2369.19793,0.00345
2367.13776,0.00285
2365.07759,0.00269
2363.01742,0.00324
2360.95725,0.00402
2358.89707,0.00428
2356.83690,0.00414
2354.77673,0.00427
2352.71656,0.00472
2350.65639,0.00502
2348.59621,0.00503
2346.53604,0.00505
2344.47587,0.00533
2342.41570,0.00589
2340.35552,0.00657
2338.29535,0.00710
2336.23518,0.00726
2334.17501,0.00713
2332.11484,0.00684
2330.05466,0.00641
2327.99449,0.00583
2325.93432,0.00521
2323.87415,0.00483
2321.81398,0.00495
2319.75380,0.00554
2317.69363,0.00615
2315.63346,0.00633
2313.57329,0.00604
2311.51312,0.00551
2309.45294,0.00502
2307.39277,0.00472
2305.33260,0.00466
2303.27243,0.00475
2301.21225,0.00482
2299.15208,0.00479
2297.09191,0.00465
2295.03174,0.00444
2292.97157,0.00436
2290.91139,0.00460
2288.85122,0.00503
2286.79105,0.00535
2284.73088,0.00539
2282.67071,0.00526
2280.61053,0.00515
2278.55036,0.00519
2276.49019,0.00533
2274.43002,0.00544
2272.36984,0.00540
2270.30967,0.00519
2268.24950,0.00495
2266.18933,0.00487
2264.12916,0.00496
2262.06898,0.00513
2260.00881,0.00524
2257.94864,0.00517
2255.88847,0.00487
2253.82830,0.00447
2251.76812,0.00424
2249.70795,0.00427
2247.64778,0.00438
2245.58761,0.00429
2243.52744,0.00418
2241.46726,0.00425
2239.40709,0.00438
2237.34692,0.00417
2235.28675,0.00357
2233.22657,0.00322
2231.16640,0.00347
2229.10623,0.00398
2227.04606,0.00429
2224.98589,0.00411
2222.92571,0.00334
2220.86554,0.00251
2218.80537,0.00257
2216.74520,0.00357
2214.68503,0.00445
2212.62485,0.00461
2210.56468,0.00442
2208.50451,0.00414
2206.44434,0.00381
2204.38417,0.00376
2202.32399,0.00425
2200.26382,0.00491
2198.20365,0.00507
2196.14348,0.00493
2194.08330,0.00521
2192.02313,0.00588
2189.96296,0.00635
2187.90279,0.00640
2185.84262,0.00589
2183.78244,0.00482
2181.72227,0.00369
2179.66210,0.00331
2177.60193,0.00368
2175.54176,0.00375
2173.48158,0.00301
2171.42141,0.00211
2169.36124,0.00185
2167.30107,0.00215
2165.24089,0.00241
2163.18072,0.00201
2161.12055,0.00078
2159.06038,0.00000
2157.00021,0.00084
2154.94003,0.00244
2152.87986,0.00348
2150.81969,0.00382
2148.75952,0.00384
2146.69935,0.00411
2144.63917,0.00454
2142.57900,0.00429
2140.51883,0.00318
2138.45866,0.00221
2136.39849,0.00222
2134.33831,0.00281
2132.27814,0.00331
2130.21797,0.00372
2128.15780,0.00404
2126.09762,0.00413
2124.03745,0.00412
2121.97728,0.00418
2119.91711,0.00419
2117.85694,0.00409
2115.79676,0.00400
2113.73659,0.00379
2111.67642,0.00325
2109.61625,0.00278
2107.55608,0.00314
2105.49590,0.00434
2103.43573,0.00539
2101.37556,0.00543
2099.31539,0.00463
2097.25521,0.00374
2095.19504,0.00326
2093.13487,0.00322
2091.07470,0.00339
2089.01453,0.00358
2086.95435,0.00374
2084.89418,0.00384
2082.83401,0.00393
2080.77384,0.00414
2078.71367,0.00441
2076.65349,0.00453
2074.59332,0.00437
2072.53315,0.00396
2070.47298,0.00341
2068.41281,0.00289
2066.35263,0.00257
2064.29246,0.00253
2062.23229,0.00264
2060.17212,0.00257
2058.11194,0.00223
2056.05177,0.00195
2053.99160,0.00212
2051.93143,0.00264
2049.87126,0.00304
2047.81108,0.00295
2045.75091,0.00250
2043.69074,0.00195
2041.63057,0.00146
2039.57040,0.00118
2037.51022,0.00124
2035.45005,0.00162
2033.38988,0.00209
2031.32971,0.00236
2029.26954,0.00234
2027.20936,0.00219
2025.14919,0.00213
2023.08902,0.00207
2021.02885,0.00175
2018.96867,0.00120
2016.90850,0.00068
2014.84833,0.00039
2012.78816,0.00055
2010.72799,0.00131
2008.66781,0.00230
2006.60764,0.00292
2004.54747,0.00292
2002.48730,0.00244
2000.42713,0.00178
1998.36695,0.00126
1996.30678,0.00095
1994.24661,0.00072
1992.18644,0.00060
1990.12626,0.00083
1988.06609,0.00155
1986.00592,0.00248
1983.94575,0.00304
1981.88558,0.00297
1979.82540,0.00253
1977.76523,0.00215
1975.70506,0.00189
1973.64489,0.00160
1971.58472,0.00140
1969.52454,0.00155
1967.46437,0.00194
1965.40420,0.00235
1963.34403,0.00264
1961.28386,0.00265
1959.22368,0.00226
1957.16351,0.00164
1955.10334,0.00110
1953.04317,0.00077
1950.98299,0.00061
1948.92282,0.00049
1946.86265,0.00026
1944.80248,0.00002
1942.74231,0.00020
1940.68213,0.00096
1938.62196,0.00189
1936.56179,0.00237
1934.50162,0.00224
1932.44145,0.00182
1930.38127,0.00154
1928.32110,0.00149
1926.26093,0.00148
1924.20076,0.00132
1922.14059,0.00099
1920.08041,0.00067
1918.02024,0.00055
1915.96007,0.00070
1913.89990,0.00102
1911.83972,0.00129
1909.77955,0.00146
1907.71938,0.00162
1905.65921,0.00180
1903.59904,0.00185
1901.53886,0.00169
1899.47869,0.00138
1897.41852,0.00108
1895.35835,0.00101
1893.29818,0.00116
1891.23800,0.00140
1889.17783,0.00157
1887.11766,0.00158
1885.05749,0.00144
1882.99731,0.00123
1880.93714,0.00103
1878.87697,0.00093
1876.81680,0.00092
1874.75663,0.00095
1872.69645,0.00104
1870.63628,0.00122
1868.57611,0.00141
1866.51594,0.00155
1864.45577,0.00159
1862.39559,0.00151
1860.33542,0.00135
1858.27525,0.00119
1856.21508,0.00103
1854.15491,0.00084
1852.09473,0.00061
1850.03456,0.00042
1847.97439,0.00034
1845.91422,0.00040
1843.85404,0.00052
1841.79387,0.00059
1839.73370,0.00053
1837.67353,0.00037
1835.61336,0.00021
1833.55318,0.00013
1831.49301,0.00013
1829.43284,0.00021
1827.37267,0.00035
1825.31250,0.00048
1823.25232,0.00060
1821.19215,0.00070
1819.13198,0.00079
1817.07181,0.00085
1815.01163,0.00086
1812.95146,0.00079
1810.89129,0.00065
1808.83112,0.00049
1806.77095,0.00035
1804.71077,0.00030
1802.65060,0.00039
1800.59043,0.00063
1798.53026,0.00091
1796.47009,0.00105
1794.40991,0.00100
1792.34974,0.00086
1790.28957,0.00078
1788.22940,0.00079
1786.16923,0.00084
1784.10905,0.00086
1782.04888,0.00084
1779.98871,0.00079
1777.92854,0.00070
1775.86836,0.00062
1773.80819,0.00063
1771.74802,0.00074
1769.68785,0.00084
1767.62768,0.00091
1765.56750,0.00105
1763.50733,0.00133
1761.44716,0.00174
1759.38699,0.00219
1757.32682,0.00260
1755.26664,0.00289
1753.20647,0.00309
1751.14630,0.00326
1749.08613,0.00350
1747.02596,0.00385
1744.96578,0.00431
1742.90561,0.00475
1740.84544,0.00499
1738.78527,0.00501
1736.72509,0.00494
1734.66492,0.00492
1732.60475,0.00500
1730.54458,0.00509
1728.48441,0.00514
1726.42423,0.00514
1724.36406,0.00510
1722.30389,0.00499
1720.24372,0.00478
1718.18355,0.00450
1716.12337,0.00418
1714.06320,0.00385
1712.00303,0.00356
1709.94286,0.00329
1707.88268,0.00304
1705.82251,0.00286
1703.76234,0.00280
1701.70217,0.00288
1699.64200,0.00303
1697.58182,0.00310
1695.52165,0.00303
1693.46148,0.00289
1691.40131,0.00283
1689.34114,0.00291
1687.28096,0.00316
1685.22079,0.00356
1683.16062,0.00399
1681.10045,0.00432
1679.04028,0.00453
1676.98010,0.00474
1674.91993,0.00499
1672.85976,0.00527
1670.79959,0.00562
1668.73941,0.00611
1666.67924,0.00666
1664.61907,0.00716
1662.55890,0.00756
1660.49873,0.00786
1658.43855,0.00809
1656.37838,0.00838
1654.31821,0.00887
1652.25804,0.00944
1650.19787,0.00985
1648.13769,0.01005
1646.07752,0.01017
1644.01735,0.01030
1641.95718,0.01047
1639.89701,0.01064
1637.83683,0.01079
1635.77666,0.01090
1633.71649,0.01099
1631.65632,0.01106
1629.59614,0.01118
1627.53597,0.01136
1625.47580,0.01156
1623.41563,0.01169
1621.35546,0.01170
1619.29528,0.01161
1617.23511,0.01151
1615.17494,0.01142
1613.11477,0.01130
1611.05460,0.01111
1608.99442,0.01087
1606.93425,0.01062
1604.87408,0.01034
1602.81391,0.00997
1600.75373,0.00950
1598.69356,0.00895
1596.63339,0.00836
1594.57322,0.00775
1592.51305,0.00710
1590.45287,0.00645
1588.39270,0.00584
1586.33253,0.00533
1584.27236,0.00487
1582.21219,0.00440
1580.15201,0.00388
1578.09184,0.00339
1576.03167,0.00305
1573.97150,0.00291
1571.91133,0.00293
1569.85115,0.00298
1567.79098,0.00294
1565.73081,0.00276
1563.67064,0.00253
1561.61046,0.00239
1559.55029,0.00233
1557.49012,0.00222
1555.42995,0.00198
1553.36978,0.00170
1551.30960,0.00144
1549.24943,0.00118
1547.18926,0.00091
1545.12909,0.00066
1543.06892,0.00050
1541.00874,0.00048
1538.94857,0.00055
1536.88840,0.00059
1534.82823,0.00055
1532.76805,0.00044
1530.70788,0.00028
1528.64771,0.00014
1526.58754,0.00003
1524.52737,0.00000
1522.46719,0.00004
1520.40702,0.00018
1518.34685,0.00039
1516.28668,0.00055
1514.22651,0.00056
1512.16633,0.00045
1510.10616,0.00038
1508.04599,0.00046
1505.98582,0.00066
1503.92565,0.00085
1501.86547,0.00095
1499.80530,0.00096
1497.74513,0.00091
1495.68496,0.00084
1493.62478,0.00081
1491.56461,0.00091
1489.50444,0.00113
1487.44427,0.00133
1485.38410,0.00142
1483.32392,0.00145
1481.26375,0.00153
1479.20358,0.00173
1477.14341,0.00202
1475.08324,0.00241
1473.02306,0.00286
1470.96289,0.00334
1468.90272,0.00377
1466.84255,0.00411
1464.78238,0.00438
1462.72220,0.00457
1460.66203,0.00472
1458.60186,0.00493
1456.54169,0.00523
1454.48151,0.00550
1452.42134,0.00566
1450.36117,0.00574
1448.30100,0.00584
1446.24083,0.00599
1444.18065,0.00619
1442.12048,0.00644
1440.06031,0.00672
1438.00014,0.00702
1435.93997,0.00731
1433.87979,0.00755
1431.81962,0.00778
1429.75945,0.00801
1427.69928,0.00824
1425.63910,0.00846
1423.57893,0.00869
1421.51876,0.00896
1419.45859,0.00924
1417.39842,0.00941
1415.33824,0.00940
1413.27807,0.00924
1411.21790,0.00905
1409.15773,0.00891
1407.09756,0.00881
1405.03738,0.00866
1402.97721,0.00842
1400.91704,0.00818
1398.85687,0.00805
1396.79670,0.00802
1394.73652,0.00801
1392.67635,0.00793
1390.61618,0.00785
1388.55601,0.00783
1386.49583,0.00794
1384.43566,0.00812
1382.37549,0.00825
1380.31532,0.00832
1378.25515,0.00837
1376.19497,0.00844
1374.13480,0.00854
1372.07463,0.00867
1370.01446,0.00881
1367.95429,0.00888
1365.89411,0.00880
1363.83394,0.00859
1361.77377,0.00838
1359.71360,0.00822
1357.65343,0.00811
1355.59325,0.00797
1353.53308,0.00777
1351.47291,0.00756
1349.41274,0.00739
1347.35256,0.00727
1345.29239,0.00718
1343.23222,0.00713
1341.17205,0.00708
1339.11188,0.00701
1337.05170,0.00695
1334.99153,0.00694
1332.93136,0.00702
1330.87119,0.00716
1328.81102,0.00732
1326.75084,0.00743
1324.69067,0.00751
1322.63050,0.00756
1320.57033,0.00760
1318.51015,0.00762
1316.44998,0.00757
1314.38981,0.00744
1312.32964,0.00726
1310.26947,0.00710
1308.20929,0.00697
1306.14912,0.00683
1304.08895,0.00666
1302.02878,0.00649
1299.96861,0.00637
1297.90843,0.00631
1295.84826,0.00627
1293.78809,0.00622
1291.72792,0.00615
1289.66775,0.00606
1287.60757,0.00598
1285.54740,0.00588
1283.48723,0.00577
1281.42706,0.00569
1279.36688,0.00566
1277.30671,0.00570
1275.24654,0.00581
1273.18637,0.00599
1271.12620,0.00624
1269.06602,0.00654
1267.00585,0.00689
1264.94568,0.00729
1262.88551,0.00770
1260.82534,0.00810
1258.76516,0.00846
1256.70499,0.00872
1254.64482,0.00888
1252.58465,0.00897
1250.52447,0.00904
1248.46430,0.00909
1246.40413,0.00907
1244.34396,0.00899
1242.28379,0.00885
1240.22361,0.00867
1238.16344,0.00846
1236.10327,0.00820
1234.04310,0.00788
1231.98293,0.00754
1229.92275,0.00722
1227.86258,0.00690
1225.80241,0.00658
1223.74224,0.00628
1221.68207,0.00600
1219.62189,0.00571
1217.56172,0.00534
1215.50155,0.00491
1213.44138,0.00445
1211.38120,0.00400
1209.32103,0.00355
1207.26086,0.00310
1205.20069,0.00266
1203.14052,0.00223
1201.08034,0.00181
1199.02017,0.00138
1196.96000,0.00093
1194.89983,0.00049
1192.83966,0.00021
1190.77948,0.00011
1188.71931,0.00006
1186.65914,0.00000
1184.59897,-0.00004
1182.53880,0.00006
1180.47862,0.00031
1178.41845,0.00069
1176.35828,0.00116
1174.29811,0.00170
1172.23793,0.00233
1170.17776,0.00306
1168.11759,0.00387
1166.05742,0.00474
1163.99725,0.00560
1161.93707,0.00635
1159.87690,0.00691
1157.81673,0.00733
1155.75656,0.00771
1153.69639,0.00813
1151.63621,0.00862
1149.57604,0.00909
1147.51587,0.00944
1145.45570,0.00962
1143.39552,0.00971
1141.33535,0.00983
1139.27518,0.01003
1137.21501,0.01028
1135.15484,0.01062
1133.09466,0.01112
1131.03449,0.01163
1128.97432,0.01203
1126.91415,0.01235
1124.85398,0.01272
1122.79380,0.01327
1120.73363,0.01394
1118.67346,0.01457
1116.61329,0.01514
1114.55312,0.01570
1112.49294,0.01616
1110.43277,0.01648
1108.37260,0.01678
1106.31243,0.01720
1104.25225,0.01768
1102.19208,0.01818
1100.13191,0.01885
1098.07174,0.01982
1096.01157,0.02085
1093.95139,0.02168
1091.89122,0.02234
1089.83105,0.02302
1087.77088,0.02377
1085.71071,0.02451
1083.65053,0.02519
1081.59036,0.02588
1079.53019,0.02661
1077.47002,0.02735
1075.40985,0.02802
1073.34967,0.02868
1071.28950,0.02932
1069.22933,0.02979
1067.16916,0.03009
1065.10898,0.03036
1063.04881,0.03068
1060.98864,0.03103
1058.92847,0.03134
1056.86830,0.03157
1054.80812,0.03179
1052.74795,0.03220
1050.68778,0.03286
1048.62761,0.03360
1046.56744,0.03421
1044.50726,0.03468
1042.44709,0.03505
1040.38692,0.03543
1038.32675,0.03589
1036.26657,0.03623
1034.20640,0.03639
1032.14623,0.03656
1030.08606,0.03673
1028.02589,0.03674
1025.96571,0.03656
1023.90554,0.03631
1021.84537,0.03620
1019.78520,0.03627
1017.72503,0.03643
1015.66485,0.03661
1013.60468,0.03678
1011.54451,0.03687
1009.48434,0.03677
1007.42417,0.03651
1005.36399,0.03626
1003.30382,0.03600
1001.24365,0.03559
999.18348,0.03506
997.12330,0.03459
995.06313,0.03420
993.00296,0.03373
990.94279,0.03300
988.88262,0.03225
986.82244,0.03193
984.76227,0.03192
982.70210,0.03169
980.64193,0.03114
978.58176,0.03067
976.52158,0.03045
974.46141,0.03022
972.40124,0.02979
970.34107,0.02925
968.28089,0.02874
966.22072,0.02829
964.16055,0.02783
962.10038,0.02738
960.04021,0.02699
957.98003,0.02675
955.91986,0.02660
953.85969,0.02629
951.79952,0.02568
949.73935,0.02485
947.67917,0.02394
945.61900,0.02302
943.55883,0.02205
941.49866,0.02087
939.43849,0.01949
937.37831,0.01793
935.31814,0.01629
933.25797,0.01493
931.19780,0.01392
929.13762,0.01287
927.07745,0.01168
925.01728,0.01067
922.95711,0.00997
920.89694,0.00939
918.83676,0.00869
916.77659,0.00782
914.71642,0.00703
912.65625,0.00650
910.59608,0.00621
908.53590,0.00617
906.47573,0.00629
904.41556,0.00638
902.35539,0.00638
900.29522,0.00632
898.23504,0.00634
896.17487,0.00655
894.11470,0.00672
892.05453,0.00660
889.99435,0.00619
887.93418,0.00589
885.87401,0.00596
883.81384,0.00608
881.75367,0.00574
879.69349,0.00496
877.63332,0.00425
875.57315,0.00392
873.51298,0.00370
871.45281,0.00337
869.39263,0.00313
867.33246,0.00316
865.27229,0.00324
863.21212,0.00305
861.15194,0.00258
859.09177,0.00220
857.03160,0.00231
854.97143,0.00290
852.91126,0.00354
850.85108,0.00382
848.79091,0.00368
846.73074,0.00325
844.67057,0.00258
842.61040,0.00184
840.55022,0.00134
838.49005,0.00126
836.42988,0.00127
834.36971,0.00090
832.30954,0.00027
830.24936,0.00000
828.18919,0.00039
826.12902,0.00122
824.06885,0.00171
822.00867,0.00148
819.94850,0.00092
817.88833,0.00061
815.82816,0.00064
813.76799,0.00089
811.70781,0.00124
809.64764,0.00148
807.58747,0.00143
805.52730,0.00131
803.46713,0.00132
801.40695,0.00127
799.34678,0.00106
797.28661,0.00095
795.22644,0.00102
793.16627,0.00101
791.10609,0.00073
789.04592,0.00042
786.98575,0.00026
784.92558,0.00019
782.86540,0.00015
780.80523,0.00021
778.74506,0.00049
776.68489,0.00109
774.62472,0.00170
772.56454,0.00178
770.50437,0.00127
768.44420,0.00055
766.38403,-0.00005
764.32386,-0.00040
762.26368,-0.00042
760.20351,-0.00002
758.14334,0.00060
756.08317,0.00078
754.02299,0.00035
751.96282,0.00000
749.90265,0.00025
747.84248,0.00076
745.78231,0.00096
743.72213,0.00086
741.66196,0.00067
739.60179,0.00040
737.54162,0.00002
735.48145,-0.00036
733.42127,-0.00048
731.36110,-0.00013
729.30093,0.00011
727.24076,-0.00024
725.18059,-0.00055
723.12041,-0.00018
721.06024,0.00052
719.00007,0.00106
716.93990,0.00131
714.87972,0.00144
712.81955,0.00158
710.75938,0.00167
708.69921,0.00162
706.63904,0.00146
704.57886,0.00131
702.51869,0.00138
700.45852,0.00174
698.39835,0.00234
696.33818,0.00290
694.27800,0.00306
692.21783,0.00269
690.15766,0.00212
688.09749,0.00171
686.03731,0.00158
683.97714,0.00166
681.91697,0.00197
679.85680,0.00246
677.79663,0.00298
675.73645,0.00337
673.67628,0.00334
671.61611,0.00263
669.55594,0.00140
667.49577,0.00049
665.43559,0.00057
663.37542,0.00139
661.31525,0.00221
659.25508,0.00247
657.19491,0.00208
655.13473,0.00149
653.07456,0.00141
651.01439,0.00222
648.95422,0.00343
646.89404,0.00424
644.83387,0.00441
642.77370,0.00414
640.71353,0.00360
638.65336,0.00301
636.59318,0.00279
634.53301,0.00330
632.47284,0.00442
630.41267,0.00555
628.35250,0.00563
626.29232,0.00389
624.23215,0.00144
622.17198,0.00000
620.11181,0.00084
618.05164,0.00370
615.99146,0.00618
613.93129,0.00675
611.87112,0.00558
609.81095,0.00372
607.75077,0.00319
605.69060,0.00443
603.63043,0.00492
601.57026,0.00302
599.51009,0.00000
