3996.73391,0.00000
3994.67373,0.00016
3992.61356,0.00038
3990.55339,0.00048
3988.49322,0.00041
3986.43305,0.00032
3984.37287,0.00041
3982.31270,0.00056
3980.25253,0.00044
3978.19236,0.00024
3976.13219,0.00031
3974.07201,0.00043
3972.01184,0.00044
3969.95167,0.00050
3967.89150,0.00057
3965.83133,0.00050
3963.77115,0.00046
3961.71098,0.00063
3959.65081,0.00087
3957.59064,0.00094
3955.53046,0.00089
3953.47029,0.00081
3951.41012,0.00077
3949.34995,0.00082
3947.28978,0.00085
3945.22960,0.00077
3943.16943,0.00073
3941.10926,0.00075
3939.04909,0.00078
3936.98892,0.00076
3934.92874,0.00065
3932.86857,0.00066
3930.80840,0.00084
3928.74823,0.00091
3926.68805,0.00085
3924.62788,0.00082
3922.56771,0.00073
3920.50754,0.00060
3918.44737,0.00060
3916.38719,0.00061
3914.32702,0.00054
3912.26685,0.00056
3910.20668,0.00069
3908.14651,0.00093
3906.08633,0.00123
3904.02616,0.00132
3901.96599,0.00109
3899.90582,0.00087
3897.84565,0.00072
3895.78547,0.00057
3893.72530,0.00045
3891.66513,0.00036
3889.60496,0.00032
3887.54478,0.00043
3885.48461,0.00068
3883.42444,0.00093
3881.36427,0.00102
3879.30410,0.00089
3877.24392,0.00075
3875.18375,0.00076
3873.12358,0.00072
3871.06341,0.00039
3869.00324,0.00000
3866.94306,0.00011
3864.88289,0.00076
3862.82272,0.00128
3860.76255,0.00135
3858.70237,0.00117
3856.64220,0.00083
3854.58203,0.00041
3852.52186,0.00027
3850.46169,0.00044
3848.40151,0.00058
3846.34134,0.00067
3844.28117,0.00063
3842.22100,0.00044
3840.16083,0.00043
3838.10065,0.00068
3836.04048,0.00090
3833.98031,0.00095
3831.92014,0.00094
3829.85997,0.00092
3827.79979,0.00089
3825.73962,0.00080
3823.67945,0.00072
3821.61928,0.00074
3819.55910,0.00083
3817.49893,0.00089
3815.43876,0.00090
3813.37859,0.00086
3811.31842,0.00073
3809.25824,0.00049
3807.19807,0.00029
3805.13790,0.00033
3803.07773,0.00049
3801.01756,0.00058
3798.95738,0.00056
3796.89721,0.00051
3794.83704,0.00047
3792.77687,0.00041
3790.71670,0.00031
3788.65652,0.00031
3786.59635,0.00060
3784.53618,0.00092
3782.47601,0.00092
3780.41583,0.00069
3778.35566,0.00050
3776.29549,0.00039
3774.23532,0.00037
3772.17515,0.00043
3770.11497,0.00044
3768.05480,0.00038
3765.99463,0.00044
3763.93446,0.00063
3761.87429,0.00075
3759.81411,0.00079
3757.75394,0.00083
3755.69377,0.00090
3753.63360,0.00080
3751.57342,0.00039
3749.51325,0.00007
3747.45308,0.00026
3745.39291,0.00064
3743.33274,0.00072
3741.27256,0.00052
3739.21239,0.00037
3737.15222,0.00039
3735.09205,0.00049
3733.03188,0.00060
3730.97170,0.00079
3728.91153,0.00102
3726.85136,0.00127
3724.79119,0.00150
3722.73102,0.00144
3720.67084,0.00115
3718.61067,0.00103
3716.55050,0.00107
3714.49033,0.00097
3712.43015,0.00066
3710.36998,0.00037
3708.30981,0.00037
3706.24964,0.00053
3704.18947,0.00064
3702.12929,0.00067
3700.06912,0.00066
3698.00895,0.00074
3695.94878,0.00085
3693.88861,0.00089
3691.82843,0.00089
3689.76826,0.00087
3687.70809,0.00075
3685.64792,0.00071
3683.58775,0.00088
3681.52757,0.00107
3679.46740,0.00118
3677.40723,0.00135
3675.34706,0.00152
3673.28688,0.00154
3671.22671,0.00160
3669.16654,0.00168
3667.10637,0.00158
3665.04620,0.00152
3662.98602,0.00158
3660.92585,0.00165
3658.86568,0.00167
3656.80551,0.00167
3654.74534,0.00166
3652.68516,0.00187
3650.62499,0.00233
3648.56482,0.00268
3646.50465,0.00259
3644.44447,0.00234
3642.38430,0.00215
3640.32413,0.00205
3638.26396,0.00218
3636.20379,0.00258
3634.14361,0.00290
3632.08344,0.00293
3630.02327,0.00284
3627.96310,0.00278
3625.90293,0.00281
3623.84275,0.00300
3621.78258,0.00339
3619.72241,0.00378
3617.66224,0.00393
3615.60207,0.00386
3613.54189,0.00376
3611.48172,0.00389
3609.42155,0.00427
3607.36138,0.00456
3605.30120,0.00457
3603.24103,0.00451
3601.18086,0.00465
3599.12069,0.00496
3597.06052,0.00524
3595.00034,0.00547
3592.94017,0.00585
3590.88000,0.00622
3588.81983,0.00646
3586.75966,0.00651
3584.69948,0.00641
3582.63931,0.00640
3580.57914,0.00658
3578.51897,0.00675
3576.45879,0.00676
3574.39862,0.00691
3572.33845,0.00734
3570.27828,0.00783
3568.21811,0.00839
3566.15793,0.00890
3564.09776,0.00896
3562.03759,0.00877
3559.97742,0.00875
3557.91725,0.00881
3555.85707,0.00884
3553.79690,0.00904
3551.73673,0.00941
3549.67656,0.00970
3547.61639,0.00983
3545.55621,0.00991
3543.49604,0.01003
3541.43587,0.01021
3539.37570,0.01023
3537.31552,0.01010
3535.25535,0.01022
3533.19518,0.01063
3531.13501,0.01102
3529.07484,0.01140
3527.01466,0.01191
3524.95449,0.01240
3522.89432,0.01265
3520.83415,0.01266
3518.77398,0.01260
3516.71380,0.01258
3514.65363,0.01260
3512.59346,0.01270
3510.53329,0.01291
3508.47312,0.01308
3506.41294,0.01304
3504.35277,0.01310
3502.29260,0.01352
3500.23243,0.01390
3498.17225,0.01386
3496.11208,0.01370
3494.05191,0.01385
3491.99174,0.01424
3489.93157,0.01448
3487.87139,0.01452
3485.81122,0.01465
3483.75105,0.01507
3481.69088,0.01558
3479.63071,0.01572
3477.57053,0.01553
3475.51036,0.01545
3473.45019,0.01550
3471.39002,0.01558
3469.32984,0.01571
3467.26967,0.01591
3465.20950,0.01621
3463.14933,0.01658
3461.08916,0.01674
3459.02898,0.01671
3456.96881,0.01683
3454.90864,0.01711
3452.84847,0.01737
3450.78830,0.01754
3448.72812,0.01759
3446.66795,0.01764
3444.60778,0.01796
3442.54761,0.01841
3440.48744,0.01862
3438.42726,0.01867
3436.36709,0.01889
3434.30692,0.01919
3432.24675,0.01931
3430.18657,0.01938
3428.12640,0.01947
3426.06623,0.01938
3424.00606,0.01917
3421.94589,0.01914
3419.88571,0.01933
3417.82554,0.01955
3415.76537,0.01979
3413.70520,0.02011
3411.64503,0.02036
3409.58485,0.02044
3407.52468,0.02045
3405.46451,0.02052
3403.40434,0.02065
3401.34416,0.02072
3399.28399,0.02079
3397.22382,0.02099
3395.16365,0.02123
3393.10348,0.02142
3391.04330,0.02148
3388.98313,0.02130
3386.92296,0.02108
3384.86279,0.02104
3382.80262,0.02116
3380.74244,0.02140
3378.68227,0.02168
3376.62210,0.02188
3374.56193,0.02203
3372.50176,0.02210
3370.44158,0.02207
3368.38141,0.02213
3366.32124,0.02225
3364.26107,0.02225
3362.20089,0.02212
3360.14072,0.02205
3358.08055,0.02209
3356.02038,0.02219
3353.96021,0.02239
3351.90003,0.02265
3349.83986,0.02280
3347.77969,0.02275
3345.71952,0.02267
3343.65935,0.02278
3341.59917,0.02292
3339.53900,0.02298
3337.47883,0.02308
3335.41866,0.02310
3333.35849,0.02295
3331.29831,0.02278
3329.23814,0.02279
3327.17797,0.02288
3325.11780,0.02285
3323.05762,0.02276
3320.99745,0.02277
3318.93728,0.02296
3316.87711,0.02325
3314.81694,0.02332
3312.75676,0.02312
3310.69659,0.02304
3308.63642,0.02330
3306.57625,0.02355
3304.51608,0.02356
3302.45590,0.02353
3300.39573,0.02350
3298.33556,0.02342
3296.27539,0.02328
3294.21521,0.02319
3292.15504,0.02320
3290.09487,0.02316
3288.03470,0.02308
3285.97453,0.02323
3283.91435,0.02345
3281.85418,0.02342
3279.79401,0.02325
3277.73384,0.02320
3275.67367,0.02311
3273.61349,0.02294
3271.55332,0.02301
3269.49315,0.02333
3267.43298,0.02342
3265.37281,0.02318
3263.31263,0.02283
3261.25246,0.02259
3259.19229,0.02269
3257.13212,0.02293
3255.07194,0.02294
3253.01177,0.02279
3250.95160,0.02273
3248.89143,0.02280
3246.83126,0.02287
3244.77108,0.02283
3242.71091,0.02268
3240.65074,0.02254
3238.59057,0.02247
3236.53040,0.02246
3234.47022,0.02246
3232.41005,0.02250
3230.34988,0.02260
3228.28971,0.02262
3226.22954,0.02252
3224.16936,0.02230
3222.10919,0.02213
3220.04902,0.02214
3217.98885,0.02212
3215.92867,0.02198
3213.86850,0.02195
3211.80833,0.02180
3209.74816,0.02134
3207.68799,0.02096
3205.62781,0.02097
3203.56764,0.02115
3201.50747,0.02132
3199.44730,0.02140
3197.38713,0.02123
3195.32695,0.02081
3193.26678,0.02034
3191.20661,0.02009
3189.14644,0.02019
3187.08626,0.02042
3185.02609,0.02042
3182.96592,0.02014
3180.90575,0.01979
3178.84558,0.01949
3176.78540,0.01929
3174.72523,0.01919
3172.66506,0.01904
3170.60489,0.01881
3168.54472,0.01865
3166.48454,0.01861
3164.42437,0.01853
3162.36420,0.01830
3160.30403,0.01808
3158.24386,0.01801
3156.18368,0.01802
3154.12351,0.01795
3152.06334,0.01768
3150.00317,0.01733
3147.94299,0.01716
3145.88282,0.01719
3143.82265,0.01712
3141.76248,0.01688
3139.70231,0.01665
3137.64213,0.01654
3135.58196,0.01654
3133.52179,0.01641
3131.46162,0.01602
3129.40145,0.01572
3127.34127,0.01577
3125.28110,0.01589
3123.22093,0.01571
3121.16076,0.01531
3119.10058,0.01505
3117.04041,0.01497
3114.98024,0.01482
3112.92007,0.01462
3110.85990,0.01448
3108.79972,0.01437
3106.73955,0.01425
3104.67938,0.01414
3102.61921,0.01396
3100.55904,0.01366
3098.49886,0.01338
3096.43869,0.01336
3094.37852,0.01350
3092.31835,0.01348
3090.25818,0.01325
3088.19800,0.01303
3086.13783,0.01291
3084.07766,0.01279
3082.01749,0.01264
3079.95731,0.01255
3077.89714,0.01252
3075.83697,0.01239
3073.77680,0.01206
3071.71663,0.01174
3069.65645,0.01164
3067.59628,0.01159
3065.53611,0.01136
3063.47594,0.01103
3061.41577,0.01089
3059.35559,0.01094
3057.29542,0.01092
3055.23525,0.01074
3053.17508,0.01068
3051.11491,0.01075
3049.05473,0.01073
3046.99456,0.01056
3044.93439,0.01030
3042.87422,0.00999
3040.81404,0.00979
3038.75387,0.00976
3036.69370,0.00972
3034.63353,0.00962
3032.57336,0.00956
3030.51318,0.00945
3028.45301,0.00928
3026.39284,0.00925
3024.33267,0.00932
3022.27250,0.00924
3020.21232,0.00904
3018.15215,0.00900
3016.09198,0.00906
3014.03181,0.00891
3011.97163,0.00857
3009.91146,0.00838
3007.85129,0.00844
3005.79112,0.00860
3003.73095,0.00869
3001.67077,0.00862
2999.61060,0.00848
2997.55043,0.00844
2995.49026,0.00850
2993.43009,0.00843
2991.36991,0.00832
2989.30974,0.00840
2987.24957,0.00852
2985.18940,0.00850
2983.12923,0.00855
2981.06905,0.00887
2979.00888,0.00908
2976.94871,0.00893
2974.88854,0.00875
2972.82836,0.00884
2970.76819,0.00901
2968.70802,0.00909
2966.64785,0.00927
2964.58768,0.00958
2962.52750,0.00978
2960.46733,0.00989
2958.40716,0.01009
2956.34699,0.01046
2954.28682,0.01086
2952.22664,0.01112
2950.16647,0.01124
2948.10630,0.01134
2946.04613,0.01155
2943.98596,0.01183
2941.92578,0.01211
2939.86561,0.01232
2937.80544,0.01240
2935.74527,0.01250
2933.68509,0.01257
2931.62492,0.01253
2929.56475,0.01247
2927.50458,0.01235
2925.44441,0.01227
2923.38423,0.01227
2921.32406,0.01216
2919.26389,0.01201
2917.20372,0.01204
2915.14355,0.01203
2913.08337,0.01182
2911.02320,0.01154
2908.96303,0.01131
2906.90286,0.01117
2904.84268,0.01118
2902.78251,0.01119
2900.72234,0.01108
2898.66217,0.01106
2896.60200,0.01124
2894.54182,0.01134
2892.48165,0.01123
2890.42148,0.01104
2888.36131,0.01098
2886.30114,0.01102
2884.24096,0.01095
2882.18079,0.01083
2880.12062,0.01075
2878.06045,0.01073
2876.00028,0.01073
2873.94010,0.01064
2871.87993,0.01052
2869.81976,0.01037
2867.75959,0.01018
2865.69941,0.01009
2863.63924,0.00994
2861.57907,0.00961
2859.51890,0.00930
2857.45873,0.00919
2855.39855,0.00908
2853.33838,0.00895
2851.27821,0.00894
2849.21804,0.00895
2847.15787,0.00878
2845.09769,0.00854
2843.03752,0.00845
2840.97735,0.00839
2838.91718,0.00820
2836.85700,0.00801
2834.79683,0.00799
2832.73666,0.00814
2830.67649,0.00816
2828.61632,0.00798
2826.55614,0.00778
2824.49597,0.00764
2822.43580,0.00754
2820.37563,0.00760
2818.31546,0.00777
2816.25528,0.00769
2814.19511,0.00733
2812.13494,0.00709
2810.07477,0.00708
2808.01460,0.00712
2805.95442,0.00716
2803.89425,0.00719
2801.83408,0.00720
2799.77391,0.00718
2797.71373,0.00709
2795.65356,0.00694
2793.59339,0.00687
2791.53322,0.00687
2789.47305,0.00683
2787.41287,0.00673
2785.35270,0.00657
2783.29253,0.00645
2781.23236,0.00650
2779.17219,0.00659
2777.11201,0.00665
2775.05184,0.00667
2772.99167,0.00666
2770.93150,0.00668
2768.87133,0.00667
2766.81115,0.00653
2764.75098,0.00630
2762.69081,0.00619
2760.63064,0.00619
2758.57046,0.00614
2756.51029,0.00611
2754.45012,0.00618
2752.38995,0.00624
2750.32978,0.00622
2748.26960,0.00619
2746.20943,0.00619
2744.14926,0.00617
2742.08909,0.00617
2740.02892,0.00618
2737.96874,0.00616
2735.90857,0.00619
2733.84840,0.00625
2731.78823,0.00614
2729.72805,0.00593
2727.66788,0.00584
2725.60771,0.00588
2723.54754,0.00593
2721.48737,0.00598
2719.42719,0.00600
2717.36702,0.00589
2715.30685,0.00570
2713.24668,0.00563
2711.18651,0.00562
2709.12633,0.00558
2707.06616,0.00557
2705.00599,0.00557
2702.94582,0.00554
2700.88565,0.00552
2698.82547,0.00549
2696.76530,0.00550
2694.70513,0.00560
2692.64496,0.00569
2690.58478,0.00561
2688.52461,0.00548
2686.46444,0.00543
2684.40427,0.00537
2682.34410,0.00524
2680.28392,0.00513
2678.22375,0.00509
2676.16358,0.00509
2674.10341,0.00510
2672.04324,0.00521
2669.98306,0.00537
2667.92289,0.00537
2665.86272,0.00531
2663.80255,0.00538
2661.74238,0.00547
2659.68220,0.00540
2657.62203,0.00526
2655.56186,0.00518
2653.50169,0.00515
2651.44151,0.00519
2649.38134,0.00523
2647.32117,0.00517
2645.26100,0.00500
2643.20083,0.00493
2641.14065,0.00502
2639.08048,0.00499
2637.02031,0.00486
2634.96014,0.00476
2632.89997,0.00471
2630.83979,0.00471
2628.77962,0.00469
2626.71945,0.00462
2624.65928,0.00457
2622.59910,0.00465
2620.53893,0.00486
2618.47876,0.00502
2616.41859,0.00507
2614.35842,0.00501
2612.29824,0.00480
2610.23807,0.00453
2608.17790,0.00435
2606.11773,0.00430
2604.05756,0.00424
2601.99738,0.00413
2599.93721,0.00398
2597.87704,0.00389
2595.81687,0.00393
2593.75670,0.00398
2591.69652,0.00392
2589.63635,0.00383
2587.57618,0.00384
2585.51601,0.00397
2583.45583,0.00411
2581.39566,0.00418
2579.33549,0.00422
2577.27532,0.00417
2575.21515,0.00400
2573.15497,0.00377
2571.09480,0.00360
2569.03463,0.00369
2566.97446,0.00398
2564.91429,0.00422
2562.85411,0.00424
2560.79394,0.00420
2558.73377,0.00415
2556.67360,0.00393
2554.61342,0.00368
2552.55325,0.00373
2550.49308,0.00385
2548.43291,0.00381
2546.37274,0.00375
2544.31256,0.00375
2542.25239,0.00367
2540.19222,0.00361
2538.13205,0.00379
2536.07188,0.00403
2534.01170,0.00411
2531.95153,0.00412
2529.89136,0.00392
2527.83119,0.00358
2525.77102,0.00354
2523.71084,0.00367
2521.65067,0.00366
2519.59050,0.00354
2517.53033,0.00350
2515.47015,0.00352
2513.40998,0.00357
2511.34981,0.00361
2509.28964,0.00361
2507.22947,0.00355
2505.16929,0.00340
2503.10912,0.00323
2501.04895,0.00320
2498.98878,0.00331
2496.92861,0.00345
2494.86843,0.00345
2492.80826,0.00336
2490.74809,0.00323
2488.68792,0.00307
2486.62775,0.00296
2484.56757,0.00292
2482.50740,0.00304
2480.44723,0.00335
2478.38706,0.00353
2476.32688,0.00356
2474.26671,0.00363
2472.20654,0.00360
2470.14637,0.00362
2468.08620,0.00380
2466.02602,0.00387
2463.96585,0.00370
2461.90568,0.00346
2459.84551,0.00344
2457.78534,0.00365
2455.72516,0.00365
2453.66499,0.00332
2451.60482,0.00311
2449.54465,0.00311
2447.48447,0.00319
2445.42430,0.00336
2443.36413,0.00354
2441.30396,0.00356
2439.24379,0.00337
2437.18361,0.00316
2435.12344,0.00305
2433.06327,0.00296
2431.00310,0.00292
2428.94293,0.00305
2426.88275,0.00319
2424.82258,0.00325
2422.76241,0.00341
2420.70224,0.00367
2418.64207,0.00379
2416.58189,0.00362
2414.52172,0.00328
2412.46155,0.00303
2410.40138,0.00298
2408.34120,0.00301
2406.28103,0.00301
2404.22086,0.00311
2402.16069,0.00320
2400.10052,0.00306
2398.04034,0.00261
2395.98017,0.00261
2393.92000,0.00285
2391.85983,0.00306
2389.79966,0.00318
2387.73948,0.00315
2385.67931,0.00308
2383.61914,0.00329
2381.55897,0.00377
2379.49880,0.00413
2377.43862,0.00411
2375.37845,0.00392
2373.31828,0.00359
2371.25811,0.00336
2369.19793,0.00370
2367.13776,0.00400
2365.07759,0.00351
2363.01742,0.00340
2360.95725,0.00378
2358.89707,0.00433
2356.83690,0.00420
2354.77673,0.00440
2352.71656,0.00528
2350.65639,0.00529
2348.59621,0.00473
2346.53604,0.00541
2344.47587,0.00531
2342.41570,0.00486
2340.35552,0.00410
2338.29535,0.00331
2336.23518,0.00333
2334.17501,0.00390
2332.11484,0.00448
2330.05466,0.00502
2327.99449,0.00594
2325.93432,0.00632
2323.87415,0.00596
2321.81398,0.00481
2319.75380,0.00396
2317.69363,0.00358
2315.63346,0.00382
2313.57329,0.00419
2311.51312,0.00435
2309.45294,0.00438
2307.39277,0.00425
2305.33260,0.00400
2303.27243,0.00375
2301.21225,0.00371
2299.15208,0.00387
2297.09191,0.00417
2295.03174,0.00435
2292.97157,0.00425
2290.91139,0.00408
2288.85122,0.00391
2286.79105,0.00366
2284.73088,0.00341
2282.67071,0.00331
2280.61053,0.00337
2278.55036,0.00348
2276.49019,0.00356
2274.43002,0.00355
2272.36984,0.00343
2270.30967,0.00332
2268.24950,0.00335
2266.18933,0.00347
2264.12916,0.00354
2262.06898,0.00340
2260.00881,0.00301
2257.94864,0.00252
2255.88847,0.00246
2253.82830,0.00292
2251.76812,0.00340
2249.70795,0.00347
2247.64778,0.00336
2245.58761,0.00345
2243.52744,0.00349
2241.46726,0.00298
2239.40709,0.00255
2237.34692,0.00274
2235.28675,0.00292
2233.22657,0.00291
2231.16640,0.00306
2229.10623,0.00317
2227.04606,0.00313
2224.98589,0.00303
2222.92571,0.00299
2220.86554,0.00342
2218.80537,0.00414
2216.74520,0.00428
2214.68503,0.00361
2212.62485,0.00248
2210.56468,0.00156
2208.50451,0.00148
2206.44434,0.00183
2204.38417,0.00215
2202.32399,0.00241
2200.26382,0.00269
2198.20365,0.00280
2196.14348,0.00281
2194.08330,0.00302
2192.02313,0.00312
2189.96296,0.00296
2187.90279,0.00272
2185.84262,0.00237
2183.78244,0.00216
2181.72227,0.00243
2179.66210,0.00258
2177.60193,0.00242
2175.54176,0.00226
2173.48158,0.00222
2171.42141,0.00274
2169.36124,0.00352
2167.30107,0.00438
2165.24089,0.00521
2163.18072,0.00479
2161.12055,0.00348
2159.06038,0.00291
2157.00021,0.00270
2154.94003,0.00205
2152.87986,0.00118
2150.81969,0.00059
2148.75952,0.00057
2146.69935,0.00061
2144.63917,0.00050
2142.57900,0.00084
2140.51883,0.00163
2138.45866,0.00239
2136.39849,0.00283
2134.33831,0.00283
2132.27814,0.00247
2130.21797,0.00216
2128.15780,0.00240
2126.09762,0.00275
2124.03745,0.00274
2121.97728,0.00284
2119.91711,0.00309
2117.85694,0.00308
2115.79676,0.00298
2113.73659,0.00324
2111.67642,0.00354
2109.61625,0.00326
2107.55608,0.00281
2105.49590,0.00273
2103.43573,0.00303
2101.37556,0.00353
2099.31539,0.00368
2097.25521,0.00340
2095.19504,0.00327
2093.13487,0.00341
2091.07470,0.00352
2089.01453,0.00348
2086.95435,0.00327
2084.89418,0.00299
2082.83401,0.00281
2080.77384,0.00282
2078.71367,0.00293
2076.65349,0.00298
2074.59332,0.00318
2072.53315,0.00361
2070.47298,0.00375
2068.41281,0.00342
2066.35263,0.00323
2064.29246,0.00338
2062.23229,0.00374
2060.17212,0.00420
2058.11194,0.00407
2056.05177,0.00325
2053.99160,0.00255
2051.93143,0.00217
2049.87126,0.00182
2047.81108,0.00163
2045.75091,0.00159
2043.69074,0.00155
2041.63057,0.00189
2039.57040,0.00239
2037.51022,0.00250
2035.45005,0.00232
2033.38988,0.00211
2031.32971,0.00172
2029.26954,0.00135
2027.20936,0.00163
2025.14919,0.00209
2023.08902,0.00215
2021.02885,0.00221
2018.96867,0.00246
2016.90850,0.00270
2014.84833,0.00260
2012.78816,0.00168
2010.72799,0.00025
2008.66781,0.00000
2006.60764,0.00130
2004.54747,0.00228
2002.48730,0.00193
2000.42713,0.00116
1998.36695,0.00090
1996.30678,0.00130
1994.24661,0.00201
1992.18644,0.00240
1990.12626,0.00213
1988.06609,0.00172
1986.00592,0.00167
1983.94575,0.00204
1981.88558,0.00242
1979.82540,0.00205
1977.76523,0.00113
1975.70506,0.00076
1973.64489,0.00134
1971.58472,0.00195
1969.52454,0.00187
1967.46437,0.00149
1965.40420,0.00132
1963.34403,0.00140
1961.28386,0.00163
1959.22368,0.00194
1957.16351,0.00192
1955.10334,0.00134
1953.04317,0.00072
1950.98299,0.00054
1948.92282,0.00092
1946.86265,0.00161
1944.80248,0.00187
1942.74231,0.00166
1940.68213,0.00143
1938.62196,0.00104
1936.56179,0.00077
1934.50162,0.00102
1932.44145,0.00136
1930.38127,0.00128
1928.32110,0.00093
1926.26093,0.00083
1924.20076,0.00117
1922.14059,0.00164
1920.08041,0.00180
1918.02024,0.00173
1915.96007,0.00176
1913.89990,0.00174
1911.83972,0.00143
1909.77955,0.00114
1907.71938,0.00109
1905.65921,0.00112
1903.59904,0.00112
1901.53886,0.00116
1899.47869,0.00109
1897.41852,0.00077
1895.35835,0.00040
1893.29818,0.00033
1891.23800,0.00066
1889.17783,0.00114
1887.11766,0.00123
1885.05749,0.00088
1882.99731,0.00068
1880.93714,0.00076
1878.87697,0.00085
1876.81680,0.00085
1874.75663,0.00081
1872.69645,0.00077
1870.63628,0.00090
1868.57611,0.00118
1866.51594,0.00129
1864.45577,0.00107
1862.39559,0.00088
1860.33542,0.00099
1858.27525,0.00113
1856.21508,0.00105
1854.15491,0.00093
1852.09473,0.00083
1850.03456,0.00055
1847.97439,0.00028
1845.91422,0.00042
1843.85404,0.00084
1841.79387,0.00106
1839.73370,0.00094
1837.67353,0.00065
1835.61336,0.00034
1833.55318,0.00024
1831.49301,0.00043
1829.43284,0.00067
1827.37267,0.00076
1825.31250,0.00068
1823.25232,0.00046
1821.19215,0.00027
1819.13198,0.00027
1817.07181,0.00045
1815.01163,0.00061
1812.95146,0.00061
1810.89129,0.00049
1808.83112,0.00029
1806.77095,0.00008
1804.71077,0.00006
1802.65060,0.00030
1800.59043,0.00046
1798.53026,0.00044
1796.47009,0.00037
1794.40991,0.00025
1792.34974,0.00018
1790.28957,0.00025
1788.22940,0.00033
1786.16923,0.00036
1784.10905,0.00039
1782.04888,0.00040
1779.98871,0.00041
1777.92854,0.00044
1775.86836,0.00043
1773.80819,0.00037
1771.74802,0.00035
1769.68785,0.00043
1767.62768,0.00052
1765.56750,0.00060
1763.50733,0.00083
1761.44716,0.00112
1759.38699,0.00135
1757.32682,0.00161
1755.26664,0.00197
1753.20647,0.00238
1751.14630,0.00278
1749.08613,0.00319
1747.02596,0.00361
1744.96578,0.00398
1742.90561,0.00418
1740.84544,0.00424
1738.78527,0.00419
1736.72509,0.00407
1734.66492,0.00404
1732.60475,0.00422
1730.54458,0.00440
1728.48441,0.00438
1726.42423,0.00425
1724.36406,0.00420
1722.30389,0.00420
1720.24372,0.00417
1718.18355,0.00409
1716.12337,0.00393
1714.06320,0.00365
1712.00303,0.00332
1709.94286,0.00304
1707.88268,0.00277
1705.82251,0.00247
1703.76234,0.00217
1701.70217,0.00197
1699.64200,0.00198
1697.58182,0.00207
1695.52165,0.00215
1693.46148,0.00227
1691.40131,0.00241
1689.34114,0.00252
1687.28096,0.00263
1685.22079,0.00294
1683.16062,0.00342
1681.10045,0.00371
1679.04028,0.00386
1676.98010,0.00416
1674.91993,0.00460
1672.85976,0.00497
1670.79959,0.00537
1668.73941,0.00593
1666.67924,0.00632
1664.61907,0.00657
1662.55890,0.00694
1660.49873,0.00738
1658.43855,0.00771
1656.37838,0.00793
1654.31821,0.00828
1652.25804,0.00886
1650.19787,0.00921
1648.13769,0.00936
1646.07752,0.00956
1644.01735,0.00969
1641.95718,0.00972
1639.89701,0.00973
1637.83683,0.00978
1635.77666,0.01004
1633.71649,0.01035
1631.65632,0.01041
1629.59614,0.01039
1627.53597,0.01046
1625.47580,0.01058
1623.41563,0.01065
1621.35546,0.01063
1619.29528,0.01059
1617.23511,0.01074
1615.17494,0.01098
1613.11477,0.01092
1611.05460,0.01061
1608.99442,0.01027
1606.93425,0.00998
1604.87408,0.00968
1602.81391,0.00928
1600.75373,0.00881
1598.69356,0.00830
1596.63339,0.00777
1594.57322,0.00722
1592.51305,0.00659
1590.45287,0.00591
1588.39270,0.00525
1586.33253,0.00470
1584.27236,0.00427
1582.21219,0.00395
1580.15201,0.00370
1578.09184,0.00342
1576.03167,0.00308
1573.97150,0.00269
1571.91133,0.00228
1569.85115,0.00198
1567.79098,0.00188
1565.73081,0.00182
1563.67064,0.00163
1561.61046,0.00123
1559.55029,0.00072
1557.49012,0.00055
1555.42995,0.00075
1553.36978,0.00091
1551.30960,0.00087
1549.24943,0.00071
1547.18926,0.00061
1545.12909,0.00064
1543.06892,0.00067
1541.00874,0.00058
1538.94857,0.00038
1536.88840,0.00020
1534.82823,0.00017
1532.76805,0.00020
1530.70788,0.00016
1528.64771,0.00014
1526.58754,0.00017
1524.52737,0.00012
1522.46719,0.00000
1520.40702,-0.00003
1518.34685,0.00005
1516.28668,0.00014
1514.22651,0.00011
1512.16633,0.00009
1510.10616,0.00023
1508.04599,0.00039
1505.98582,0.00025
1503.92565,-0.00004
1501.86547,-0.00017
1499.80530,-0.00015
1497.74513,-0.00004
1495.68496,0.00013
1493.62478,0.00029
1491.56461,0.00045
1489.50444,0.00052
1487.44427,0.00040
1485.38410,0.00035
1483.32392,0.00059
1481.26375,0.00105
1479.20358,0.00146
1477.14341,0.00175
1475.08324,0.00205
1473.02306,0.00239
1470.96289,0.00275
1468.90272,0.00309
1466.84255,0.00347
1464.78238,0.00391
1462.72220,0.00418
1460.66203,0.00428
1458.60186,0.00454
1456.54169,0.00508
1454.48151,0.00545
1452.42134,0.00552
1450.36117,0.00549
1448.30100,0.00555
1446.24083,0.00574
1444.18065,0.00594
1442.12048,0.00606
1440.06031,0.00621
1438.00014,0.00656
1435.93997,0.00705
1433.87979,0.00732
1431.81962,0.00743
1429.75945,0.00769
1427.69928,0.00807
1425.63910,0.00844
1423.57893,0.00869
1421.51876,0.00881
1419.45859,0.00902
1417.39842,0.00935
1415.33824,0.00952
1413.27807,0.00951
1411.21790,0.00939
1409.15773,0.00919
1407.09756,0.00895
1405.03738,0.00872
1402.97721,0.00847
1400.91704,0.00825
1398.85687,0.00811
1396.79670,0.00796
1394.73652,0.00774
1392.67635,0.00756
1390.61618,0.00752
1388.55601,0.00761
1386.49583,0.00777
1384.43566,0.00791
1382.37549,0.00807
1380.31532,0.00829
1378.25515,0.00851
1376.19497,0.00877
1374.13480,0.00905
1372.07463,0.00917
1370.01446,0.00908
1367.95429,0.00892
1365.89411,0.00884
1363.83394,0.00884
1361.77377,0.00877
1359.71360,0.00854
1357.65343,0.00824
1355.59325,0.00803
1353.53308,0.00790
1351.47291,0.00778
1349.41274,0.00763
1347.35256,0.00747
1345.29239,0.00731
1343.23222,0.00721
1341.17205,0.00726
1339.11188,0.00740
1337.05170,0.00743
1334.99153,0.00733
1332.93136,0.00724
1330.87119,0.00720
1328.81102,0.00722
1326.75084,0.00730
1324.69067,0.00738
1322.63050,0.00745
1320.57033,0.00751
1318.51015,0.00754
1316.44998,0.00753
1314.38981,0.00750
1312.32964,0.00743
1310.26947,0.00729
1308.20929,0.00716
1306.14912,0.00698
1304.08895,0.00668
1302.02878,0.00643
1299.96861,0.00637
1297.90843,0.00637
1295.84826,0.00623
1293.78809,0.00601
1291.72792,0.00592
1289.66775,0.00595
1287.60757,0.00595
1285.54740,0.00588
1283.48723,0.00578
1281.42706,0.00577
1279.36688,0.00588
1277.30671,0.00602
1275.24654,0.00617
1273.18637,0.00637
1271.12620,0.00663
1269.06602,0.00690
1267.00585,0.00722
1264.94568,0.00765
1262.88551,0.00812
1260.82534,0.00851
1258.76516,0.00879
1256.70499,0.00904
1254.64482,0.00932
1252.58465,0.00949
1250.52447,0.00951
1248.46430,0.00960
1246.40413,0.00971
1244.34396,0.00965
1242.28379,0.00952
1240.22361,0.00938
1238.16344,0.00919
1236.10327,0.00900
1234.04310,0.00877
1231.98293,0.00838
1229.92275,0.00793
1227.86258,0.00753
1225.80241,0.00715
1223.74224,0.00681
1221.68207,0.00654
1219.62189,0.00626
1217.56172,0.00582
1215.50155,0.00527
1213.44138,0.00487
1211.38120,0.00455
1209.32103,0.00406
1207.26086,0.00344
1205.20069,0.00284
1203.14052,0.00233
1201.08034,0.00185
1199.02017,0.00135
1196.96000,0.00092
1194.89983,0.00057
1192.83966,0.00021
1190.77948,0.00000
1188.71931,-0.00015
1186.65914,-0.00024
1184.59897,-0.00020
1182.53880,0.00004
1180.47862,0.00037
1178.41845,0.00077
1176.35828,0.00125
1174.29811,0.00190
1172.23793,0.00272
1170.17776,0.00355
1168.11759,0.00438
1166.05742,0.00530
1163.99725,0.00621
1161.93707,0.00700
1159.87690,0.00770
1157.81673,0.00836
1155.75656,0.00894
1153.69639,0.00942
1151.63621,0.00993
1149.57604,0.01057
1147.51587,0.01105
1145.45570,0.01133
1143.39552,0.01164
1141.33535,0.01191
1139.27518,0.01214
1137.21501,0.01240
1135.15484,0.01266
1133.09466,0.01292
1131.03449,0.01334
1128.97432,0.01401
1126.91415,0.01478
1124.85398,0.01548
1122.79380,0.01613
1120.73363,0.01684
1118.67346,0.01753
1116.61329,0.01815
1114.55312,0.01885
1112.49294,0.01962
1110.43277,0.02028
1108.37260,0.02088
1106.31243,0.02156
1104.25225,0.02236
1102.19208,0.02326
1100.13191,0.02423
1098.07174,0.02533
1096.01157,0.02652
1093.95139,0.02779
1091.89122,0.02914
1089.83105,0.03028
1087.77088,0.03103
1085.71071,0.03174
1083.65053,0.03271
1081.59036,0.03383
1079.53019,0.03486
1077.47002,0.03575
1075.40985,0.03663
1073.34967,0.03754
1071.28950,0.03831
1069.22933,0.03885
1067.16916,0.03937
1065.10898,0.04000
1063.04881,0.04058
1060.98864,0.04098
1058.92847,0.04131
1056.86830,0.04173
1054.80812,0.04216
1052.74795,0.04254
1050.68778,0.04315
1048.62761,0.04403
1046.56744,0.04487
1044.50726,0.04551
1042.44709,0.04613
1040.38692,0.04691
1038.32675,0.04769
1036.26657,0.04815
1034.20640,0.04807
1032.14623,0.04771
1030.08606,0.04743
1028.02589,0.04728
1025.96571,0.04721
1023.90554,0.04724
1021.84537,0.04728
1019.78520,0.04715
1017.72503,0.04690
1015.66485,0.04676
1013.60468,0.04669
1011.54451,0.04645
1009.48434,0.04601
1007.42417,0.04559
1005.36399,0.04519
1003.30382,0.04463
1001.24365,0.04395
999.18348,0.04320
997.12330,0.04236
995.06313,0.04143
993.00296,0.04054
990.94279,0.03985
988.88262,0.03932
986.82244,0.03880
984.76227,0.03828
982.70210,0.03775
980.64193,0.03719
978.58176,0.03659
976.52158,0.03594
974.46141,0.03531
972.40124,0.03466
970.34107,0.03390
968.28089,0.03315
966.22072,0.03248
964.16055,0.03179
962.10038,0.03116
960.04021,0.03066
957.98003,0.03017
955.91986,0.02963
953.85969,0.02914
951.79952,0.02855
949.73935,0.02774
947.67917,0.02691
945.61900,0.02618
943.55883,0.02532
941.49866,0.02390
939.43849,0.02208
937.37831,0.02047
935.31814,0.01922
933.25797,0.01818
931.19780,0.01726
929.13762,0.01641
927.07745,0.01564
925.01728,0.01499
922.95711,0.01444
920.89694,0.01395
918.83676,0.01344
916.77659,0.01301
914.71642,0.01278
912.65625,0.01258
910.59608,0.01218
908.53590,0.01193
906.47573,0.01223
904.41556,0.01267
902.35539,0.01291
900.29522,0.01306
898.23504,0.01321
896.17487,0.01348
894.11470,0.01383
892.05453,0.01420
889.99435,0.01457
887.93418,0.01459
885.87401,0.01425
883.81384,0.01398
881.75367,0.01380
879.69349,0.01364
877.63332,0.01341
875.57315,0.01315
873.51298,0.01317
871.45281,0.01339
869.39263,0.01355
867.33246,0.01353
865.27229,0.01329
863.21212,0.01307
861.15194,0.01288
859.09177,0.01258
857.03160,0.01230
854.97143,0.01206
852.91126,0.01170
850.85108,0.01114
848.79091,0.01050
846.73074,0.00987
844.67057,0.00910
842.61040,0.00809
840.55022,0.00682
838.49005,0.00550
836.42988,0.00439
834.36971,0.00331
832.30954,0.00219
830.24936,0.00156
828.18919,0.00136
826.12902,0.00109
824.06885,0.00074
822.00867,0.00037
819.94850,0.00000
817.88833,-0.00013
815.82816,0.00013
813.76799,0.00047
811.70781,0.00065
809.64764,0.00081
807.58747,0.00090
805.52730,0.00088
803.46713,0.00117
801.40695,0.00119
799.34678,0.00046
797.28661,0.00000
795.22644,0.00016
793.16627,0.00036
791.10609,0.00058
789.04592,0.00097
786.98575,0.00142
784.92558,0.00161
782.86540,0.00149
780.80523,0.00158
778.74506,0.00182
776.68489,0.00190
774.62472,0.00188
772.56454,0.00196
770.50437,0.00243
768.44420,0.00305
766.38403,0.00343
764.32386,0.00362
762.26368,0.00372
760.20351,0.00386
758.14334,0.00397
756.08317,0.00385
754.02299,0.00363
751.96282,0.00364
749.90265,0.00383
747.84248,0.00376
745.78231,0.00343
743.72213,0.00332
741.66196,0.00350
739.60179,0.00378
737.54162,0.00394
735.48145,0.00404
733.42127,0.00432
731.36110,0.00435
729.30093,0.00390
727.24076,0.00364
725.18059,0.00368
723.12041,0.00369
721.06024,0.00342
719.00007,0.00297
716.93990,0.00295
714.87972,0.00342
712.81955,0.00414
710.75938,0.00479
708.69921,0.00527
706.63904,0.00543
704.57886,0.00514
702.51869,0.00499
700.45852,0.00529
698.39835,0.00556
696.33818,0.00546
694.27800,0.00506
692.21783,0.00447
690.15766,0.00374
688.09749,0.00292
686.03731,0.00222
683.97714,0.00189
681.91697,0.00204
679.85680,0.00228
677.79663,0.00209
675.73645,0.00166
673.67628,0.00117
671.61611,0.00000
669.55594,0.00039
667.49577,0.00248
665.43559,0.00085
663.37542,0.00201
661.31525,0.00278
659.25508,0.00267
657.19491,0.00242
655.13473,0.00209
653.07456,0.00189
651.01439,0.00200
648.95422,0.00204
646.89404,0.00136
644.83387,0.00063
642.77370,0.00075
640.71353,0.00142
638.65336,0.00164
636.59318,0.00122
634.53301,0.00070
632.47284,0.00067
630.41267,0.00139
628.35250,0.00210
626.29232,0.00132
624.23215,-0.00006
622.17198,-0.00002
620.11181,0.00078
618.05164,0.00151
615.99146,0.00162
613.93129,0.00114
611.87112,0.00091
609.81095,0.00066
607.75077,0.00025
605.69060,0.00065
603.63043,0.00117
601.57026,0.00078
599.51009,0.00000
