3996.73391,-0.00008
3994.67373,0.00004
3992.61356,0.00015
3990.55339,0.00018
3988.49322,0.00022
3986.43305,0.00031
3984.37287,0.00030
3982.31270,0.00013
3980.25253,-0.00002
3978.19236,0.00003
3976.13219,0.00012
3974.07201,0.00008
3972.01184,-0.00001
3969.95167,0.00000
3967.89150,0.00013
3965.83133,0.00035
3963.77115,0.00045
3961.71098,0.00029
3959.65081,0.00013
3957.59064,0.00028
3955.53046,0.00048
3953.47029,0.00045
3951.41012,0.00033
3949.34995,0.00037
3947.28978,0.00047
3945.22960,0.00037
3943.16943,0.00011
3941.10926,0.00004
3939.04909,0.00019
3936.98892,0.00025
3934.92874,0.00006
3932.86857,-0.00004
3930.80840,0.00023
3928.74823,0.00049
3926.68805,0.00034
3924.62788,0.00004
3922.56771,-0.00006
3920.50754,-0.00003
3918.44737,0.00005
3916.38719,0.00020
3914.32702,0.00042
3912.26685,0.00063
3910.20668,0.00073
3908.14651,0.00077
3906.08633,0.00069
3904.02616,0.00048
3901.96599,0.00024
3899.90582,0.00005
3897.84565,0.00000
3895.78547,0.00019
3893.72530,0.00050
3891.66513,0.00073
3889.60496,0.00067
3887.54478,0.00031
3885.48461,0.00000
3883.42444,0.00003
3881.36427,0.00028
3879.30410,0.00052
3877.24392,0.00062
3875.18375,0.00065
3873.12358,0.00072
3871.06341,0.00082
3869.00324,0.00087
3866.94306,0.00088
3864.88289,0.00096
3862.82272,0.00098
3860.76255,0.00087
3858.70237,0.00091
3856.64220,0.00119
3854.58203,0.00137
3852.52186,0.00098
3850.46169,0.00042
3848.40151,0.00030
3846.34134,0.00048
3844.28117,0.00069
3842.22100,0.00088
3840.16083,0.00101
3838.10065,0.00094
3836.04048,0.00072
3833.98031,0.00070
3831.92014,0.00084
3829.85997,0.00090
3827.79979,0.00079
3825.73962,0.00041
3823.67945,0.00003
3821.61928,0.00006
3819.55910,0.00039
3817.49893,0.00060
3815.43876,0.00072
3813.37859,0.00076
3811.31842,0.00061
3809.25824,0.00044
3807.19807,0.00041
3805.13790,0.00030
3803.07773,0.00000
3801.01756,0.00010
3798.95738,0.00071
3796.89721,0.00103
3794.83704,0.00083
3792.77687,0.00060
3790.71670,0.00069
3788.65652,0.00096
3786.59635,0.00114
3784.53618,0.00113
3782.47601,0.00086
3780.41583,0.00050
3778.35566,0.00051
3776.29549,0.00094
3774.23532,0.00130
3772.17515,0.00127
3770.11497,0.00093
3768.05480,0.00069
3765.99463,0.00074
3763.93446,0.00088
3761.87429,0.00097
3759.81411,0.00111
3757.75394,0.00129
3755.69377,0.00123
3753.63360,0.00098
3751.57342,0.00089
3749.51325,0.00103
3747.45308,0.00105
3745.39291,0.00097
3743.33274,0.00099
3741.27256,0.00111
3739.21239,0.00120
3737.15222,0.00116
3735.09205,0.00106
3733.03188,0.00099
3730.97170,0.00110
3728.91153,0.00135
3726.85136,0.00154
3724.79119,0.00149
3722.73102,0.00123
3720.67084,0.00117
3718.61067,0.00115
3716.55050,0.00119
3714.49033,0.00132
3712.43015,0.00127
3710.36998,0.00108
3708.30981,0.00066
3706.24964,0.00036
3704.18947,0.00038
3702.12929,0.00075
3700.06912,0.00113
3698.00895,0.00112
3695.94878,0.00093
3693.88861,0.00081
3691.82843,0.00096
3689.76826,0.00119
3687.70809,0.00119
3685.64792,0.00092
3683.58775,0.00081
3681.52757,0.00084
3679.46740,0.00088
3677.40723,0.00104
3675.34706,0.00156
3673.28688,0.00205
3671.22671,0.00216
3669.16654,0.00205
3667.10637,0.00193
3665.04620,0.00188
3662.98602,0.00191
3660.92585,0.00197
3658.86568,0.00213
3656.80551,0.00239
3654.74534,0.00246
3652.68516,0.00233
3650.62499,0.00234
3648.56482,0.00259
3646.50465,0.00288
3644.44447,0.00299
3642.38430,0.00301
3640.32413,0.00314
3638.26396,0.00339
3636.20379,0.00361
3634.14361,0.00368
3632.08344,0.00360
3630.02327,0.00345
3627.96310,0.00370
3625.90293,0.00426
3623.84275,0.00455
3621.78258,0.00452
3619.72241,0.00478
3617.66224,0.00535
3615.60207,0.00551
3613.54189,0.00558
3611.48172,0.00591
3609.42155,0.00637
3607.36138,0.00671
3605.30120,0.00692
3603.24103,0.00716
3601.18086,0.00726
3599.12069,0.00740
3597.06052,0.00769
3595.00034,0.00809
3592.94017,0.00838
3590.88000,0.00852
3588.81983,0.00844
3586.75966,0.00864
3584.69948,0.00925
3582.63931,0.00983
3580.57914,0.01006
3578.51897,0.01002
3576.45879,0.00997
3574.39862,0.01015
3572.33845,0.01072
3570.27828,0.01152
3568.21811,0.01224
3566.15793,0.01273
3564.09776,0.01289
3562.03759,0.01276
3559.97742,0.01269
3557.91725,0.01289
3555.85707,0.01329
3553.79690,0.01377
3551.73673,0.01416
3549.67656,0.01430
3547.61639,0.01435
3545.55621,0.01443
3543.49604,0.01471
3541.43587,0.01523
3539.37570,0.01572
3537.31552,0.01584
3535.25535,0.01581
3533.19518,0.01597
3531.13501,0.01631
3529.07484,0.01670
3527.01466,0.01710
3524.95449,0.01745
3522.89432,0.01773
3520.83415,0.01801
3518.77398,0.01838
3516.71380,0.01887
3514.65363,0.01926
3512.59346,0.01939
3510.53329,0.01946
3508.47312,0.01961
3506.41294,0.01976
3504.35277,0.01991
3502.29260,0.02009
3500.23243,0.02031
3498.17225,0.02060
3496.11208,0.02101
3494.05191,0.02144
3491.99174,0.02180
3489.93157,0.02212
3487.87139,0.02229
3485.81122,0.02225
3483.75105,0.02228
3481.69088,0.02248
3479.63071,0.02266
3477.57053,0.02297
3475.51036,0.02354
3473.45019,0.02399
3471.39002,0.02414
3469.32984,0.02438
3467.26967,0.02482
3465.20950,0.02520
3463.14933,0.02543
3461.08916,0.02558
3459.02898,0.02572
3456.96881,0.02582
3454.90864,0.02584
3452.84847,0.02593
3450.78830,0.02615
3448.72812,0.02646
3446.66795,0.02687
3444.60778,0.02722
3442.54761,0.02735
3440.48744,0.02735
3438.42726,0.02741
3436.36709,0.02763
3434.30692,0.02788
3432.24675,0.02811
3430.18657,0.02840
3428.12640,0.02867
3426.06623,0.02873
3424.00606,0.02876
3421.94589,0.02909
3419.88571,0.02948
3417.82554,0.02962
3415.76537,0.02973
3413.70520,0.03005
3411.64503,0.03047
3409.58485,0.03086
3407.52468,0.03122
3405.46451,0.03135
3403.40434,0.03118
3401.34416,0.03112
3399.28399,0.03134
3397.22382,0.03151
3395.16365,0.03163
3393.10348,0.03178
3391.04330,0.03186
3388.98313,0.03198
3386.92296,0.03219
3384.86279,0.03235
3382.80262,0.03240
3380.74244,0.03247
3378.68227,0.03260
3376.62210,0.03277
3374.56193,0.03304
3372.50176,0.03329
3370.44158,0.03340
3368.38141,0.03337
3366.32124,0.03335
3364.26107,0.03349
3362.20089,0.03374
3360.14072,0.03388
3358.08055,0.03390
3356.02038,0.03398
3353.96021,0.03411
3351.90003,0.03418
3349.83986,0.03428
3347.77969,0.03443
3345.71952,0.03451
3343.65935,0.03457
3341.59917,0.03460
3339.53900,0.03453
3337.47883,0.03449
3335.41866,0.03458
3333.35849,0.03473
3331.29831,0.03487
3329.23814,0.03503
3327.17797,0.03519
3325.11780,0.03522
3323.05762,0.03507
3320.99745,0.03484
3318.93728,0.03478
3316.87711,0.03500
3314.81694,0.03528
3312.75676,0.03542
3310.69659,0.03542
3308.63642,0.03539
3306.57625,0.03535
3304.51608,0.03533
3302.45590,0.03543
3300.39573,0.03567
3298.33556,0.03584
3296.27539,0.03575
3294.21521,0.03545
3292.15504,0.03522
3290.09487,0.03513
3288.03470,0.03520
3285.97453,0.03544
3283.91435,0.03556
3281.85418,0.03545
3279.79401,0.03538
3277.73384,0.03539
3275.67367,0.03535
3273.61349,0.03530
3271.55332,0.03534
3269.49315,0.03545
3267.43298,0.03553
3265.37281,0.03542
3263.31263,0.03519
3261.25246,0.03514
3259.19229,0.03532
3257.13212,0.03541
3255.07194,0.03532
3253.01177,0.03525
3250.95160,0.03507
3248.89143,0.03476
3246.83126,0.03468
3244.77108,0.03486
3242.71091,0.03495
3240.65074,0.03479
3238.59057,0.03449
3236.53040,0.03428
3234.47022,0.03409
3232.41005,0.03389
3230.34988,0.03379
3228.28971,0.03370
3226.22954,0.03358
3224.16936,0.03358
3222.10919,0.03366
3220.04902,0.03346
3217.98885,0.03303
3215.92867,0.03283
3213.86850,0.03284
3211.80833,0.03280
3209.74816,0.03264
3207.68799,0.03245
3205.62781,0.03239
3203.56764,0.03240
3201.50747,0.03218
3199.44730,0.03180
3197.38713,0.03146
3195.32695,0.03116
3193.26678,0.03094
3191.20661,0.03083
3189.14644,0.03071
3187.08626,0.03052
3185.02609,0.03031
3182.96592,0.03010
3180.90575,0.02971
3178.84558,0.02925
3176.78540,0.02899
3174.72523,0.02902
3172.66506,0.02907
3170.60489,0.02887
3168.54472,0.02854
3166.48454,0.02838
3164.42437,0.02834
3162.36420,0.02819
3160.30403,0.02780
3158.24386,0.02729
3156.18368,0.02685
3154.12351,0.02663
3152.06334,0.02660
3150.00317,0.02645
3147.94299,0.02611
3145.88282,0.02568
3143.82265,0.02526
3141.76248,0.02497
3139.70231,0.02478
3137.64213,0.02464
3135.58196,0.02454
3133.52179,0.02442
3131.46162,0.02429
3129.40145,0.02415
3127.34127,0.02390
3125.28110,0.02350
3123.22093,0.02311
3121.16076,0.02282
3119.10058,0.02261
3117.04041,0.02248
3114.98024,0.02237
3112.92007,0.02208
3110.85990,0.02168
3108.79972,0.02133
3106.73955,0.02103
3104.67938,0.02069
3102.61921,0.02038
3100.55904,0.02020
3098.49886,0.02009
3096.43869,0.02001
3094.37852,0.01988
3092.31835,0.01960
3090.25818,0.01918
3088.19800,0.01883
3086.13783,0.01870
3084.07766,0.01862
3082.01749,0.01845
3079.95731,0.01821
3077.89714,0.01793
3075.83697,0.01766
3073.77680,0.01741
3071.71663,0.01724
3069.65645,0.01715
3067.59628,0.01704
3065.53611,0.01685
3063.47594,0.01668
3061.41577,0.01655
3059.35559,0.01639
3057.29542,0.01619
3055.23525,0.01597
3053.17508,0.01577
3051.11491,0.01556
3049.05473,0.01529
3046.99456,0.01505
3044.93439,0.01489
3042.87422,0.01469
3040.81404,0.01446
3038.75387,0.01433
3036.69370,0.01421
3034.63353,0.01399
3032.57336,0.01373
3030.51318,0.01357
3028.45301,0.01352
3026.39284,0.01339
3024.33267,0.01315
3022.27250,0.01295
3020.21232,0.01280
3018.15215,0.01267
3016.09198,0.01255
3014.03181,0.01249
3011.97163,0.01245
3009.91146,0.01234
3007.85129,0.01218
3005.79112,0.01202
3003.73095,0.01197
3001.67077,0.01204
2999.61060,0.01203
2997.55043,0.01200
2995.49026,0.01214
2993.43009,0.01234
2991.36991,0.01244
2989.30974,0.01243
2987.24957,0.01233
2985.18940,0.01229
2983.12923,0.01237
2981.06905,0.01243
2979.00888,0.01254
2976.94871,0.01271
2974.88854,0.01283
2972.82836,0.01296
2970.76819,0.01312
2968.70802,0.01333
2966.64785,0.01371
2964.58768,0.01412
2962.52750,0.01434
2960.46733,0.01448
2958.40716,0.01477
2956.34699,0.01528
2954.28682,0.01572
2952.22664,0.01596
2950.16647,0.01614
2948.10630,0.01641
2946.04613,0.01675
2943.98596,0.01702
2941.92578,0.01713
2939.86561,0.01720
2937.80544,0.01731
2935.74527,0.01743
2933.68509,0.01757
2931.62492,0.01769
2929.56475,0.01762
2927.50458,0.01740
2925.44441,0.01722
2923.38423,0.01725
2921.32406,0.01734
2919.26389,0.01721
2917.20372,0.01698
2915.14355,0.01685
2913.08337,0.01666
2911.02320,0.01640
2908.96303,0.01623
2906.90286,0.01619
2904.84268,0.01619
2902.78251,0.01610
2900.72234,0.01590
2898.66217,0.01584
2896.60200,0.01596
2894.54182,0.01604
2892.48165,0.01606
2890.42148,0.01590
2888.36131,0.01558
2886.30114,0.01533
2884.24096,0.01521
2882.18079,0.01513
2880.12062,0.01500
2878.06045,0.01479
2876.00028,0.01460
2873.94010,0.01449
2871.87993,0.01435
2869.81976,0.01407
2867.75959,0.01375
2865.69941,0.01356
2863.63924,0.01345
2861.57907,0.01340
2859.51890,0.01333
2857.45873,0.01307
2855.39855,0.01272
2853.33838,0.01248
2851.27821,0.01223
2849.21804,0.01197
2847.15787,0.01191
2845.09769,0.01192
2843.03752,0.01178
2840.97735,0.01155
2838.91718,0.01146
2836.85700,0.01148
2834.79683,0.01136
2832.73666,0.01113
2830.67649,0.01091
2828.61632,0.01074
2826.55614,0.01064
2824.49597,0.01058
2822.43580,0.01047
2820.37563,0.01031
2818.31546,0.01020
2816.25528,0.01015
2814.19511,0.01010
2812.13494,0.01006
2810.07477,0.01007
2808.01460,0.00998
2805.95442,0.00975
2803.89425,0.00961
2801.83408,0.00965
2799.77391,0.00971
2797.71373,0.00965
2795.65356,0.00951
2793.59339,0.00945
2791.53322,0.00947
2789.47305,0.00945
2787.41287,0.00934
2785.35270,0.00927
2783.29253,0.00922
2781.23236,0.00914
2779.17219,0.00907
2777.11201,0.00900
2775.05184,0.00888
2772.99167,0.00879
2770.93150,0.00876
2768.87133,0.00874
2766.81115,0.00875
2764.75098,0.00877
2762.69081,0.00870
2760.63064,0.00861
2758.57046,0.00859
2756.51029,0.00854
2754.45012,0.00837
2752.38995,0.00820
2750.32978,0.00816
2748.26960,0.00823
2746.20943,0.00831
2744.14926,0.00829
2742.08909,0.00824
2740.02892,0.00819
2737.96874,0.00814
2735.90857,0.00814
2733.84840,0.00823
2731.78823,0.00830
2729.72805,0.00824
2727.66788,0.00813
2725.60771,0.00807
2723.54754,0.00805
2721.48737,0.00797
2719.42719,0.00790
2717.36702,0.00782
2715.30685,0.00767
2713.24668,0.00768
2711.18651,0.00791
2709.12633,0.00807
2707.06616,0.00802
2705.00599,0.00795
2702.94582,0.00787
2700.88565,0.00779
2698.82547,0.00773
2696.76530,0.00763
2694.70513,0.00750
2692.64496,0.00741
2690.58478,0.00738
2688.52461,0.00739
2686.46444,0.00741
2684.40427,0.00732
2682.34410,0.00718
2680.28392,0.00715
2678.22375,0.00717
2676.16358,0.00711
2674.10341,0.00703
2672.04324,0.00694
2669.98306,0.00677
2667.92289,0.00667
2665.86272,0.00668
2663.80255,0.00672
2661.74238,0.00688
2659.68220,0.00706
2657.62203,0.00708
2655.56186,0.00689
2653.50169,0.00656
2651.44151,0.00631
2649.38134,0.00636
2647.32117,0.00650
2645.26100,0.00646
2643.20083,0.00638
2641.14065,0.00638
2639.08048,0.00631
2637.02031,0.00617
2634.96014,0.00603
2632.89997,0.00586
2630.83979,0.00570
2628.77962,0.00568
2626.71945,0.00592
2624.65928,0.00610
2622.59910,0.00593
2620.53893,0.00574
2618.47876,0.00576
2616.41859,0.00576
2614.35842,0.00571
2612.29824,0.00570
2610.23807,0.00558
2608.17790,0.00529
2606.11773,0.00505
2604.05756,0.00500
2601.99738,0.00508
2599.93721,0.00523
2597.87704,0.00537
2595.81687,0.00533
2593.75670,0.00506
2591.69652,0.00476
2589.63635,0.00469
2587.57618,0.00488
2585.51601,0.00507
2583.45583,0.00512
2581.39566,0.00507
2579.33549,0.00502
2577.27532,0.00497
2575.21515,0.00485
2573.15497,0.00472
2571.09480,0.00474
2569.03463,0.00479
2566.97446,0.00469
2564.91429,0.00454
2562.85411,0.00457
2560.79394,0.00471
2558.73377,0.00473
2556.67360,0.00462
2554.61342,0.00454
2552.55325,0.00447
2550.49308,0.00423
2548.43291,0.00398
2546.37274,0.00407
2544.31256,0.00426
2542.25239,0.00418
2540.19222,0.00409
2538.13205,0.00430
2536.07188,0.00457
2534.01170,0.00445
2531.95153,0.00406
2529.89136,0.00383
2527.83119,0.00387
2525.77102,0.00389
2523.71084,0.00381
2521.65067,0.00394
2519.59050,0.00415
2517.53033,0.00404
2515.47015,0.00389
2513.40998,0.00392
2511.34981,0.00389
2509.28964,0.00381
2507.22947,0.00373
2505.16929,0.00351
2503.10912,0.00335
2501.04895,0.00349
2498.98878,0.00378
2496.92861,0.00402
2494.86843,0.00412
2492.80826,0.00401
2490.74809,0.00382
2488.68792,0.00375
2486.62775,0.00382
2484.56757,0.00393
2482.50740,0.00407
2480.44723,0.00408
2478.38706,0.00393
2476.32688,0.00391
2474.26671,0.00393
2472.20654,0.00383
2470.14637,0.00382
2468.08620,0.00403
2466.02602,0.00419
2463.96585,0.00395
2461.90568,0.00362
2459.84551,0.00353
2457.78534,0.00354
2455.72516,0.00348
2453.66499,0.00347
2451.60482,0.00365
2449.54465,0.00372
2447.48447,0.00349
2445.42430,0.00335
2443.36413,0.00335
2441.30396,0.00334
2439.24379,0.00348
2437.18361,0.00371
2435.12344,0.00372
2433.06327,0.00349
2431.00310,0.00330
2428.94293,0.00317
2426.88275,0.00305
2424.82258,0.00308
2422.76241,0.00340
2420.70224,0.00373
2418.64207,0.00370
2416.58189,0.00342
2414.52172,0.00327
2412.46155,0.00330
2410.40138,0.00331
2408.34120,0.00317
2406.28103,0.00296
2404.22086,0.00289
2402.16069,0.00292
2400.10052,0.00286
2398.04034,0.00278
2395.98017,0.00284
2393.92000,0.00290
2391.85983,0.00289
2389.79966,0.00294
2387.73948,0.00312
2385.67931,0.00349
2383.61914,0.00385
2381.55897,0.00388
2379.49880,0.00363
2377.43862,0.00350
2375.37845,0.00318
2373.31828,0.00340
2371.25811,0.00388
2369.19793,0.00343
2367.13776,0.00290
2365.07759,0.00295
2363.01742,0.00154
2360.95725,0.00295
2358.89707,0.00326
2356.83690,0.00259
2354.77673,0.00178
2352.71656,0.00221
2350.65639,0.00688
2348.59621,0.00966
2346.53604,0.00283
2344.47587,0.00123
2342.41570,0.00219
2340.35552,0.00291
2338.29535,0.00374
2336.23518,0.00357
2334.17501,0.00289
2332.11484,0.00208
2330.05466,0.00270
2327.99449,0.00350
2325.93432,0.00510
2323.87415,0.00426
2321.81398,0.00347
2319.75380,0.00277
2317.69363,0.00386
2315.63346,0.00401
2313.57329,0.00339
2311.51312,0.00325
2309.45294,0.00330
2307.39277,0.00356
2305.33260,0.00385
2303.27243,0.00393
2301.21225,0.00358
2299.15208,0.00360
2297.09191,0.00365
2295.03174,0.00344
2292.97157,0.00343
2290.91139,0.00352
2288.85122,0.00345
2286.79105,0.00344
2284.73088,0.00351
2282.67071,0.00336
2280.61053,0.00322
2278.55036,0.00345
2276.49019,0.00360
2274.43002,0.00337
2272.36984,0.00317
2270.30967,0.00321
2268.24950,0.00299
2266.18933,0.00255
2264.12916,0.00233
2262.06898,0.00231
2260.00881,0.00215
2257.94864,0.00210
2255.88847,0.00217
2253.82830,0.00246
2251.76812,0.00288
2249.70795,0.00310
2247.64778,0.00309
2245.58761,0.00289
2243.52744,0.00270
2241.46726,0.00265
2239.40709,0.00277
2237.34692,0.00285
2235.28675,0.00282
2233.22657,0.00297
2231.16640,0.00328
2229.10623,0.00344
2227.04606,0.00326
2224.98589,0.00276
2222.92571,0.00227
2220.86554,0.00202
2218.80537,0.00181
2216.74520,0.00177
2214.68503,0.00234
2212.62485,0.00318
2210.56468,0.00326
2208.50451,0.00269
2206.44434,0.00251
2204.38417,0.00274
2202.32399,0.00267
2200.26382,0.00254
2198.20365,0.00275
2196.14348,0.00260
2194.08330,0.00212
2192.02313,0.00192
2189.96296,0.00205
2187.90279,0.00276
2185.84262,0.00337
2183.78244,0.00310
2181.72227,0.00260
2179.66210,0.00255
2177.60193,0.00284
2175.54176,0.00285
2173.48158,0.00257
2171.42141,0.00278
2169.36124,0.00299
2167.30107,0.00245
2165.24089,0.00184
2163.18072,0.00151
2161.12055,0.00094
2159.06038,0.00040
2157.00021,0.00026
2154.94003,0.00000
2152.87986,0.00003
2150.81969,0.00064
2148.75952,0.00106
2146.69935,0.00128
2144.63917,0.00192
2142.57900,0.00217
2140.51883,0.00135
2138.45866,0.00038
2136.39849,0.00019
2134.33831,0.00074
2132.27814,0.00146
2130.21797,0.00186
2128.15780,0.00189
2126.09762,0.00205
2124.03745,0.00271
2121.97728,0.00314
2119.91711,0.00272
2117.85694,0.00230
2115.79676,0.00253
2113.73659,0.00277
2111.67642,0.00275
2109.61625,0.00287
2107.55608,0.00306
2105.49590,0.00313
2103.43573,0.00292
2101.37556,0.00234
2099.31539,0.00170
2097.25521,0.00136
2095.19504,0.00151
2093.13487,0.00212
2091.07470,0.00286
2089.01453,0.00321
2086.95435,0.00295
2084.89418,0.00259
2082.83401,0.00268
2080.77384,0.00300
2078.71367,0.00297
2076.65349,0.00269
2074.59332,0.00265
2072.53315,0.00306
2070.47298,0.00344
2068.41281,0.00335
2066.35263,0.00300
2064.29246,0.00242
2062.23229,0.00180
2060.17212,0.00143
2058.11194,0.00120
2056.05177,0.00152
2053.99160,0.00272
2051.93143,0.00374
2049.87126,0.00363
2047.81108,0.00271
2045.75091,0.00170
2043.69074,0.00124
2041.63057,0.00122
2039.57040,0.00110
2037.51022,0.00071
2035.45005,0.00049
2033.38988,0.00102
2031.32971,0.00180
2029.26954,0.00187
2027.20936,0.00160
2025.14919,0.00190
2023.08902,0.00242
2021.02885,0.00229
2018.96867,0.00189
2016.90850,0.00161
2014.84833,0.00162
2012.78816,0.00209
2010.72799,0.00239
2008.66781,0.00215
2006.60764,0.00143
2004.54747,0.00059
2002.48730,0.00062
2000.42713,0.00140
1998.36695,0.00179
1996.30678,0.00159
1994.24661,0.00148
1992.18644,0.00235
1990.12626,0.00412
1988.06609,0.00501
1986.00592,0.00398
1983.94575,0.00277
1981.88558,0.00283
1979.82540,0.00324
1977.76523,0.00293
1975.70506,0.00157
1973.64489,0.00007
1971.58472,0.00000
1969.52454,0.00094
1967.46437,0.00219
1965.40420,0.00380
1963.34403,0.00444
1961.28386,0.00319
1959.22368,0.00161
1957.16351,0.00087
1955.10334,0.00073
1953.04317,0.00088
1950.98299,0.00113
1948.92282,0.00143
1946.86265,0.00144
1944.80248,0.00114
1942.74231,0.00111
1940.68213,0.00147
1938.62196,0.00173
1936.56179,0.00161
1934.50162,0.00144
1932.44145,0.00164
1930.38127,0.00202
1928.32110,0.00211
1926.26093,0.00187
1924.20076,0.00169
1922.14059,0.00163
1920.08041,0.00150
1918.02024,0.00134
1915.96007,0.00112
1913.89990,0.00085
1911.83972,0.00082
1909.77955,0.00099
1907.71938,0.00120
1905.65921,0.00144
1903.59904,0.00141
1901.53886,0.00111
1899.47869,0.00094
1897.41852,0.00101
1895.35835,0.00102
1893.29818,0.00081
1891.23800,0.00051
1889.17783,0.00035
1887.11766,0.00028
1885.05749,0.00028
1882.99731,0.00050
1880.93714,0.00082
1878.87697,0.00094
1876.81680,0.00084
1874.75663,0.00060
1872.69645,0.00027
1870.63628,0.00002
1868.57611,0.00004
1866.51594,0.00014
1864.45577,0.00020
1862.39559,0.00034
1860.33542,0.00047
1858.27525,0.00047
1856.21508,0.00049
1854.15491,0.00063
1852.09473,0.00073
1850.03456,0.00060
1847.97439,0.00031
1845.91422,0.00006
1843.85404,-0.00010
1841.79387,-0.00021
1839.73370,-0.00016
1837.67353,0.00011
1835.61336,0.00036
1833.55318,0.00039
1831.49301,0.00033
1829.43284,0.00024
1827.37267,0.00008
1825.31250,0.00000
1823.25232,0.00008
1821.19215,0.00017
1819.13198,0.00016
1817.07181,0.00007
1815.01163,-0.00002
1812.95146,-0.00004
1810.89129,0.00003
1808.83112,0.00015
1806.77095,0.00022
1804.71077,0.00025
1802.65060,0.00025
1800.59043,0.00022
1798.53026,0.00021
1796.47009,0.00022
1794.40991,0.00015
1792.34974,0.00004
1790.28957,0.00006
1788.22940,0.00015
1786.16923,0.00022
1784.10905,0.00029
1782.04888,0.00034
1779.98871,0.00031
1777.92854,0.00023
1775.86836,0.00019
1773.80819,0.00021
1771.74802,0.00042
1769.68785,0.00075
1767.62768,0.00092
1765.56750,0.00090
1763.50733,0.00095
1761.44716,0.00131
1759.38699,0.00193
1757.32682,0.00252
1755.26664,0.00292
1753.20647,0.00324
1751.14630,0.00356
1749.08613,0.00381
1747.02596,0.00412
1744.96578,0.00459
1742.90561,0.00505
1740.84544,0.00543
1738.78527,0.00581
1736.72509,0.00614
1734.66492,0.00632
1732.60475,0.00641
1730.54458,0.00660
1728.48441,0.00675
1726.42423,0.00668
1724.36406,0.00641
1722.30389,0.00609
1720.24372,0.00575
1718.18355,0.00535
1716.12337,0.00504
1714.06320,0.00481
1712.00303,0.00453
1709.94286,0.00413
1707.88268,0.00364
1705.82251,0.00320
1703.76234,0.00302
1701.70217,0.00298
1699.64200,0.00277
1697.58182,0.00249
1695.52165,0.00258
1693.46148,0.00305
1691.40131,0.00351
1689.34114,0.00377
1687.28096,0.00386
1685.22079,0.00390
1683.16062,0.00416
1681.10045,0.00467
1679.04028,0.00515
1676.98010,0.00550
1674.91993,0.00585
1672.85976,0.00625
1670.79959,0.00672
1668.73941,0.00743
1666.67924,0.00822
1664.61907,0.00882
1662.55890,0.00934
1660.49873,0.00997
1658.43855,0.01067
1656.37838,0.01130
1654.31821,0.01173
1652.25804,0.01191
1650.19787,0.01197
1648.13769,0.01210
1646.07752,0.01253
1644.01735,0.01318
1641.95718,0.01367
1639.89701,0.01385
1637.83683,0.01376
1635.77666,0.01365
1633.71649,0.01388
1631.65632,0.01426
1629.59614,0.01456
1627.53597,0.01478
1625.47580,0.01498
1623.41563,0.01516
1621.35546,0.01534
1619.29528,0.01538
1617.23511,0.01526
1615.17494,0.01522
1613.11477,0.01529
1611.05460,0.01519
1608.99442,0.01487
1606.93425,0.01445
1604.87408,0.01396
1602.81391,0.01336
1600.75373,0.01269
1598.69356,0.01197
1596.63339,0.01113
1594.57322,0.01026
1592.51305,0.00951
1590.45287,0.00882
1588.39270,0.00810
1586.33253,0.00739
1584.27236,0.00668
1582.21219,0.00595
1580.15201,0.00530
1578.09184,0.00472
1576.03167,0.00415
1573.97150,0.00375
1571.91133,0.00350
1569.85115,0.00324
1567.79098,0.00306
1565.73081,0.00288
1563.67064,0.00254
1561.61046,0.00201
1559.55029,0.00145
1557.49012,0.00128
1555.42995,0.00140
1553.36978,0.00144
1551.30960,0.00140
1549.24943,0.00134
1547.18926,0.00124
1545.12909,0.00099
1543.06892,0.00051
1541.00874,0.00005
1538.94857,0.00007
1536.88840,0.00036
1534.82823,0.00054
1532.76805,0.00060
1530.70788,0.00064
1528.64771,0.00060
1526.58754,0.00042
1524.52737,0.00022
1522.46719,0.00014
1520.40702,0.00010
1518.34685,0.00000
1516.28668,-0.00000
1514.22651,0.00020
1512.16633,0.00041
1510.10616,0.00045
1508.04599,0.00042
1505.98582,0.00053
1503.92565,0.00068
1501.86547,0.00079
1499.80530,0.00085
1497.74513,0.00082
1495.68496,0.00085
1493.62478,0.00096
1491.56461,0.00101
1489.50444,0.00106
1487.44427,0.00136
1485.38410,0.00177
1483.32392,0.00210
1481.26375,0.00242
1479.20358,0.00278
1477.14341,0.00312
1475.08324,0.00342
1473.02306,0.00382
1470.96289,0.00440
1468.90272,0.00503
1466.84255,0.00559
1464.78238,0.00607
1462.72220,0.00648
1460.66203,0.00679
1458.60186,0.00697
1456.54169,0.00711
1454.48151,0.00735
1452.42134,0.00769
1450.36117,0.00807
1448.30100,0.00845
1446.24083,0.00881
1444.18065,0.00916
1442.12048,0.00948
1440.06031,0.00973
1438.00014,0.00989
1435.93997,0.01011
1433.87979,0.01049
1431.81962,0.01088
1429.75945,0.01128
1427.69928,0.01174
1425.63910,0.01223
1423.57893,0.01268
1421.51876,0.01309
1419.45859,0.01340
1417.39842,0.01356
1415.33824,0.01359
1413.27807,0.01357
1411.21790,0.01352
1409.15773,0.01349
1407.09756,0.01344
1405.03738,0.01321
1402.97721,0.01280
1400.91704,0.01242
1398.85687,0.01214
1396.79670,0.01187
1394.73652,0.01159
1392.67635,0.01143
1390.61618,0.01142
1388.55601,0.01141
1386.49583,0.01138
1384.43566,0.01151
1382.37549,0.01186
1380.31532,0.01228
1378.25515,0.01258
1376.19497,0.01271
1374.13480,0.01280
1372.07463,0.01300
1370.01446,0.01321
1367.95429,0.01326
1365.89411,0.01311
1363.83394,0.01282
1361.77377,0.01250
1359.71360,0.01228
1357.65343,0.01212
1355.59325,0.01198
1353.53308,0.01194
1351.47291,0.01197
1349.41274,0.01181
1347.35256,0.01148
1345.29239,0.01121
1343.23222,0.01108
1341.17205,0.01104
1339.11188,0.01099
1337.05170,0.01088
1334.99153,0.01079
1332.93136,0.01077
1330.87119,0.01080
1328.81102,0.01083
1326.75084,0.01086
1324.69067,0.01096
1322.63050,0.01116
1320.57033,0.01132
1318.51015,0.01135
1316.44998,0.01133
1314.38981,0.01129
1312.32964,0.01122
1310.26947,0.01110
1308.20929,0.01088
1306.14912,0.01061
1304.08895,0.01036
1302.02878,0.01011
1299.96861,0.00987
1297.90843,0.00973
1295.84826,0.00964
1293.78809,0.00955
1291.72792,0.00951
1289.66775,0.00950
1287.60757,0.00943
1285.54740,0.00926
1283.48723,0.00903
1281.42706,0.00891
1279.36688,0.00899
1277.30671,0.00918
1275.24654,0.00942
1273.18637,0.00964
1271.12620,0.00983
1269.06602,0.01006
1267.00585,0.01035
1264.94568,0.01070
1262.88551,0.01120
1260.82534,0.01182
1258.76516,0.01244
1256.70499,0.01299
1254.64482,0.01335
1252.58465,0.01346
1250.52447,0.01351
1248.46430,0.01354
1246.40413,0.01350
1244.34396,0.01343
1242.28379,0.01329
1240.22361,0.01299
1238.16344,0.01256
1236.10327,0.01210
1234.04310,0.01168
1231.98293,0.01139
1229.92275,0.01110
1227.86258,0.01063
1225.80241,0.01008
1223.74224,0.00967
1221.68207,0.00941
1219.62189,0.00904
1217.56172,0.00842
1215.50155,0.00780
1213.44138,0.00732
1211.38120,0.00681
1209.32103,0.00610
1207.26086,0.00532
1205.20069,0.00455
1203.14052,0.00380
1201.08034,0.00302
1199.02017,0.00225
1196.96000,0.00158
1194.89983,0.00107
1192.83966,0.00060
1190.77948,0.00019
1188.71931,0.00000
1186.65914,0.00000
1184.59897,0.00026
1182.53880,0.00066
1180.47862,0.00107
1178.41845,0.00158
1176.35828,0.00230
1174.29811,0.00322
1172.23793,0.00420
1170.17776,0.00515
1168.11759,0.00610
1166.05742,0.00710
1163.99725,0.00811
1161.93707,0.00901
1159.87690,0.00975
1157.81673,0.01050
1155.75656,0.01131
1153.69639,0.01206
1151.63621,0.01271
1149.57604,0.01338
1147.51587,0.01401
1145.45570,0.01449
1143.39552,0.01490
1141.33535,0.01523
1139.27518,0.01547
1137.21501,0.01567
1135.15484,0.01590
1133.09466,0.01626
1131.03449,0.01676
1128.97432,0.01740
1126.91415,0.01824
1124.85398,0.01913
1122.79380,0.01981
1120.73363,0.02037
1118.67346,0.02102
1116.61329,0.02175
1114.55312,0.02250
1112.49294,0.02323
1110.43277,0.02387
1108.37260,0.02449
1106.31243,0.02522
1104.25225,0.02610
1102.19208,0.02710
1100.13191,0.02814
1098.07174,0.02927
1096.01157,0.03049
1093.95139,0.03170
1091.89122,0.03285
1089.83105,0.03399
1087.77088,0.03506
1085.71071,0.03594
1083.65053,0.03676
1081.59036,0.03771
1079.53019,0.03877
1077.47002,0.03991
1075.40985,0.04109
1073.34967,0.04202
1071.28950,0.04269
1069.22933,0.04340
1067.16916,0.04415
1065.10898,0.04475
1063.04881,0.04521
1060.98864,0.04562
1058.92847,0.04600
1056.86830,0.04639
1054.80812,0.04689
1052.74795,0.04757
1050.68778,0.04840
1048.62761,0.04922
1046.56744,0.04994
1044.50726,0.05067
1042.44709,0.05128
1040.38692,0.05181
1038.32675,0.05246
1036.26657,0.05306
1034.20640,0.05336
1032.14623,0.05349
1030.08606,0.05365
1028.02589,0.05381
1025.96571,0.05383
1023.90554,0.05367
1021.84537,0.05351
1019.78520,0.05346
1017.72503,0.05349
1015.66485,0.05352
1013.60468,0.05355
1011.54451,0.05355
1009.48434,0.05341
1007.42417,0.05316
1005.36399,0.05280
1003.30382,0.05227
1001.24365,0.05170
999.18348,0.05106
997.12330,0.05032
995.06313,0.04955
993.00296,0.04869
990.94279,0.04791
988.88262,0.04745
986.82244,0.04704
984.76227,0.04646
982.70210,0.04591
980.64193,0.04545
978.58176,0.04495
976.52158,0.04431
974.46141,0.04352
972.40124,0.04281
970.34107,0.04224
968.28089,0.04162
966.22072,0.04089
964.16055,0.04019
962.10038,0.03961
960.04021,0.03900
957.98003,0.03817
955.91986,0.03729
953.85969,0.03655
951.79952,0.03578
949.73935,0.03491
947.67917,0.03399
945.61900,0.03301
943.55883,0.03188
941.49866,0.03045
939.43849,0.02878
937.37831,0.02684
935.31814,0.02471
933.25797,0.02263
931.19780,0.02077
929.13762,0.01916
927.07745,0.01768
925.01728,0.01634
922.95711,0.01522
920.89694,0.01429
918.83676,0.01325
916.77659,0.01209
914.71642,0.01115
912.65625,0.01038
910.59608,0.00962
908.53590,0.00914
906.47573,0.00907
904.41556,0.00902
902.35539,0.00888
900.29522,0.00891
898.23504,0.00908
896.17487,0.00920
894.11470,0.00920
892.05453,0.00918
889.99435,0.00895
887.93418,0.00826
885.87401,0.00745
883.81384,0.00678
881.75367,0.00615
879.69349,0.00560
877.63332,0.00527
875.57315,0.00510
873.51298,0.00497
871.45281,0.00487
869.39263,0.00486
867.33246,0.00471
865.27229,0.00425
863.21212,0.00394
861.15194,0.00392
859.09177,0.00382
857.03160,0.00367
854.97143,0.00359
852.91126,0.00334
850.85108,0.00287
848.79091,0.00235
846.73074,0.00209
844.67057,0.00226
842.61040,0.00234
840.55022,0.00194
838.49005,0.00136
836.42988,0.00093
834.36971,0.00060
832.30954,0.00041
830.24936,0.00039
828.18919,0.00042
826.12902,0.00049
824.06885,0.00061
822.00867,0.00074
819.94850,0.00103
817.88833,0.00142
815.82816,0.00163
813.76799,0.00182
811.70781,0.00230
809.64764,0.00274
807.58747,0.00279
805.52730,0.00255
803.46713,0.00233
801.40695,0.00244
799.34678,0.00266
797.28661,0.00259
795.22644,0.00219
793.16627,0.00166
791.10609,0.00143
789.04592,0.00153
786.98575,0.00158
784.92558,0.00150
782.86540,0.00171
780.80523,0.00230
778.74506,0.00260
776.68489,0.00213
774.62472,0.00154
772.56454,0.00151
770.50437,0.00159
768.44420,0.00159
766.38403,0.00188
764.32386,0.00230
762.26368,0.00243
760.20351,0.00237
758.14334,0.00252
756.08317,0.00285
754.02299,0.00287
751.96282,0.00256
749.90265,0.00231
747.84248,0.00211
745.78231,0.00189
743.72213,0.00180
741.66196,0.00190
739.60179,0.00207
737.54162,0.00208
735.48145,0.00198
733.42127,0.00206
731.36110,0.00228
729.30093,0.00239
727.24076,0.00274
725.18059,0.00364
723.12041,0.00460
721.06024,0.00388
719.00007,0.00418
716.93990,0.00482
714.87972,0.00519
712.81955,0.00547
710.75938,0.00579
708.69921,0.00630
706.63904,0.00693
704.57886,0.00767
702.51869,0.00829
700.45852,0.00858
698.39835,0.00854
696.33818,0.00840
694.27800,0.00861
692.21783,0.00920
690.15766,0.00964
688.09749,0.00968
686.03731,0.00963
683.97714,0.00975
681.91697,0.00985
679.85680,0.00982
677.79663,0.00962
675.73645,0.00954
673.67628,0.01149
671.61611,0.01550
669.55594,0.00955
667.49577,0.00000
665.43559,0.01329
663.37542,0.01167
661.31525,0.00863
659.25508,0.00901
657.19491,0.00962
655.13473,0.00895
653.07456,0.00829
651.01439,0.00839
648.95422,0.00816
646.89404,0.00813
644.83387,0.00762
642.77370,0.00691
640.71353,0.00629
638.65336,0.00579
636.59318,0.00536
634.53301,0.00512
632.47284,0.00474
630.41267,0.00431
628.35250,0.00403
626.29232,0.00301
624.23215,0.00081
622.17198,0.00014
620.11181,0.00016
618.05164,-0.00052
615.99146,0.00028
613.93129,0.00184
611.87112,0.00187
609.81095,0.00109
607.75077,0.00105
605.69060,0.00141
603.63043,0.00130
601.57026,0.00091
599.51009,0.00000
