3996.73391,0.00033
3994.67373,0.00019
3992.61356,0.00006
3990.55339,0.00015
3988.49322,0.00051
3986.43305,0.00089
3984.37287,0.00110
3982.31270,0.00101
3980.25253,0.00076
3978.19236,0.00072
3976.13219,0.00083
3974.07201,0.00080
3972.01184,0.00052
3969.95167,0.00013
3967.89150,0.00000
3965.83133,0.00017
3963.77115,0.00019
3961.71098,0.00004
3959.65081,0.00009
3957.59064,0.00031
3955.53046,0.00041
3953.47029,0.00042
3951.41012,0.00054
3949.34995,0.00072
3947.28978,0.00070
3945.22960,0.00061
3943.16943,0.00058
3941.10926,0.00052
3939.04909,0.00045
3936.98892,0.00051
3934.92874,0.00073
3932.86857,0.00091
3930.80840,0.00087
3928.74823,0.00072
3926.68805,0.00064
3924.62788,0.00055
3922.56771,0.00048
3920.50754,0.00046
3918.44737,0.00034
3916.38719,0.00015
3914.32702,0.00014
3912.26685,0.00032
3910.20668,0.00055
3908.14651,0.00081
3906.08633,0.00109
3904.02616,0.00110
3901.96599,0.00082
3899.90582,0.00071
3897.84565,0.00086
3895.78547,0.00100
3893.72530,0.00097
3891.66513,0.00083
3889.60496,0.00085
3887.54478,0.00109
3885.48461,0.00121
3883.42444,0.00110
3881.36427,0.00102
3879.30410,0.00100
3877.24392,0.00108
3875.18375,0.00134
3873.12358,0.00160
3871.06341,0.00158
3869.00324,0.00139
3866.94306,0.00147
3864.88289,0.00162
3862.82272,0.00136
3860.76255,0.00098
3858.70237,0.00101
3856.64220,0.00146
3854.58203,0.00179
3852.52186,0.00134
3850.46169,0.00065
3848.40151,0.00043
3846.34134,0.00059
3844.28117,0.00101
3842.22100,0.00152
3840.16083,0.00181
3838.10065,0.00164
3836.04048,0.00127
3833.98031,0.00109
3831.92014,0.00105
3829.85997,0.00101
3827.79979,0.00097
3825.73962,0.00105
3823.67945,0.00128
3821.61928,0.00139
3819.55910,0.00136
3817.49893,0.00136
3815.43876,0.00112
3813.37859,0.00076
3811.31842,0.00074
3809.25824,0.00084
3807.19807,0.00075
3805.13790,0.00063
3803.07773,0.00075
3801.01756,0.00102
3798.95738,0.00115
3796.89721,0.00102
3794.83704,0.00086
3792.77687,0.00088
3790.71670,0.00090
3788.65652,0.00081
3786.59635,0.00078
3784.53618,0.00091
3782.47601,0.00116
3780.41583,0.00133
3778.35566,0.00119
3776.29549,0.00096
3774.23532,0.00092
3772.17515,0.00101
3770.11497,0.00108
3768.05480,0.00101
3765.99463,0.00084
3763.93446,0.00080
3761.87429,0.00101
3759.81411,0.00122
3757.75394,0.00124
3755.69377,0.00117
3753.63360,0.00116
3751.57342,0.00131
3749.51325,0.00157
3747.45308,0.00178
3745.39291,0.00183
3743.33274,0.00171
3741.27256,0.00170
3739.21239,0.00181
3737.15222,0.00157
3735.09205,0.00076
3733.03188,0.00000
3730.97170,0.00001
3728.91153,0.00055
3726.85136,0.00096
3724.79119,0.00110
3722.73102,0.00124
3720.67084,0.00138
3718.61067,0.00143
3716.55050,0.00159
3714.49033,0.00174
3712.43015,0.00161
3710.36998,0.00132
3708.30981,0.00124
3706.24964,0.00120
3704.18947,0.00100
3702.12929,0.00080
3700.06912,0.00076
3698.00895,0.00090
3695.94878,0.00120
3693.88861,0.00148
3691.82843,0.00159
3689.76826,0.00155
3687.70809,0.00130
3685.64792,0.00107
3683.58775,0.00114
3681.52757,0.00142
3679.46740,0.00151
3677.40723,0.00142
3675.34706,0.00144
3673.28688,0.00172
3671.22671,0.00204
3669.16654,0.00194
3667.10637,0.00161
3665.04620,0.00155
3662.98602,0.00169
3660.92585,0.00169
3658.86568,0.00138
3656.80551,0.00104
3654.74534,0.00105
3652.68516,0.00146
3650.62499,0.00188
3648.56482,0.00190
3646.50465,0.00186
3644.44447,0.00204
3642.38430,0.00217
3640.32413,0.00216
3638.26396,0.00215
3636.20379,0.00224
3634.14361,0.00254
3632.08344,0.00308
3630.02327,0.00353
3627.96310,0.00327
3625.90293,0.00274
3623.84275,0.00281
3621.78258,0.00330
3619.72241,0.00377
3617.66224,0.00411
3615.60207,0.00431
3613.54189,0.00427
3611.48172,0.00407
3609.42155,0.00396
3607.36138,0.00388
3605.30120,0.00378
3603.24103,0.00383
3601.18086,0.00388
3599.12069,0.00371
3597.06052,0.00364
3595.00034,0.00410
3592.94017,0.00491
3590.88000,0.00550
3588.81983,0.00554
3586.75966,0.00509
3584.69948,0.00478
3582.63931,0.00499
3580.57914,0.00535
3578.51897,0.00555
3576.45879,0.00564
3574.39862,0.00559
3572.33845,0.00549
3570.27828,0.00562
3568.21811,0.00586
3566.15793,0.00587
3564.09776,0.00587
3562.03759,0.00619
3559.97742,0.00659
3557.91725,0.00673
3555.85707,0.00658
3553.79690,0.00637
3551.73673,0.00650
3549.67656,0.00716
3547.61639,0.00789
3545.55621,0.00807
3543.49604,0.00777
3541.43587,0.00753
3539.37570,0.00762
3537.31552,0.00796
3535.25535,0.00827
3533.19518,0.00835
3531.13501,0.00850
3529.07484,0.00886
3527.01466,0.00901
3524.95449,0.00884
3522.89432,0.00864
3520.83415,0.00854
3518.77398,0.00858
3516.71380,0.00871
3514.65363,0.00885
3512.59346,0.00905
3510.53329,0.00939
3508.47312,0.00974
3506.41294,0.01004
3504.35277,0.01029
3502.29260,0.01031
3500.23243,0.01013
3498.17225,0.01016
3496.11208,0.01053
3494.05191,0.01075
3491.99174,0.01062
3489.93157,0.01052
3487.87139,0.01055
3485.81122,0.01060
3483.75105,0.01076
3481.69088,0.01089
3479.63071,0.01092
3477.57053,0.01104
3475.51036,0.01120
3473.45019,0.01129
3471.39002,0.01145
3469.32984,0.01161
3467.26967,0.01170
3465.20950,0.01202
3463.14933,0.01259
3461.08916,0.01289
3459.02898,0.01273
3456.96881,0.01237
3454.90864,0.01202
3452.84847,0.01202
3450.78830,0.01257
3448.72812,0.01312
3446.66795,0.01328
3444.60778,0.01327
3442.54761,0.01322
3440.48744,0.01318
3438.42726,0.01325
3436.36709,0.01328
3434.30692,0.01334
3432.24675,0.01354
3430.18657,0.01366
3428.12640,0.01367
3426.06623,0.01369
3424.00606,0.01368
3421.94589,0.01353
3419.88571,0.01332
3417.82554,0.01332
3415.76537,0.01379
3413.70520,0.01443
3411.64503,0.01468
3409.58485,0.01454
3407.52468,0.01445
3405.46451,0.01455
3403.40434,0.01455
3401.34416,0.01452
3399.28399,0.01467
3397.22382,0.01488
3395.16365,0.01496
3393.10348,0.01487
3391.04330,0.01481
3388.98313,0.01501
3386.92296,0.01542
3384.86279,0.01567
3382.80262,0.01550
3380.74244,0.01519
3378.68227,0.01511
3376.62210,0.01525
3374.56193,0.01553
3372.50176,0.01578
3370.44158,0.01584
3368.38141,0.01581
3366.32124,0.01581
3364.26107,0.01586
3362.20089,0.01590
3360.14072,0.01590
3358.08055,0.01589
3356.02038,0.01596
3353.96021,0.01607
3351.90003,0.01609
3349.83986,0.01596
3347.77969,0.01580
3345.71952,0.01579
3343.65935,0.01604
3341.59917,0.01618
3339.53900,0.01601
3337.47883,0.01594
3335.41866,0.01606
3333.35849,0.01614
3331.29831,0.01632
3329.23814,0.01661
3327.17797,0.01677
3325.11780,0.01677
3323.05762,0.01678
3320.99745,0.01681
3318.93728,0.01673
3316.87711,0.01654
3314.81694,0.01644
3312.75676,0.01651
3310.69659,0.01645
3308.63642,0.01628
3306.57625,0.01638
3304.51608,0.01667
3302.45590,0.01666
3300.39573,0.01631
3298.33556,0.01604
3296.27539,0.01617
3294.21521,0.01648
3292.15504,0.01651
3290.09487,0.01638
3288.03470,0.01643
3285.97453,0.01652
3283.91435,0.01648
3281.85418,0.01645
3279.79401,0.01660
3277.73384,0.01684
3275.67367,0.01693
3273.61349,0.01675
3271.55332,0.01645
3269.49315,0.01645
3267.43298,0.01676
3265.37281,0.01689
3263.31263,0.01679
3261.25246,0.01663
3259.19229,0.01637
3257.13212,0.01611
3255.07194,0.01612
3253.01177,0.01636
3250.95160,0.01659
3248.89143,0.01671
3246.83126,0.01663
3244.77108,0.01644
3242.71091,0.01640
3240.65074,0.01634
3238.59057,0.01617
3236.53040,0.01619
3234.47022,0.01628
3232.41005,0.01606
3230.34988,0.01586
3228.28971,0.01597
3226.22954,0.01609
3224.16936,0.01595
3222.10919,0.01571
3220.04902,0.01567
3217.98885,0.01585
3215.92867,0.01599
3213.86850,0.01587
3211.80833,0.01569
3209.74816,0.01572
3207.68799,0.01579
3205.62781,0.01560
3203.56764,0.01529
3201.50747,0.01516
3199.44730,0.01521
3197.38713,0.01520
3195.32695,0.01516
3193.26678,0.01511
3191.20661,0.01494
3189.14644,0.01485
3187.08626,0.01482
3185.02609,0.01458
3182.96592,0.01429
3180.90575,0.01423
3178.84558,0.01427
3176.78540,0.01412
3174.72523,0.01386
3172.66506,0.01374
3170.60489,0.01366
3168.54472,0.01360
3166.48454,0.01370
3164.42437,0.01378
3162.36420,0.01365
3160.30403,0.01342
3158.24386,0.01326
3156.18368,0.01322
3154.12351,0.01325
3152.06334,0.01322
3150.00317,0.01305
3147.94299,0.01280
3145.88282,0.01251
3143.82265,0.01232
3141.76248,0.01223
3139.70231,0.01215
3137.64213,0.01208
3135.58196,0.01206
3133.52179,0.01196
3131.46162,0.01181
3129.40145,0.01184
3127.34127,0.01203
3125.28110,0.01215
3123.22093,0.01215
3121.16076,0.01207
3119.10058,0.01193
3117.04041,0.01165
3114.98024,0.01128
3112.92007,0.01102
3110.85990,0.01088
3108.79972,0.01073
3106.73955,0.01069
3104.67938,0.01089
3102.61921,0.01103
3100.55904,0.01085
3098.49886,0.01068
3096.43869,0.01062
3094.37852,0.01047
3092.31835,0.01028
3090.25818,0.01004
3088.19800,0.00979
3086.13783,0.00970
3084.07766,0.00971
3082.01749,0.00974
3079.95731,0.00976
3077.89714,0.00972
3075.83697,0.00964
3073.77680,0.00949
3071.71663,0.00931
3069.65645,0.00917
3067.59628,0.00912
3065.53611,0.00913
3063.47594,0.00906
3061.41577,0.00877
3059.35559,0.00843
3057.29542,0.00830
3055.23525,0.00832
3053.17508,0.00837
3051.11491,0.00845
3049.05473,0.00846
3046.99456,0.00833
3044.93439,0.00812
3042.87422,0.00791
3040.81404,0.00781
3038.75387,0.00772
3036.69370,0.00764
3034.63353,0.00766
3032.57336,0.00770
3030.51318,0.00758
3028.45301,0.00736
3026.39284,0.00720
3024.33267,0.00716
3022.27250,0.00726
3020.21232,0.00741
3018.15215,0.00741
3016.09198,0.00728
3014.03181,0.00711
3011.97163,0.00699
3009.91146,0.00701
3007.85129,0.00714
3005.79112,0.00721
3003.73095,0.00707
3001.67077,0.00688
2999.61060,0.00671
2997.55043,0.00660
2995.49026,0.00666
2993.43009,0.00682
2991.36991,0.00699
2989.30974,0.00706
2987.24957,0.00704
2985.18940,0.00705
2983.12923,0.00698
2981.06905,0.00678
2979.00888,0.00671
2976.94871,0.00682
2974.88854,0.00694
2972.82836,0.00701
2970.76819,0.00713
2968.70802,0.00732
2966.64785,0.00745
2964.58768,0.00747
2962.52750,0.00740
2960.46733,0.00738
2958.40716,0.00744
2956.34699,0.00763
2954.28682,0.00792
2952.22664,0.00816
2950.16647,0.00838
2948.10630,0.00856
2946.04613,0.00863
2943.98596,0.00871
2941.92578,0.00881
2939.86561,0.00888
2937.80544,0.00903
2935.74527,0.00927
2933.68509,0.00940
2931.62492,0.00936
2929.56475,0.00929
2927.50458,0.00927
2925.44441,0.00924
2923.38423,0.00920
2921.32406,0.00925
2919.26389,0.00932
2917.20372,0.00920
2915.14355,0.00891
2913.08337,0.00858
2911.02320,0.00843
2908.96303,0.00851
2906.90286,0.00863
2904.84268,0.00866
2902.78251,0.00859
2900.72234,0.00849
2898.66217,0.00843
2896.60200,0.00837
2894.54182,0.00828
2892.48165,0.00813
2890.42148,0.00797
2888.36131,0.00798
2886.30114,0.00813
2884.24096,0.00820
2882.18079,0.00821
2880.12062,0.00820
2878.06045,0.00809
2876.00028,0.00788
2873.94010,0.00766
2871.87993,0.00756
2869.81976,0.00750
2867.75959,0.00737
2865.69941,0.00739
2863.63924,0.00754
2861.57907,0.00757
2859.51890,0.00742
2857.45873,0.00722
2855.39855,0.00708
2853.33838,0.00708
2851.27821,0.00706
2849.21804,0.00692
2847.15787,0.00667
2845.09769,0.00640
2843.03752,0.00620
2840.97735,0.00616
2838.91718,0.00632
2836.85700,0.00642
2834.79683,0.00629
2832.73666,0.00621
2830.67649,0.00624
2828.61632,0.00619
2826.55614,0.00608
2824.49597,0.00596
2822.43580,0.00588
2820.37563,0.00577
2818.31546,0.00565
2816.25528,0.00556
2814.19511,0.00549
2812.13494,0.00546
2810.07477,0.00541
2808.01460,0.00547
2805.95442,0.00559
2803.89425,0.00545
2801.83408,0.00515
2799.77391,0.00505
2797.71373,0.00514
2795.65356,0.00532
2793.59339,0.00554
2791.53322,0.00573
2789.47305,0.00576
2787.41287,0.00562
2785.35270,0.00541
2783.29253,0.00523
2781.23236,0.00512
2779.17219,0.00513
2777.11201,0.00511
2775.05184,0.00496
2772.99167,0.00486
2770.93150,0.00495
2768.87133,0.00512
2766.81115,0.00513
2764.75098,0.00498
2762.69081,0.00483
2760.63064,0.00480
2758.57046,0.00487
2756.51029,0.00491
2754.45012,0.00490
2752.38995,0.00492
2750.32978,0.00486
2748.26960,0.00472
2746.20943,0.00467
2744.14926,0.00476
2742.08909,0.00485
2740.02892,0.00480
2737.96874,0.00470
2735.90857,0.00457
2733.84840,0.00440
2731.78823,0.00426
2729.72805,0.00426
2727.66788,0.00434
2725.60771,0.00434
2723.54754,0.00429
2721.48737,0.00432
2719.42719,0.00436
2717.36702,0.00439
2715.30685,0.00446
2713.24668,0.00452
2711.18651,0.00452
2709.12633,0.00441
2707.06616,0.00437
2705.00599,0.00453
2702.94582,0.00459
2700.88565,0.00439
2698.82547,0.00421
2696.76530,0.00422
2694.70513,0.00425
2692.64496,0.00421
2690.58478,0.00416
2688.52461,0.00416
2686.46444,0.00416
2684.40427,0.00415
2682.34410,0.00415
2680.28392,0.00421
2678.22375,0.00421
2676.16358,0.00413
2674.10341,0.00405
2672.04324,0.00397
2669.98306,0.00392
2667.92289,0.00396
2665.86272,0.00414
2663.80255,0.00422
2661.74238,0.00408
2659.68220,0.00393
2657.62203,0.00402
2655.56186,0.00425
2653.50169,0.00428
2651.44151,0.00406
2649.38134,0.00395
2647.32117,0.00401
2645.26100,0.00406
2643.20083,0.00398
2641.14065,0.00375
2639.08048,0.00359
2637.02031,0.00365
2634.96014,0.00382
2632.89997,0.00384
2630.83979,0.00366
2628.77962,0.00358
2626.71945,0.00360
2624.65928,0.00351
2622.59910,0.00348
2620.53893,0.00348
2618.47876,0.00347
2616.41859,0.00356
2614.35842,0.00358
2612.29824,0.00343
2610.23807,0.00340
2608.17790,0.00351
2606.11773,0.00346
2604.05756,0.00328
2601.99738,0.00327
2599.93721,0.00339
2597.87704,0.00347
2595.81687,0.00344
2593.75670,0.00331
2591.69652,0.00331
2589.63635,0.00341
2587.57618,0.00337
2585.51601,0.00319
2583.45583,0.00313
2581.39566,0.00325
2579.33549,0.00330
2577.27532,0.00317
2575.21515,0.00310
2573.15497,0.00313
2571.09480,0.00309
2569.03463,0.00311
2566.97446,0.00323
2564.91429,0.00320
2562.85411,0.00304
2560.79394,0.00299
2558.73377,0.00304
2556.67360,0.00308
2554.61342,0.00305
2552.55325,0.00319
2550.49308,0.00341
2548.43291,0.00325
2546.37274,0.00278
2544.31256,0.00234
2542.25239,0.00223
2540.19222,0.00266
2538.13205,0.00321
2536.07188,0.00336
2534.01170,0.00310
2531.95153,0.00288
2529.89136,0.00289
2527.83119,0.00287
2525.77102,0.00281
2523.71084,0.00265
2521.65067,0.00247
2519.59050,0.00267
2517.53033,0.00308
2515.47015,0.00325
2513.40998,0.00304
2511.34981,0.00271
2509.28964,0.00276
2507.22947,0.00296
2505.16929,0.00284
2503.10912,0.00272
2501.04895,0.00278
2498.98878,0.00272
2496.92861,0.00265
2494.86843,0.00265
2492.80826,0.00258
2490.74809,0.00256
2488.68792,0.00271
2486.62775,0.00269
2484.56757,0.00240
2482.50740,0.00230
2480.44723,0.00246
2478.38706,0.00251
2476.32688,0.00257
2474.26671,0.00266
2472.20654,0.00251
2470.14637,0.00256
2468.08620,0.00292
2466.02602,0.00301
2463.96585,0.00274
2461.90568,0.00249
2459.84551,0.00255
2457.78534,0.00266
2455.72516,0.00249
2453.66499,0.00236
2451.60482,0.00250
2449.54465,0.00265
2447.48447,0.00273
2445.42430,0.00273
2443.36413,0.00253
2441.30396,0.00244
2439.24379,0.00269
2437.18361,0.00293
2435.12344,0.00291
2433.06327,0.00273
2431.00310,0.00262
2428.94293,0.00273
2426.88275,0.00293
2424.82258,0.00304
2422.76241,0.00292
2420.70224,0.00263
2418.64207,0.00253
2416.58189,0.00278
2414.52172,0.00304
2412.46155,0.00310
2410.40138,0.00296
2408.34120,0.00274
2406.28103,0.00264
2404.22086,0.00260
2402.16069,0.00250
2400.10052,0.00252
2398.04034,0.00248
2395.98017,0.00232
2393.92000,0.00218
2391.85983,0.00221
2389.79966,0.00229
2387.73948,0.00225
2385.67931,0.00217
2383.61914,0.00230
2381.55897,0.00266
2379.49880,0.00284
2377.43862,0.00256
2375.37845,0.00232
2373.31828,0.00269
2371.25811,0.00323
2369.19793,0.00338
2367.13776,0.00331
2365.07759,0.00339
2363.01742,0.00350
2360.95725,0.00350
2358.89707,0.00298
2356.83690,0.00238
2354.77673,0.00261
2352.71656,0.00279
2350.65639,0.00247
2348.59621,0.00241
2346.53604,0.00302
2344.47587,0.00385
2342.41570,0.00396
2340.35552,0.00306
2338.29535,0.00201
2336.23518,0.00205
2334.17501,0.00286
2332.11484,0.00328
2330.05466,0.00314
2327.99449,0.00286
2325.93432,0.00286
2323.87415,0.00307
2321.81398,0.00321
2319.75380,0.00322
2317.69363,0.00304
2315.63346,0.00279
2313.57329,0.00285
2311.51312,0.00329
2309.45294,0.00371
2307.39277,0.00365
2305.33260,0.00325
2303.27243,0.00302
2301.21225,0.00306
2299.15208,0.00312
2297.09191,0.00311
2295.03174,0.00320
2292.97157,0.00341
2290.91139,0.00363
2288.85122,0.00377
2286.79105,0.00372
2284.73088,0.00351
2282.67071,0.00335
2280.61053,0.00328
2278.55036,0.00316
2276.49019,0.00294
2274.43002,0.00275
2272.36984,0.00260
2270.30967,0.00279
2268.24950,0.00341
2266.18933,0.00379
2264.12916,0.00364
2262.06898,0.00324
2260.00881,0.00275
2257.94864,0.00246
2255.88847,0.00249
2253.82830,0.00240
2251.76812,0.00217
2249.70795,0.00220
2247.64778,0.00251
2245.58761,0.00283
2243.52744,0.00303
2241.46726,0.00296
2239.40709,0.00285
2237.34692,0.00308
2235.28675,0.00323
2233.22657,0.00312
2231.16640,0.00321
2229.10623,0.00390
2227.04606,0.00476
2224.98589,0.00483
2222.92571,0.00457
2220.86554,0.00441
2218.80537,0.00402
2216.74520,0.00380
2214.68503,0.00386
2212.62485,0.00363
2210.56468,0.00326
2208.50451,0.00292
2206.44434,0.00227
2204.38417,0.00209
2202.32399,0.00262
2200.26382,0.00291
2198.20365,0.00307
2196.14348,0.00336
2194.08330,0.00348
2192.02313,0.00342
2189.96296,0.00296
2187.90279,0.00223
2185.84262,0.00212
2183.78244,0.00210
2181.72227,0.00196
2179.66210,0.00243
2177.60193,0.00285
2175.54176,0.00300
2173.48158,0.00296
2171.42141,0.00263
2169.36124,0.00276
2167.30107,0.00317
2165.24089,0.00334
2163.18072,0.00370
2161.12055,0.00329
2159.06038,0.00176
2157.00021,0.00131
2154.94003,0.00228
2152.87986,0.00300
2150.81969,0.00251
2148.75952,0.00156
2146.69935,0.00101
2144.63917,0.00087
2142.57900,0.00119
2140.51883,0.00180
2138.45866,0.00201
2136.39849,0.00155
2134.33831,0.00115
2132.27814,0.00124
2130.21797,0.00149
2128.15780,0.00199
2126.09762,0.00274
2124.03745,0.00320
2121.97728,0.00296
2119.91711,0.00220
2117.85694,0.00176
2115.79676,0.00194
2113.73659,0.00233
2111.67642,0.00277
2109.61625,0.00308
2107.55608,0.00309
2105.49590,0.00306
2103.43573,0.00289
2101.37556,0.00256
2099.31539,0.00251
2097.25521,0.00274
2095.19504,0.00298
2093.13487,0.00309
2091.07470,0.00306
2089.01453,0.00283
2086.95435,0.00253
2084.89418,0.00255
2082.83401,0.00269
2080.77384,0.00255
2078.71367,0.00234
2076.65349,0.00232
2074.59332,0.00226
2072.53315,0.00218
2070.47298,0.00228
2068.41281,0.00204
2066.35263,0.00136
2064.29246,0.00111
2062.23229,0.00164
2060.17212,0.00268
2058.11194,0.00364
2056.05177,0.00388
2053.99160,0.00366
2051.93143,0.00354
2049.87126,0.00344
2047.81108,0.00312
2045.75091,0.00283
2043.69074,0.00270
2041.63057,0.00272
2039.57040,0.00315
2037.51022,0.00335
2035.45005,0.00222
2033.38988,0.00087
2031.32971,0.00091
2029.26954,0.00112
2027.20936,0.00047
2025.14919,0.00000
2023.08902,0.00017
2021.02885,0.00075
2018.96867,0.00133
2016.90850,0.00182
2014.84833,0.00245
2012.78816,0.00263
2010.72799,0.00210
2008.66781,0.00110
2006.60764,0.00007
2004.54747,-0.00025
2002.48730,0.00049
2000.42713,0.00180
1998.36695,0.00229
1996.30678,0.00190
1994.24661,0.00199
1992.18644,0.00270
1990.12626,0.00327
1988.06609,0.00307
1986.00592,0.00226
1983.94575,0.00215
1981.88558,0.00285
1979.82540,0.00300
1977.76523,0.00227
1975.70506,0.00174
1973.64489,0.00226
1971.58472,0.00320
1969.52454,0.00319
1967.46437,0.00193
1965.40420,0.00070
1963.34403,0.00025
1961.28386,0.00032
1959.22368,0.00053
1957.16351,0.00053
1955.10334,0.00057
1953.04317,0.00069
1950.98299,0.00071
1948.92282,0.00075
1946.86265,0.00067
1944.80248,0.00065
1942.74231,0.00109
1940.68213,0.00144
1938.62196,0.00119
1936.56179,0.00072
1934.50162,0.00042
1932.44145,0.00030
1930.38127,0.00042
1928.32110,0.00062
1926.26093,0.00064
1924.20076,0.00066
1922.14059,0.00077
1920.08041,0.00085
1918.02024,0.00104
1915.96007,0.00125
1913.89990,0.00124
1911.83972,0.00122
1909.77955,0.00142
1907.71938,0.00168
1905.65921,0.00162
1903.59904,0.00099
1901.53886,0.00021
1899.47869,-0.00003
1897.41852,0.00032
1895.35835,0.00075
1893.29818,0.00089
1891.23800,0.00083
1889.17783,0.00068
1887.11766,0.00053
1885.05749,0.00054
1882.99731,0.00067
1880.93714,0.00081
1878.87697,0.00090
1876.81680,0.00080
1874.75663,0.00067
1872.69645,0.00079
1870.63628,0.00098
1868.57611,0.00086
1866.51594,0.00053
1864.45577,0.00046
1862.39559,0.00066
1860.33542,0.00083
1858.27525,0.00079
1856.21508,0.00057
1854.15491,0.00030
1852.09473,0.00025
1850.03456,0.00047
1847.97439,0.00077
1845.91422,0.00097
1843.85404,0.00101
1841.79387,0.00087
1839.73370,0.00070
1837.67353,0.00068
1835.61336,0.00080
1833.55318,0.00078
1831.49301,0.00047
1829.43284,0.00023
1827.37267,0.00040
1825.31250,0.00066
1823.25232,0.00063
1821.19215,0.00039
1819.13198,0.00017
1817.07181,0.00011
1815.01163,0.00025
1812.95146,0.00048
1810.89129,0.00069
1808.83112,0.00077
1806.77095,0.00071
1804.71077,0.00071
1802.65060,0.00081
1800.59043,0.00081
1798.53026,0.00073
1796.47009,0.00069
1794.40991,0.00059
1792.34974,0.00042
1790.28957,0.00026
1788.22940,0.00023
1786.16923,0.00030
1784.10905,0.00029
1782.04888,0.00016
1779.98871,0.00006
1777.92854,0.00010
1775.86836,0.00029
1773.80819,0.00057
1771.74802,0.00078
1769.68785,0.00073
1767.62768,0.00054
1765.56750,0.00049
1763.50733,0.00067
1761.44716,0.00092
1759.38699,0.00115
1757.32682,0.00135
1755.26664,0.00160
1753.20647,0.00202
1751.14630,0.00249
1749.08613,0.00273
1747.02596,0.00278
1744.96578,0.00283
1742.90561,0.00289
1740.84544,0.00290
1738.78527,0.00302
1736.72509,0.00332
1734.66492,0.00354
1732.60475,0.00340
1730.54458,0.00317
1728.48441,0.00305
1726.42423,0.00302
1724.36406,0.00304
1722.30389,0.00306
1720.24372,0.00312
1718.18355,0.00320
1716.12337,0.00301
1714.06320,0.00263
1712.00303,0.00237
1709.94286,0.00225
1707.88268,0.00226
1705.82251,0.00234
1703.76234,0.00243
1701.70217,0.00241
1699.64200,0.00220
1697.58182,0.00194
1695.52165,0.00179
1693.46148,0.00174
1691.40131,0.00186
1689.34114,0.00215
1687.28096,0.00260
1685.22079,0.00310
1683.16062,0.00333
1681.10045,0.00325
1679.04028,0.00315
1676.98010,0.00312
1674.91993,0.00321
1672.85976,0.00343
1670.79959,0.00366
1668.73941,0.00373
1666.67924,0.00380
1664.61907,0.00403
1662.55890,0.00435
1660.49873,0.00460
1658.43855,0.00486
1656.37838,0.00526
1654.31821,0.00562
1652.25804,0.00569
1650.19787,0.00591
1648.13769,0.00623
1646.07752,0.00617
1644.01735,0.00585
1641.95718,0.00572
1639.89701,0.00594
1637.83683,0.00632
1635.77666,0.00644
1633.71649,0.00621
1631.65632,0.00614
1629.59614,0.00633
1627.53597,0.00656
1625.47580,0.00667
1623.41563,0.00664
1621.35546,0.00655
1619.29528,0.00655
1617.23511,0.00656
1615.17494,0.00647
1613.11477,0.00646
1611.05460,0.00651
1608.99442,0.00641
1606.93425,0.00611
1604.87408,0.00577
1602.81391,0.00551
1600.75373,0.00522
1598.69356,0.00488
1596.63339,0.00450
1594.57322,0.00407
1592.51305,0.00368
1590.45287,0.00341
1588.39270,0.00319
1586.33253,0.00293
1584.27236,0.00267
1582.21219,0.00248
1580.15201,0.00244
1578.09184,0.00239
1576.03167,0.00209
1573.97150,0.00169
1571.91133,0.00153
1569.85115,0.00142
1567.79098,0.00126
1565.73081,0.00114
1563.67064,0.00109
1561.61046,0.00118
1559.55029,0.00132
1557.49012,0.00113
1555.42995,0.00078
1553.36978,0.00061
1551.30960,0.00061
1549.24943,0.00063
1547.18926,0.00067
1545.12909,0.00079
1543.06892,0.00092
1541.00874,0.00090
1538.94857,0.00072
1536.88840,0.00050
1534.82823,0.00036
1532.76805,0.00025
1530.70788,0.00021
1528.64771,0.00033
1526.58754,0.00052
1524.52737,0.00063
1522.46719,0.00066
1520.40702,0.00060
1518.34685,0.00051
1516.28668,0.00037
1514.22651,0.00030
1512.16633,0.00059
1510.10616,0.00123
1508.04599,0.00162
1505.98582,0.00112
1503.92565,0.00043
1501.86547,0.00024
1499.80530,0.00038
1497.74513,0.00053
1495.68496,0.00050
1493.62478,0.00038
1491.56461,0.00043
1489.50444,0.00060
1487.44427,0.00069
1485.38410,0.00068
1483.32392,0.00072
1481.26375,0.00080
1479.20358,0.00094
1477.14341,0.00126
1475.08324,0.00170
1473.02306,0.00202
1470.96289,0.00210
1468.90272,0.00216
1466.84255,0.00231
1464.78238,0.00247
1462.72220,0.00267
1460.66203,0.00306
1458.60186,0.00348
1456.54169,0.00354
1454.48151,0.00336
1452.42134,0.00335
1450.36117,0.00348
1448.30100,0.00354
1446.24083,0.00350
1444.18065,0.00351
1442.12048,0.00363
1440.06031,0.00389
1438.00014,0.00431
1435.93997,0.00472
1433.87979,0.00484
1431.81962,0.00478
1429.75945,0.00472
1427.69928,0.00474
1425.63910,0.00490
1423.57893,0.00519
1421.51876,0.00554
1419.45859,0.00578
1417.39842,0.00570
1415.33824,0.00555
1413.27807,0.00555
1411.21790,0.00558
1409.15773,0.00553
1407.09756,0.00542
1405.03738,0.00525
1402.97721,0.00512
1400.91704,0.00510
1398.85687,0.00511
1396.79670,0.00507
1394.73652,0.00485
1392.67635,0.00458
1390.61618,0.00453
1388.55601,0.00465
1386.49583,0.00471
1384.43566,0.00478
1382.37549,0.00497
1380.31532,0.00512
1378.25515,0.00519
1376.19497,0.00529
1374.13480,0.00537
1372.07463,0.00540
1370.01446,0.00545
1367.95429,0.00550
1365.89411,0.00548
1363.83394,0.00537
1361.77377,0.00519
1359.71360,0.00511
1357.65343,0.00514
1355.59325,0.00512
1353.53308,0.00498
1351.47291,0.00486
1349.41274,0.00485
1347.35256,0.00482
1345.29239,0.00470
1343.23222,0.00468
1341.17205,0.00476
1339.11188,0.00468
1337.05170,0.00450
1334.99153,0.00449
1332.93136,0.00458
1330.87119,0.00456
1328.81102,0.00444
1326.75084,0.00443
1324.69067,0.00463
1322.63050,0.00488
1320.57033,0.00502
1318.51015,0.00503
1316.44998,0.00496
1314.38981,0.00487
1312.32964,0.00476
1310.26947,0.00467
1308.20929,0.00455
1306.14912,0.00432
1304.08895,0.00401
1302.02878,0.00377
1299.96861,0.00372
1297.90843,0.00381
1295.84826,0.00387
1293.78809,0.00390
1291.72792,0.00393
1289.66775,0.00393
1287.60757,0.00384
1285.54740,0.00371
1283.48723,0.00363
1281.42706,0.00360
1279.36688,0.00358
1277.30671,0.00367
1275.24654,0.00387
1273.18637,0.00402
1271.12620,0.00410
1269.06602,0.00425
1267.00585,0.00447
1264.94568,0.00469
1262.88551,0.00489
1260.82534,0.00508
1258.76516,0.00526
1256.70499,0.00545
1254.64482,0.00566
1252.58465,0.00578
1250.52447,0.00582
1248.46430,0.00582
1246.40413,0.00579
1244.34396,0.00572
1242.28379,0.00562
1240.22361,0.00554
1238.16344,0.00542
1236.10327,0.00528
1234.04310,0.00516
1231.98293,0.00492
1229.92275,0.00455
1227.86258,0.00425
1225.80241,0.00407
1223.74224,0.00394
1221.68207,0.00376
1219.62189,0.00347
1217.56172,0.00319
1215.50155,0.00302
1213.44138,0.00283
1211.38120,0.00259
1209.32103,0.00236
1207.26086,0.00210
1205.20069,0.00180
1203.14052,0.00150
1201.08034,0.00116
1199.02017,0.00082
1196.96000,0.00055
1194.89983,0.00025
1192.83966,0.00004
1190.77948,0.00000
1188.71931,-0.00007
1186.65914,-0.00010
1184.59897,0.00002
1182.53880,0.00022
1180.47862,0.00034
1178.41845,0.00047
1176.35828,0.00086
1174.29811,0.00143
1172.23793,0.00188
1170.17776,0.00221
1168.11759,0.00263
1166.05742,0.00321
1163.99725,0.00381
1161.93707,0.00421
1159.87690,0.00445
1157.81673,0.00480
1155.75656,0.00527
1153.69639,0.00577
1151.63621,0.00626
1149.57604,0.00668
1147.51587,0.00690
1145.45570,0.00697
1143.39552,0.00707
1141.33535,0.00715
1139.27518,0.00724
1137.21501,0.00742
1135.15484,0.00766
1133.09466,0.00794
1131.03449,0.00820
1128.97432,0.00839
1126.91415,0.00867
1124.85398,0.00915
1122.79380,0.00970
1120.73363,0.01018
1118.67346,0.01051
1116.61329,0.01079
1114.55312,0.01121
1112.49294,0.01173
1110.43277,0.01206
1108.37260,0.01224
1106.31243,0.01259
1104.25225,0.01314
1102.19208,0.01370
1100.13191,0.01435
1098.07174,0.01505
1096.01157,0.01565
1093.95139,0.01620
1091.89122,0.01674
1089.83105,0.01735
1087.77088,0.01796
1085.71071,0.01840
1083.65053,0.01878
1081.59036,0.01924
1079.53019,0.01964
1077.47002,0.02001
1075.40985,0.02055
1073.34967,0.02126
1071.28950,0.02185
1069.22933,0.02213
1067.16916,0.02225
1065.10898,0.02233
1063.04881,0.02247
1060.98864,0.02281
1058.92847,0.02314
1056.86830,0.02330
1054.80812,0.02349
1052.74795,0.02372
1050.68778,0.02390
1048.62761,0.02406
1046.56744,0.02425
1044.50726,0.02450
1042.44709,0.02490
1040.38692,0.02532
1038.32675,0.02560
1036.26657,0.02589
1034.20640,0.02613
1032.14623,0.02593
1030.08606,0.02549
1028.02589,0.02535
1025.96571,0.02545
1023.90554,0.02547
1021.84537,0.02540
1019.78520,0.02532
1017.72503,0.02515
1015.66485,0.02493
1013.60468,0.02480
1011.54451,0.02475
1009.48434,0.02467
1007.42417,0.02459
1005.36399,0.02441
1003.30382,0.02405
1001.24365,0.02364
999.18348,0.02332
997.12330,0.02304
995.06313,0.02274
993.00296,0.02250
990.94279,0.02223
988.88262,0.02192
986.82244,0.02168
984.76227,0.02154
982.70210,0.02138
980.64193,0.02100
978.58176,0.02054
976.52158,0.02030
974.46141,0.02016
972.40124,0.01985
970.34107,0.01927
968.28089,0.01863
966.22072,0.01817
964.16055,0.01785
962.10038,0.01754
960.04021,0.01729
957.98003,0.01705
955.91986,0.01656
953.85969,0.01598
951.79952,0.01556
949.73935,0.01515
947.67917,0.01456
945.61900,0.01379
943.55883,0.01298
941.49866,0.01226
939.43849,0.01158
937.37831,0.01075
935.31814,0.00971
933.25797,0.00873
931.19780,0.00808
929.13762,0.00744
927.07745,0.00659
925.01728,0.00591
922.95711,0.00552
920.89694,0.00534
918.83676,0.00523
916.77659,0.00482
914.71642,0.00408
912.65625,0.00348
910.59608,0.00321
908.53590,0.00316
906.47573,0.00326
904.41556,0.00335
902.35539,0.00313
900.29522,0.00279
898.23504,0.00268
896.17487,0.00279
894.11470,0.00285
892.05453,0.00271
889.99435,0.00245
887.93418,0.00232
885.87401,0.00252
883.81384,0.00263
881.75367,0.00231
879.69349,0.00209
877.63332,0.00212
875.57315,0.00206
873.51298,0.00186
871.45281,0.00169
869.39263,0.00155
867.33246,0.00158
865.27229,0.00179
863.21212,0.00180
861.15194,0.00165
859.09177,0.00163
857.03160,0.00176
854.97143,0.00175
852.91126,0.00162
850.85108,0.00171
848.79091,0.00180
846.73074,0.00161
844.67057,0.00139
842.61040,0.00099
840.55022,0.00034
838.49005,0.00000
836.42988,0.00011
834.36971,0.00024
832.30954,0.00004
830.24936,-0.00032
828.18919,-0.00035
826.12902,-0.00010
824.06885,0.00009
822.00867,0.00007
819.94850,-0.00000
817.88833,0.00020
815.82816,0.00050
813.76799,0.00057
811.70781,0.00052
809.64764,0.00054
807.58747,0.00044
805.52730,0.00014
803.46713,0.00011
801.40695,0.00049
799.34678,0.00072
797.28661,0.00039
795.22644,-0.00010
793.16627,-0.00021
791.10609,-0.00002
789.04592,-0.00004
786.98575,-0.00036
784.92558,-0.00063
782.86540,-0.00052
780.80523,-0.00010
778.74506,0.00012
776.68489,0.00005
774.62472,0.00022
772.56454,0.00041
770.50437,0.00030
768.44420,0.00046
766.38403,0.00079
764.32386,0.00065
762.26368,0.00020
760.20351,0.00022
758.14334,0.00079
756.08317,0.00098
754.02299,0.00078
751.96282,0.00092
749.90265,0.00114
747.84248,0.00107
745.78231,0.00069
743.72213,0.00010
741.66196,0.00000
739.60179,0.00025
737.54162,-0.00001
735.48145,-0.00034
733.42127,0.00008
731.36110,0.00062
729.30093,0.00064
727.24076,0.00036
725.18059,0.00019
723.12041,0.00049
721.06024,0.00109
719.00007,0.00150
716.93990,0.00154
714.87972,0.00151
712.81955,0.00152
710.75938,0.00147
708.69921,0.00154
706.63904,0.00173
704.57886,0.00195
702.51869,0.00228
700.45852,0.00260
698.39835,0.00257
696.33818,0.00223
694.27800,0.00181
692.21783,0.00161
690.15766,0.00196
688.09749,0.00252
686.03731,0.00250
683.97714,0.00207
681.91697,0.00185
679.85680,0.00181
677.79663,0.00184
675.73645,0.00185
673.67628,0.00137
671.61611,0.00055
669.55594,0.00072
667.49577,0.00224
665.43559,0.00296
663.37542,0.00240
661.31525,0.00167
659.25508,0.00160
657.19491,0.00196
655.13473,0.00247
653.07456,0.00293
651.01439,0.00295
648.95422,0.00255
646.89404,0.00179
644.83387,0.00072
642.77370,0.00000
640.71353,-0.00009
638.65336,0.00051
636.59318,0.00145
634.53301,0.00170
632.47284,0.00128
630.41267,0.00154
628.35250,0.00287
626.29232,0.00417
624.23215,0.00457
622.17198,0.00377
620.11181,0.00226
618.05164,0.00253
615.99146,0.00404
613.93129,0.00495
611.87112,0.00538
609.81095,0.00409
607.75077,0.00267
605.69060,0.00268
603.63043,0.00173
601.57026,-0.00002
599.51009,0.00000
