3996.73391,0.00074
3994.67373,0.00113
3992.61356,0.00137
3990.55339,0.00139
3988.49322,0.00119
3986.43305,0.00092
3984.37287,0.00071
3982.31270,0.00057
3980.25253,0.00049
3978.19236,0.00046
3976.13219,0.00042
3974.07201,0.00036
3972.01184,0.00026
3969.95167,0.00014
3967.89150,0.00003
3965.83133,0.00000
3963.77115,0.00013
3961.71098,0.00039
3959.65081,0.00067
3957.59064,0.00087
3955.53046,0.00092
3953.47029,0.00083
3951.41012,0.00066
3949.34995,0.00048
3947.28978,0.00029
3945.22960,0.00017
3943.16943,0.00014
3941.10926,0.00021
3939.04909,0.00034
3936.98892,0.00051
3934.92874,0.00070
3932.86857,0.00089
3930.80840,0.00104
3928.74823,0.00112
3926.68805,0.00115
3924.62788,0.00112
3922.56771,0.00105
3920.50754,0.00100
3918.44737,0.00103
3916.38719,0.00109
3914.32702,0.00107
3912.26685,0.00090
3910.20668,0.00060
3908.14651,0.00035
3906.08633,0.00036
3904.02616,0.00068
3901.96599,0.00113
3899.90582,0.00144
3897.84565,0.00149
3895.78547,0.00140
3893.72530,0.00136
3891.66513,0.00135
3889.60496,0.00126
3887.54478,0.00109
3885.48461,0.00097
3883.42444,0.00095
3881.36427,0.00097
3879.30410,0.00096
3877.24392,0.00091
3875.18375,0.00093
3873.12358,0.00102
3871.06341,0.00112
3869.00324,0.00117
3866.94306,0.00125
3864.88289,0.00140
3862.82272,0.00154
3860.76255,0.00152
3858.70237,0.00133
3856.64220,0.00113
3854.58203,0.00111
3852.52186,0.00125
3850.46169,0.00125
3848.40151,0.00102
3846.34134,0.00079
3844.28117,0.00076
3842.22100,0.00094
3840.16083,0.00115
3838.10065,0.00115
3836.04048,0.00095
3833.98031,0.00081
3831.92014,0.00089
3829.85997,0.00114
3827.79979,0.00141
3825.73962,0.00160
3823.67945,0.00174
3821.61928,0.00185
3819.55910,0.00186
3817.49893,0.00166
3815.43876,0.00129
3813.37859,0.00087
3811.31842,0.00055
3809.25824,0.00039
3807.19807,0.00043
3805.13790,0.00065
3803.07773,0.00096
3801.01756,0.00124
3798.95738,0.00136
3796.89721,0.00131
3794.83704,0.00117
3792.77687,0.00101
3790.71670,0.00086
3788.65652,0.00072
3786.59635,0.00061
3784.53618,0.00061
3782.47601,0.00080
3780.41583,0.00112
3778.35566,0.00140
3776.29549,0.00154
3774.23532,0.00152
3772.17515,0.00143
3770.11497,0.00135
3768.05480,0.00127
3765.99463,0.00119
3763.93446,0.00116
3761.87429,0.00117
3759.81411,0.00112
3757.75394,0.00096
3755.69377,0.00086
3753.63360,0.00096
3751.57342,0.00121
3749.51325,0.00139
3747.45308,0.00134
3745.39291,0.00105
3743.33274,0.00072
3741.27256,0.00060
3739.21239,0.00080
3737.15222,0.00119
3735.09205,0.00152
3733.03188,0.00166
3730.97170,0.00167
3728.91153,0.00158
3726.85136,0.00148
3724.79119,0.00147
3722.73102,0.00153
3720.67084,0.00155
3718.61067,0.00149
3716.55050,0.00144
3714.49033,0.00150
3712.43015,0.00165
3710.36998,0.00172
3708.30981,0.00162
3706.24964,0.00141
3704.18947,0.00124
3702.12929,0.00115
3700.06912,0.00104
3698.00895,0.00093
3695.94878,0.00088
3693.88861,0.00098
3691.82843,0.00127
3689.76826,0.00159
3687.70809,0.00167
3685.64792,0.00146
3683.58775,0.00111
3681.52757,0.00087
3679.46740,0.00086
3677.40723,0.00101
3675.34706,0.00112
3673.28688,0.00105
3671.22671,0.00092
3669.16654,0.00083
3667.10637,0.00078
3665.04620,0.00079
3662.98602,0.00090
3660.92585,0.00108
3658.86568,0.00125
3656.80551,0.00132
3654.74534,0.00131
3652.68516,0.00139
3650.62499,0.00164
3648.56482,0.00181
3646.50465,0.00161
3644.44447,0.00114
3642.38430,0.00083
3640.32413,0.00091
3638.26396,0.00125
3636.20379,0.00154
3634.14361,0.00162
3632.08344,0.00143
3630.02327,0.00107
3627.96310,0.00070
3625.90293,0.00051
3623.84275,0.00057
3621.78258,0.00085
3619.72241,0.00119
3617.66224,0.00144
3615.60207,0.00156
3613.54189,0.00162
3611.48172,0.00169
3609.42155,0.00184
3607.36138,0.00205
3605.30120,0.00223
3603.24103,0.00226
3601.18086,0.00204
3599.12069,0.00163
3597.06052,0.00127
3595.00034,0.00119
3592.94017,0.00136
3590.88000,0.00160
3588.81983,0.00181
3586.75966,0.00197
3584.69948,0.00204
3582.63931,0.00196
3580.57914,0.00181
3578.51897,0.00167
3576.45879,0.00157
3574.39862,0.00149
3572.33845,0.00147
3570.27828,0.00162
3568.21811,0.00197
3566.15793,0.00233
3564.09776,0.00244
3562.03759,0.00222
3559.97742,0.00182
3557.91725,0.00150
3555.85707,0.00144
3553.79690,0.00163
3551.73673,0.00196
3549.67656,0.00227
3547.61639,0.00247
3545.55621,0.00258
3543.49604,0.00267
3541.43587,0.00274
3539.37570,0.00277
3537.31552,0.00276
3535.25535,0.00268
3533.19518,0.00256
3531.13501,0.00247
3529.07484,0.00250
3527.01466,0.00266
3524.95449,0.00289
3522.89432,0.00309
3520.83415,0.00323
3518.77398,0.00326
3516.71380,0.00316
3514.65363,0.00290
3512.59346,0.00259
3510.53329,0.00241
3508.47312,0.00244
3506.41294,0.00264
3504.35277,0.00291
3502.29260,0.00312
3500.23243,0.00320
3498.17225,0.00315
3496.11208,0.00303
3494.05191,0.00290
3491.99174,0.00282
3489.93157,0.00279
3487.87139,0.00276
3485.81122,0.00277
3483.75105,0.00285
3481.69088,0.00299
3479.63071,0.00316
3477.57053,0.00333
3475.51036,0.00342
3473.45019,0.00340
3471.39002,0.00332
3469.32984,0.00329
3467.26967,0.00332
3465.20950,0.00338
3463.14933,0.00339
3461.08916,0.00338
3459.02898,0.00341
3456.96881,0.00349
3454.90864,0.00355
3452.84847,0.00356
3450.78830,0.00352
3448.72812,0.00343
3446.66795,0.00335
3444.60778,0.00332
3442.54761,0.00340
3440.48744,0.00355
3438.42726,0.00375
3436.36709,0.00400
3434.30692,0.00425
3432.24675,0.00440
3430.18657,0.00439
3428.12640,0.00428
3426.06623,0.00416
3424.00606,0.00407
3421.94589,0.00402
3419.88571,0.00399
3417.82554,0.00399
3415.76537,0.00403
3413.70520,0.00415
3411.64503,0.00438
3409.58485,0.00463
3407.52468,0.00475
3405.46451,0.00467
3403.40434,0.00441
3401.34416,0.00410
3399.28399,0.00395
3397.22382,0.00405
3395.16365,0.00431
3393.10348,0.00456
3391.04330,0.00471
3388.98313,0.00472
3386.92296,0.00465
3384.86279,0.00454
3382.80262,0.00442
3380.74244,0.00433
3378.68227,0.00432
3376.62210,0.00440
3374.56193,0.00451
3372.50176,0.00455
3370.44158,0.00448
3368.38141,0.00437
3366.32124,0.00432
3364.26107,0.00439
3362.20089,0.00457
3360.14072,0.00478
3358.08055,0.00493
3356.02038,0.00493
3353.96021,0.00482
3351.90003,0.00471
3349.83986,0.00469
3347.77969,0.00479
3345.71952,0.00492
3343.65935,0.00493
3341.59917,0.00478
3339.53900,0.00458
3337.47883,0.00452
3335.41866,0.00468
3333.35849,0.00495
3331.29831,0.00513
3329.23814,0.00515
3327.17797,0.00507
3325.11780,0.00501
3323.05762,0.00504
3320.99745,0.00515
3318.93728,0.00523
3316.87711,0.00522
3314.81694,0.00517
3312.75676,0.00517
3310.69659,0.00526
3308.63642,0.00532
3306.57625,0.00523
3304.51608,0.00502
3302.45590,0.00482
3300.39573,0.00476
3298.33556,0.00484
3296.27539,0.00496
3294.21521,0.00502
3292.15504,0.00500
3290.09487,0.00494
3288.03470,0.00489
3285.97453,0.00489
3283.91435,0.00494
3281.85418,0.00495
3279.79401,0.00487
3277.73384,0.00472
3275.67367,0.00457
3273.61349,0.00452
3271.55332,0.00456
3269.49315,0.00465
3267.43298,0.00472
3265.37281,0.00474
3263.31263,0.00470
3261.25246,0.00459
3259.19229,0.00442
3257.13212,0.00427
3255.07194,0.00424
3253.01177,0.00435
3250.95160,0.00457
3248.89143,0.00480
3246.83126,0.00492
3244.77108,0.00488
3242.71091,0.00475
3240.65074,0.00461
3238.59057,0.00451
3236.53040,0.00445
3234.47022,0.00444
3232.41005,0.00447
3230.34988,0.00450
3228.28971,0.00446
3226.22954,0.00435
3224.16936,0.00423
3222.10919,0.00419
3220.04902,0.00424
3217.98885,0.00432
3215.92867,0.00442
3213.86850,0.00448
3211.80833,0.00446
3209.74816,0.00429
3207.68799,0.00399
3205.62781,0.00371
3203.56764,0.00362
3201.50747,0.00375
3199.44730,0.00397
3197.38713,0.00417
3195.32695,0.00429
3193.26678,0.00434
3191.20661,0.00431
3189.14644,0.00423
3187.08626,0.00419
3185.02609,0.00423
3182.96592,0.00432
3180.90575,0.00439
3178.84558,0.00439
3176.78540,0.00433
3174.72523,0.00420
3172.66506,0.00407
3170.60489,0.00398
3168.54472,0.00389
3166.48454,0.00375
3164.42437,0.00355
3162.36420,0.00338
3160.30403,0.00336
3158.24386,0.00347
3156.18368,0.00364
3154.12351,0.00376
3152.06334,0.00378
3150.00317,0.00370
3147.94299,0.00354
3145.88282,0.00340
3143.82265,0.00337
3141.76248,0.00345
3139.70231,0.00354
3137.64213,0.00354
3135.58196,0.00346
3133.52179,0.00337
3131.46162,0.00333
3129.40145,0.00335
3127.34127,0.00341
3125.28110,0.00346
3123.22093,0.00348
3121.16076,0.00351
3119.10058,0.00356
3117.04041,0.00360
3114.98024,0.00359
3112.92007,0.00350
3110.85990,0.00336
3108.79972,0.00317
3106.73955,0.00298
3104.67938,0.00284
3102.61921,0.00278
3100.55904,0.00284
3098.49886,0.00297
3096.43869,0.00311
3094.37852,0.00322
3092.31835,0.00328
3090.25818,0.00330
3088.19800,0.00325
3086.13783,0.00315
3084.07766,0.00304
3082.01749,0.00301
3079.95731,0.00307
3077.89714,0.00319
3075.83697,0.00330
3073.77680,0.00337
3071.71663,0.00341
3069.65645,0.00343
3067.59628,0.00341
3065.53611,0.00334
3063.47594,0.00324
3061.41577,0.00311
3059.35559,0.00299
3057.29542,0.00290
3055.23525,0.00282
3053.17508,0.00276
3051.11491,0.00273
3049.05473,0.00273
3046.99456,0.00274
3044.93439,0.00272
3042.87422,0.00264
3040.81404,0.00256
3038.75387,0.00253
3036.69370,0.00256
3034.63353,0.00258
3032.57336,0.00256
3030.51318,0.00253
3028.45301,0.00255
3026.39284,0.00261
3024.33267,0.00267
3022.27250,0.00268
3020.21232,0.00267
3018.15215,0.00265
3016.09198,0.00260
3014.03181,0.00252
3011.97163,0.00245
3009.91146,0.00239
3007.85129,0.00238
3005.79112,0.00246
3003.73095,0.00267
3001.67077,0.00292
2999.61060,0.00306
2997.55043,0.00297
2995.49026,0.00279
2993.43009,0.00266
2991.36991,0.00260
2989.30974,0.00258
2987.24957,0.00256
2985.18940,0.00261
2983.12923,0.00273
2981.06905,0.00284
2979.00888,0.00295
2976.94871,0.00310
2974.88854,0.00323
2972.82836,0.00321
2970.76819,0.00308
2968.70802,0.00301
2966.64785,0.00314
2964.58768,0.00334
2962.52750,0.00330
2960.46733,0.00291
2958.40716,0.00253
2956.34699,0.00249
2954.28682,0.00272
2952.22664,0.00299
2950.16647,0.00311
2948.10630,0.00314
2946.04613,0.00314
2943.98596,0.00317
2941.92578,0.00323
2939.86561,0.00333
2937.80544,0.00336
2935.74527,0.00328
2933.68509,0.00324
2931.62492,0.00338
2929.56475,0.00359
2927.50458,0.00363
2925.44441,0.00343
2923.38423,0.00318
2921.32406,0.00316
2919.26389,0.00338
2917.20372,0.00358
2915.14355,0.00362
2913.08337,0.00352
2911.02320,0.00335
2908.96303,0.00318
2906.90286,0.00313
2904.84268,0.00322
2902.78251,0.00336
2900.72234,0.00338
2898.66217,0.00333
2896.60200,0.00330
2894.54182,0.00328
2892.48165,0.00319
2890.42148,0.00304
2888.36131,0.00299
2886.30114,0.00306
2884.24096,0.00320
2882.18079,0.00331
2880.12062,0.00324
2878.06045,0.00298
2876.00028,0.00278
2873.94010,0.00281
2871.87993,0.00295
2869.81976,0.00308
2867.75959,0.00317
2865.69941,0.00316
2863.63924,0.00296
2861.57907,0.00269
2859.51890,0.00259
2857.45873,0.00260
2855.39855,0.00255
2853.33838,0.00253
2851.27821,0.00267
2849.21804,0.00295
2847.15787,0.00315
2845.09769,0.00321
2843.03752,0.00320
2840.97735,0.00321
2838.91718,0.00324
2836.85700,0.00319
2834.79683,0.00305
2832.73666,0.00291
2830.67649,0.00285
2828.61632,0.00287
2826.55614,0.00290
2824.49597,0.00290
2822.43580,0.00289
2820.37563,0.00286
2818.31546,0.00282
2816.25528,0.00274
2814.19511,0.00269
2812.13494,0.00271
2810.07477,0.00277
2808.01460,0.00279
2805.95442,0.00271
2803.89425,0.00253
2801.83408,0.00244
2799.77391,0.00250
2797.71373,0.00261
2795.65356,0.00278
2793.59339,0.00298
2791.53322,0.00305
2789.47305,0.00290
2787.41287,0.00269
2785.35270,0.00262
2783.29253,0.00277
2781.23236,0.00296
2779.17219,0.00299
2777.11201,0.00288
2775.05184,0.00276
2772.99167,0.00265
2770.93150,0.00253
2768.87133,0.00242
2766.81115,0.00232
2764.75098,0.00222
2762.69081,0.00214
2760.63064,0.00213
2758.57046,0.00221
2756.51029,0.00243
2754.45012,0.00262
2752.38995,0.00268
2750.32978,0.00277
2748.26960,0.00291
2746.20943,0.00294
2744.14926,0.00281
2742.08909,0.00263
2740.02892,0.00258
2737.96874,0.00269
2735.90857,0.00289
2733.84840,0.00302
2731.78823,0.00298
2729.72805,0.00284
2727.66788,0.00273
2725.60771,0.00269
2723.54754,0.00271
2721.48737,0.00277
2719.42719,0.00278
2717.36702,0.00267
2715.30685,0.00253
2713.24668,0.00246
2711.18651,0.00250
2709.12633,0.00267
2707.06616,0.00283
2705.00599,0.00285
2702.94582,0.00276
2700.88565,0.00273
2698.82547,0.00281
2696.76530,0.00291
2694.70513,0.00289
2692.64496,0.00279
2690.58478,0.00276
2688.52461,0.00278
2686.46444,0.00270
2684.40427,0.00255
2682.34410,0.00251
2680.28392,0.00259
2678.22375,0.00271
2676.16358,0.00279
2674.10341,0.00279
2672.04324,0.00272
2669.98306,0.00265
2667.92289,0.00265
2665.86272,0.00276
2663.80255,0.00295
2661.74238,0.00315
2659.68220,0.00323
2657.62203,0.00314
2655.56186,0.00306
2653.50169,0.00310
2651.44151,0.00311
2649.38134,0.00292
2647.32117,0.00267
2645.26100,0.00263
2643.20083,0.00286
2641.14065,0.00314
2639.08048,0.00324
2637.02031,0.00314
2634.96014,0.00286
2632.89997,0.00251
2630.83979,0.00229
2628.77962,0.00234
2626.71945,0.00256
2624.65928,0.00270
2622.59910,0.00273
2620.53893,0.00276
2618.47876,0.00277
2616.41859,0.00273
2614.35842,0.00272
2612.29824,0.00270
2610.23807,0.00254
2608.17790,0.00230
2606.11773,0.00213
2604.05756,0.00216
2601.99738,0.00238
2599.93721,0.00269
2597.87704,0.00287
2595.81687,0.00290
2593.75670,0.00290
2591.69652,0.00286
2589.63635,0.00269
2587.57618,0.00241
2585.51601,0.00218
2583.45583,0.00212
2581.39566,0.00221
2579.33549,0.00239
2577.27532,0.00258
2575.21515,0.00265
2573.15497,0.00259
2571.09480,0.00253
2569.03463,0.00266
2566.97446,0.00283
2564.91429,0.00278
2562.85411,0.00258
2560.79394,0.00244
2558.73377,0.00243
2556.67360,0.00258
2554.61342,0.00282
2552.55325,0.00298
2550.49308,0.00292
2548.43291,0.00273
2546.37274,0.00252
2544.31256,0.00232
2542.25239,0.00205
2540.19222,0.00180
2538.13205,0.00192
2536.07188,0.00233
2534.01170,0.00256
2531.95153,0.00240
2529.89136,0.00205
2527.83119,0.00194
2525.77102,0.00218
2523.71084,0.00240
2521.65067,0.00243
2519.59050,0.00248
2517.53033,0.00267
2515.47015,0.00281
2513.40998,0.00267
2511.34981,0.00233
2509.28964,0.00215
2507.22947,0.00227
2505.16929,0.00239
2503.10912,0.00224
2501.04895,0.00197
2498.98878,0.00192
2496.92861,0.00214
2494.86843,0.00236
2492.80826,0.00234
2490.74809,0.00211
2488.68792,0.00177
2486.62775,0.00152
2484.56757,0.00156
2482.50740,0.00185
2480.44723,0.00221
2478.38706,0.00251
2476.32688,0.00262
2474.26671,0.00259
2472.20654,0.00257
2470.14637,0.00254
2468.08620,0.00242
2466.02602,0.00228
2463.96585,0.00233
2461.90568,0.00253
2459.84551,0.00254
2457.78534,0.00217
2455.72516,0.00163
2453.66499,0.00133
2451.60482,0.00159
2449.54465,0.00220
2447.48447,0.00267
2445.42430,0.00278
2443.36413,0.00266
2441.30396,0.00243
2439.24379,0.00220
2437.18361,0.00217
2435.12344,0.00245
2433.06327,0.00287
2431.00310,0.00309
2428.94293,0.00296
2426.88275,0.00266
2424.82258,0.00239
2422.76241,0.00218
2420.70224,0.00193
2418.64207,0.00177
2416.58189,0.00181
2414.52172,0.00198
2412.46155,0.00223
2410.40138,0.00244
2408.34120,0.00250
2406.28103,0.00259
2404.22086,0.00273
2402.16069,0.00274
2400.10052,0.00263
2398.04034,0.00251
2395.98017,0.00242
2393.92000,0.00236
2391.85983,0.00232
2389.79966,0.00224
2387.73948,0.00211
2385.67931,0.00193
2383.61914,0.00175
2381.55897,0.00157
2379.49880,0.00140
2377.43862,0.00125
2375.37845,0.00122
2373.31828,0.00140
2371.25811,0.00175
2369.19793,0.00209
2367.13776,0.00226
2365.07759,0.00236
2363.01742,0.00261
2360.95725,0.00300
2358.89707,0.00324
2356.83690,0.00306
2354.77673,0.00271
2352.71656,0.00253
2350.65639,0.00265
2348.59621,0.00298
2346.53604,0.00338
2344.47587,0.00367
2342.41570,0.00354
2340.35552,0.00283
2338.29535,0.00184
2336.23518,0.00105
2334.17501,0.00070
2332.11484,0.00081
2330.05466,0.00133
2327.99449,0.00206
2325.93432,0.00272
2323.87415,0.00315
2321.81398,0.00327
2319.75380,0.00314
2317.69363,0.00297
2315.63346,0.00293
2313.57329,0.00298
2311.51312,0.00301
2309.45294,0.00297
2307.39277,0.00287
2305.33260,0.00278
2303.27243,0.00278
2301.21225,0.00292
2299.15208,0.00314
2297.09191,0.00335
2295.03174,0.00346
2292.97157,0.00344
2290.91139,0.00334
2288.85122,0.00320
2286.79105,0.00304
2284.73088,0.00294
2282.67071,0.00296
2280.61053,0.00308
2278.55036,0.00319
2276.49019,0.00319
2274.43002,0.00312
2272.36984,0.00300
2270.30967,0.00288
2268.24950,0.00277
2266.18933,0.00268
2264.12916,0.00260
2262.06898,0.00247
2260.00881,0.00231
2257.94864,0.00220
2255.88847,0.00227
2253.82830,0.00259
2251.76812,0.00304
2249.70795,0.00332
2247.64778,0.00327
2245.58761,0.00335
2243.52744,0.00370
2241.46726,0.00393
2239.40709,0.00371
2237.34692,0.00322
2235.28675,0.00283
2233.22657,0.00270
2231.16640,0.00269
2229.10623,0.00258
2227.04606,0.00232
2224.98589,0.00215
2222.92571,0.00241
2220.86554,0.00289
2218.80537,0.00311
2216.74520,0.00312
2214.68503,0.00316
2212.62485,0.00299
2210.56468,0.00249
2208.50451,0.00236
2206.44434,0.00294
2204.38417,0.00345
2202.32399,0.00344
2200.26382,0.00342
2198.20365,0.00374
2196.14348,0.00422
2194.08330,0.00446
2192.02313,0.00419
2189.96296,0.00351
2187.90279,0.00300
2185.84262,0.00277
2183.78244,0.00256
2181.72227,0.00257
2179.66210,0.00307
2177.60193,0.00371
2175.54176,0.00395
2173.48158,0.00357
2171.42141,0.00322
2169.36124,0.00355
2167.30107,0.00404
2165.24089,0.00395
2163.18072,0.00345
2161.12055,0.00251
2159.06038,0.00116
2157.00021,0.00052
2154.94003,0.00127
2152.87986,0.00236
2150.81969,0.00235
2148.75952,0.00123
2146.69935,0.00042
2144.63917,0.00062
2142.57900,0.00118
2140.51883,0.00171
2138.45866,0.00233
2136.39849,0.00283
2134.33831,0.00290
2132.27814,0.00275
2130.21797,0.00276
2128.15780,0.00291
2126.09762,0.00294
2124.03745,0.00300
2121.97728,0.00337
2119.91711,0.00382
2117.85694,0.00389
2115.79676,0.00347
2113.73659,0.00275
2111.67642,0.00210
2109.61625,0.00206
2107.55608,0.00263
2105.49590,0.00309
2103.43573,0.00313
2101.37556,0.00297
2099.31539,0.00272
2097.25521,0.00241
2095.19504,0.00215
2093.13487,0.00202
2091.07470,0.00210
2089.01453,0.00242
2086.95435,0.00289
2084.89418,0.00341
2082.83401,0.00386
2080.77384,0.00413
2078.71367,0.00410
2076.65349,0.00377
2074.59332,0.00329
2072.53315,0.00306
2070.47298,0.00332
2068.41281,0.00385
2066.35263,0.00412
2064.29246,0.00382
2062.23229,0.00306
2060.17212,0.00219
2058.11194,0.00154
2056.05177,0.00129
2053.99160,0.00142
2051.93143,0.00170
2049.87126,0.00197
2047.81108,0.00213
2045.75091,0.00207
2043.69074,0.00178
2041.63057,0.00158
2039.57040,0.00176
2037.51022,0.00216
2035.45005,0.00245
2033.38988,0.00265
2031.32971,0.00289
2029.26954,0.00326
2027.20936,0.00369
2025.14919,0.00400
2023.08902,0.00402
2021.02885,0.00373
2018.96867,0.00330
2016.90850,0.00277
2014.84833,0.00201
2012.78816,0.00108
2010.72799,0.00031
2008.66781,0.00000
2006.60764,0.00021
2004.54747,0.00086
2002.48730,0.00166
2000.42713,0.00225
1998.36695,0.00243
1996.30678,0.00237
1994.24661,0.00241
1992.18644,0.00281
1990.12626,0.00351
1988.06609,0.00419
1986.00592,0.00470
1983.94575,0.00515
1981.88558,0.00556
1979.82540,0.00569
1977.76523,0.00524
1975.70506,0.00432
1973.64489,0.00347
1971.58472,0.00309
1969.52454,0.00316
1967.46437,0.00346
1965.40420,0.00387
1963.34403,0.00423
1961.28386,0.00434
1959.22368,0.00415
1957.16351,0.00375
1955.10334,0.00333
1953.04317,0.00294
1950.98299,0.00262
1948.92282,0.00241
1946.86265,0.00235
1944.80248,0.00237
1942.74231,0.00237
1940.68213,0.00229
1938.62196,0.00214
1936.56179,0.00199
1934.50162,0.00186
1932.44145,0.00174
1930.38127,0.00166
1928.32110,0.00173
1926.26093,0.00203
1924.20076,0.00248
1922.14059,0.00286
1920.08041,0.00302
1918.02024,0.00297
1915.96007,0.00281
1913.89990,0.00258
1911.83972,0.00230
1909.77955,0.00209
1907.71938,0.00205
1905.65921,0.00210
1903.59904,0.00218
1901.53886,0.00229
1899.47869,0.00245
1897.41852,0.00259
1895.35835,0.00260
1893.29818,0.00250
1891.23800,0.00237
1889.17783,0.00227
1887.11766,0.00223
1885.05749,0.00221
1882.99731,0.00212
1880.93714,0.00189
1878.87697,0.00163
1876.81680,0.00152
1874.75663,0.00160
1872.69645,0.00172
1870.63628,0.00179
1868.57611,0.00183
1866.51594,0.00182
1864.45577,0.00173
1862.39559,0.00160
1860.33542,0.00151
1858.27525,0.00155
1856.21508,0.00169
1854.15491,0.00182
1852.09473,0.00185
1850.03456,0.00181
1847.97439,0.00182
1845.91422,0.00190
1843.85404,0.00198
1841.79387,0.00190
1839.73370,0.00168
1837.67353,0.00146
1835.61336,0.00132
1833.55318,0.00127
1831.49301,0.00131
1829.43284,0.00142
1827.37267,0.00156
1825.31250,0.00172
1823.25232,0.00189
1821.19215,0.00200
1819.13198,0.00197
1817.07181,0.00178
1815.01163,0.00156
1812.95146,0.00143
1810.89129,0.00142
1808.83112,0.00150
1806.77095,0.00163
1804.71077,0.00178
1802.65060,0.00191
1800.59043,0.00201
1798.53026,0.00206
1796.47009,0.00211
1794.40991,0.00219
1792.34974,0.00225
1790.28957,0.00219
1788.22940,0.00198
1786.16923,0.00173
1784.10905,0.00153
1782.04888,0.00144
1779.98871,0.00142
1777.92854,0.00143
1775.86836,0.00149
1773.80819,0.00161
1771.74802,0.00172
1769.68785,0.00182
1767.62768,0.00193
1765.56750,0.00210
1763.50733,0.00224
1761.44716,0.00227
1759.38699,0.00216
1757.32682,0.00202
1755.26664,0.00198
1753.20647,0.00213
1751.14630,0.00242
1749.08613,0.00265
1747.02596,0.00271
1744.96578,0.00264
1742.90561,0.00253
1740.84544,0.00243
1738.78527,0.00233
1736.72509,0.00230
1734.66492,0.00235
1732.60475,0.00237
1730.54458,0.00229
1728.48441,0.00216
1726.42423,0.00208
1724.36406,0.00210
1722.30389,0.00223
1720.24372,0.00241
1718.18355,0.00254
1716.12337,0.00252
1714.06320,0.00234
1712.00303,0.00212
1709.94286,0.00196
1707.88268,0.00193
1705.82251,0.00200
1703.76234,0.00214
1701.70217,0.00235
1699.64200,0.00256
1697.58182,0.00262
1695.52165,0.00243
1693.46148,0.00213
1691.40131,0.00198
1689.34114,0.00209
1687.28096,0.00236
1685.22079,0.00259
1683.16062,0.00262
1681.10045,0.00246
1679.04028,0.00230
1676.98010,0.00227
1674.91993,0.00238
1672.85976,0.00254
1670.79959,0.00263
1668.73941,0.00263
1666.67924,0.00262
1664.61907,0.00266
1662.55890,0.00274
1660.49873,0.00280
1658.43855,0.00285
1656.37838,0.00295
1654.31821,0.00309
1652.25804,0.00320
1650.19787,0.00328
1648.13769,0.00337
1646.07752,0.00341
1644.01735,0.00338
1641.95718,0.00334
1639.89701,0.00332
1637.83683,0.00333
1635.77666,0.00335
1633.71649,0.00333
1631.65632,0.00329
1629.59614,0.00326
1627.53597,0.00327
1625.47580,0.00332
1623.41563,0.00340
1621.35546,0.00349
1619.29528,0.00359
1617.23511,0.00367
1615.17494,0.00365
1613.11477,0.00352
1611.05460,0.00338
1608.99442,0.00327
1606.93425,0.00321
1604.87408,0.00317
1602.81391,0.00313
1600.75373,0.00308
1598.69356,0.00301
1596.63339,0.00290
1594.57322,0.00275
1592.51305,0.00257
1590.45287,0.00242
1588.39270,0.00231
1586.33253,0.00222
1584.27236,0.00213
1582.21219,0.00205
1580.15201,0.00200
1578.09184,0.00198
1576.03167,0.00195
1573.97150,0.00186
1571.91133,0.00178
1569.85115,0.00177
1567.79098,0.00180
1565.73081,0.00184
1563.67064,0.00190
1561.61046,0.00204
1559.55029,0.00224
1557.49012,0.00238
1555.42995,0.00237
1553.36978,0.00228
1551.30960,0.00219
1549.24943,0.00218
1547.18926,0.00231
1545.12909,0.00259
1543.06892,0.00288
1541.00874,0.00296
1538.94857,0.00269
1536.88840,0.00223
1534.82823,0.00183
1532.76805,0.00158
1530.70788,0.00149
1528.64771,0.00157
1526.58754,0.00178
1524.52737,0.00198
1522.46719,0.00208
1520.40702,0.00204
1518.34685,0.00191
1516.28668,0.00178
1514.22651,0.00170
1512.16633,0.00171
1510.10616,0.00178
1508.04599,0.00180
1505.98582,0.00166
1503.92565,0.00145
1501.86547,0.00133
1499.80530,0.00131
1497.74513,0.00133
1495.68496,0.00132
1493.62478,0.00133
1491.56461,0.00142
1489.50444,0.00152
1487.44427,0.00147
1485.38410,0.00130
1483.32392,0.00112
1481.26375,0.00104
1479.20358,0.00111
1477.14341,0.00133
1475.08324,0.00161
1473.02306,0.00179
1470.96289,0.00177
1468.90272,0.00169
1466.84255,0.00170
1464.78238,0.00181
1462.72220,0.00195
1460.66203,0.00213
1458.60186,0.00236
1456.54169,0.00249
1454.48151,0.00241
1452.42134,0.00222
1450.36117,0.00206
1448.30100,0.00198
1446.24083,0.00197
1444.18065,0.00200
1442.12048,0.00206
1440.06031,0.00218
1438.00014,0.00230
1435.93997,0.00236
1433.87979,0.00234
1431.81962,0.00234
1429.75945,0.00242
1427.69928,0.00254
1425.63910,0.00271
1423.57893,0.00291
1421.51876,0.00307
1419.45859,0.00311
1417.39842,0.00298
1415.33824,0.00281
1413.27807,0.00273
1411.21790,0.00277
1409.15773,0.00285
1407.09756,0.00290
1405.03738,0.00288
1402.97721,0.00282
1400.91704,0.00280
1398.85687,0.00281
1396.79670,0.00280
1394.73652,0.00270
1392.67635,0.00252
1390.61618,0.00236
1388.55601,0.00231
1386.49583,0.00236
1384.43566,0.00242
1382.37549,0.00249
1380.31532,0.00260
1378.25515,0.00274
1376.19497,0.00285
1374.13480,0.00290
1372.07463,0.00288
1370.01446,0.00285
1367.95429,0.00284
1365.89411,0.00286
1363.83394,0.00291
1361.77377,0.00289
1359.71360,0.00275
1357.65343,0.00249
1355.59325,0.00224
1353.53308,0.00209
1351.47291,0.00207
1349.41274,0.00216
1347.35256,0.00227
1345.29239,0.00236
1343.23222,0.00244
1341.17205,0.00246
1339.11188,0.00238
1337.05170,0.00220
1334.99153,0.00202
1332.93136,0.00191
1330.87119,0.00191
1328.81102,0.00199
1326.75084,0.00210
1324.69067,0.00221
1322.63050,0.00226
1320.57033,0.00225
1318.51015,0.00223
1316.44998,0.00224
1314.38981,0.00227
1312.32964,0.00230
1310.26947,0.00229
1308.20929,0.00225
1306.14912,0.00218
1304.08895,0.00209
1302.02878,0.00197
1299.96861,0.00185
1297.90843,0.00176
1295.84826,0.00172
1293.78809,0.00174
1291.72792,0.00181
1289.66775,0.00191
1287.60757,0.00198
1285.54740,0.00197
1283.48723,0.00189
1281.42706,0.00180
1279.36688,0.00176
1277.30671,0.00177
1275.24654,0.00182
1273.18637,0.00192
1271.12620,0.00204
1269.06602,0.00216
1267.00585,0.00225
1264.94568,0.00232
1262.88551,0.00236
1260.82534,0.00237
1258.76516,0.00236
1256.70499,0.00237
1254.64482,0.00239
1252.58465,0.00243
1250.52447,0.00250
1248.46430,0.00261
1246.40413,0.00272
1244.34396,0.00276
1242.28379,0.00273
1240.22361,0.00266
1238.16344,0.00261
1236.10327,0.00258
1234.04310,0.00255
1231.98293,0.00247
1229.92275,0.00233
1227.86258,0.00216
1225.80241,0.00202
1223.74224,0.00197
1221.68207,0.00195
1219.62189,0.00192
1217.56172,0.00184
1215.50155,0.00168
1213.44138,0.00150
1211.38120,0.00132
1209.32103,0.00116
1207.26086,0.00100
1205.20069,0.00086
1203.14052,0.00077
1201.08034,0.00077
1199.02017,0.00078
1196.96000,0.00073
1194.89983,0.00054
1192.83966,0.00026
1190.77948,0.00006
1188.71931,0.00000
1186.65914,-0.00002
1184.59897,0.00000
1182.53880,0.00011
1180.47862,0.00028
1178.41845,0.00045
1176.35828,0.00060
1174.29811,0.00072
1172.23793,0.00087
1170.17776,0.00101
1168.11759,0.00115
1166.05742,0.00127
1163.99725,0.00140
1161.93707,0.00163
1159.87690,0.00203
1157.81673,0.00239
1155.75656,0.00248
1153.69639,0.00245
1151.63621,0.00255
1149.57604,0.00278
1147.51587,0.00310
1145.45570,0.00345
1143.39552,0.00363
1141.33535,0.00356
1139.27518,0.00341
1137.21501,0.00340
1135.15484,0.00356
1133.09466,0.00383
1131.03449,0.00415
1128.97432,0.00448
1126.91415,0.00479
1124.85398,0.00509
1122.79380,0.00537
1120.73363,0.00560
1118.67346,0.00581
1116.61329,0.00602
1114.55312,0.00629
1112.49294,0.00665
1110.43277,0.00700
1108.37260,0.00729
1106.31243,0.00752
1104.25225,0.00772
1102.19208,0.00795
1100.13191,0.00834
1098.07174,0.00890
1096.01157,0.00940
1093.95139,0.00973
1091.89122,0.01001
1089.83105,0.01036
1087.77088,0.01080
1085.71071,0.01135
1083.65053,0.01188
1081.59036,0.01223
1079.53019,0.01249
1077.47002,0.01290
1075.40985,0.01344
1073.34967,0.01385
1071.28950,0.01405
1069.22933,0.01413
1067.16916,0.01416
1065.10898,0.01423
1063.04881,0.01440
1060.98864,0.01458
1058.92847,0.01465
1056.86830,0.01468
1054.80812,0.01480
1052.74795,0.01503
1050.68778,0.01525
1048.62761,0.01548
1046.56744,0.01584
1044.50726,0.01633
1042.44709,0.01671
1040.38692,0.01673
1038.32675,0.01645
1036.26657,0.01617
1034.20640,0.01606
1032.14623,0.01602
1030.08606,0.01595
1028.02589,0.01589
1025.96571,0.01577
1023.90554,0.01555
1021.84537,0.01537
1019.78520,0.01529
1017.72503,0.01515
1015.66485,0.01482
1013.60468,0.01439
1011.54451,0.01399
1009.48434,0.01373
1007.42417,0.01362
1005.36399,0.01346
1003.30382,0.01306
1001.24365,0.01249
999.18348,0.01198
997.12330,0.01166
995.06313,0.01141
993.00296,0.01113
990.94279,0.01090
988.88262,0.01074
986.82244,0.01053
984.76227,0.01027
982.70210,0.01005
980.64193,0.00986
978.58176,0.00968
976.52158,0.00948
974.46141,0.00915
972.40124,0.00879
970.34107,0.00868
968.28089,0.00872
966.22072,0.00858
964.16055,0.00815
962.10038,0.00766
960.04021,0.00738
957.98003,0.00734
955.91986,0.00729
953.85969,0.00703
951.79952,0.00667
949.73935,0.00633
947.67917,0.00600
945.61900,0.00569
943.55883,0.00535
941.49866,0.00493
939.43849,0.00445
937.37831,0.00397
935.31814,0.00352
933.25797,0.00319
931.19780,0.00307
929.13762,0.00317
927.07745,0.00338
925.01728,0.00344
922.95711,0.00319
920.89694,0.00280
918.83676,0.00258
916.77659,0.00264
914.71642,0.00270
912.65625,0.00251
910.59608,0.00220
908.53590,0.00210
906.47573,0.00225
904.41556,0.00232
902.35539,0.00220
900.29522,0.00201
898.23504,0.00192
896.17487,0.00206
894.11470,0.00237
892.05453,0.00269
889.99435,0.00285
887.93418,0.00268
885.87401,0.00232
883.81384,0.00205
881.75367,0.00206
879.69349,0.00226
877.63332,0.00247
875.57315,0.00265
873.51298,0.00276
871.45281,0.00269
869.39263,0.00250
867.33246,0.00242
865.27229,0.00242
863.21212,0.00240
861.15194,0.00233
859.09177,0.00233
857.03160,0.00247
854.97143,0.00274
852.91126,0.00289
850.85108,0.00271
848.79091,0.00242
846.73074,0.00225
844.67057,0.00210
842.61040,0.00191
840.55022,0.00171
838.49005,0.00140
836.42988,0.00096
834.36971,0.00057
832.30954,0.00036
830.24936,0.00025
828.18919,0.00014
826.12902,0.00000
824.06885,-0.00002
822.00867,0.00017
819.94850,0.00038
817.88833,0.00050
815.82816,0.00046
813.76799,0.00038
811.70781,0.00048
809.64764,0.00061
807.58747,0.00056
805.52730,0.00044
803.46713,0.00026
801.40695,0.00007
799.34678,0.00010
797.28661,0.00034
795.22644,0.00068
793.16627,0.00095
791.10609,0.00103
789.04592,0.00090
786.98575,0.00053
784.92558,0.00003
782.86540,-0.00033
780.80523,-0.00043
778.74506,-0.00032
776.68489,-0.00001
774.62472,0.00057
772.56454,0.00130
770.50437,0.00181
768.44420,0.00181
766.38403,0.00153
764.32386,0.00136
762.26368,0.00116
760.20351,0.00077
758.14334,0.00060
756.08317,0.00084
754.02299,0.00102
751.96282,0.00100
749.90265,0.00113
747.84248,0.00136
745.78231,0.00134
743.72213,0.00111
741.66196,0.00094
739.60179,0.00091
737.54162,0.00111
735.48145,0.00142
733.42127,0.00140
731.36110,0.00102
729.30093,0.00085
727.24076,0.00127
725.18059,0.00186
723.12041,0.00200
721.06024,0.00179
719.00007,0.00165
716.93990,0.00181
714.87972,0.00216
712.81955,0.00248
710.75938,0.00267
708.69921,0.00281
706.63904,0.00298
704.57886,0.00312
702.51869,0.00310
700.45852,0.00292
698.39835,0.00272
696.33818,0.00264
694.27800,0.00269
692.21783,0.00284
690.15766,0.00300
688.09749,0.00304
686.03731,0.00289
683.97714,0.00256
681.91697,0.00202
679.85680,0.00150
677.79663,0.00128
675.73645,0.00137
673.67628,0.00149
671.61611,0.00155
669.55594,0.00166
667.49577,0.00193
665.43559,0.00228
663.37542,0.00242
661.31525,0.00220
659.25508,0.00169
657.19491,0.00103
655.13473,0.00037
653.07456,0.00000
651.01439,0.00001
648.95422,0.00038
646.89404,0.00074
644.83387,0.00102
642.77370,0.00163
640.71353,0.00285
638.65336,0.00430
636.59318,0.00516
634.53301,0.00500
632.47284,0.00402
630.41267,0.00265
628.35250,0.00118
626.29232,-0.00012
624.23215,-0.00073
622.17198,0.00020
620.11181,0.00276
618.05164,0.00529
615.99146,0.00562
613.93129,0.00315
611.87112,-0.00009
609.81095,-0.00166
607.75077,-0.00106
605.69060,0.00031
603.63043,0.00059
601.57026,0.00002
599.51009,0.00000
