3996.73391,0.00036
3994.67373,0.00039
3992.61356,0.00036
3990.55339,0.00035
3988.49322,0.00031
3986.43305,0.00016
3984.37287,0.00000
3982.31270,0.00005
3980.25253,0.00027
3978.19236,0.00041
3976.13219,0.00040
3974.07201,0.00033
3972.01184,0.00029
3969.95167,0.00032
3967.89150,0.00050
3965.83133,0.00072
3963.77115,0.00075
3961.71098,0.00059
3959.65081,0.00041
3957.59064,0.00033
3955.53046,0.00026
3953.47029,0.00020
3951.41012,0.00024
3949.34995,0.00035
3947.28978,0.00051
3945.22960,0.00071
3943.16943,0.00075
3941.10926,0.00055
3939.04909,0.00036
3936.98892,0.00029
3934.92874,0.00022
3932.86857,0.00016
3930.80840,0.00022
3928.74823,0.00044
3926.68805,0.00076
3924.62788,0.00092
3922.56771,0.00078
3920.50754,0.00052
3918.44737,0.00036
3916.38719,0.00042
3914.32702,0.00051
3912.26685,0.00051
3910.20668,0.00053
3908.14651,0.00062
3906.08633,0.00067
3904.02616,0.00064
3901.96599,0.00065
3899.90582,0.00066
3897.84565,0.00072
3895.78547,0.00093
3893.72530,0.00104
3891.66513,0.00079
3889.60496,0.00046
3887.54478,0.00047
3885.48461,0.00066
3883.42444,0.00076
3881.36427,0.00070
3879.30410,0.00064
3877.24392,0.00075
3875.18375,0.00089
3873.12358,0.00085
3871.06341,0.00059
3869.00324,0.00021
3866.94306,0.00004
3864.88289,0.00014
3862.82272,0.00027
3860.76255,0.00045
3858.70237,0.00080
3856.64220,0.00122
3854.58203,0.00141
3852.52186,0.00112
3850.46169,0.00080
3848.40151,0.00078
3846.34134,0.00082
3844.28117,0.00075
3842.22100,0.00058
3840.16083,0.00044
3838.10065,0.00050
3836.04048,0.00075
3833.98031,0.00100
3831.92014,0.00122
3829.85997,0.00142
3827.79979,0.00145
3825.73962,0.00128
3823.67945,0.00107
3821.61928,0.00074
3819.55910,0.00044
3817.49893,0.00056
3815.43876,0.00092
3813.37859,0.00116
3811.31842,0.00126
3809.25824,0.00123
3807.19807,0.00099
3805.13790,0.00071
3803.07773,0.00054
3801.01756,0.00032
3798.95738,0.00026
3796.89721,0.00047
3794.83704,0.00073
3792.77687,0.00093
3790.71670,0.00102
3788.65652,0.00094
3786.59635,0.00080
3784.53618,0.00078
3782.47601,0.00097
3780.41583,0.00110
3778.35566,0.00103
3776.29549,0.00106
3774.23532,0.00126
3772.17515,0.00129
3770.11497,0.00099
3768.05480,0.00064
3765.99463,0.00052
3763.93446,0.00066
3761.87429,0.00088
3759.81411,0.00098
3757.75394,0.00101
3755.69377,0.00110
3753.63360,0.00110
3751.57342,0.00083
3749.51325,0.00044
3747.45308,0.00032
3745.39291,0.00036
3743.33274,0.00038
3741.27256,0.00055
3739.21239,0.00071
3737.15222,0.00053
3735.09205,0.00011
3733.03188,0.00013
3730.97170,0.00058
3728.91153,0.00089
3726.85136,0.00082
3724.79119,0.00059
3722.73102,0.00058
3720.67084,0.00083
3718.61067,0.00110
3716.55050,0.00117
3714.49033,0.00102
3712.43015,0.00075
3710.36998,0.00064
3708.30981,0.00101
3706.24964,0.00142
3704.18947,0.00156
3702.12929,0.00165
3700.06912,0.00178
3698.00895,0.00176
3695.94878,0.00165
3693.88861,0.00154
3691.82843,0.00111
3689.76826,0.00045
3687.70809,0.00025
3685.64792,0.00060
3683.58775,0.00103
3681.52757,0.00132
3679.46740,0.00146
3677.40723,0.00142
3675.34706,0.00120
3673.28688,0.00123
3671.22671,0.00149
3669.16654,0.00154
3667.10637,0.00154
3665.04620,0.00176
3662.98602,0.00205
3660.92585,0.00231
3658.86568,0.00242
3656.80551,0.00222
3654.74534,0.00192
3652.68516,0.00186
3650.62499,0.00191
3648.56482,0.00199
3646.50465,0.00223
3644.44447,0.00264
3642.38430,0.00307
3640.32413,0.00335
3638.26396,0.00346
3636.20379,0.00343
3634.14361,0.00335
3632.08344,0.00332
3630.02327,0.00333
3627.96310,0.00351
3625.90293,0.00399
3623.84275,0.00443
3621.78258,0.00453
3619.72241,0.00430
3617.66224,0.00419
3615.60207,0.00445
3613.54189,0.00480
3611.48172,0.00502
3609.42155,0.00511
3607.36138,0.00523
3605.30120,0.00553
3603.24103,0.00578
3601.18086,0.00592
3599.12069,0.00614
3597.06052,0.00649
3595.00034,0.00684
3592.94017,0.00712
3590.88000,0.00723
3588.81983,0.00727
3586.75966,0.00743
3584.69948,0.00765
3582.63931,0.00792
3580.57914,0.00827
3578.51897,0.00854
3576.45879,0.00859
3574.39862,0.00861
3572.33845,0.00872
3570.27828,0.00877
3568.21811,0.00875
3566.15793,0.00883
3564.09776,0.00908
3562.03759,0.00940
3559.97742,0.00976
3557.91725,0.01007
3555.85707,0.01034
3553.79690,0.01073
3551.73673,0.01123
3549.67656,0.01158
3547.61639,0.01159
3545.55621,0.01140
3543.49604,0.01132
3541.43587,0.01150
3539.37570,0.01180
3537.31552,0.01199
3535.25535,0.01213
3533.19518,0.01240
3531.13501,0.01273
3529.07484,0.01295
3527.01466,0.01308
3524.95449,0.01314
3522.89432,0.01318
3520.83415,0.01341
3518.77398,0.01380
3516.71380,0.01414
3514.65363,0.01437
3512.59346,0.01459
3510.53329,0.01471
3508.47312,0.01467
3506.41294,0.01467
3504.35277,0.01491
3502.29260,0.01532
3500.23243,0.01566
3498.17225,0.01584
3496.11208,0.01594
3494.05191,0.01598
3491.99174,0.01612
3489.93157,0.01638
3487.87139,0.01664
3485.81122,0.01688
3483.75105,0.01707
3481.69088,0.01720
3479.63071,0.01741
3477.57053,0.01770
3475.51036,0.01792
3473.45019,0.01804
3471.39002,0.01815
3469.32984,0.01824
3467.26967,0.01831
3465.20950,0.01851
3463.14933,0.01888
3461.08916,0.01909
3459.02898,0.01908
3456.96881,0.01916
3454.90864,0.01943
3452.84847,0.01982
3450.78830,0.02015
3448.72812,0.02028
3446.66795,0.02036
3444.60778,0.02045
3442.54761,0.02047
3440.48744,0.02058
3438.42726,0.02082
3436.36709,0.02104
3434.30692,0.02117
3432.24675,0.02125
3430.18657,0.02134
3428.12640,0.02139
3426.06623,0.02146
3424.00606,0.02173
3421.94589,0.02211
3419.88571,0.02235
3417.82554,0.02237
3415.76537,0.02236
3413.70520,0.02250
3411.64503,0.02276
3409.58485,0.02309
3407.52468,0.02340
3405.46451,0.02346
3403.40434,0.02338
3401.34416,0.02346
3399.28399,0.02360
3397.22382,0.02379
3395.16365,0.02399
3393.10348,0.02406
3391.04330,0.02401
3388.98313,0.02396
3386.92296,0.02394
3384.86279,0.02409
3382.80262,0.02430
3380.74244,0.02433
3378.68227,0.02433
3376.62210,0.02457
3374.56193,0.02495
3372.50176,0.02513
3370.44158,0.02499
3368.38141,0.02482
3366.32124,0.02496
3364.26107,0.02520
3362.20089,0.02532
3360.14072,0.02538
3358.08055,0.02536
3356.02038,0.02533
3353.96021,0.02542
3351.90003,0.02555
3349.83986,0.02562
3347.77969,0.02560
3345.71952,0.02549
3343.65935,0.02545
3341.59917,0.02564
3339.53900,0.02594
3337.47883,0.02605
3335.41866,0.02605
3333.35849,0.02622
3331.29831,0.02644
3329.23814,0.02643
3327.17797,0.02623
3325.11780,0.02604
3323.05762,0.02602
3320.99745,0.02625
3318.93728,0.02658
3316.87711,0.02672
3314.81694,0.02672
3312.75676,0.02673
3310.69659,0.02666
3308.63642,0.02646
3306.57625,0.02625
3304.51608,0.02620
3302.45590,0.02643
3300.39573,0.02667
3298.33556,0.02665
3296.27539,0.02656
3294.21521,0.02650
3292.15504,0.02653
3290.09487,0.02672
3288.03470,0.02671
3285.97453,0.02643
3283.91435,0.02633
3281.85418,0.02648
3279.79401,0.02652
3277.73384,0.02635
3275.67367,0.02624
3273.61349,0.02639
3271.55332,0.02667
3269.49315,0.02686
3267.43298,0.02683
3265.37281,0.02653
3263.31263,0.02620
3261.25246,0.02616
3259.19229,0.02631
3257.13212,0.02645
3255.07194,0.02659
3253.01177,0.02663
3250.95160,0.02650
3248.89143,0.02636
3246.83126,0.02632
3244.77108,0.02634
3242.71091,0.02632
3240.65074,0.02626
3238.59057,0.02615
3236.53040,0.02595
3234.47022,0.02583
3232.41005,0.02576
3230.34988,0.02562
3228.28971,0.02558
3226.22954,0.02570
3224.16936,0.02569
3222.10919,0.02554
3220.04902,0.02536
3217.98885,0.02516
3215.92867,0.02498
3213.86850,0.02488
3211.80833,0.02471
3209.74816,0.02442
3207.68799,0.02424
3205.62781,0.02426
3203.56764,0.02431
3201.50747,0.02431
3199.44730,0.02414
3197.38713,0.02391
3195.32695,0.02380
3193.26678,0.02364
3191.20661,0.02333
3189.14644,0.02312
3187.08626,0.02305
3185.02609,0.02298
3182.96592,0.02294
3180.90575,0.02286
3178.84558,0.02267
3176.78540,0.02238
3174.72523,0.02209
3172.66506,0.02191
3170.60489,0.02184
3168.54472,0.02181
3166.48454,0.02178
3164.42437,0.02163
3162.36420,0.02135
3160.30403,0.02118
3158.24386,0.02111
3156.18368,0.02100
3154.12351,0.02081
3152.06334,0.02042
3150.00317,0.01994
3147.94299,0.01971
3145.88282,0.01974
3143.82265,0.01982
3141.76248,0.01986
3139.70231,0.01974
3137.64213,0.01945
3135.58196,0.01909
3133.52179,0.01875
3131.46162,0.01850
3129.40145,0.01844
3127.34127,0.01841
3125.28110,0.01825
3123.22093,0.01797
3121.16076,0.01772
3119.10058,0.01759
3117.04041,0.01747
3114.98024,0.01726
3112.92007,0.01704
3110.85990,0.01694
3108.79972,0.01693
3106.73955,0.01677
3104.67938,0.01644
3102.61921,0.01617
3100.55904,0.01596
3098.49886,0.01573
3096.43869,0.01550
3094.37852,0.01540
3092.31835,0.01544
3090.25818,0.01547
3088.19800,0.01541
3086.13783,0.01521
3084.07766,0.01486
3082.01749,0.01455
3079.95731,0.01437
3077.89714,0.01429
3075.83697,0.01419
3073.77680,0.01404
3071.71663,0.01388
3069.65645,0.01362
3067.59628,0.01338
3065.53611,0.01336
3063.47594,0.01334
3061.41577,0.01312
3059.35559,0.01291
3057.29542,0.01284
3055.23525,0.01273
3053.17508,0.01252
3051.11491,0.01239
3049.05473,0.01231
3046.99456,0.01211
3044.93439,0.01190
3042.87422,0.01179
3040.81404,0.01168
3038.75387,0.01156
3036.69370,0.01148
3034.63353,0.01134
3032.57336,0.01110
3030.51318,0.01093
3028.45301,0.01091
3026.39284,0.01094
3024.33267,0.01096
3022.27250,0.01086
3020.21232,0.01062
3018.15215,0.01047
3016.09198,0.01048
3014.03181,0.01043
3011.97163,0.01028
3009.91146,0.01019
3007.85129,0.01019
3005.79112,0.01016
3003.73095,0.01001
3001.67077,0.00983
2999.61060,0.00978
2997.55043,0.00988
2995.49026,0.01008
2993.43009,0.01020
2991.36991,0.01017
2989.30974,0.01011
2987.24957,0.01018
2985.18940,0.01036
2983.12923,0.01054
2981.06905,0.01054
2979.00888,0.01041
2976.94871,0.01042
2974.88854,0.01058
2972.82836,0.01079
2970.76819,0.01097
2968.70802,0.01107
2966.64785,0.01112
2964.58768,0.01122
2962.52750,0.01145
2960.46733,0.01180
2958.40716,0.01207
2956.34699,0.01227
2954.28682,0.01250
2952.22664,0.01272
2950.16647,0.01287
2948.10630,0.01296
2946.04613,0.01312
2943.98596,0.01335
2941.92578,0.01350
2939.86561,0.01360
2937.80544,0.01373
2935.74527,0.01389
2933.68509,0.01399
2931.62492,0.01396
2929.56475,0.01387
2927.50458,0.01382
2925.44441,0.01377
2923.38423,0.01371
2921.32406,0.01366
2919.26389,0.01364
2917.20372,0.01359
2915.14355,0.01351
2913.08337,0.01336
2911.02320,0.01312
2908.96303,0.01288
2906.90286,0.01276
2904.84268,0.01277
2902.78251,0.01279
2900.72234,0.01270
2898.66217,0.01266
2896.60200,0.01262
2894.54182,0.01251
2892.48165,0.01239
2890.42148,0.01232
2888.36131,0.01231
2886.30114,0.01231
2884.24096,0.01226
2882.18079,0.01218
2880.12062,0.01206
2878.06045,0.01192
2876.00028,0.01186
2873.94010,0.01183
2871.87993,0.01166
2869.81976,0.01131
2867.75959,0.01107
2865.69941,0.01103
2863.63924,0.01099
2861.57907,0.01084
2859.51890,0.01070
2857.45873,0.01062
2855.39855,0.01044
2853.33838,0.01016
2851.27821,0.00994
2849.21804,0.00983
2847.15787,0.00978
2845.09769,0.00968
2843.03752,0.00956
2840.97735,0.00950
2838.91718,0.00942
2836.85700,0.00928
2834.79683,0.00919
2832.73666,0.00908
2830.67649,0.00897
2828.61632,0.00897
2826.55614,0.00905
2824.49597,0.00905
2822.43580,0.00896
2820.37563,0.00887
2818.31546,0.00883
2816.25528,0.00872
2814.19511,0.00852
2812.13494,0.00842
2810.07477,0.00846
2808.01460,0.00848
2805.95442,0.00846
2803.89425,0.00848
2801.83408,0.00841
2799.77391,0.00822
2797.71373,0.00816
2795.65356,0.00823
2793.59339,0.00824
2791.53322,0.00821
2789.47305,0.00820
2787.41287,0.00809
2785.35270,0.00795
2783.29253,0.00792
2781.23236,0.00791
2779.17219,0.00781
2777.11201,0.00767
2775.05184,0.00762
2772.99167,0.00767
2770.93150,0.00769
2768.87133,0.00767
2766.81115,0.00759
2764.75098,0.00752
2762.69081,0.00745
2760.63064,0.00735
2758.57046,0.00735
2756.51029,0.00747
2754.45012,0.00750
2752.38995,0.00742
2750.32978,0.00739
2748.26960,0.00741
2746.20943,0.00729
2744.14926,0.00715
2742.08909,0.00718
2740.02892,0.00724
2737.96874,0.00721
2735.90857,0.00710
2733.84840,0.00700
2731.78823,0.00701
2729.72805,0.00709
2727.66788,0.00722
2725.60771,0.00737
2723.54754,0.00741
2721.48737,0.00732
2719.42719,0.00724
2717.36702,0.00714
2715.30685,0.00697
2713.24668,0.00685
2711.18651,0.00687
2709.12633,0.00689
2707.06616,0.00686
2705.00599,0.00686
2702.94582,0.00685
2700.88565,0.00672
2698.82547,0.00666
2696.76530,0.00676
2694.70513,0.00687
2692.64496,0.00685
2690.58478,0.00669
2688.52461,0.00663
2686.46444,0.00667
2684.40427,0.00667
2682.34410,0.00672
2680.28392,0.00675
2678.22375,0.00672
2676.16358,0.00670
2674.10341,0.00661
2672.04324,0.00645
2669.98306,0.00643
2667.92289,0.00649
2665.86272,0.00647
2663.80255,0.00649
2661.74238,0.00659
2659.68220,0.00667
2657.62203,0.00673
2655.56186,0.00673
2653.50169,0.00664
2651.44151,0.00653
2649.38134,0.00646
2647.32117,0.00641
2645.26100,0.00635
2643.20083,0.00637
2641.14065,0.00640
2639.08048,0.00634
2637.02031,0.00630
2634.96014,0.00626
2632.89997,0.00616
2630.83979,0.00618
2628.77962,0.00623
2626.71945,0.00608
2624.65928,0.00592
2622.59910,0.00589
2620.53893,0.00589
2618.47876,0.00587
2616.41859,0.00586
2614.35842,0.00583
2612.29824,0.00579
2610.23807,0.00573
2608.17790,0.00572
2606.11773,0.00573
2604.05756,0.00576
2601.99738,0.00588
2599.93721,0.00587
2597.87704,0.00560
2595.81687,0.00538
2593.75670,0.00546
2591.69652,0.00563
2589.63635,0.00548
2587.57618,0.00530
2585.51601,0.00532
2583.45583,0.00535
2581.39566,0.00530
2579.33549,0.00526
2577.27532,0.00533
2575.21515,0.00549
2573.15497,0.00550
2571.09480,0.00534
2569.03463,0.00530
2566.97446,0.00532
2564.91429,0.00515
2562.85411,0.00504
2560.79394,0.00511
2558.73377,0.00518
2556.67360,0.00523
2554.61342,0.00522
2552.55325,0.00511
2550.49308,0.00501
2548.43291,0.00495
2546.37274,0.00498
2544.31256,0.00506
2542.25239,0.00494
2540.19222,0.00470
2538.13205,0.00470
2536.07188,0.00494
2534.01170,0.00502
2531.95153,0.00494
2529.89136,0.00503
2527.83119,0.00518
2525.77102,0.00523
2523.71084,0.00520
2521.65067,0.00497
2519.59050,0.00472
2517.53033,0.00464
2515.47015,0.00462
2513.40998,0.00464
2511.34981,0.00464
2509.28964,0.00455
2507.22947,0.00449
2505.16929,0.00458
2503.10912,0.00475
2501.04895,0.00486
2498.98878,0.00485
2496.92861,0.00480
2494.86843,0.00483
2492.80826,0.00497
2490.74809,0.00502
2488.68792,0.00495
2486.62775,0.00496
2484.56757,0.00485
2482.50740,0.00464
2480.44723,0.00463
2478.38706,0.00473
2476.32688,0.00469
2474.26671,0.00442
2472.20654,0.00421
2470.14637,0.00426
2468.08620,0.00446
2466.02602,0.00465
2463.96585,0.00466
2461.90568,0.00449
2459.84551,0.00433
2457.78534,0.00450
2455.72516,0.00505
2453.66499,0.00545
2451.60482,0.00527
2449.54465,0.00486
2447.48447,0.00460
2445.42430,0.00452
2443.36413,0.00455
2441.30396,0.00450
2439.24379,0.00428
2437.18361,0.00412
2435.12344,0.00417
2433.06327,0.00437
2431.00310,0.00446
2428.94293,0.00430
2426.88275,0.00412
2424.82258,0.00417
2422.76241,0.00436
2420.70224,0.00444
2418.64207,0.00436
2416.58189,0.00419
2414.52172,0.00420
2412.46155,0.00436
2410.40138,0.00431
2408.34120,0.00417
2406.28103,0.00413
2404.22086,0.00409
2402.16069,0.00401
2400.10052,0.00406
2398.04034,0.00394
2395.98017,0.00396
2393.92000,0.00405
2391.85983,0.00421
2389.79966,0.00436
2387.73948,0.00443
2385.67931,0.00448
2383.61914,0.00459
2381.55897,0.00482
2379.49880,0.00514
2377.43862,0.00528
2375.37845,0.00525
2373.31828,0.00508
2371.25811,0.00498
2369.19793,0.00509
2367.13776,0.00488
2365.07759,0.00458
2363.01742,0.00489
2360.95725,0.00467
2358.89707,0.00477
2356.83690,0.00541
2354.77673,0.00596
2352.71656,0.00581
2350.65639,0.00502
2348.59621,0.00501
2346.53604,0.00675
2344.47587,0.00718
2342.41570,0.00693
2340.35552,0.00679
2338.29535,0.00649
2336.23518,0.00613
2334.17501,0.00578
2332.11484,0.00538
2330.05466,0.00501
2327.99449,0.00537
2325.93432,0.00603
2323.87415,0.00664
2321.81398,0.00648
2319.75380,0.00603
2317.69363,0.00551
2315.63346,0.00538
2313.57329,0.00533
2311.51312,0.00524
2309.45294,0.00525
2307.39277,0.00522
2305.33260,0.00508
2303.27243,0.00496
2301.21225,0.00516
2299.15208,0.00542
2297.09191,0.00538
2295.03174,0.00520
2292.97157,0.00511
2290.91139,0.00510
2288.85122,0.00516
2286.79105,0.00530
2284.73088,0.00535
2282.67071,0.00516
2280.61053,0.00485
2278.55036,0.00468
2276.49019,0.00472
2274.43002,0.00484
2272.36984,0.00496
2270.30967,0.00493
2268.24950,0.00467
2266.18933,0.00432
2264.12916,0.00413
2262.06898,0.00442
2260.00881,0.00505
2257.94864,0.00527
2255.88847,0.00498
2253.82830,0.00482
2251.76812,0.00483
2249.70795,0.00462
2247.64778,0.00448
2245.58761,0.00465
2243.52744,0.00498
2241.46726,0.00495
2239.40709,0.00450
2237.34692,0.00425
2235.28675,0.00427
2233.22657,0.00435
2231.16640,0.00461
2229.10623,0.00470
2227.04606,0.00424
2224.98589,0.00369
2222.92571,0.00365
2220.86554,0.00393
2218.80537,0.00394
2216.74520,0.00385
2214.68503,0.00393
2212.62485,0.00400
2210.56468,0.00418
2208.50451,0.00490
2206.44434,0.00551
2204.38417,0.00525
2202.32399,0.00478
2200.26382,0.00464
2198.20365,0.00434
2196.14348,0.00375
2194.08330,0.00327
2192.02313,0.00294
2189.96296,0.00285
2187.90279,0.00322
2185.84262,0.00355
2183.78244,0.00351
2181.72227,0.00337
2179.66210,0.00325
2177.60193,0.00329
2175.54176,0.00361
2173.48158,0.00397
2171.42141,0.00457
2169.36124,0.00537
2167.30107,0.00522
2165.24089,0.00428
2163.18072,0.00369
2161.12055,0.00277
2159.06038,0.00115
2157.00021,0.00065
2154.94003,0.00152
2152.87986,0.00196
2150.81969,0.00177
2148.75952,0.00238
2146.69935,0.00358
2144.63917,0.00416
2142.57900,0.00395
2140.51883,0.00364
2138.45866,0.00363
2136.39849,0.00352
2134.33831,0.00340
2132.27814,0.00352
2130.21797,0.00377
2128.15780,0.00400
2126.09762,0.00395
2124.03745,0.00396
2121.97728,0.00419
2119.91711,0.00424
2117.85694,0.00433
2115.79676,0.00457
2113.73659,0.00459
2111.67642,0.00457
2109.61625,0.00473
2107.55608,0.00475
2105.49590,0.00459
2103.43573,0.00445
2101.37556,0.00426
2099.31539,0.00412
2097.25521,0.00426
2095.19504,0.00451
2093.13487,0.00443
2091.07470,0.00409
2089.01453,0.00392
2086.95435,0.00399
2084.89418,0.00398
2082.83401,0.00404
2080.77384,0.00438
2078.71367,0.00450
2076.65349,0.00422
2074.59332,0.00393
2072.53315,0.00383
2070.47298,0.00383
2068.41281,0.00377
2066.35263,0.00364
2064.29246,0.00363
2062.23229,0.00379
2060.17212,0.00390
2058.11194,0.00365
2056.05177,0.00320
2053.99160,0.00318
2051.93143,0.00343
2049.87126,0.00340
2047.81108,0.00296
2045.75091,0.00240
2043.69074,0.00239
2041.63057,0.00296
2039.57040,0.00342
2037.51022,0.00365
2035.45005,0.00386
2033.38988,0.00335
2031.32971,0.00242
2029.26954,0.00211
2027.20936,0.00227
2025.14919,0.00271
2023.08902,0.00301
2021.02885,0.00259
2018.96867,0.00200
2016.90850,0.00191
2014.84833,0.00191
2012.78816,0.00203
2010.72799,0.00263
2008.66781,0.00292
2006.60764,0.00233
2004.54747,0.00152
2002.48730,0.00130
2000.42713,0.00198
1998.36695,0.00295
1996.30678,0.00342
1994.24661,0.00358
1992.18644,0.00362
1990.12626,0.00339
1988.06609,0.00317
1986.00592,0.00345
1983.94575,0.00416
1981.88558,0.00464
1979.82540,0.00431
1977.76523,0.00341
1975.70506,0.00219
1973.64489,0.00112
1971.58472,0.00101
1969.52454,0.00156
1967.46437,0.00163
1965.40420,0.00110
1963.34403,0.00072
1961.28386,0.00082
1959.22368,0.00138
1957.16351,0.00209
1955.10334,0.00255
1953.04317,0.00288
1950.98299,0.00299
1948.92282,0.00260
1946.86265,0.00213
1944.80248,0.00230
1942.74231,0.00279
1940.68213,0.00275
1938.62196,0.00233
1936.56179,0.00195
1934.50162,0.00160
1932.44145,0.00146
1930.38127,0.00169
1928.32110,0.00205
1926.26093,0.00232
1924.20076,0.00251
1922.14059,0.00265
1920.08041,0.00263
1918.02024,0.00238
1915.96007,0.00226
1913.89990,0.00241
1911.83972,0.00255
1909.77955,0.00262
1907.71938,0.00271
1905.65921,0.00264
1903.59904,0.00243
1901.53886,0.00231
1899.47869,0.00227
1897.41852,0.00217
1895.35835,0.00208
1893.29818,0.00207
1891.23800,0.00204
1889.17783,0.00188
1887.11766,0.00180
1885.05749,0.00191
1882.99731,0.00198
1880.93714,0.00204
1878.87697,0.00225
1876.81680,0.00239
1874.75663,0.00226
1872.69645,0.00209
1870.63628,0.00206
1868.57611,0.00209
1866.51594,0.00218
1864.45577,0.00239
1862.39559,0.00259
1860.33542,0.00257
1858.27525,0.00241
1856.21508,0.00238
1854.15491,0.00241
1852.09473,0.00235
1850.03456,0.00222
1847.97439,0.00200
1845.91422,0.00168
1843.85404,0.00140
1841.79387,0.00136
1839.73370,0.00148
1837.67353,0.00160
1835.61336,0.00179
1833.55318,0.00208
1831.49301,0.00225
1829.43284,0.00211
1827.37267,0.00188
1825.31250,0.00186
1823.25232,0.00197
1821.19215,0.00197
1819.13198,0.00185
1817.07181,0.00176
1815.01163,0.00172
1812.95146,0.00168
1810.89129,0.00170
1808.83112,0.00182
1806.77095,0.00194
1804.71077,0.00205
1802.65060,0.00208
1800.59043,0.00194
1798.53026,0.00170
1796.47009,0.00156
1794.40991,0.00158
1792.34974,0.00166
1790.28957,0.00171
1788.22940,0.00173
1786.16923,0.00175
1784.10905,0.00175
1782.04888,0.00170
1779.98871,0.00161
1777.92854,0.00151
1775.86836,0.00145
1773.80819,0.00143
1771.74802,0.00138
1769.68785,0.00139
1767.62768,0.00160
1765.56750,0.00195
1763.50733,0.00233
1761.44716,0.00268
1759.38699,0.00299
1757.32682,0.00322
1755.26664,0.00337
1753.20647,0.00356
1751.14630,0.00383
1749.08613,0.00416
1747.02596,0.00456
1744.96578,0.00502
1742.90561,0.00534
1740.84544,0.00547
1738.78527,0.00563
1736.72509,0.00583
1734.66492,0.00597
1732.60475,0.00611
1730.54458,0.00626
1728.48441,0.00629
1726.42423,0.00624
1724.36406,0.00617
1722.30389,0.00608
1720.24372,0.00586
1718.18355,0.00549
1716.12337,0.00517
1714.06320,0.00493
1712.00303,0.00463
1709.94286,0.00426
1707.88268,0.00394
1705.82251,0.00373
1703.76234,0.00362
1701.70217,0.00355
1699.64200,0.00341
1697.58182,0.00329
1695.52165,0.00338
1693.46148,0.00351
1691.40131,0.00352
1689.34114,0.00352
1687.28096,0.00366
1685.22079,0.00396
1683.16062,0.00442
1681.10045,0.00485
1679.04028,0.00512
1676.98010,0.00533
1674.91993,0.00557
1672.85976,0.00581
1670.79959,0.00608
1668.73941,0.00655
1666.67924,0.00715
1664.61907,0.00772
1662.55890,0.00820
1660.49873,0.00852
1658.43855,0.00866
1656.37838,0.00876
1654.31821,0.00904
1652.25804,0.00961
1650.19787,0.01004
1648.13769,0.01023
1646.07752,0.01044
1644.01735,0.01062
1641.95718,0.01068
1639.89701,0.01072
1637.83683,0.01087
1635.77666,0.01128
1633.71649,0.01173
1631.65632,0.01185
1629.59614,0.01177
1627.53597,0.01173
1625.47580,0.01181
1623.41563,0.01204
1621.35546,0.01237
1619.29528,0.01260
1617.23511,0.01272
1615.17494,0.01276
1613.11477,0.01261
1611.05460,0.01229
1608.99442,0.01191
1606.93425,0.01157
1604.87408,0.01126
1602.81391,0.01094
1600.75373,0.01053
1598.69356,0.01000
1596.63339,0.00941
1594.57322,0.00886
1592.51305,0.00834
1590.45287,0.00778
1588.39270,0.00722
1586.33253,0.00667
1584.27236,0.00615
1582.21219,0.00569
1580.15201,0.00530
1578.09184,0.00492
1576.03167,0.00454
1573.97150,0.00419
1571.91133,0.00389
1569.85115,0.00358
1567.79098,0.00334
1565.73081,0.00318
1563.67064,0.00304
1561.61046,0.00288
1559.55029,0.00267
1557.49012,0.00249
1555.42995,0.00243
1553.36978,0.00238
1551.30960,0.00231
1549.24943,0.00229
1547.18926,0.00218
1545.12909,0.00189
1543.06892,0.00157
1541.00874,0.00153
1538.94857,0.00171
1536.88840,0.00174
1534.82823,0.00165
1532.76805,0.00163
1530.70788,0.00165
1528.64771,0.00153
1526.58754,0.00123
1524.52737,0.00094
1522.46719,0.00088
1520.40702,0.00104
1518.34685,0.00126
1516.28668,0.00144
1514.22651,0.00150
1512.16633,0.00141
1510.10616,0.00124
1508.04599,0.00115
1505.98582,0.00140
1503.92565,0.00175
1501.86547,0.00193
1499.80530,0.00194
1497.74513,0.00183
1495.68496,0.00178
1493.62478,0.00181
1491.56461,0.00176
1489.50444,0.00177
1487.44427,0.00201
1485.38410,0.00230
1483.32392,0.00256
1481.26375,0.00286
1479.20358,0.00317
1477.14341,0.00339
1475.08324,0.00359
1473.02306,0.00399
1470.96289,0.00456
1468.90272,0.00500
1466.84255,0.00529
1464.78238,0.00559
1462.72220,0.00587
1460.66203,0.00598
1458.60186,0.00599
1456.54169,0.00617
1454.48151,0.00652
1452.42134,0.00677
1450.36117,0.00693
1448.30100,0.00713
1446.24083,0.00747
1444.18065,0.00780
1442.12048,0.00800
1440.06031,0.00816
1438.00014,0.00838
1435.93997,0.00869
1433.87979,0.00889
1431.81962,0.00897
1429.75945,0.00920
1427.69928,0.00958
1425.63910,0.00988
1423.57893,0.01004
1421.51876,0.01019
1419.45859,0.01045
1417.39842,0.01075
1415.33824,0.01089
1413.27807,0.01084
1411.21790,0.01070
1409.15773,0.01053
1407.09756,0.01039
1405.03738,0.01032
1402.97721,0.01018
1400.91704,0.00989
1398.85687,0.00951
1396.79670,0.00919
1394.73652,0.00901
1392.67635,0.00896
1390.61618,0.00895
1388.55601,0.00902
1386.49583,0.00919
1384.43566,0.00938
1382.37549,0.00960
1380.31532,0.00986
1378.25515,0.01007
1376.19497,0.01016
1374.13480,0.01022
1372.07463,0.01028
1370.01446,0.01026
1367.95429,0.01017
1365.89411,0.01003
1363.83394,0.00985
1361.77377,0.00972
1359.71360,0.00969
1357.65343,0.00967
1355.59325,0.00954
1353.53308,0.00930
1351.47291,0.00909
1349.41274,0.00906
1347.35256,0.00912
1345.29239,0.00904
1343.23222,0.00878
1341.17205,0.00851
1339.11188,0.00842
1337.05170,0.00852
1334.99153,0.00862
1332.93136,0.00862
1330.87119,0.00862
1328.81102,0.00867
1326.75084,0.00871
1324.69067,0.00866
1322.63050,0.00860
1320.57033,0.00861
1318.51015,0.00868
1316.44998,0.00873
1314.38981,0.00876
1312.32964,0.00878
1310.26947,0.00873
1308.20929,0.00867
1306.14912,0.00862
1304.08895,0.00852
1302.02878,0.00832
1299.96861,0.00811
1297.90843,0.00797
1295.84826,0.00782
1293.78809,0.00766
1291.72792,0.00753
1289.66775,0.00741
1287.60757,0.00730
1285.54740,0.00721
1283.48723,0.00717
1281.42706,0.00717
1279.36688,0.00721
1277.30671,0.00734
1275.24654,0.00752
1273.18637,0.00775
1271.12620,0.00799
1269.06602,0.00824
1267.00585,0.00851
1264.94568,0.00881
1262.88551,0.00912
1260.82534,0.00941
1258.76516,0.00967
1256.70499,0.00993
1254.64482,0.01011
1252.58465,0.01020
1250.52447,0.01035
1248.46430,0.01053
1246.40413,0.01058
1244.34396,0.01043
1242.28379,0.01020
1240.22361,0.01003
1238.16344,0.00981
1236.10327,0.00952
1234.04310,0.00931
1231.98293,0.00912
1229.92275,0.00879
1227.86258,0.00840
1225.80241,0.00807
1223.74224,0.00780
1221.68207,0.00753
1219.62189,0.00718
1217.56172,0.00684
1215.50155,0.00656
1213.44138,0.00622
1211.38120,0.00569
1209.32103,0.00511
1207.26086,0.00462
1205.20069,0.00413
1203.14052,0.00357
1201.08034,0.00297
1199.02017,0.00235
1196.96000,0.00181
1194.89983,0.00148
1192.83966,0.00132
1190.77948,0.00118
1188.71931,0.00100
1186.65914,0.00092
1184.59897,0.00106
1182.53880,0.00130
1180.47862,0.00166
1178.41845,0.00210
1176.35828,0.00260
1174.29811,0.00319
1172.23793,0.00388
1170.17776,0.00461
1168.11759,0.00529
1166.05742,0.00594
1163.99725,0.00650
1161.93707,0.00696
1159.87690,0.00744
1157.81673,0.00794
1155.75656,0.00836
1153.69639,0.00882
1151.63621,0.00940
1149.57604,0.00990
1147.51587,0.01030
1145.45570,0.01054
1143.39552,0.01054
1141.33535,0.01050
1139.27518,0.01062
1137.21501,0.01090
1135.15484,0.01128
1133.09466,0.01171
1131.03449,0.01214
1128.97432,0.01254
1126.91415,0.01299
1124.85398,0.01360
1122.79380,0.01416
1120.73363,0.01458
1118.67346,0.01504
1116.61329,0.01552
1114.55312,0.01597
1112.49294,0.01645
1110.43277,0.01695
1108.37260,0.01740
1106.31243,0.01783
1104.25225,0.01830
1102.19208,0.01883
1100.13191,0.01953
1098.07174,0.02042
1096.01157,0.02125
1093.95139,0.02197
1091.89122,0.02268
1089.83105,0.02326
1087.77088,0.02370
1085.71071,0.02424
1083.65053,0.02499
1081.59036,0.02582
1079.53019,0.02661
1077.47002,0.02724
1075.40985,0.02778
1073.34967,0.02832
1071.28950,0.02872
1069.22933,0.02908
1067.16916,0.02961
1065.10898,0.03018
1063.04881,0.03054
1060.98864,0.03075
1058.92847,0.03100
1056.86830,0.03139
1054.80812,0.03182
1052.74795,0.03216
1050.68778,0.03243
1048.62761,0.03279
1046.56744,0.03327
1044.50726,0.03381
1042.44709,0.03442
1040.38692,0.03502
1038.32675,0.03544
1036.26657,0.03559
1034.20640,0.03565
1032.14623,0.03590
1030.08606,0.03612
1028.02589,0.03618
1025.96571,0.03625
1023.90554,0.03635
1021.84537,0.03635
1019.78520,0.03627
1017.72503,0.03623
1015.66485,0.03627
1013.60468,0.03632
1011.54451,0.03643
1009.48434,0.03645
1007.42417,0.03632
1005.36399,0.03615
1003.30382,0.03580
1001.24365,0.03536
999.18348,0.03507
997.12330,0.03477
995.06313,0.03427
993.00296,0.03372
990.94279,0.03329
988.88262,0.03294
986.82244,0.03249
984.76227,0.03204
982.70210,0.03186
980.64193,0.03189
978.58176,0.03181
976.52158,0.03148
974.46141,0.03103
972.40124,0.03059
970.34107,0.03015
968.28089,0.02972
966.22072,0.02951
964.16055,0.02936
962.10038,0.02893
960.04021,0.02837
957.98003,0.02796
955.91986,0.02757
953.85969,0.02711
951.79952,0.02675
949.73935,0.02645
947.67917,0.02588
945.61900,0.02507
943.55883,0.02419
941.49866,0.02310
939.43849,0.02186
937.37831,0.02060
935.31814,0.01917
933.25797,0.01764
931.19780,0.01632
929.13762,0.01524
927.07745,0.01424
925.01728,0.01339
922.95711,0.01264
920.89694,0.01188
918.83676,0.01121
916.77659,0.01057
914.71642,0.00976
912.65625,0.00908
910.59608,0.00885
908.53590,0.00873
906.47573,0.00844
904.41556,0.00812
902.35539,0.00794
900.29522,0.00791
898.23504,0.00791
896.17487,0.00784
894.11470,0.00770
892.05453,0.00764
889.99435,0.00762
887.93418,0.00737
885.87401,0.00683
883.81384,0.00640
881.75367,0.00606
879.69349,0.00546
877.63332,0.00489
875.57315,0.00485
873.51298,0.00503
871.45281,0.00495
869.39263,0.00458
867.33246,0.00421
865.27229,0.00401
863.21212,0.00395
861.15194,0.00397
859.09177,0.00394
857.03160,0.00368
854.97143,0.00334
852.91126,0.00328
850.85108,0.00347
848.79091,0.00337
846.73074,0.00300
844.67057,0.00292
842.61040,0.00288
840.55022,0.00247
838.49005,0.00196
836.42988,0.00161
834.36971,0.00148
832.30954,0.00135
830.24936,0.00113
828.18919,0.00120
826.12902,0.00164
824.06885,0.00198
822.00867,0.00196
819.94850,0.00195
817.88833,0.00211
815.82816,0.00221
813.76799,0.00235
811.70781,0.00273
809.64764,0.00307
807.58747,0.00304
805.52730,0.00275
803.46713,0.00240
801.40695,0.00221
799.34678,0.00205
797.28661,0.00178
795.22644,0.00170
793.16627,0.00179
791.10609,0.00175
789.04592,0.00158
786.98575,0.00147
784.92558,0.00149
782.86540,0.00156
780.80523,0.00161
778.74506,0.00162
776.68489,0.00155
774.62472,0.00132
772.56454,0.00121
770.50437,0.00140
768.44420,0.00147
766.38403,0.00137
764.32386,0.00132
762.26368,0.00121
760.20351,0.00123
758.14334,0.00137
756.08317,0.00163
754.02299,0.00199
751.96282,0.00178
749.90265,0.00116
747.84248,0.00110
745.78231,0.00134
743.72213,0.00122
741.66196,0.00105
739.60179,0.00081
737.54162,0.00045
735.48145,0.00059
733.42127,0.00129
731.36110,0.00192
729.30093,0.00207
727.24076,0.00182
725.18059,0.00153
723.12041,0.00128
721.06024,0.00115
719.00007,0.00120
716.93990,0.00159
714.87972,0.00218
712.81955,0.00283
710.75938,0.00327
708.69921,0.00320
706.63904,0.00290
704.57886,0.00306
702.51869,0.00363
700.45852,0.00371
698.39835,0.00333
696.33818,0.00338
694.27800,0.00391
692.21783,0.00420
690.15766,0.00378
688.09749,0.00300
686.03731,0.00246
683.97714,0.00244
681.91697,0.00282
679.85680,0.00314
677.79663,0.00293
675.73645,0.00242
673.67628,0.00193
671.61611,0.00119
669.55594,0.00221
667.49577,0.00453
665.43559,0.00257
663.37542,0.00322
661.31525,0.00378
659.25508,0.00340
657.19491,0.00266
655.13473,0.00230
653.07456,0.00274
651.01439,0.00325
648.95422,0.00310
646.89404,0.00264
644.83387,0.00271
642.77370,0.00315
640.71353,0.00347
638.65336,0.00373
636.59318,0.00399
634.53301,0.00367
632.47284,0.00271
630.41267,0.00209
628.35250,0.00211
626.29232,0.00176
624.23215,0.00140
622.17198,0.00248
620.11181,0.00420
618.05164,0.00441
615.99146,0.00307
613.93129,0.00269
611.87112,0.00322
609.81095,0.00257
607.75077,0.00106
605.69060,0.00029
603.63043,0.00009
601.57026,0.00000
599.51009,0.00000
