3996.73391	0.00119
3994.67373	0.00100
3992.61356	0.00082
3990.55339	0.00064
3988.49322	0.00053
3986.43305	0.00050
3984.37287	0.00050
3982.31270	0.00046
3980.25253	0.00033
3978.19236	0.00015
3976.13219	0.00000
3974.07201	0.00001
3972.01184	0.00020
3969.95167	0.00048
3967.89150	0.00069
3965.83133	0.00076
3963.77115	0.00071
3961.71098	0.00065
3959.65081	0.00063
3957.59064	0.00067
3955.53046	0.00079
3953.47029	0.00098
3951.41012	0.00119
3949.34995	0.00136
3947.28978	0.00147
3945.22960	0.00143
3943.16943	0.00123
3941.10926	0.00103
3939.04909	0.00098
3936.98892	0.00108
3934.92874	0.00119
3932.86857	0.00121
3930.80840	0.00110
3928.74823	0.00094
3926.68805	0.00079
3924.62788	0.00067
3922.56771	0.00058
3920.50754	0.00047
3918.44737	0.00034
3916.38719	0.00030
3914.32702	0.00039
3912.26685	0.00051
3910.20668	0.00060
3908.14651	0.00060
3906.08633	0.00050
3904.02616	0.00032
3901.96599	0.00017
3899.90582	0.00019
3897.84565	0.00042
3895.78547	0.00072
3893.72530	0.00094
3891.66513	0.00098
3889.60496	0.00084
3887.54478	0.00062
3885.48461	0.00047
3883.42444	0.00045
3881.36427	0.00050
3879.30410	0.00051
3877.24392	0.00039
3875.18375	0.00021
3873.12358	0.00016
3871.06341	0.00029
3869.00324	0.00051
3866.94306	0.00066
3864.88289	0.00070
3862.82272	0.00072
3860.76255	0.00074
3858.70237	0.00074
3856.64220	0.00075
3854.58203	0.00085
3852.52186	0.00114
3850.46169	0.00156
3848.40151	0.00202
3846.34134	0.00240
3844.28117	0.00259
3842.22100	0.00255
3840.16083	0.00236
3838.10065	0.00220
3836.04048	0.00212
3833.98031	0.00206
3831.92014	0.00192
3829.85997	0.00172
3827.79979	0.00153
3825.73962	0.00137
3823.67945	0.00118
3821.61928	0.00093
3819.55910	0.00077
3817.49893	0.00089
3815.43876	0.00125
3813.37859	0.00168
3811.31842	0.00195
3809.25824	0.00192
3807.19807	0.00165
3805.13790	0.00136
3803.07773	0.00120
3801.01756	0.00122
3798.95738	0.00130
3796.89721	0.00120
3794.83704	0.00093
3792.77687	0.00072
3790.71670	0.00076
3788.65652	0.00108
3786.59635	0.00151
3784.53618	0.00187
3782.47601	0.00207
3780.41583	0.00201
3778.35566	0.00176
3776.29549	0.00146
3774.23532	0.00122
3772.17515	0.00102
3770.11497	0.00089
3768.05480	0.00087
3765.99463	0.00101
3763.93446	0.00126
3761.87429	0.00150
3759.81411	0.00166
3757.75394	0.00183
3755.69377	0.00207
3753.63360	0.00214
3751.57342	0.00185
3749.51325	0.00138
3747.45308	0.00107
3745.39291	0.00097
3743.33274	0.00088
3741.27256	0.00072
3739.21239	0.00048
3737.15222	0.00029
3735.09205	0.00038
3733.03188	0.00089
3730.97170	0.00157
3728.91153	0.00207
3726.85136	0.00223
3724.79119	0.00211
3722.73102	0.00191
3720.67084	0.00176
3718.61067	0.00167
3716.55050	0.00152
3714.49033	0.00125
3712.43015	0.00098
3710.36998	0.00089
3708.30981	0.00101
3706.24964	0.00123
3704.18947	0.00147
3702.12929	0.00164
3700.06912	0.00168
3698.00895	0.00154
3695.94878	0.00134
3693.88861	0.00133
3691.82843	0.00164
3689.76826	0.00214
3687.70809	0.00253
3685.64792	0.00255
3683.58775	0.00220
3681.52757	0.00172
3679.46740	0.00137
3677.40723	0.00131
3675.34706	0.00144
3673.28688	0.00150
3671.22671	0.00133
3669.16654	0.00111
3667.10637	0.00122
3665.04620	0.00175
3662.98602	0.00237
3660.92585	0.00273
3658.86568	0.00275
3656.80551	0.00255
3654.74534	0.00220
3652.68516	0.00169
3650.62499	0.00120
3648.56482	0.00103
3646.50465	0.00134
3644.44447	0.00189
3642.38430	0.00236
3640.32413	0.00271
3638.26396	0.00309
3636.20379	0.00354
3634.14361	0.00387
3632.08344	0.00396
3630.02327	0.00385
3627.96310	0.00365
3625.90293	0.00343
3623.84275	0.00335
3621.78258	0.00354
3619.72241	0.00396
3617.66224	0.00442
3615.60207	0.00466
3613.54189	0.00458
3611.48172	0.00431
3609.42155	0.00410
3607.36138	0.00409
3605.30120	0.00427
3603.24103	0.00463
3601.18086	0.00517
3599.12069	0.00579
3597.06052	0.00627
3595.00034	0.00648
3592.94017	0.00644
3590.88000	0.00631
3588.81983	0.00629
3586.75966	0.00657
3584.69948	0.00717
3582.63931	0.00792
3580.57914	0.00855
3578.51897	0.00893
3576.45879	0.00911
3574.39862	0.00924
3572.33845	0.00937
3570.27828	0.00946
3568.21811	0.00953
3566.15793	0.00968
3564.09776	0.01002
3562.03759	0.01047
3559.97742	0.01089
3557.91725	0.01122
3555.85707	0.01151
3553.79690	0.01178
3551.73673	0.01200
3549.67656	0.01214
3547.61639	0.01222
3545.55621	0.01236
3543.49604	0.01261
3541.43587	0.01301
3539.37570	0.01348
3537.31552	0.01392
3535.25535	0.01434
3533.19518	0.01482
3531.13501	0.01536
3529.07484	0.01590
3527.01466	0.01639
3524.95449	0.01689
3522.89432	0.01744
3520.83415	0.01796
3518.77398	0.01837
3516.71380	0.01867
3514.65363	0.01888
3512.59346	0.01901
3510.53329	0.01916
3508.47312	0.01947
3506.41294	0.01999
3504.35277	0.02059
3502.29260	0.02107
3500.23243	0.02129
3498.17225	0.02131
3496.11208	0.02136
3494.05191	0.02163
3491.99174	0.02208
3489.93157	0.02253
3487.87139	0.02282
3485.81122	0.02297
3483.75105	0.02308
3481.69088	0.02319
3479.63071	0.02334
3477.57053	0.02356
3475.51036	0.02379
3473.45019	0.02392
3471.39002	0.02400
3469.32984	0.02428
3467.26967	0.02490
3465.20950	0.02575
3463.14933	0.02653
3461.08916	0.02706
3459.02898	0.02739
3456.96881	0.02761
3454.90864	0.02781
3452.84847	0.02802
3450.78830	0.02818
3448.72812	0.02828
3446.66795	0.02838
3444.60778	0.02857
3442.54761	0.02893
3440.48744	0.02941
3438.42726	0.02993
3436.36709	0.03046
3434.30692	0.03101
3432.24675	0.03162
3430.18657	0.03223
3428.12640	0.03273
3426.06623	0.03301
3424.00606	0.03314
3421.94589	0.03327
3419.88571	0.03342
3417.82554	0.03354
3415.76537	0.03365
3413.70520	0.03377
3411.64503	0.03387
3409.58485	0.03392
3407.52468	0.03402
3405.46451	0.03424
3403.40434	0.03455
3401.34416	0.03491
3399.28399	0.03531
3397.22382	0.03579
3395.16365	0.03632
3393.10348	0.03680
3391.04330	0.03715
3388.98313	0.03739
3386.92296	0.03750
3384.86279	0.03748
3382.80262	0.03736
3380.74244	0.03727
3378.68227	0.03734
3376.62210	0.03760
3374.56193	0.03794
3372.50176	0.03820
3370.44158	0.03827
3368.38141	0.03823
3366.32124	0.03826
3364.26107	0.03851
3362.20089	0.03891
3360.14072	0.03926
3358.08055	0.03937
3356.02038	0.03928
3353.96021	0.03919
3351.90003	0.03922
3349.83986	0.03936
3347.77969	0.03951
3345.71952	0.03965
3343.65935	0.03981
3341.59917	0.03999
3339.53900	0.04020
3337.47883	0.04044
3335.41866	0.04068
3333.35849	0.04085
3331.29831	0.04093
3329.23814	0.04095
3327.17797	0.04095
3325.11780	0.04090
3323.05762	0.04074
3320.99745	0.04049
3318.93728	0.04023
3316.87711	0.04013
3314.81694	0.04026
3312.75676	0.04053
3310.69659	0.04077
3308.63642	0.04086
3306.57625	0.04081
3304.51608	0.04070
3302.45590	0.04063
3300.39573	0.04064
3298.33556	0.04074
3296.27539	0.04094
3294.21521	0.04113
3292.15504	0.04122
3290.09487	0.04123
3288.03470	0.04128
3285.97453	0.04136
3283.91435	0.04133
3281.85418	0.04108
3279.79401	0.04072
3277.73384	0.04045
3275.67367	0.04037
3273.61349	0.04045
3271.55332	0.04061
3269.49315	0.04077
3267.43298	0.04086
3265.37281	0.04074
3263.31263	0.04038
3261.25246	0.03995
3259.19229	0.03972
3257.13212	0.03981
3255.07194	0.04012
3253.01177	0.04042
3250.95160	0.04050
3248.89143	0.04034
3246.83126	0.04005
3244.77108	0.03982
3242.71091	0.03974
3240.65074	0.03974
3238.59057	0.03968
3236.53040	0.03954
3234.47022	0.03938
3232.41005	0.03927
3230.34988	0.03927
3228.28971	0.03935
3226.22954	0.03947
3224.16936	0.03954
3222.10919	0.03947
3220.04902	0.03922
3217.98885	0.03887
3215.92867	0.03860
3213.86850	0.03853
3211.80833	0.03861
3209.74816	0.03868
3207.68799	0.03861
3205.62781	0.03839
3203.56764	0.03814
3201.50747	0.03795
3199.44730	0.03780
3197.38713	0.03762
3195.32695	0.03737
3193.26678	0.03713
3191.20661	0.03691
3189.14644	0.03668
3187.08626	0.03638
3185.02609	0.03607
3182.96592	0.03581
3180.90575	0.03565
3178.84558	0.03556
3176.78540	0.03550
3174.72523	0.03536
3172.66506	0.03510
3170.60489	0.03477
3168.54472	0.03454
3166.48454	0.03447
3164.42437	0.03452
3162.36420	0.03457
3160.30403	0.03449
3158.24386	0.03421
3156.18368	0.03378
3154.12351	0.03336
3152.06334	0.03306
3150.00317	0.03286
3147.94299	0.03268
3145.88282	0.03246
3143.82265	0.03217
3141.76248	0.03189
3139.70231	0.03165
3137.64213	0.03142
3135.58196	0.03114
3133.52179	0.03089
3131.46162	0.03079
3129.40145	0.03083
3127.34127	0.03085
3125.28110	0.03071
3123.22093	0.03037
3121.16076	0.02995
3119.10058	0.02953
3117.04041	0.02917
3114.98024	0.02886
3112.92007	0.02861
3110.85990	0.02843
3108.79972	0.02833
3106.73955	0.02831
3104.67938	0.02834
3102.61921	0.02833
3100.55904	0.02821
3098.49886	0.02805
3096.43869	0.02791
3094.37852	0.02777
3092.31835	0.02757
3090.25818	0.02723
3088.19800	0.02678
3086.13783	0.02638
3084.07766	0.02617
3082.01749	0.02612
3079.95731	0.02602
3077.89714	0.02581
3075.83697	0.02555
3073.77680	0.02531
3071.71663	0.02510
3069.65645	0.02494
3067.59628	0.02482
3065.53611	0.02462
3063.47594	0.02428
3061.41577	0.02388
3059.35559	0.02352
3057.29542	0.02322
3055.23525	0.02296
3053.17508	0.02277
3051.11491	0.02264
3049.05473	0.02250
3046.99456	0.02234
3044.93439	0.02226
3042.87422	0.02228
3040.81404	0.02228
3038.75387	0.02214
3036.69370	0.02186
3034.63353	0.02152
3032.57336	0.02121
3030.51318	0.02099
3028.45301	0.02083
3026.39284	0.02074
3024.33267	0.02071
3022.27250	0.02072
3020.21232	0.02074
3018.15215	0.02074
3016.09198	0.02072
3014.03181	0.02068
3011.97163	0.02060
3009.91146	0.02049
3007.85129	0.02034
3005.79112	0.02009
3003.73095	0.01976
3001.67077	0.01943
2999.61060	0.01926
2997.55043	0.01938
2995.49026	0.01963
2993.43009	0.01967
2991.36991	0.01946
2989.30974	0.01929
2987.24957	0.01929
2985.18940	0.01943
2983.12923	0.01963
2981.06905	0.01973
2979.00888	0.01987
2976.94871	0.02022
2974.88854	0.02069
2972.82836	0.02116
2970.76819	0.02167
2968.70802	0.02228
2966.64785	0.02303
2964.58768	0.02398
2962.52750	0.02534
2960.46733	0.02703
2958.40716	0.02858
2956.34699	0.02972
2954.28682	0.03070
2952.22664	0.03178
2950.16647	0.03305
2948.10630	0.03456
2946.04613	0.03629
2943.98596	0.03810
2941.92578	0.03987
2939.86561	0.04164
2937.80544	0.04342
2935.74527	0.04525
2933.68509	0.04716
2931.62492	0.04911
2929.56475	0.05090
2927.50458	0.05235
2925.44441	0.05336
2923.38423	0.05392
2921.32406	0.05413
2919.26389	0.05406
2917.20372	0.05347
2915.14355	0.05227
2913.08337	0.05055
2911.02320	0.04856
2908.96303	0.04670
2906.90286	0.04528
2904.84268	0.04419
2902.78251	0.04292
2900.72234	0.04133
2898.66217	0.03987
2896.60200	0.03884
2894.54182	0.03806
2892.48165	0.03751
2890.42148	0.03709
2888.36131	0.03642
2886.30114	0.03540
2884.24096	0.03449
2882.18079	0.03405
2880.12062	0.03380
2878.06045	0.03349
2876.00028	0.03329
2873.94010	0.03352
2871.87993	0.03412
2869.81976	0.03470
2867.75959	0.03506
2865.69941	0.03542
2863.63924	0.03618
2861.57907	0.03741
2859.51890	0.03885
2857.45873	0.04037
2855.39855	0.04193
2853.33838	0.04324
2851.27821	0.04367
2849.21804	0.04281
2847.15787	0.04077
2845.09769	0.03801
2843.03752	0.03521
2840.97735	0.03289
2838.91718	0.03122
2836.85700	0.02997
2834.79683	0.02881
2832.73666	0.02766
2830.67649	0.02681
2828.61632	0.02628
2826.55614	0.02579
2824.49597	0.02523
2822.43580	0.02467
2820.37563	0.02414
2818.31546	0.02366
2816.25528	0.02327
2814.19511	0.02286
2812.13494	0.02239
2810.07477	0.02199
2808.01460	0.02189
2805.95442	0.02199
2803.89425	0.02197
2801.83408	0.02172
2799.77391	0.02134
2797.71373	0.02090
2795.65356	0.02049
2793.59339	0.02026
2791.53322	0.02027
2789.47305	0.02045
2787.41287	0.02060
2785.35270	0.02049
2783.29253	0.02011
2781.23236	0.01970
2779.17219	0.01950
2777.11201	0.01958
2775.05184	0.01969
2772.99167	0.01964
2770.93150	0.01942
2768.87133	0.01912
2766.81115	0.01886
2764.75098	0.01884
2762.69081	0.01904
2760.63064	0.01914
2758.57046	0.01903
2756.51029	0.01890
2754.45012	0.01882
2752.38995	0.01882
2750.32978	0.01892
2748.26960	0.01892
2746.20943	0.01873
2744.14926	0.01854
2742.08909	0.01847
2740.02892	0.01842
2737.96874	0.01829
2735.90857	0.01813
2733.84840	0.01808
2731.78823	0.01812
2729.72805	0.01805
2727.66788	0.01789
2725.60771	0.01784
2723.54754	0.01790
2721.48737	0.01787
2719.42719	0.01773
2717.36702	0.01761
2715.30685	0.01766
2713.24668	0.01778
2711.18651	0.01775
2709.12633	0.01752
2707.06616	0.01727
2705.00599	0.01718
2702.94582	0.01735
2700.88565	0.01760
2698.82547	0.01756
2696.76530	0.01724
2694.70513	0.01701
2692.64496	0.01704
2690.58478	0.01712
2688.52461	0.01709
2686.46444	0.01703
2684.40427	0.01707
2682.34410	0.01709
2680.28392	0.01691
2678.22375	0.01661
2676.16358	0.01643
2674.10341	0.01654
2672.04324	0.01677
2669.98306	0.01680
2667.92289	0.01654
2665.86272	0.01628
2663.80255	0.01629
2661.74238	0.01647
2659.68220	0.01666
2657.62203	0.01670
2655.56186	0.01655
2653.50169	0.01633
2651.44151	0.01624
2649.38134	0.01628
2647.32117	0.01633
2645.26100	0.01626
2643.20083	0.01605
2641.14065	0.01571
2639.08048	0.01537
2637.02031	0.01518
2634.96014	0.01516
2632.89997	0.01525
2630.83979	0.01541
2628.77962	0.01551
2626.71945	0.01546
2624.65928	0.01532
2622.59910	0.01521
2620.53893	0.01519
2618.47876	0.01517
2616.41859	0.01506
2614.35842	0.01491
2612.29824	0.01480
2610.23807	0.01469
2608.17790	0.01459
2606.11773	0.01457
2604.05756	0.01458
2601.99738	0.01446
2599.93721	0.01420
2597.87704	0.01388
2595.81687	0.01361
2593.75670	0.01342
2591.69652	0.01337
2589.63635	0.01332
2587.57618	0.01314
2585.51601	0.01296
2583.45583	0.01292
2581.39566	0.01292
2579.33549	0.01294
2577.27532	0.01313
2575.21515	0.01344
2573.15497	0.01358
2571.09480	0.01326
2569.03463	0.01261
2566.97446	0.01206
2564.91429	0.01193
2562.85411	0.01215
2560.79394	0.01246
2558.73377	0.01290
2556.67360	0.01358
2554.61342	0.01395
2552.55325	0.01356
2550.49308	0.01283
2548.43291	0.01241
2546.37274	0.01242
2544.31256	0.01260
2542.25239	0.01273
2540.19222	0.01275
2538.13205	0.01264
2536.07188	0.01247
2534.01170	0.01242
2531.95153	0.01248
2529.89136	0.01259
2527.83119	0.01266
2525.77102	0.01251
2523.71084	0.01219
2521.65067	0.01200
2519.59050	0.01203
2517.53033	0.01210
2515.47015	0.01206
2513.40998	0.01201
2511.34981	0.01202
2509.28964	0.01198
2507.22947	0.01193
2505.16929	0.01185
2503.10912	0.01159
2501.04895	0.01127
2498.98878	0.01111
2496.92861	0.01117
2494.86843	0.01136
2492.80826	0.01152
2490.74809	0.01166
2488.68792	0.01181
2486.62775	0.01171
2484.56757	0.01119
2482.50740	0.01067
2480.44723	0.01062
2478.38706	0.01083
2476.32688	0.01094
2474.26671	0.01094
2472.20654	0.01093
2470.14637	0.01088
2468.08620	0.01085
2466.02602	0.01092
2463.96585	0.01078
2461.90568	0.01027
2459.84551	0.00994
2457.78534	0.01024
2455.72516	0.01075
2453.66499	0.01083
2451.60482	0.01036
2449.54465	0.00990
2447.48447	0.01011
2445.42430	0.01080
2443.36413	0.01111
2441.30396	0.01074
2439.24379	0.01022
2437.18361	0.00990
2435.12344	0.00974
2433.06327	0.00972
2431.00310	0.00972
2428.94293	0.00961
2426.88275	0.00961
2424.82258	0.00986
2422.76241	0.01005
2420.70224	0.01004
2418.64207	0.01003
2416.58189	0.01000
2414.52172	0.00991
2412.46155	0.00989
2410.40138	0.00997
2408.34120	0.01009
2406.28103	0.01019
2404.22086	0.01014
2402.16069	0.00989
2400.10052	0.00965
2398.04034	0.00965
2395.98017	0.00982
2393.92000	0.00994
2391.85983	0.00989
2389.79966	0.00971
2387.73948	0.00951
2385.67931	0.00929
2383.61914	0.00896
2381.55897	0.00858
2379.49880	0.00834
2377.43862	0.00832
2375.37845	0.00839
2373.31828	0.00844
2371.25811	0.00869
2369.19793	0.00938
2367.13776	0.01027
2365.07759	0.01076
2363.01742	0.01046
2360.95725	0.00960
2358.89707	0.00865
2356.83690	0.00804
2354.77673	0.00796
2352.71656	0.00833
2350.65639	0.00887
2348.59621	0.00928
2346.53604	0.00943
2344.47587	0.00936
2342.41570	0.00936
2340.35552	0.00958
2338.29535	0.00991
2336.23518	0.01012
2334.17501	0.01002
2332.11484	0.00968
2330.05466	0.00941
2327.99449	0.00947
2325.93432	0.00982
2323.87415	0.01022
2321.81398	0.01053
2319.75380	0.01072
2317.69363	0.01076
2315.63346	0.01061
2313.57329	0.01033
2311.51312	0.01008
2309.45294	0.00994
2307.39277	0.00989
2305.33260	0.00983
2303.27243	0.00971
2301.21225	0.00954
2299.15208	0.00942
2297.09191	0.00953
2295.03174	0.00986
2292.97157	0.01022
2290.91139	0.01038
2288.85122	0.01029
2286.79105	0.01007
2284.73088	0.00979
2282.67071	0.00944
2280.61053	0.00910
2278.55036	0.00893
2276.49019	0.00892
2274.43002	0.00883
2272.36984	0.00852
2270.30967	0.00814
2268.24950	0.00792
2266.18933	0.00787
2264.12916	0.00788
2262.06898	0.00788
2260.00881	0.00791
2257.94864	0.00798
2255.88847	0.00794
2253.82830	0.00769
2251.76812	0.00745
2249.70795	0.00764
2247.64778	0.00844
2245.58761	0.00931
2243.52744	0.00957
2241.46726	0.00917
2239.40709	0.00845
2237.34692	0.00757
2235.28675	0.00696
2233.22657	0.00711
2231.16640	0.00765
2229.10623	0.00797
2227.04606	0.00802
2224.98589	0.00792
2222.92571	0.00777
2220.86554	0.00757
2218.80537	0.00733
2216.74520	0.00745
2214.68503	0.00814
2212.62485	0.00876
2210.56468	0.00881
2208.50451	0.00867
2206.44434	0.00878
2204.38417	0.00904
2202.32399	0.00906
2200.26382	0.00837
2198.20365	0.00693
2196.14348	0.00558
2194.08330	0.00510
2192.02313	0.00539
2189.96296	0.00604
2187.90279	0.00684
2185.84262	0.00738
2183.78244	0.00712
2181.72227	0.00641
2179.66210	0.00600
2177.60193	0.00571
2175.54176	0.00538
2173.48158	0.00547
2171.42141	0.00591
2169.36124	0.00605
2167.30107	0.00596
2165.24089	0.00655
2163.18072	0.00796
2161.12055	0.00859
2159.06038	0.00743
2157.00021	0.00605
2154.94003	0.00603
2152.87986	0.00638
2150.81969	0.00584
2148.75952	0.00529
2146.69935	0.00588
2144.63917	0.00705
2142.57900	0.00762
2140.51883	0.00725
2138.45866	0.00644
2136.39849	0.00589
2134.33831	0.00580
2132.27814	0.00600
2130.21797	0.00665
2128.15780	0.00778
2126.09762	0.00864
2124.03745	0.00860
2121.97728	0.00809
2119.91711	0.00782
2117.85694	0.00784
2115.79676	0.00778
2113.73659	0.00745
2111.67642	0.00708
2109.61625	0.00701
2107.55608	0.00726
2105.49590	0.00762
2103.43573	0.00779
2101.37556	0.00761
2099.31539	0.00735
2097.25521	0.00705
2095.19504	0.00670
2093.13487	0.00632
2091.07470	0.00603
2089.01453	0.00597
2086.95435	0.00618
2084.89418	0.00648
2082.83401	0.00674
2080.77384	0.00702
2078.71367	0.00731
2076.65349	0.00741
2074.59332	0.00715
2072.53315	0.00664
2070.47298	0.00625
2068.41281	0.00627
2066.35263	0.00664
2064.29246	0.00704
2062.23229	0.00724
2060.17212	0.00725
2058.11194	0.00730
2056.05177	0.00762
2053.99160	0.00818
2051.93143	0.00882
2049.87126	0.00935
2047.81108	0.00962
2045.75091	0.00951
2043.69074	0.00896
2041.63057	0.00810
2039.57040	0.00717
2037.51022	0.00635
2035.45005	0.00573
2033.38988	0.00531
2031.32971	0.00504
2029.26954	0.00483
2027.20936	0.00448
2025.14919	0.00397
2023.08902	0.00352
2021.02885	0.00307
2018.96867	0.00258
2016.90850	0.00249
2014.84833	0.00318
2012.78816	0.00436
2010.72799	0.00547
2008.66781	0.00622
2006.60764	0.00655
2004.54747	0.00638
2002.48730	0.00579
2000.42713	0.00503
1998.36695	0.00435
1996.30678	0.00387
1994.24661	0.00360
1992.18644	0.00350
1990.12626	0.00356
1988.06609	0.00384
1986.00592	0.00433
1983.94575	0.00493
1981.88558	0.00544
1979.82540	0.00562
1977.76523	0.00536
1975.70506	0.00478
1973.64489	0.00407
1971.58472	0.00334
1969.52454	0.00273
1967.46437	0.00241
1965.40420	0.00254
1963.34403	0.00308
1961.28386	0.00371
1959.22368	0.00407
1957.16351	0.00414
1955.10334	0.00419
1953.04317	0.00442
1950.98299	0.00478
1948.92282	0.00516
1946.86265	0.00544
1944.80248	0.00558
1942.74231	0.00562
1940.68213	0.00564
1938.62196	0.00562
1936.56179	0.00551
1934.50162	0.00539
1932.44145	0.00537
1930.38127	0.00534
1928.32110	0.00511
1926.26093	0.00471
1924.20076	0.00439
1922.14059	0.00433
1920.08041	0.00447
1918.02024	0.00462
1915.96007	0.00469
1913.89990	0.00473
1911.83972	0.00482
1909.77955	0.00493
1907.71938	0.00495
1905.65921	0.00487
1903.59904	0.00476
1901.53886	0.00471
1899.47869	0.00471
1897.41852	0.00470
1895.35835	0.00468
1893.29818	0.00467
1891.23800	0.00465
1889.17783	0.00460
1887.11766	0.00456
1885.05749	0.00456
1882.99731	0.00462
1880.93714	0.00469
1878.87697	0.00474
1876.81680	0.00478
1874.75663	0.00482
1872.69645	0.00483
1870.63628	0.00484
1868.57611	0.00483
1866.51594	0.00472
1864.45577	0.00444
1862.39559	0.00407
1860.33542	0.00380
1858.27525	0.00378
1856.21508	0.00396
1854.15491	0.00416
1852.09473	0.00418
1850.03456	0.00406
1847.97439	0.00393
1845.91422	0.00388
1843.85404	0.00386
1841.79387	0.00386
1839.73370	0.00388
1837.67353	0.00389
1835.61336	0.00389
1833.55318	0.00382
1831.49301	0.00363
1829.43284	0.00342
1827.37267	0.00330
1825.31250	0.00328
1823.25232	0.00334
1821.19215	0.00338
1819.13198	0.00338
1817.07181	0.00340
1815.01163	0.00348
1812.95146	0.00360
1810.89129	0.00366
1808.83112	0.00364
1806.77095	0.00356
1804.71077	0.00342
1802.65060	0.00324
1800.59043	0.00308
1798.53026	0.00297
1796.47009	0.00287
1794.40991	0.00273
1792.34974	0.00262
1790.28957	0.00266
1788.22940	0.00283
1786.16923	0.00299
1784.10905	0.00305
1782.04888	0.00297
1779.98871	0.00283
1777.92854	0.00273
1775.86836	0.00268
1773.80819	0.00265
1771.74802	0.00266
1769.68785	0.00288
1767.62768	0.00326
1765.56750	0.00370
1763.50733	0.00415
1761.44716	0.00473
1759.38699	0.00563
1757.32682	0.00686
1755.26664	0.00829
1753.20647	0.00977
1751.14630	0.01123
1749.08613	0.01263
1747.02596	0.01384
1744.96578	0.01480
1742.90561	0.01545
1740.84544	0.01582
1738.78527	0.01591
1736.72509	0.01581
1734.66492	0.01558
1732.60475	0.01534
1730.54458	0.01525
1728.48441	0.01539
1726.42423	0.01573
1724.36406	0.01609
1722.30389	0.01630
1720.24372	0.01620
1718.18355	0.01590
1716.12337	0.01567
1714.06320	0.01574
1712.00303	0.01597
1709.94286	0.01615
1707.88268	0.01616
1705.82251	0.01603
1703.76234	0.01581
1701.70217	0.01554
1699.64200	0.01533
1697.58182	0.01541
1695.52165	0.01592
1693.46148	0.01678
1691.40131	0.01776
1689.34114	0.01872
1687.28096	0.01972
1685.22079	0.02098
1683.16062	0.02262
1681.10045	0.02444
1679.04028	0.02613
1676.98010	0.02750
1674.91993	0.02848
1672.85976	0.02899
1670.79959	0.02903
1668.73941	0.02873
1666.67924	0.02826
1664.61907	0.02778
1662.55890	0.02730
1660.49873	0.02685
1658.43855	0.02640
1656.37838	0.02587
1654.31821	0.02522
1652.25804	0.02463
1650.19787	0.02431
1648.13769	0.02427
1646.07752	0.02444
1644.01735	0.02475
1641.95718	0.02509
1639.89701	0.02538
1637.83683	0.02571
1635.77666	0.02624
1633.71649	0.02694
1631.65632	0.02762
1629.59614	0.02811
1627.53597	0.02841
1625.47580	0.02860
1623.41563	0.02875
1621.35546	0.02893
1619.29528	0.02918
1617.23511	0.02961
1615.17494	0.03027
1613.11477	0.03116
1611.05460	0.03215
1608.99442	0.03315
1606.93425	0.03401
1604.87408	0.03447
1602.81391	0.03433
1600.75373	0.03358
1598.69356	0.03242
1596.63339	0.03108
1594.57322	0.02978
1592.51305	0.02870
1590.45287	0.02787
1588.39270	0.02721
1586.33253	0.02662
1584.27236	0.02601
1582.21219	0.02532
1580.15201	0.02452
1578.09184	0.02369
1576.03167	0.02292
1573.97150	0.02227
1571.91133	0.02164
1569.85115	0.02096
1567.79098	0.02027
1565.73081	0.01958
1563.67064	0.01886
1561.61046	0.01799
1559.55029	0.01696
1557.49012	0.01595
1555.42995	0.01520
1553.36978	0.01467
1551.30960	0.01423
1549.24943	0.01375
1547.18926	0.01316
1545.12909	0.01234
1543.06892	0.01129
1541.00874	0.01020
1538.94857	0.00941
1536.88840	0.00903
1534.82823	0.00887
1532.76805	0.00874
1530.70788	0.00866
1528.64771	0.00863
1526.58754	0.00863
1524.52737	0.00877
1522.46719	0.00929
1520.40702	0.01030
1518.34685	0.01146
1516.28668	0.01230
1514.22651	0.01253
1512.16633	0.01206
1510.10616	0.01099
1508.04599	0.00959
1505.98582	0.00830
1503.92565	0.00742
1501.86547	0.00675
1499.80530	0.00604
1497.74513	0.00528
1495.68496	0.00463
1493.62478	0.00418
1491.56461	0.00386
1489.50444	0.00365
1487.44427	0.00359
1485.38410	0.00367
1483.32392	0.00385
1481.26375	0.00411
1479.20358	0.00449
1477.14341	0.00507
1475.08324	0.00604
1473.02306	0.00753
1470.96289	0.00940
1468.90272	0.01131
1466.84255	0.01302
1464.78238	0.01448
1462.72220	0.01563
1460.66203	0.01647
1458.60186	0.01714
1456.54169	0.01784
1454.48151	0.01865
1452.42134	0.01945
1450.36117	0.02021
1448.30100	0.02100
1446.24083	0.02184
1444.18065	0.02270
1442.12048	0.02353
1440.06031	0.02424
1438.00014	0.02484
1435.93997	0.02533
1433.87979	0.02568
1431.81962	0.02583
1429.75945	0.02588
1427.69928	0.02595
1425.63910	0.02605
1423.57893	0.02615
1421.51876	0.02623
1419.45859	0.02633
1417.39842	0.02640
1415.33824	0.02637
1413.27807	0.02617
1411.21790	0.02581
1409.15773	0.02536
1407.09756	0.02479
1405.03738	0.02412
1402.97721	0.02335
1400.91704	0.02251
1398.85687	0.02162
1396.79670	0.02081
1394.73652	0.02025
1392.67635	0.02001
1390.61618	0.02008
1388.55601	0.02041
1386.49583	0.02095
1384.43566	0.02157
1382.37549	0.02215
1380.31532	0.02264
1378.25515	0.02309
1376.19497	0.02351
1374.13480	0.02390
1372.07463	0.02418
1370.01446	0.02425
1367.95429	0.02408
1365.89411	0.02373
1363.83394	0.02328
1361.77377	0.02284
1359.71360	0.02254
1357.65343	0.02237
1355.59325	0.02228
1353.53308	0.02219
1351.47291	0.02206
1349.41274	0.02190
1347.35256	0.02178
1345.29239	0.02173
1343.23222	0.02174
1341.17205	0.02179
1339.11188	0.02182
1337.05170	0.02180
1334.99153	0.02175
1332.93136	0.02171
1330.87119	0.02171
1328.81102	0.02175
1326.75084	0.02182
1324.69067	0.02193
1322.63050	0.02207
1320.57033	0.02220
1318.51015	0.02222
1316.44998	0.02203
1314.38981	0.02165
1312.32964	0.02116
1310.26947	0.02069
1308.20929	0.02026
1306.14912	0.01984
1304.08895	0.01943
1302.02878	0.01904
1299.96861	0.01868
1297.90843	0.01841
1295.84826	0.01826
1293.78809	0.01827
1291.72792	0.01838
1289.66775	0.01855
1287.60757	0.01877
1285.54740	0.01899
1283.48723	0.01915
1281.42706	0.01928
1279.36688	0.01941
1277.30671	0.01957
1275.24654	0.01977
1273.18637	0.02003
1271.12620	0.02038
1269.06602	0.02083
1267.00585	0.02139
1264.94568	0.02199
1262.88551	0.02259
1260.82534	0.02315
1258.76516	0.02368
1256.70499	0.02419
1254.64482	0.02466
1252.58465	0.02509
1250.52447	0.02550
1248.46430	0.02587
1246.40413	0.02617
1244.34396	0.02636
1242.28379	0.02649
1240.22361	0.02658
1238.16344	0.02653
1236.10327	0.02625
1234.04310	0.02576
1231.98293	0.02518
1229.92275	0.02454
1227.86258	0.02377
1225.80241	0.02282
1223.74224	0.02168
1221.68207	0.02043
1219.62189	0.01920
1217.56172	0.01806
1215.50155	0.01702
1213.44138	0.01604
1211.38120	0.01506
1209.32103	0.01402
1207.26086	0.01291
1205.20069	0.01173
1203.14052	0.01047
1201.08034	0.00916
1199.02017	0.00783
1196.96000	0.00661
1194.89983	0.00558
1192.83966	0.00469
1190.77948	0.00395
1188.71931	0.00357
1186.65914	0.00344
1184.59897	0.00335
1182.53880	0.00329
1180.47862	0.00360
1178.41845	0.00442
1176.35828	0.00570
1174.29811	0.00729
1172.23793	0.00907
1170.17776	0.01094
1168.11759	0.01264
1166.05742	0.01381
1163.99725	0.01436
1161.93707	0.01460
1159.87690	0.01489
1157.81673	0.01535
1155.75656	0.01590
1153.69639	0.01647
1151.63621	0.01717
1149.57604	0.01814
1147.51587	0.01930
1145.45570	0.02038
1143.39552	0.02130
1141.33535	0.02215
1139.27518	0.02292
1137.21501	0.02355
1135.15484	0.02409
1133.09466	0.02460
1131.03449	0.02519
1128.97432	0.02592
1126.91415	0.02683
1124.85398	0.02800
1122.79380	0.02938
1120.73363	0.03070
1118.67346	0.03172
1116.61329	0.03258
1114.55312	0.03342
1112.49294	0.03426
1110.43277	0.03505
1108.37260	0.03584
1106.31243	0.03679
1104.25225	0.03786
1102.19208	0.03891
1100.13191	0.04009
1098.07174	0.04165
1096.01157	0.04359
1093.95139	0.04563
1091.89122	0.04746
1089.83105	0.04890
1087.77088	0.05015
1085.71071	0.05160
1083.65053	0.05325
1081.59036	0.05496
1079.53019	0.05664
1077.47002	0.05841
1075.40985	0.06036
1073.34967	0.06230
1071.28950	0.06396
1069.22933	0.06542
1067.16916	0.06679
1065.10898	0.06809
1063.04881	0.06936
1060.98864	0.07057
1058.92847	0.07178
1056.86830	0.07317
1054.80812	0.07475
1052.74795	0.07631
1050.68778	0.07794
1048.62761	0.07988
1046.56744	0.08211
1044.50726	0.08432
1042.44709	0.08626
1040.38692	0.08800
1038.32675	0.08957
1036.26657	0.09081
1034.20640	0.09173
1032.14623	0.09237
1030.08606	0.09259
1028.02589	0.09243
1025.96571	0.09209
1023.90554	0.09160
1021.84537	0.09104
1019.78520	0.09075
1017.72503	0.09086
1015.66485	0.09107
1013.60468	0.09099
1011.54451	0.09065
1009.48434	0.09041
1007.42417	0.09043
1005.36399	0.09053
1003.30382	0.09030
1001.24365	0.08955
999.18348	0.08848
997.12330	0.08723
995.06313	0.08577
993.00296	0.08441
990.94279	0.08332
988.88262	0.08223
986.82244	0.08102
984.76227	0.07974
982.70210	0.07835
980.64193	0.07690
978.58176	0.07554
976.52158	0.07425
974.46141	0.07301
972.40124	0.07163
970.34107	0.07005
968.28089	0.06856
966.22072	0.06734
964.16055	0.06617
962.10038	0.06477
960.04021	0.06322
957.98003	0.06162
955.91986	0.05992
953.85969	0.05830
951.79952	0.05712
949.73935	0.05621
947.67917	0.05514
945.61900	0.05383
943.55883	0.05237
941.49866	0.05056
939.43849	0.04812
937.37831	0.04509
935.31814	0.04184
933.25797	0.03875
931.19780	0.03598
929.13762	0.03355
927.07745	0.03147
925.01728	0.02975
922.95711	0.02817
920.89694	0.02651
918.83676	0.02485
916.77659	0.02341
914.71642	0.02217
912.65625	0.02107
910.59608	0.01996
908.53590	0.01881
906.47573	0.01792
904.41556	0.01748
902.35539	0.01714
900.29522	0.01669
898.23504	0.01642
896.17487	0.01655
894.11470	0.01682
892.05453	0.01687
889.99435	0.01677
887.93418	0.01656
885.87401	0.01580
883.81384	0.01461
881.75367	0.01352
879.69349	0.01267
877.63332	0.01195
875.57315	0.01130
873.51298	0.01061
871.45281	0.00995
869.39263	0.00951
867.33246	0.00923
865.27229	0.00905
863.21212	0.00888
861.15194	0.00856
859.09177	0.00814
857.03160	0.00781
854.97143	0.00773
852.91126	0.00791
850.85108	0.00810
848.79091	0.00818
846.73074	0.00827
844.67057	0.00836
842.61040	0.00832
840.55022	0.00807
838.49005	0.00763
836.42988	0.00713
834.36971	0.00681
832.30954	0.00672
830.24936	0.00663
828.18919	0.00643
826.12902	0.00610
824.06885	0.00565
822.00867	0.00524
819.94850	0.00499
817.88833	0.00477
815.82816	0.00454
813.76799	0.00431
811.70781	0.00412
809.64764	0.00395
807.58747	0.00383
805.52730	0.00378
803.46713	0.00381
801.40695	0.00401
799.34678	0.00439
797.28661	0.00455
795.22644	0.00417
793.16627	0.00362
791.10609	0.00339
789.04592	0.00351
786.98575	0.00375
784.92558	0.00381
782.86540	0.00369
780.80523	0.00373
778.74506	0.00402
776.68489	0.00417
774.62472	0.00409
772.56454	0.00409
770.50437	0.00427
768.44420	0.00453
766.38403	0.00491
764.32386	0.00531
762.26368	0.00537
760.20351	0.00485
758.14334	0.00404
756.08317	0.00360
754.02299	0.00368
751.96282	0.00387
749.90265	0.00343
747.84248	0.00289
745.78231	0.00251
743.72213	0.00207
741.66196	0.00149
739.60179	0.00110
737.54162	0.00107
735.48145	0.00129
733.42127	0.00158
731.36110	0.00172
729.30093	0.00165
727.24076	0.00159
725.18059	0.00187
723.12041	0.00251
721.06024	0.00326
719.00007	0.00379
716.93990	0.00388
714.87972	0.00363
712.81955	0.00346
710.75938	0.00381
708.69921	0.00476
706.63904	0.00591
704.57886	0.00670
702.51869	0.00685
700.45852	0.00647
698.39835	0.00586
696.33818	0.00536
694.27800	0.00518
692.21783	0.00515
690.15766	0.00496
688.09749	0.00459
686.03731	0.00433
683.97714	0.00429
681.91697	0.00421
679.85680	0.00376
677.79663	0.00300
675.73645	0.00220
673.67628	0.00151
671.61611	0.00109
669.55594	0.00118
667.49577	0.00202
665.43559	0.00329
663.37542	0.00423
661.31525	0.00434
659.25508	0.00372
657.19491	0.00291
655.13473	0.00242
653.07456	0.00251
651.01439	0.00312
648.95422	0.00384
646.89404	0.00419
644.83387	0.00396
642.77370	0.00313
640.71353	0.00211
638.65336	0.00154
636.59318	0.00169
634.53301	0.00236
632.47284	0.00319
630.41267	0.00374
628.35250	0.00356
626.29232	0.00241
624.23215	0.00111
622.17198	0.00132
620.11181	0.00411
618.05164	0.00707
615.99146	0.00685
613.93129	0.00398
611.87112	0.00173
609.81095	0.00140
607.75077	0.00190
605.69060	0.00165
603.63043	0.00044
601.57026	0.00000
599.51009	0.00000
