3996.73391	0.00130
3994.67373	0.00110
3992.61356	0.00092
3990.55339	0.00080
3988.49322	0.00077
3986.43305	0.00070
3984.37287	0.00050
3982.31270	0.00023
3980.25253	0.00004
3978.19236	0.00000
3976.13219	0.00005
3974.07201	0.00010
3972.01184	0.00012
3969.95167	0.00015
3967.89150	0.00021
3965.83133	0.00033
3963.77115	0.00056
3961.71098	0.00089
3959.65081	0.00125
3957.59064	0.00148
3955.53046	0.00148
3953.47029	0.00130
3951.41012	0.00117
3949.34995	0.00127
3947.28978	0.00146
3945.22960	0.00144
3943.16943	0.00113
3941.10926	0.00069
3939.04909	0.00037
3936.98892	0.00035
3934.92874	0.00055
3932.86857	0.00081
3930.80840	0.00107
3928.74823	0.00132
3926.68805	0.00156
3924.62788	0.00168
3922.56771	0.00163
3920.50754	0.00141
3918.44737	0.00114
3916.38719	0.00096
3914.32702	0.00093
3912.26685	0.00107
3910.20668	0.00131
3908.14651	0.00157
3906.08633	0.00174
3904.02616	0.00169
3901.96599	0.00140
3899.90582	0.00099
3897.84565	0.00070
3895.78547	0.00068
3893.72530	0.00093
3891.66513	0.00124
3889.60496	0.00137
3887.54478	0.00128
3885.48461	0.00110
3883.42444	0.00099
3881.36427	0.00104
3879.30410	0.00120
3877.24392	0.00129
3875.18375	0.00126
3873.12358	0.00119
3871.06341	0.00120
3869.00324	0.00124
3866.94306	0.00113
3864.88289	0.00084
3862.82272	0.00049
3860.76255	0.00028
3858.70237	0.00036
3856.64220	0.00078
3854.58203	0.00137
3852.52186	0.00177
3850.46169	0.00178
3848.40151	0.00159
3846.34134	0.00148
3844.28117	0.00158
3842.22100	0.00181
3840.16083	0.00210
3838.10065	0.00239
3836.04048	0.00263
3833.98031	0.00273
3831.92014	0.00257
3829.85997	0.00215
3827.79979	0.00160
3825.73962	0.00109
3823.67945	0.00065
3821.61928	0.00029
3819.55910	0.00017
3817.49893	0.00038
3815.43876	0.00082
3813.37859	0.00123
3811.31842	0.00140
3809.25824	0.00136
3807.19807	0.00125
3805.13790	0.00118
3803.07773	0.00113
3801.01756	0.00112
3798.95738	0.00113
3796.89721	0.00118
3794.83704	0.00127
3792.77687	0.00135
3790.71670	0.00140
3788.65652	0.00145
3786.59635	0.00157
3784.53618	0.00176
3782.47601	0.00192
3780.41583	0.00186
3778.35566	0.00158
3776.29549	0.00124
3774.23532	0.00100
3772.17515	0.00090
3770.11497	0.00089
3768.05480	0.00085
3765.99463	0.00069
3763.93446	0.00047
3761.87429	0.00033
3759.81411	0.00035
3757.75394	0.00056
3755.69377	0.00084
3753.63360	0.00103
3751.57342	0.00102
3749.51325	0.00084
3747.45308	0.00071
3745.39291	0.00072
3743.33274	0.00082
3741.27256	0.00093
3739.21239	0.00106
3737.15222	0.00117
3735.09205	0.00120
3733.03188	0.00125
3730.97170	0.00146
3728.91153	0.00179
3726.85136	0.00203
3724.79119	0.00209
3722.73102	0.00196
3720.67084	0.00168
3718.61067	0.00137
3716.55050	0.00116
3714.49033	0.00107
3712.43015	0.00103
3710.36998	0.00100
3708.30981	0.00102
3706.24964	0.00110
3704.18947	0.00123
3702.12929	0.00135
3700.06912	0.00137
3698.00895	0.00136
3695.94878	0.00141
3693.88861	0.00152
3691.82843	0.00165
3689.76826	0.00176
3687.70809	0.00180
3685.64792	0.00171
3683.58775	0.00147
3681.52757	0.00116
3679.46740	0.00084
3677.40723	0.00055
3675.34706	0.00044
3673.28688	0.00060
3671.22671	0.00089
3669.16654	0.00116
3667.10637	0.00148
3665.04620	0.00184
3662.98602	0.00211
3660.92585	0.00216
3658.86568	0.00202
3656.80551	0.00187
3654.74534	0.00179
3652.68516	0.00173
3650.62499	0.00162
3648.56482	0.00158
3646.50465	0.00176
3644.44447	0.00219
3642.38430	0.00275
3640.32413	0.00321
3638.26396	0.00338
3636.20379	0.00324
3634.14361	0.00303
3632.08344	0.00304
3630.02327	0.00336
3627.96310	0.00392
3625.90293	0.00461
3623.84275	0.00534
3621.78258	0.00594
3619.72241	0.00628
3617.66224	0.00641
3615.60207	0.00642
3613.54189	0.00635
3611.48172	0.00621
3609.42155	0.00609
3607.36138	0.00614
3605.30120	0.00641
3603.24103	0.00676
3601.18086	0.00712
3599.12069	0.00755
3597.06052	0.00801
3595.00034	0.00837
3592.94017	0.00852
3590.88000	0.00850
3588.81983	0.00852
3586.75966	0.00872
3584.69948	0.00916
3582.63931	0.00975
3580.57914	0.01035
3578.51897	0.01078
3576.45879	0.01103
3574.39862	0.01125
3572.33845	0.01161
3570.27828	0.01213
3568.21811	0.01279
3566.15793	0.01350
3564.09776	0.01411
3562.03759	0.01458
3559.97742	0.01498
3557.91725	0.01544
3555.85707	0.01599
3553.79690	0.01654
3551.73673	0.01698
3549.67656	0.01721
3547.61639	0.01725
3545.55621	0.01723
3543.49604	0.01734
3541.43587	0.01770
3539.37570	0.01830
3537.31552	0.01904
3535.25535	0.01983
3533.19518	0.02056
3531.13501	0.02119
3529.07484	0.02172
3527.01466	0.02217
3524.95449	0.02266
3522.89432	0.02323
3520.83415	0.02377
3518.77398	0.02420
3516.71380	0.02455
3514.65363	0.02489
3512.59346	0.02524
3510.53329	0.02564
3508.47312	0.02613
3506.41294	0.02675
3504.35277	0.02744
3502.29260	0.02805
3500.23243	0.02840
3498.17225	0.02854
3496.11208	0.02874
3494.05191	0.02922
3491.99174	0.02992
3489.93157	0.03061
3487.87139	0.03112
3485.81122	0.03152
3483.75105	0.03194
3481.69088	0.03237
3479.63071	0.03273
3477.57053	0.03302
3475.51036	0.03324
3473.45019	0.03342
3471.39002	0.03366
3469.32984	0.03406
3467.26967	0.03463
3465.20950	0.03525
3463.14933	0.03581
3461.08916	0.03634
3459.02898	0.03693
3456.96881	0.03757
3454.90864	0.03819
3452.84847	0.03867
3450.78830	0.03908
3448.72812	0.03954
3446.66795	0.04012
3444.60778	0.04075
3442.54761	0.04133
3440.48744	0.04180
3438.42726	0.04213
3436.36709	0.04233
3434.30692	0.04246
3432.24675	0.04260
3430.18657	0.04285
3428.12640	0.04321
3426.06623	0.04371
3424.00606	0.04434
3421.94589	0.04503
3419.88571	0.04566
3417.82554	0.04611
3415.76537	0.04639
3413.70520	0.04656
3411.64503	0.04664
3409.58485	0.04664
3407.52468	0.04665
3405.46451	0.04679
3403.40434	0.04703
3401.34416	0.04731
3399.28399	0.04766
3397.22382	0.04812
3395.16365	0.04861
3393.10348	0.04901
3391.04330	0.04937
3388.98313	0.04977
3386.92296	0.05026
3384.86279	0.05071
3382.80262	0.05096
3380.74244	0.05099
3378.68227	0.05099
3376.62210	0.05111
3374.56193	0.05134
3372.50176	0.05159
3370.44158	0.05184
3368.38141	0.05209
3366.32124	0.05240
3364.26107	0.05281
3362.20089	0.05325
3360.14072	0.05359
3358.08055	0.05373
3356.02038	0.05368
3353.96021	0.05358
3351.90003	0.05357
3349.83986	0.05366
3347.77969	0.05374
3345.71952	0.05377
3343.65935	0.05381
3341.59917	0.05391
3339.53900	0.05413
3337.47883	0.05446
3335.41866	0.05484
3333.35849	0.05513
3331.29831	0.05528
3329.23814	0.05533
3327.17797	0.05533
3325.11780	0.05536
3323.05762	0.05542
3320.99745	0.05546
3318.93728	0.05542
3316.87711	0.05538
3314.81694	0.05541
3312.75676	0.05551
3310.69659	0.05555
3308.63642	0.05542
3306.57625	0.05514
3304.51608	0.05484
3302.45590	0.05466
3300.39573	0.05460
3298.33556	0.05464
3296.27539	0.05471
3294.21521	0.05474
3292.15504	0.05472
3290.09487	0.05471
3288.03470	0.05479
3285.97453	0.05498
3283.91435	0.05515
3281.85418	0.05516
3279.79401	0.05507
3277.73384	0.05499
3275.67367	0.05501
3273.61349	0.05509
3271.55332	0.05511
3269.49315	0.05498
3267.43298	0.05468
3265.37281	0.05428
3263.31263	0.05389
3261.25246	0.05362
3259.19229	0.05355
3257.13212	0.05366
3255.07194	0.05387
3253.01177	0.05397
3250.95160	0.05386
3248.89143	0.05358
3246.83126	0.05326
3244.77108	0.05303
3242.71091	0.05297
3240.65074	0.05299
3238.59057	0.05294
3236.53040	0.05276
3234.47022	0.05252
3232.41005	0.05232
3230.34988	0.05216
3228.28971	0.05202
3226.22954	0.05190
3224.16936	0.05178
3222.10919	0.05157
3220.04902	0.05121
3217.98885	0.05078
3215.92867	0.05039
3213.86850	0.05009
3211.80833	0.04994
3209.74816	0.04995
3207.68799	0.05005
3205.62781	0.05012
3203.56764	0.05011
3201.50747	0.05008
3199.44730	0.05000
3197.38713	0.04976
3195.32695	0.04930
3193.26678	0.04866
3191.20661	0.04797
3189.14644	0.04734
3187.08626	0.04694
3185.02609	0.04685
3182.96592	0.04698
3180.90575	0.04709
3178.84558	0.04694
3176.78540	0.04654
3174.72523	0.04603
3172.66506	0.04552
3170.60489	0.04505
3168.54472	0.04466
3166.48454	0.04439
3164.42437	0.04420
3162.36420	0.04399
3160.30403	0.04369
3158.24386	0.04329
3156.18368	0.04289
3154.12351	0.04255
3152.06334	0.04233
3150.00317	0.04223
3147.94299	0.04218
3145.88282	0.04203
3143.82265	0.04173
3141.76248	0.04134
3139.70231	0.04097
3137.64213	0.04060
3135.58196	0.04025
3133.52179	0.03992
3131.46162	0.03963
3129.40145	0.03932
3127.34127	0.03895
3125.28110	0.03853
3123.22093	0.03813
3121.16076	0.03784
3119.10058	0.03766
3117.04041	0.03753
3114.98024	0.03734
3112.92007	0.03712
3110.85990	0.03692
3108.79972	0.03675
3106.73955	0.03659
3104.67938	0.03635
3102.61921	0.03599
3100.55904	0.03558
3098.49886	0.03521
3096.43869	0.03496
3094.37852	0.03479
3092.31835	0.03459
3090.25818	0.03422
3088.19800	0.03367
3086.13783	0.03308
3084.07766	0.03262
3082.01749	0.03233
3079.95731	0.03210
3077.89714	0.03185
3075.83697	0.03164
3073.77680	0.03153
3071.71663	0.03143
3069.65645	0.03126
3067.59628	0.03098
3065.53611	0.03061
3063.47594	0.03017
3061.41577	0.02972
3059.35559	0.02938
3057.29542	0.02915
3055.23525	0.02897
3053.17508	0.02881
3051.11491	0.02868
3049.05473	0.02850
3046.99456	0.02828
3044.93439	0.02805
3042.87422	0.02782
3040.81404	0.02748
3038.75387	0.02700
3036.69370	0.02650
3034.63353	0.02612
3032.57336	0.02593
3030.51318	0.02586
3028.45301	0.02583
3026.39284	0.02574
3024.33267	0.02557
3022.27250	0.02541
3020.21232	0.02537
3018.15215	0.02550
3016.09198	0.02574
3014.03181	0.02599
3011.97163	0.02614
3009.91146	0.02613
3007.85129	0.02593
3005.79112	0.02555
3003.73095	0.02503
3001.67077	0.02451
2999.61060	0.02427
2997.55043	0.02449
2995.49026	0.02483
2993.43009	0.02480
2991.36991	0.02442
2989.30974	0.02415
2987.24957	0.02422
2985.18940	0.02445
2983.12923	0.02467
2981.06905	0.02493
2979.00888	0.02539
2976.94871	0.02606
2974.88854	0.02671
2972.82836	0.02733
2970.76819	0.02808
2968.70802	0.02913
2966.64785	0.03054
2964.58768	0.03227
2962.52750	0.03423
2960.46733	0.03627
2958.40716	0.03822
2956.34699	0.03988
2954.28682	0.04130
2952.22664	0.04277
2950.16647	0.04456
2948.10630	0.04673
2946.04613	0.04902
2943.98596	0.05116
2941.92578	0.05336
2939.86561	0.05603
2937.80544	0.05917
2935.74527	0.06241
2933.68509	0.06543
2931.62492	0.06816
2929.56475	0.07056
2927.50458	0.07242
2925.44441	0.07363
2923.38423	0.07422
2921.32406	0.07437
2919.26389	0.07403
2917.20372	0.07286
2915.14355	0.07065
2913.08337	0.06783
2911.02320	0.06505
2908.96303	0.06271
2906.90286	0.06079
2904.84268	0.05892
2902.78251	0.05678
2900.72234	0.05461
2898.66217	0.05283
2896.60200	0.05148
2894.54182	0.05024
2892.48165	0.04894
2890.42148	0.04775
2888.36131	0.04664
2886.30114	0.04544
2884.24096	0.04435
2882.18079	0.04374
2880.12062	0.04356
2878.06045	0.04347
2876.00028	0.04344
2873.94010	0.04378
2871.87993	0.04453
2869.81976	0.04537
2867.75959	0.04613
2865.69941	0.04692
2863.63924	0.04801
2861.57907	0.04961
2859.51890	0.05171
2857.45873	0.05401
2855.39855	0.05615
2853.33838	0.05756
2851.27821	0.05767
2849.21804	0.05615
2847.15787	0.05305
2845.09769	0.04897
2843.03752	0.04499
2840.97735	0.04191
2838.91718	0.03980
2836.85700	0.03822
2834.79683	0.03664
2832.73666	0.03495
2830.67649	0.03354
2828.61632	0.03268
2826.55614	0.03215
2824.49597	0.03161
2822.43580	0.03086
2820.37563	0.03001
2818.31546	0.02937
2816.25528	0.02897
2814.19511	0.02845
2812.13494	0.02778
2810.07477	0.02732
2808.01460	0.02713
2805.95442	0.02688
2803.89425	0.02643
2801.83408	0.02592
2799.77391	0.02554
2797.71373	0.02536
2795.65356	0.02528
2793.59339	0.02514
2791.53322	0.02496
2789.47305	0.02478
2787.41287	0.02463
2785.35270	0.02438
2783.29253	0.02395
2781.23236	0.02349
2779.17219	0.02327
2777.11201	0.02331
2775.05184	0.02336
2772.99167	0.02317
2770.93150	0.02282
2768.87133	0.02249
2766.81115	0.02226
2764.75098	0.02220
2762.69081	0.02234
2760.63064	0.02254
2758.57046	0.02264
2756.51029	0.02257
2754.45012	0.02238
2752.38995	0.02229
2750.32978	0.02233
2748.26960	0.02229
2746.20943	0.02210
2744.14926	0.02181
2742.08909	0.02153
2740.02892	0.02131
2737.96874	0.02118
2735.90857	0.02119
2733.84840	0.02134
2731.78823	0.02142
2729.72805	0.02132
2727.66788	0.02112
2725.60771	0.02106
2723.54754	0.02114
2721.48737	0.02115
2719.42719	0.02110
2717.36702	0.02110
2715.30685	0.02113
2713.24668	0.02103
2711.18651	0.02073
2709.12633	0.02040
2707.06616	0.02027
2705.00599	0.02034
2702.94582	0.02053
2700.88565	0.02067
2698.82547	0.02053
2696.76530	0.02013
2694.70513	0.01979
2692.64496	0.01971
2690.58478	0.01990
2688.52461	0.02015
2686.46444	0.02023
2684.40427	0.02011
2682.34410	0.01993
2680.28392	0.01973
2678.22375	0.01952
2676.16358	0.01938
2674.10341	0.01934
2672.04324	0.01931
2669.98306	0.01923
2667.92289	0.01914
2665.86272	0.01914
2663.80255	0.01927
2661.74238	0.01938
2659.68220	0.01928
2657.62203	0.01895
2655.56186	0.01863
2653.50169	0.01856
2651.44151	0.01871
2649.38134	0.01893
2647.32117	0.01906
2645.26100	0.01903
2643.20083	0.01885
2641.14065	0.01852
2639.08048	0.01818
2637.02031	0.01803
2634.96014	0.01810
2632.89997	0.01817
2630.83979	0.01807
2628.77962	0.01792
2626.71945	0.01783
2624.65928	0.01775
2622.59910	0.01765
2620.53893	0.01756
2618.47876	0.01743
2616.41859	0.01723
2614.35842	0.01710
2612.29824	0.01715
2610.23807	0.01728
2608.17790	0.01720
2606.11773	0.01686
2604.05756	0.01655
2601.99738	0.01647
2599.93721	0.01638
2597.87704	0.01612
2595.81687	0.01584
2593.75670	0.01571
2591.69652	0.01570
2589.63635	0.01570
2587.57618	0.01568
2585.51601	0.01564
2583.45583	0.01560
2581.39566	0.01554
2579.33549	0.01544
2577.27532	0.01534
2575.21515	0.01531
2573.15497	0.01520
2571.09480	0.01485
2569.03463	0.01451
2566.97446	0.01453
2564.91429	0.01479
2562.85411	0.01491
2560.79394	0.01482
2558.73377	0.01468
2556.67360	0.01459
2554.61342	0.01444
2552.55325	0.01421
2550.49308	0.01411
2548.43291	0.01411
2546.37274	0.01396
2544.31256	0.01371
2542.25239	0.01368
2540.19222	0.01392
2538.13205	0.01415
2536.07188	0.01418
2534.01170	0.01405
2531.95153	0.01385
2529.89136	0.01358
2527.83119	0.01345
2525.77102	0.01364
2523.71084	0.01387
2521.65067	0.01375
2519.59050	0.01341
2517.53033	0.01322
2515.47015	0.01317
2513.40998	0.01315
2511.34981	0.01328
2509.28964	0.01355
2507.22947	0.01374
2505.16929	0.01375
2503.10912	0.01369
2501.04895	0.01351
2498.98878	0.01299
2496.92861	0.01235
2494.86843	0.01219
2492.80826	0.01255
2490.74809	0.01291
2488.68792	0.01305
2486.62775	0.01302
2484.56757	0.01260
2482.50740	0.01177
2480.44723	0.01121
2478.38706	0.01131
2476.32688	0.01173
2474.26671	0.01218
2472.20654	0.01247
2470.14637	0.01233
2468.08620	0.01190
2466.02602	0.01168
2463.96585	0.01166
2461.90568	0.01162
2459.84551	0.01163
2457.78534	0.01177
2455.72516	0.01186
2453.66499	0.01175
2451.60482	0.01150
2449.54465	0.01140
2447.48447	0.01166
2445.42430	0.01204
2443.36413	0.01213
2441.30396	0.01187
2439.24379	0.01157
2437.18361	0.01142
2435.12344	0.01140
2433.06327	0.01151
2431.00310	0.01161
2428.94293	0.01150
2426.88275	0.01140
2424.82258	0.01156
2422.76241	0.01178
2420.70224	0.01177
2418.64207	0.01152
2416.58189	0.01104
2414.52172	0.01066
2412.46155	0.01087
2410.40138	0.01142
2408.34120	0.01166
2406.28103	0.01145
2404.22086	0.01098
2402.16069	0.01045
2400.10052	0.01023
2398.04034	0.01043
2395.98017	0.01077
2393.92000	0.01101
2391.85983	0.01106
2389.79966	0.01095
2387.73948	0.01077
2385.67931	0.01055
2383.61914	0.01025
2381.55897	0.00986
2379.49880	0.00948
2377.43862	0.00921
2375.37845	0.00904
2373.31828	0.00890
2371.25811	0.00893
2369.19793	0.00937
2367.13776	0.01027
2365.07759	0.01124
2363.01742	0.01182
2360.95725	0.01180
2358.89707	0.01123
2356.83690	0.01039
2354.77673	0.00977
2352.71656	0.00975
2350.65639	0.01007
2348.59621	0.01014
2346.53604	0.00975
2344.47587	0.00936
2342.41570	0.00930
2340.35552	0.00953
2338.29535	0.00980
2336.23518	0.00992
2334.17501	0.00986
2332.11484	0.00983
2330.05466	0.01010
2327.99449	0.01070
2325.93432	0.01142
2323.87415	0.01191
2321.81398	0.01207
2319.75380	0.01201
2317.69363	0.01185
2315.63346	0.01161
2313.57329	0.01127
2311.51312	0.01084
2309.45294	0.01038
2307.39277	0.01006
2305.33260	0.01004
2303.27243	0.01030
2301.21225	0.01062
2299.15208	0.01083
2297.09191	0.01090
2295.03174	0.01093
2292.97157	0.01103
2290.91139	0.01113
2288.85122	0.01109
2286.79105	0.01083
2284.73088	0.01035
2282.67071	0.00975
2280.61053	0.00931
2278.55036	0.00930
2276.49019	0.00960
2274.43002	0.00978
2272.36984	0.00953
2270.30967	0.00897
2268.24950	0.00850
2266.18933	0.00834
2264.12916	0.00846
2262.06898	0.00863
2260.00881	0.00870
2257.94864	0.00863
2255.88847	0.00854
2253.82830	0.00858
2251.76812	0.00886
2249.70795	0.00931
2247.64778	0.00971
2245.58761	0.00979
2243.52744	0.00954
2241.46726	0.00929
2239.40709	0.00922
2237.34692	0.00881
2235.28675	0.00808
2233.22657	0.00768
2231.16640	0.00768
2229.10623	0.00787
2227.04606	0.00820
2224.98589	0.00834
2222.92571	0.00798
2220.86554	0.00726
2218.80537	0.00650
2216.74520	0.00611
2214.68503	0.00650
2212.62485	0.00755
2210.56468	0.00846
2208.50451	0.00866
2206.44434	0.00851
2204.38417	0.00844
2202.32399	0.00828
2200.26382	0.00762
2198.20365	0.00641
2196.14348	0.00530
2194.08330	0.00511
2192.02313	0.00577
2189.96296	0.00660
2187.90279	0.00705
2185.84262	0.00706
2183.78244	0.00704
2181.72227	0.00716
2179.66210	0.00708
2177.60193	0.00693
2175.54176	0.00694
2173.48158	0.00700
2171.42141	0.00711
2169.36124	0.00749
2167.30107	0.00785
2165.24089	0.00785
2163.18072	0.00780
2161.12055	0.00743
2159.06038	0.00587
2157.00021	0.00421
2154.94003	0.00425
2152.87986	0.00501
2150.81969	0.00495
2148.75952	0.00500
2146.69935	0.00619
2144.63917	0.00759
2142.57900	0.00795
2140.51883	0.00734
2138.45866	0.00655
2136.39849	0.00609
2134.33831	0.00609
2132.27814	0.00634
2130.21797	0.00678
2128.15780	0.00757
2126.09762	0.00827
2124.03745	0.00829
2121.97728	0.00784
2119.91711	0.00753
2117.85694	0.00734
2115.79676	0.00700
2113.73659	0.00678
2111.67642	0.00708
2109.61625	0.00762
2107.55608	0.00795
2105.49590	0.00820
2103.43573	0.00853
2101.37556	0.00861
2099.31539	0.00841
2097.25521	0.00810
2095.19504	0.00781
2093.13487	0.00758
2091.07470	0.00746
2089.01453	0.00751
2086.95435	0.00769
2084.89418	0.00778
2082.83401	0.00759
2080.77384	0.00727
2078.71367	0.00701
2076.65349	0.00687
2074.59332	0.00680
2072.53315	0.00678
2070.47298	0.00687
2068.41281	0.00719
2066.35263	0.00774
2064.29246	0.00838
2062.23229	0.00887
2060.17212	0.00905
2058.11194	0.00888
2056.05177	0.00849
2053.99160	0.00811
2051.93143	0.00801
2049.87126	0.00824
2047.81108	0.00854
2045.75091	0.00860
2043.69074	0.00830
2041.63057	0.00771
2039.57040	0.00682
2037.51022	0.00560
2035.45005	0.00439
2033.38988	0.00384
2031.32971	0.00437
2029.26954	0.00548
2027.20936	0.00601
2025.14919	0.00552
2023.08902	0.00451
2021.02885	0.00360
2018.96867	0.00309
2016.90850	0.00328
2014.84833	0.00425
2012.78816	0.00528
2010.72799	0.00555
2008.66781	0.00518
2006.60764	0.00485
2004.54747	0.00465
2002.48730	0.00433
2000.42713	0.00394
1998.36695	0.00379
1996.30678	0.00396
1994.24661	0.00435
1992.18644	0.00472
1990.12626	0.00477
1988.06609	0.00444
1986.00592	0.00403
1983.94575	0.00385
1981.88558	0.00390
1979.82540	0.00403
1977.76523	0.00419
1975.70506	0.00452
1973.64489	0.00496
1971.58472	0.00517
1969.52454	0.00485
1967.46437	0.00393
1965.40420	0.00280
1963.34403	0.00222
1961.28386	0.00270
1959.22368	0.00407
1957.16351	0.00559
1955.10334	0.00663
1953.04317	0.00700
1950.98299	0.00692
1948.92282	0.00657
1946.86265	0.00604
1944.80248	0.00548
1942.74231	0.00512
1940.68213	0.00515
1938.62196	0.00543
1936.56179	0.00562
1934.50162	0.00548
1932.44145	0.00511
1930.38127	0.00476
1928.32110	0.00458
1926.26093	0.00458
1924.20076	0.00470
1922.14059	0.00486
1920.08041	0.00494
1918.02024	0.00485
1915.96007	0.00465
1913.89990	0.00457
1911.83972	0.00475
1909.77955	0.00499
1907.71938	0.00505
1905.65921	0.00486
1903.59904	0.00460
1901.53886	0.00444
1899.47869	0.00446
1897.41852	0.00458
1895.35835	0.00468
1893.29818	0.00472
1891.23800	0.00465
1889.17783	0.00438
1887.11766	0.00400
1885.05749	0.00376
1882.99731	0.00383
1880.93714	0.00413
1878.87697	0.00444
1876.81680	0.00466
1874.75663	0.00477
1872.69645	0.00485
1870.63628	0.00490
1868.57611	0.00485
1866.51594	0.00466
1864.45577	0.00440
1862.39559	0.00419
1860.33542	0.00408
1858.27525	0.00403
1856.21508	0.00398
1854.15491	0.00390
1852.09473	0.00374
1850.03456	0.00354
1847.97439	0.00337
1845.91422	0.00325
1843.85404	0.00319
1841.79387	0.00320
1839.73370	0.00332
1837.67353	0.00347
1835.61336	0.00355
1833.55318	0.00349
1831.49301	0.00336
1829.43284	0.00329
1827.37267	0.00329
1825.31250	0.00330
1823.25232	0.00326
1821.19215	0.00318
1819.13198	0.00307
1817.07181	0.00301
1815.01163	0.00308
1812.95146	0.00322
1810.89129	0.00330
1808.83112	0.00324
1806.77095	0.00315
1804.71077	0.00314
1802.65060	0.00320
1800.59043	0.00324
1798.53026	0.00319
1796.47009	0.00303
1794.40991	0.00279
1792.34974	0.00255
1790.28957	0.00244
1788.22940	0.00252
1786.16923	0.00271
1784.10905	0.00286
1782.04888	0.00283
1779.98871	0.00262
1777.92854	0.00242
1775.86836	0.00234
1773.80819	0.00251
1771.74802	0.00284
1769.68785	0.00322
1767.62768	0.00364
1765.56750	0.00420
1763.50733	0.00505
1761.44716	0.00631
1759.38699	0.00799
1757.32682	0.01007
1755.26664	0.01247
1753.20647	0.01508
1751.14630	0.01773
1749.08613	0.02017
1747.02596	0.02220
1744.96578	0.02366
1742.90561	0.02451
1740.84544	0.02482
1738.78527	0.02472
1736.72509	0.02436
1734.66492	0.02388
1732.60475	0.02342
1730.54458	0.02312
1728.48441	0.02302
1726.42423	0.02302
1724.36406	0.02307
1722.30389	0.02312
1720.24372	0.02312
1718.18355	0.02297
1716.12337	0.02272
1714.06320	0.02247
1712.00303	0.02225
1709.94286	0.02195
1707.88268	0.02152
1705.82251	0.02099
1703.76234	0.02049
1701.70217	0.02013
1699.64200	0.02000
1697.58182	0.02020
1695.52165	0.02075
1693.46148	0.02163
1691.40131	0.02277
1689.34114	0.02410
1687.28096	0.02562
1685.22079	0.02743
1683.16062	0.02953
1681.10045	0.03168
1679.04028	0.03360
1676.98010	0.03513
1674.91993	0.03624
1672.85976	0.03686
1670.79959	0.03697
1668.73941	0.03663
1666.67924	0.03602
1664.61907	0.03532
1662.55890	0.03463
1660.49873	0.03400
1658.43855	0.03342
1656.37838	0.03279
1654.31821	0.03211
1652.25804	0.03154
1650.19787	0.03130
1648.13769	0.03135
1646.07752	0.03157
1644.01735	0.03194
1641.95718	0.03245
1639.89701	0.03310
1637.83683	0.03385
1635.77666	0.03464
1633.71649	0.03541
1631.65632	0.03612
1629.59614	0.03677
1627.53597	0.03731
1625.47580	0.03774
1623.41563	0.03808
1621.35546	0.03839
1619.29528	0.03872
1617.23511	0.03914
1615.17494	0.03974
1613.11477	0.04062
1611.05460	0.04181
1608.99442	0.04312
1606.93425	0.04417
1604.87408	0.04454
1602.81391	0.04396
1600.75373	0.04259
1598.69356	0.04082
1596.63339	0.03896
1594.57322	0.03722
1592.51305	0.03574
1590.45287	0.03457
1588.39270	0.03360
1586.33253	0.03269
1584.27236	0.03173
1582.21219	0.03073
1580.15201	0.02972
1578.09184	0.02869
1576.03167	0.02763
1573.97150	0.02661
1571.91133	0.02567
1569.85115	0.02477
1567.79098	0.02389
1565.73081	0.02297
1563.67064	0.02191
1561.61046	0.02070
1559.55029	0.01939
1557.49012	0.01813
1555.42995	0.01710
1553.36978	0.01631
1551.30960	0.01564
1549.24943	0.01500
1547.18926	0.01438
1545.12909	0.01378
1543.06892	0.01308
1541.00874	0.01219
1538.94857	0.01123
1536.88840	0.01041
1534.82823	0.00979
1532.76805	0.00931
1530.70788	0.00897
1528.64771	0.00885
1526.58754	0.00898
1524.52737	0.00940
1522.46719	0.01022
1520.40702	0.01144
1518.34685	0.01280
1516.28668	0.01389
1514.22651	0.01434
1512.16633	0.01399
1510.10616	0.01289
1508.04599	0.01126
1505.98582	0.00946
1503.92565	0.00792
1501.86547	0.00672
1499.80530	0.00572
1497.74513	0.00485
1495.68496	0.00411
1493.62478	0.00355
1491.56461	0.00319
1489.50444	0.00297
1487.44427	0.00280
1485.38410	0.00270
1483.32392	0.00276
1481.26375	0.00309
1479.20358	0.00378
1477.14341	0.00491
1475.08324	0.00659
1473.02306	0.00885
1470.96289	0.01151
1468.90272	0.01420
1466.84255	0.01665
1464.78238	0.01875
1462.72220	0.02045
1460.66203	0.02176
1458.60186	0.02285
1456.54169	0.02383
1454.48151	0.02470
1452.42134	0.02544
1450.36117	0.02617
1448.30100	0.02704
1446.24083	0.02803
1444.18065	0.02903
1442.12048	0.02994
1440.06031	0.03076
1438.00014	0.03150
1435.93997	0.03215
1433.87979	0.03259
1431.81962	0.03277
1429.75945	0.03276
1427.69928	0.03273
1425.63910	0.03280
1423.57893	0.03299
1421.51876	0.03326
1419.45859	0.03355
1417.39842	0.03375
1415.33824	0.03375
1413.27807	0.03348
1411.21790	0.03296
1409.15773	0.03225
1407.09756	0.03138
1405.03738	0.03036
1402.97721	0.02930
1400.91704	0.02829
1398.85687	0.02737
1396.79670	0.02657
1394.73652	0.02596
1392.67635	0.02564
1390.61618	0.02559
1388.55601	0.02580
1386.49583	0.02627
1384.43566	0.02696
1382.37549	0.02782
1380.31532	0.02876
1378.25515	0.02967
1376.19497	0.03040
1374.13480	0.03089
1372.07463	0.03111
1370.01446	0.03105
1367.95429	0.03073
1365.89411	0.03023
1363.83394	0.02965
1361.77377	0.02908
1359.71360	0.02860
1357.65343	0.02827
1355.59325	0.02808
1353.53308	0.02794
1351.47291	0.02779
1349.41274	0.02763
1347.35256	0.02752
1345.29239	0.02749
1343.23222	0.02754
1341.17205	0.02759
1339.11188	0.02753
1337.05170	0.02735
1334.99153	0.02711
1332.93136	0.02694
1330.87119	0.02685
1328.81102	0.02684
1326.75084	0.02689
1324.69067	0.02702
1322.63050	0.02723
1320.57033	0.02743
1318.51015	0.02750
1316.44998	0.02735
1314.38981	0.02702
1312.32964	0.02658
1310.26947	0.02605
1308.20929	0.02540
1306.14912	0.02465
1304.08895	0.02385
1302.02878	0.02312
1299.96861	0.02253
1297.90843	0.02217
1295.84826	0.02206
1293.78809	0.02216
1291.72792	0.02240
1289.66775	0.02273
1287.60757	0.02315
1285.54740	0.02357
1283.48723	0.02393
1281.42706	0.02421
1279.36688	0.02442
1277.30671	0.02461
1275.24654	0.02487
1273.18637	0.02529
1271.12620	0.02594
1269.06602	0.02679
1267.00585	0.02775
1264.94568	0.02873
1262.88551	0.02967
1260.82534	0.03056
1258.76516	0.03137
1256.70499	0.03206
1254.64482	0.03263
1252.58465	0.03316
1250.52447	0.03368
1248.46430	0.03417
1246.40413	0.03453
1244.34396	0.03475
1242.28379	0.03488
1240.22361	0.03494
1238.16344	0.03488
1236.10327	0.03461
1234.04310	0.03408
1231.98293	0.03326
1229.92275	0.03219
1227.86258	0.03092
1225.80241	0.02949
1223.74224	0.02795
1221.68207	0.02633
1219.62189	0.02473
1217.56172	0.02318
1215.50155	0.02166
1213.44138	0.02012
1211.38120	0.01856
1209.32103	0.01703
1207.26086	0.01552
1205.20069	0.01399
1203.14052	0.01240
1201.08034	0.01072
1199.02017	0.00900
1196.96000	0.00734
1194.89983	0.00584
1192.83966	0.00459
1190.77948	0.00371
1188.71931	0.00323
1186.65914	0.00307
1184.59897	0.00311
1182.53880	0.00345
1180.47862	0.00416
1178.41845	0.00534
1176.35828	0.00711
1174.29811	0.00953
1172.23793	0.01240
1170.17776	0.01524
1168.11759	0.01752
1166.05742	0.01905
1163.99725	0.02005
1161.93707	0.02079
1159.87690	0.02136
1157.81673	0.02187
1155.75656	0.02251
1153.69639	0.02342
1151.63621	0.02455
1149.57604	0.02577
1147.51587	0.02704
1145.45570	0.02836
1143.39552	0.02959
1141.33535	0.03072
1139.27518	0.03172
1137.21501	0.03245
1135.15484	0.03288
1133.09466	0.03333
1131.03449	0.03416
1128.97432	0.03541
1126.91415	0.03697
1124.85398	0.03874
1122.79380	0.04063
1120.73363	0.04235
1118.67346	0.04372
1116.61329	0.04499
1114.55312	0.04640
1112.49294	0.04774
1110.43277	0.04887
1108.37260	0.05004
1106.31243	0.05158
1104.25225	0.05344
1102.19208	0.05534
1100.13191	0.05726
1098.07174	0.05946
1096.01157	0.06203
1093.95139	0.06471
1091.89122	0.06724
1089.83105	0.06951
1087.77088	0.07159
1085.71071	0.07364
1083.65053	0.07580
1081.59036	0.07810
1079.53019	0.08047
1077.47002	0.08289
1075.40985	0.08544
1073.34967	0.08809
1071.28950	0.09054
1069.22933	0.09260
1067.16916	0.09427
1065.10898	0.09579
1063.04881	0.09738
1060.98864	0.09911
1058.92847	0.10097
1056.86830	0.10290
1054.80812	0.10488
1052.74795	0.10693
1050.68778	0.10915
1048.62761	0.11174
1046.56744	0.11466
1044.50726	0.11755
1042.44709	0.12011
1040.38692	0.12247
1038.32675	0.12477
1036.26657	0.12678
1034.20640	0.12820
1032.14623	0.12884
1030.08606	0.12878
1028.02589	0.12837
1025.96571	0.12803
1023.90554	0.12784
1021.84537	0.12773
1019.78520	0.12770
1017.72503	0.12766
1015.66485	0.12748
1013.60468	0.12711
1011.54451	0.12675
1009.48434	0.12660
1007.42417	0.12657
1005.36399	0.12638
1003.30382	0.12583
1001.24365	0.12487
999.18348	0.12346
997.12330	0.12163
995.06313	0.11950
993.00296	0.11725
990.94279	0.11518
988.88262	0.11343
986.82244	0.11178
984.76227	0.10998
982.70210	0.10813
980.64193	0.10634
978.58176	0.10447
976.52158	0.10256
974.46141	0.10063
972.40124	0.09847
970.34107	0.09615
968.28089	0.09397
966.22072	0.09198
964.16055	0.08986
962.10038	0.08746
960.04021	0.08505
957.98003	0.08292
955.91986	0.08107
953.85969	0.07941
951.79952	0.07790
949.73935	0.07633
947.67917	0.07442
945.61900	0.07215
943.55883	0.06966
941.49866	0.06676
939.43849	0.06316
937.37831	0.05897
935.31814	0.05465
933.25797	0.05060
931.19780	0.04704
929.13762	0.04405
927.07745	0.04144
925.01728	0.03896
922.95711	0.03662
920.89694	0.03448
918.83676	0.03251
916.77659	0.03055
914.71642	0.02853
912.65625	0.02663
910.59608	0.02498
908.53590	0.02351
906.47573	0.02229
904.41556	0.02145
902.35539	0.02082
900.29522	0.02032
898.23504	0.02034
896.17487	0.02104
894.11470	0.02183
892.05453	0.02203
889.99435	0.02181
887.93418	0.02148
885.87401	0.02066
883.81384	0.01919
881.75367	0.01752
879.69349	0.01611
877.63332	0.01520
875.57315	0.01451
873.51298	0.01358
871.45281	0.01265
869.39263	0.01212
867.33246	0.01185
865.27229	0.01153
863.21212	0.01115
861.15194	0.01071
859.09177	0.01021
857.03160	0.00977
854.97143	0.00966
852.91126	0.00984
850.85108	0.01006
848.79091	0.01016
846.73074	0.01017
844.67057	0.01018
842.61040	0.01003
840.55022	0.00956
838.49005	0.00902
836.42988	0.00865
834.36971	0.00841
832.30954	0.00803
830.24936	0.00732
828.18919	0.00640
826.12902	0.00566
824.06885	0.00532
822.00867	0.00530
819.94850	0.00537
817.88833	0.00536
815.82816	0.00531
813.76799	0.00529
811.70781	0.00528
809.64764	0.00527
807.58747	0.00525
805.52730	0.00515
803.46713	0.00507
801.40695	0.00499
799.34678	0.00469
797.28661	0.00408
795.22644	0.00351
793.16627	0.00330
791.10609	0.00341
789.04592	0.00353
786.98575	0.00361
784.92558	0.00367
782.86540	0.00375
780.80523	0.00390
778.74506	0.00407
776.68489	0.00422
774.62472	0.00449
772.56454	0.00486
770.50437	0.00496
768.44420	0.00465
766.38403	0.00422
764.32386	0.00411
762.26368	0.00442
760.20351	0.00482
758.14334	0.00503
756.08317	0.00500
754.02299	0.00468
751.96282	0.00407
749.90265	0.00356
747.84248	0.00319
745.78231	0.00344
743.72213	0.00362
741.66196	0.00342
739.60179	0.00330
737.54162	0.00343
735.48145	0.00354
733.42127	0.00365
731.36110	0.00386
729.30093	0.00414
727.24076	0.00440
725.18059	0.00465
723.12041	0.00508
721.06024	0.00568
719.00007	0.00624
716.93990	0.00660
714.87972	0.00684
712.81955	0.00714
710.75938	0.00755
708.69921	0.00799
706.63904	0.00828
704.57886	0.00833
702.51869	0.00826
700.45852	0.00825
698.39835	0.00811
696.33818	0.00759
694.27800	0.00671
692.21783	0.00571
690.15766	0.00484
688.09749	0.00425
686.03731	0.00400
683.97714	0.00405
681.91697	0.00420
679.85680	0.00420
677.79663	0.00382
675.73645	0.00294
673.67628	0.00177
671.61611	0.00076
669.55594	0.00040
667.49577	0.00097
665.43559	0.00221
663.37542	0.00312
661.31525	0.00326
659.25508	0.00287
657.19491	0.00240
655.13473	0.00210
653.07456	0.00209
651.01439	0.00234
648.95422	0.00269
646.89404	0.00290
644.83387	0.00280
642.77370	0.00236
640.71353	0.00185
638.65336	0.00152
636.59318	0.00135
634.53301	0.00130
632.47284	0.00160
630.41267	0.00240
628.35250	0.00317
626.29232	0.00298
624.23215	0.00166
622.17198	0.00056
620.11181	0.00074
618.05164	0.00203
615.99146	0.00319
613.93129	0.00309
611.87112	0.00213
609.81095	0.00190
607.75077	0.00247
605.69060	0.00215
603.63043	0.00076
601.57026	0.00000
599.51009	0.00000
