3996.73391	0.00053
3994.67373	0.00044
3992.61356	0.00035
3990.55339	0.00034
3988.49322	0.00040
3986.43305	0.00044
3984.37287	0.00041
3982.31270	0.00038
3980.25253	0.00040
3978.19236	0.00048
3976.13219	0.00059
3974.07201	0.00066
3972.01184	0.00058
3969.95167	0.00038
3967.89150	0.00017
3965.83133	0.00003
3963.77115	0.00000
3961.71098	0.00016
3959.65081	0.00050
3957.59064	0.00084
3955.53046	0.00104
3953.47029	0.00105
3951.41012	0.00093
3949.34995	0.00078
3947.28978	0.00073
3945.22960	0.00079
3943.16943	0.00092
3941.10926	0.00110
3939.04909	0.00130
3936.98892	0.00141
3934.92874	0.00128
3932.86857	0.00094
3930.80840	0.00062
3928.74823	0.00047
3926.68805	0.00047
3924.62788	0.00057
3922.56771	0.00074
3920.50754	0.00092
3918.44737	0.00103
3916.38719	0.00114
3914.32702	0.00131
3912.26685	0.00153
3910.20668	0.00170
3908.14651	0.00173
3906.08633	0.00160
3904.02616	0.00139
3901.96599	0.00120
3899.90582	0.00104
3897.84565	0.00097
3895.78547	0.00101
3893.72530	0.00109
3891.66513	0.00114
3889.60496	0.00113
3887.54478	0.00113
3885.48461	0.00119
3883.42444	0.00118
3881.36427	0.00107
3879.30410	0.00097
3877.24392	0.00096
3875.18375	0.00096
3873.12358	0.00094
3871.06341	0.00094
3869.00324	0.00091
3866.94306	0.00070
3864.88289	0.00035
3862.82272	0.00014
3860.76255	0.00017
3858.70237	0.00035
3856.64220	0.00063
3854.58203	0.00103
3852.52186	0.00152
3850.46169	0.00200
3848.40151	0.00234
3846.34134	0.00250
3844.28117	0.00245
3842.22100	0.00219
3840.16083	0.00189
3838.10065	0.00179
3836.04048	0.00194
3833.98031	0.00208
3831.92014	0.00206
3829.85997	0.00192
3827.79979	0.00169
3825.73962	0.00134
3823.67945	0.00092
3821.61928	0.00051
3819.55910	0.00031
3817.49893	0.00044
3815.43876	0.00084
3813.37859	0.00131
3811.31842	0.00164
3809.25824	0.00174
3807.19807	0.00173
3805.13790	0.00179
3803.07773	0.00194
3801.01756	0.00214
3798.95738	0.00229
3796.89721	0.00232
3794.83704	0.00226
3792.77687	0.00225
3790.71670	0.00235
3788.65652	0.00249
3786.59635	0.00258
3784.53618	0.00261
3782.47601	0.00257
3780.41583	0.00241
3778.35566	0.00217
3776.29549	0.00200
3774.23532	0.00200
3772.17515	0.00205
3770.11497	0.00205
3768.05480	0.00193
3765.99463	0.00170
3763.93446	0.00146
3761.87429	0.00127
3759.81411	0.00114
3757.75394	0.00112
3755.69377	0.00116
3753.63360	0.00107
3751.57342	0.00077
3749.51325	0.00052
3747.45308	0.00058
3745.39291	0.00093
3743.33274	0.00128
3741.27256	0.00130
3739.21239	0.00091
3737.15222	0.00041
3735.09205	0.00033
3733.03188	0.00090
3730.97170	0.00189
3728.91153	0.00275
3726.85136	0.00314
3724.79119	0.00302
3722.73102	0.00262
3720.67084	0.00225
3718.61067	0.00210
3716.55050	0.00211
3714.49033	0.00223
3712.43015	0.00246
3710.36998	0.00275
3708.30981	0.00288
3706.24964	0.00282
3704.18947	0.00273
3702.12929	0.00271
3700.06912	0.00276
3698.00895	0.00281
3695.94878	0.00281
3693.88861	0.00268
3691.82843	0.00248
3689.76826	0.00239
3687.70809	0.00247
3685.64792	0.00258
3683.58775	0.00249
3681.52757	0.00220
3679.46740	0.00173
3677.40723	0.00115
3675.34706	0.00063
3673.28688	0.00041
3671.22671	0.00058
3669.16654	0.00115
3667.10637	0.00201
3665.04620	0.00282
3662.98602	0.00329
3660.92585	0.00346
3658.86568	0.00352
3656.80551	0.00360
3654.74534	0.00367
3652.68516	0.00368
3650.62499	0.00368
3648.56482	0.00380
3646.50465	0.00405
3644.44447	0.00438
3642.38430	0.00473
3640.32413	0.00499
3638.26396	0.00502
3636.20379	0.00476
3634.14361	0.00436
3632.08344	0.00409
3630.02327	0.00424
3627.96310	0.00490
3625.90293	0.00579
3623.84275	0.00648
3621.78258	0.00683
3619.72241	0.00697
3617.66224	0.00714
3615.60207	0.00736
3613.54189	0.00747
3611.48172	0.00746
3609.42155	0.00748
3607.36138	0.00767
3605.30120	0.00796
3603.24103	0.00819
3601.18086	0.00841
3599.12069	0.00885
3597.06052	0.00955
3595.00034	0.01023
3592.94017	0.01050
3590.88000	0.01036
3588.81983	0.01009
3586.75966	0.01006
3584.69948	0.01044
3582.63931	0.01108
3580.57914	0.01161
3578.51897	0.01186
3576.45879	0.01203
3574.39862	0.01226
3572.33845	0.01251
3570.27828	0.01274
3568.21811	0.01301
3566.15793	0.01345
3564.09776	0.01402
3562.03759	0.01458
3559.97742	0.01505
3557.91725	0.01548
3555.85707	0.01594
3553.79690	0.01643
3551.73673	0.01684
3549.67656	0.01712
3547.61639	0.01730
3545.55621	0.01748
3543.49604	0.01788
3541.43587	0.01864
3539.37570	0.01970
3537.31552	0.02075
3535.25535	0.02152
3533.19518	0.02193
3531.13501	0.02215
3529.07484	0.02239
3527.01466	0.02274
3524.95449	0.02321
3522.89432	0.02370
3520.83415	0.02407
3518.77398	0.02436
3516.71380	0.02478
3514.65363	0.02534
3512.59346	0.02585
3510.53329	0.02622
3508.47312	0.02655
3506.41294	0.02695
3504.35277	0.02743
3502.29260	0.02788
3500.23243	0.02823
3498.17225	0.02850
3496.11208	0.02879
3494.05191	0.02921
3491.99174	0.02982
3489.93157	0.03050
3487.87139	0.03103
3485.81122	0.03137
3483.75105	0.03161
3481.69088	0.03184
3479.63071	0.03207
3477.57053	0.03232
3475.51036	0.03258
3473.45019	0.03286
3471.39002	0.03327
3469.32984	0.03388
3467.26967	0.03466
3465.20950	0.03546
3463.14933	0.03615
3461.08916	0.03665
3459.02898	0.03694
3456.96881	0.03713
3454.90864	0.03738
3452.84847	0.03771
3450.78830	0.03807
3448.72812	0.03844
3446.66795	0.03888
3444.60778	0.03946
3442.54761	0.04013
3440.48744	0.04077
3438.42726	0.04124
3436.36709	0.04156
3434.30692	0.04185
3432.24675	0.04225
3430.18657	0.04279
3428.12640	0.04330
3426.06623	0.04368
3424.00606	0.04403
3421.94589	0.04452
3419.88571	0.04516
3417.82554	0.04572
3415.76537	0.04604
3413.70520	0.04614
3411.64503	0.04615
3409.58485	0.04615
3407.52468	0.04622
3405.46451	0.04641
3403.40434	0.04671
3401.34416	0.04706
3399.28399	0.04744
3397.22382	0.04787
3395.16365	0.04830
3393.10348	0.04855
3391.04330	0.04859
3388.98313	0.04864
3386.92296	0.04887
3384.86279	0.04926
3382.80262	0.04968
3380.74244	0.05003
3378.68227	0.05037
3376.62210	0.05069
3374.56193	0.05085
3372.50176	0.05074
3370.44158	0.05048
3368.38141	0.05033
3366.32124	0.05049
3364.26107	0.05096
3362.20089	0.05159
3360.14072	0.05217
3358.08055	0.05249
3356.02038	0.05248
3353.96021	0.05234
3351.90003	0.05234
3349.83986	0.05255
3347.77969	0.05282
3345.71952	0.05303
3343.65935	0.05319
3341.59917	0.05332
3339.53900	0.05343
3337.47883	0.05353
3335.41866	0.05367
3333.35849	0.05382
3331.29831	0.05395
3329.23814	0.05410
3327.17797	0.05426
3325.11780	0.05437
3323.05762	0.05439
3320.99745	0.05435
3318.93728	0.05434
3316.87711	0.05436
3314.81694	0.05442
3312.75676	0.05448
3310.69659	0.05453
3308.63642	0.05449
3306.57625	0.05435
3304.51608	0.05419
3302.45590	0.05407
3300.39573	0.05399
3298.33556	0.05390
3296.27539	0.05377
3294.21521	0.05363
3292.15504	0.05353
3290.09487	0.05358
3288.03470	0.05385
3285.97453	0.05416
3283.91435	0.05423
3281.85418	0.05402
3279.79401	0.05372
3277.73384	0.05354
3275.67367	0.05354
3273.61349	0.05365
3271.55332	0.05378
3269.49315	0.05385
3267.43298	0.05380
3265.37281	0.05357
3263.31263	0.05317
3261.25246	0.05269
3259.19229	0.05230
3257.13212	0.05216
3255.07194	0.05231
3253.01177	0.05257
3250.95160	0.05271
3248.89143	0.05267
3246.83126	0.05251
3244.77108	0.05234
3242.71091	0.05219
3240.65074	0.05202
3238.59057	0.05183
3236.53040	0.05171
3234.47022	0.05172
3232.41005	0.05175
3230.34988	0.05171
3228.28971	0.05167
3226.22954	0.05166
3224.16936	0.05157
3222.10919	0.05128
3220.04902	0.05080
3217.98885	0.05030
3215.92867	0.04992
3213.86850	0.04976
3211.80833	0.04979
3209.74816	0.04989
3207.68799	0.04988
3205.62781	0.04967
3203.56764	0.04929
3201.50747	0.04893
3199.44730	0.04868
3197.38713	0.04842
3195.32695	0.04804
3193.26678	0.04754
3191.20661	0.04706
3189.14644	0.04671
3187.08626	0.04653
3185.02609	0.04641
3182.96592	0.04622
3180.90575	0.04596
3178.84558	0.04570
3176.78540	0.04548
3174.72523	0.04530
3172.66506	0.04510
3170.60489	0.04482
3168.54472	0.04448
3166.48454	0.04414
3164.42437	0.04388
3162.36420	0.04365
3160.30403	0.04337
3158.24386	0.04299
3156.18368	0.04257
3154.12351	0.04218
3152.06334	0.04180
3150.00317	0.04142
3147.94299	0.04105
3145.88282	0.04067
3143.82265	0.04037
3141.76248	0.04019
3139.70231	0.04003
3137.64213	0.03977
3135.58196	0.03939
3133.52179	0.03900
3131.46162	0.03872
3129.40145	0.03862
3127.34127	0.03854
3125.28110	0.03832
3123.22093	0.03792
3121.16076	0.03748
3119.10058	0.03712
3117.04041	0.03684
3114.98024	0.03655
3112.92007	0.03628
3110.85990	0.03606
3108.79972	0.03588
3106.73955	0.03570
3104.67938	0.03554
3102.61921	0.03550
3100.55904	0.03552
3098.49886	0.03544
3096.43869	0.03514
3094.37852	0.03461
3092.31835	0.03394
3090.25818	0.03326
3088.19800	0.03275
3086.13783	0.03253
3084.07766	0.03255
3082.01749	0.03260
3079.95731	0.03249
3077.89714	0.03220
3075.83697	0.03179
3073.77680	0.03132
3071.71663	0.03084
3069.65645	0.03044
3067.59628	0.03017
3065.53611	0.02997
3063.47594	0.02978
3061.41577	0.02956
3059.35559	0.02932
3057.29542	0.02904
3055.23525	0.02873
3053.17508	0.02840
3051.11491	0.02810
3049.05473	0.02780
3046.99456	0.02746
3044.93439	0.02714
3042.87422	0.02689
3040.81404	0.02672
3038.75387	0.02655
3036.69370	0.02632
3034.63353	0.02606
3032.57336	0.02586
3030.51318	0.02578
3028.45301	0.02572
3026.39284	0.02559
3024.33267	0.02544
3022.27250	0.02537
3020.21232	0.02544
3018.15215	0.02557
3016.09198	0.02567
3014.03181	0.02569
3011.97163	0.02561
3009.91146	0.02549
3007.85129	0.02539
3005.79112	0.02532
3003.73095	0.02518
3001.67077	0.02495
2999.61060	0.02476
2997.55043	0.02474
2995.49026	0.02472
2993.43009	0.02449
2991.36991	0.02417
2989.30974	0.02404
2987.24957	0.02411
2985.18940	0.02421
2983.12923	0.02437
2981.06905	0.02477
2979.00888	0.02542
2976.94871	0.02612
2974.88854	0.02683
2972.82836	0.02765
2970.76819	0.02860
2968.70802	0.02962
2966.64785	0.03071
2964.58768	0.03192
2962.52750	0.03345
2960.46733	0.03533
2958.40716	0.03729
2956.34699	0.03905
2954.28682	0.04052
2952.22664	0.04186
2950.16647	0.04337
2948.10630	0.04515
2946.04613	0.04710
2943.98596	0.04920
2941.92578	0.05163
2939.86561	0.05436
2937.80544	0.05717
2935.74527	0.06001
2933.68509	0.06298
2931.62492	0.06585
2929.56475	0.06834
2927.50458	0.07034
2925.44441	0.07182
2923.38423	0.07266
2921.32406	0.07280
2919.26389	0.07231
2917.20372	0.07110
2915.14355	0.06902
2913.08337	0.06627
2911.02320	0.06336
2908.96303	0.06076
2906.90286	0.05871
2904.84268	0.05721
2902.78251	0.05585
2900.72234	0.05424
2898.66217	0.05245
2896.60200	0.05078
2894.54182	0.04926
2892.48165	0.04786
2890.42148	0.04670
2888.36131	0.04573
2886.30114	0.04468
2884.24096	0.04367
2882.18079	0.04298
2880.12062	0.04255
2878.06045	0.04229
2876.00028	0.04235
2873.94010	0.04278
2871.87993	0.04342
2869.81976	0.04401
2867.75959	0.04453
2865.69941	0.04517
2863.63924	0.04620
2861.57907	0.04779
2859.51890	0.04990
2857.45873	0.05223
2855.39855	0.05439
2853.33838	0.05581
2851.27821	0.05596
2849.21804	0.05452
2847.15787	0.05165
2845.09769	0.04795
2843.03752	0.04428
2840.97735	0.04124
2838.91718	0.03891
2836.85700	0.03709
2834.79683	0.03552
2832.73666	0.03405
2830.67649	0.03283
2828.61632	0.03205
2826.55614	0.03158
2824.49597	0.03112
2822.43580	0.03058
2820.37563	0.02997
2818.31546	0.02933
2816.25528	0.02875
2814.19511	0.02819
2812.13494	0.02759
2810.07477	0.02709
2808.01460	0.02682
2805.95442	0.02662
2803.89425	0.02630
2801.83408	0.02597
2799.77391	0.02569
2797.71373	0.02540
2795.65356	0.02510
2793.59339	0.02484
2791.53322	0.02464
2789.47305	0.02451
2787.41287	0.02447
2785.35270	0.02434
2783.29253	0.02390
2781.23236	0.02334
2779.17219	0.02308
2777.11201	0.02318
2775.05184	0.02331
2772.99167	0.02318
2770.93150	0.02281
2768.87133	0.02247
2766.81115	0.02241
2764.75098	0.02262
2762.69081	0.02284
2760.63064	0.02283
2758.57046	0.02253
2756.51029	0.02217
2754.45012	0.02194
2752.38995	0.02188
2750.32978	0.02193
2748.26960	0.02200
2746.20943	0.02203
2744.14926	0.02202
2742.08909	0.02194
2740.02892	0.02178
2737.96874	0.02161
2735.90857	0.02157
2733.84840	0.02164
2731.78823	0.02170
2729.72805	0.02157
2727.66788	0.02118
2725.60771	0.02070
2723.54754	0.02046
2721.48737	0.02058
2719.42719	0.02087
2717.36702	0.02100
2715.30685	0.02090
2713.24668	0.02067
2711.18651	0.02041
2709.12633	0.02028
2707.06616	0.02033
2705.00599	0.02046
2702.94582	0.02059
2700.88565	0.02057
2698.82547	0.02032
2696.76530	0.02002
2694.70513	0.01990
2692.64496	0.01990
2690.58478	0.01995
2688.52461	0.02006
2686.46444	0.02017
2684.40427	0.02014
2682.34410	0.02000
2680.28392	0.01985
2678.22375	0.01978
2676.16358	0.01979
2674.10341	0.01976
2672.04324	0.01965
2669.98306	0.01953
2667.92289	0.01938
2665.86272	0.01929
2663.80255	0.01940
2661.74238	0.01961
2659.68220	0.01966
2657.62203	0.01948
2655.56186	0.01929
2653.50169	0.01919
2651.44151	0.01911
2649.38134	0.01897
2647.32117	0.01877
2645.26100	0.01857
2643.20083	0.01836
2641.14065	0.01811
2639.08048	0.01795
2637.02031	0.01792
2634.96014	0.01788
2632.89997	0.01781
2630.83979	0.01776
2628.77962	0.01774
2626.71945	0.01777
2624.65928	0.01780
2622.59910	0.01781
2620.53893	0.01782
2618.47876	0.01765
2616.41859	0.01719
2614.35842	0.01673
2612.29824	0.01656
2610.23807	0.01663
2608.17790	0.01665
2606.11773	0.01664
2604.05756	0.01678
2601.99738	0.01693
2599.93721	0.01686
2597.87704	0.01675
2595.81687	0.01678
2593.75670	0.01669
2591.69652	0.01616
2589.63635	0.01544
2587.57618	0.01514
2585.51601	0.01538
2583.45583	0.01565
2581.39566	0.01555
2579.33549	0.01519
2577.27532	0.01500
2575.21515	0.01511
2573.15497	0.01524
2571.09480	0.01514
2569.03463	0.01476
2566.97446	0.01432
2564.91429	0.01417
2562.85411	0.01446
2560.79394	0.01493
2558.73377	0.01527
2556.67360	0.01535
2554.61342	0.01503
2552.55325	0.01431
2550.49308	0.01363
2548.43291	0.01345
2546.37274	0.01369
2544.31256	0.01395
2542.25239	0.01404
2540.19222	0.01400
2538.13205	0.01382
2536.07188	0.01361
2534.01170	0.01362
2531.95153	0.01369
2529.89136	0.01361
2527.83119	0.01368
2525.77102	0.01397
2523.71084	0.01410
2521.65067	0.01389
2519.59050	0.01354
2517.53033	0.01329
2515.47015	0.01304
2513.40998	0.01272
2511.34981	0.01275
2509.28964	0.01331
2507.22947	0.01386
2505.16929	0.01396
2503.10912	0.01370
2501.04895	0.01338
2498.98878	0.01316
2496.92861	0.01306
2494.86843	0.01312
2492.80826	0.01323
2490.74809	0.01321
2488.68792	0.01312
2486.62775	0.01299
2484.56757	0.01266
2482.50740	0.01218
2480.44723	0.01188
2478.38706	0.01201
2476.32688	0.01249
2474.26671	0.01302
2472.20654	0.01326
2470.14637	0.01310
2468.08620	0.01276
2466.02602	0.01248
2463.96585	0.01217
2461.90568	0.01179
2459.84551	0.01155
2457.78534	0.01161
2455.72516	0.01186
2453.66499	0.01196
2451.60482	0.01173
2449.54465	0.01143
2447.48447	0.01152
2445.42430	0.01189
2443.36413	0.01187
2441.30396	0.01137
2439.24379	0.01098
2437.18361	0.01093
2435.12344	0.01102
2433.06327	0.01115
2431.00310	0.01131
2428.94293	0.01148
2426.88275	0.01181
2424.82258	0.01230
2422.76241	0.01258
2420.70224	0.01251
2418.64207	0.01223
2416.58189	0.01176
2414.52172	0.01126
2412.46155	0.01113
2410.40138	0.01134
2408.34120	0.01150
2406.28103	0.01147
2404.22086	0.01131
2402.16069	0.01103
2400.10052	0.01072
2398.04034	0.01071
2395.98017	0.01096
2393.92000	0.01125
2391.85983	0.01139
2389.79966	0.01132
2387.73948	0.01112
2385.67931	0.01087
2383.61914	0.01059
2381.55897	0.01036
2379.49880	0.01035
2377.43862	0.01062
2375.37845	0.01093
2373.31828	0.01108
2371.25811	0.01123
2369.19793	0.01167
2367.13776	0.01238
2365.07759	0.01285
2363.01742	0.01258
2360.95725	0.01157
2358.89707	0.01031
2356.83690	0.00951
2354.77673	0.00960
2352.71656	0.01049
2350.65639	0.01152
2348.59621	0.01194
2346.53604	0.01160
2344.47587	0.01110
2342.41570	0.01094
2340.35552	0.01115
2338.29535	0.01147
2336.23518	0.01165
2334.17501	0.01155
2332.11484	0.01136
2330.05466	0.01139
2327.99449	0.01175
2325.93432	0.01222
2323.87415	0.01252
2321.81398	0.01259
2319.75380	0.01253
2317.69363	0.01247
2315.63346	0.01235
2313.57329	0.01211
2311.51312	0.01181
2309.45294	0.01154
2307.39277	0.01130
2305.33260	0.01106
2303.27243	0.01081
2301.21225	0.01057
2299.15208	0.01043
2297.09191	0.01044
2295.03174	0.01061
2292.97157	0.01082
2290.91139	0.01091
2288.85122	0.01079
2286.79105	0.01054
2284.73088	0.01027
2282.67071	0.01013
2280.61053	0.01023
2278.55036	0.01056
2276.49019	0.01097
2274.43002	0.01121
2272.36984	0.01116
2270.30967	0.01090
2268.24950	0.01063
2266.18933	0.01045
2264.12916	0.01040
2262.06898	0.01052
2260.00881	0.01068
2257.94864	0.01061
2255.88847	0.01018
2253.82830	0.00962
2251.76812	0.00927
2249.70795	0.00935
2247.64778	0.00969
2245.58761	0.00987
2243.52744	0.00975
2241.46726	0.00942
2239.40709	0.00902
2237.34692	0.00861
2235.28675	0.00845
2233.22657	0.00877
2231.16640	0.00904
2229.10623	0.00906
2227.04606	0.00926
2224.98589	0.00965
2222.92571	0.00966
2220.86554	0.00904
2218.80537	0.00823
2216.74520	0.00803
2214.68503	0.00882
2212.62485	0.00993
2210.56468	0.01026
2208.50451	0.00949
2206.44434	0.00839
2204.38417	0.00776
2202.32399	0.00782
2200.26382	0.00823
2198.20365	0.00845
2196.14348	0.00804
2194.08330	0.00701
2192.02313	0.00618
2189.96296	0.00629
2187.90279	0.00691
2185.84262	0.00727
2183.78244	0.00715
2181.72227	0.00677
2179.66210	0.00631
2177.60193	0.00571
2175.54176	0.00530
2173.48158	0.00569
2171.42141	0.00671
2169.36124	0.00760
2167.30107	0.00839
2165.24089	0.00975
2163.18072	0.01101
2161.12055	0.01033
2159.06038	0.00789
2157.00021	0.00637
2154.94003	0.00702
2152.87986	0.00800
2150.81969	0.00786
2148.75952	0.00753
2146.69935	0.00770
2144.63917	0.00797
2142.57900	0.00820
2140.51883	0.00840
2138.45866	0.00831
2136.39849	0.00773
2134.33831	0.00705
2132.27814	0.00671
2130.21797	0.00679
2128.15780	0.00736
2126.09762	0.00819
2124.03745	0.00864
2121.97728	0.00869
2119.91711	0.00878
2117.85694	0.00911
2115.79676	0.00941
2113.73659	0.00931
2111.67642	0.00873
2109.61625	0.00788
2107.55608	0.00742
2105.49590	0.00788
2103.43573	0.00875
2101.37556	0.00919
2099.31539	0.00926
2097.25521	0.00930
2095.19504	0.00935
2093.13487	0.00919
2091.07470	0.00868
2089.01453	0.00804
2086.95435	0.00766
2084.89418	0.00763
2082.83401	0.00786
2080.77384	0.00822
2078.71367	0.00859
2076.65349	0.00873
2074.59332	0.00845
2072.53315	0.00780
2070.47298	0.00713
2068.41281	0.00678
2066.35263	0.00687
2064.29246	0.00722
2062.23229	0.00756
2060.17212	0.00772
2058.11194	0.00773
2056.05177	0.00783
2053.99160	0.00817
2051.93143	0.00865
2049.87126	0.00899
2047.81108	0.00894
2045.75091	0.00862
2043.69074	0.00837
2041.63057	0.00825
2039.57040	0.00802
2037.51022	0.00755
2035.45005	0.00687
2033.38988	0.00612
2031.32971	0.00575
2029.26954	0.00591
2027.20936	0.00605
2025.14919	0.00572
2023.08902	0.00512
2021.02885	0.00446
2018.96867	0.00376
2016.90850	0.00333
2014.84833	0.00358
2012.78816	0.00432
2010.72799	0.00504
2008.66781	0.00557
2006.60764	0.00601
2004.54747	0.00620
2002.48730	0.00594
2000.42713	0.00541
1998.36695	0.00494
1996.30678	0.00467
1994.24661	0.00452
1992.18644	0.00439
1990.12626	0.00445
1988.06609	0.00492
1986.00592	0.00570
1983.94575	0.00640
1981.88558	0.00688
1979.82540	0.00724
1977.76523	0.00748
1975.70506	0.00747
1973.64489	0.00718
1971.58472	0.00668
1969.52454	0.00603
1967.46437	0.00526
1965.40420	0.00440
1963.34403	0.00358
1961.28386	0.00297
1959.22368	0.00286
1957.16351	0.00340
1955.10334	0.00449
1953.04317	0.00571
1950.98299	0.00660
1948.92282	0.00698
1946.86265	0.00687
1944.80248	0.00647
1942.74231	0.00613
1940.68213	0.00615
1938.62196	0.00649
1936.56179	0.00685
1934.50162	0.00698
1932.44145	0.00678
1930.38127	0.00634
1928.32110	0.00581
1926.26093	0.00536
1924.20076	0.00512
1922.14059	0.00508
1920.08041	0.00512
1918.02024	0.00519
1915.96007	0.00537
1913.89990	0.00576
1911.83972	0.00623
1909.77955	0.00650
1907.71938	0.00649
1905.65921	0.00630
1903.59904	0.00610
1901.53886	0.00598
1899.47869	0.00595
1897.41852	0.00593
1895.35835	0.00585
1893.29818	0.00574
1891.23800	0.00563
1889.17783	0.00546
1887.11766	0.00521
1885.05749	0.00501
1882.99731	0.00498
1880.93714	0.00502
1878.87697	0.00501
1876.81680	0.00499
1874.75663	0.00505
1872.69645	0.00513
1870.63628	0.00513
1868.57611	0.00503
1866.51594	0.00489
1864.45577	0.00481
1862.39559	0.00481
1860.33542	0.00484
1858.27525	0.00482
1856.21508	0.00471
1854.15491	0.00452
1852.09473	0.00435
1850.03456	0.00431
1847.97439	0.00441
1845.91422	0.00453
1843.85404	0.00452
1841.79387	0.00442
1839.73370	0.00430
1837.67353	0.00421
1835.61336	0.00414
1833.55318	0.00407
1831.49301	0.00403
1829.43284	0.00411
1827.37267	0.00427
1825.31250	0.00433
1823.25232	0.00423
1821.19215	0.00400
1819.13198	0.00369
1817.07181	0.00345
1815.01163	0.00340
1812.95146	0.00354
1810.89129	0.00374
1808.83112	0.00389
1806.77095	0.00393
1804.71077	0.00388
1802.65060	0.00378
1800.59043	0.00367
1798.53026	0.00357
1796.47009	0.00342
1794.40991	0.00322
1792.34974	0.00310
1790.28957	0.00319
1788.22940	0.00353
1786.16923	0.00393
1784.10905	0.00418
1782.04888	0.00418
1779.98871	0.00395
1777.92854	0.00360
1775.86836	0.00328
1773.80819	0.00312
1771.74802	0.00321
1769.68785	0.00357
1767.62768	0.00411
1765.56750	0.00478
1763.50733	0.00567
1761.44716	0.00687
1759.38699	0.00841
1757.32682	0.01025
1755.26664	0.01229
1753.20647	0.01445
1751.14630	0.01671
1749.08613	0.01901
1747.02596	0.02114
1744.96578	0.02283
1742.90561	0.02389
1740.84544	0.02424
1738.78527	0.02394
1736.72509	0.02327
1734.66492	0.02254
1732.60475	0.02201
1730.54458	0.02176
1728.48441	0.02172
1726.42423	0.02179
1724.36406	0.02185
1722.30389	0.02181
1720.24372	0.02159
1718.18355	0.02119
1716.12337	0.02083
1714.06320	0.02075
1712.00303	0.02092
1709.94286	0.02108
1707.88268	0.02103
1705.82251	0.02074
1703.76234	0.02024
1701.70217	0.01963
1699.64200	0.01912
1697.58182	0.01903
1695.52165	0.01953
1693.46148	0.02049
1691.40131	0.02165
1689.34114	0.02282
1687.28096	0.02407
1685.22079	0.02560
1683.16062	0.02754
1681.10045	0.02967
1679.04028	0.03163
1676.98010	0.03318
1674.91993	0.03423
1672.85976	0.03475
1670.79959	0.03481
1668.73941	0.03463
1666.67924	0.03436
1664.61907	0.03399
1662.55890	0.03351
1660.49873	0.03296
1658.43855	0.03229
1656.37838	0.03144
1654.31821	0.03047
1652.25804	0.02971
1650.19787	0.02944
1648.13769	0.02958
1646.07752	0.03002
1644.01735	0.03066
1641.95718	0.03135
1639.89701	0.03197
1637.83683	0.03255
1635.77666	0.03319
1633.71649	0.03395
1631.65632	0.03472
1629.59614	0.03533
1627.53597	0.03577
1625.47580	0.03608
1623.41563	0.03636
1621.35546	0.03666
1619.29528	0.03698
1617.23511	0.03745
1615.17494	0.03819
1613.11477	0.03924
1611.05460	0.04046
1608.99442	0.04166
1606.93425	0.04256
1604.87408	0.04287
1602.81391	0.04241
1600.75373	0.04126
1598.69356	0.03969
1596.63339	0.03798
1594.57322	0.03634
1592.51305	0.03493
1590.45287	0.03383
1588.39270	0.03297
1586.33253	0.03218
1584.27236	0.03131
1582.21219	0.03030
1580.15201	0.02915
1578.09184	0.02795
1576.03167	0.02683
1573.97150	0.02593
1571.91133	0.02519
1569.85115	0.02446
1567.79098	0.02368
1565.73081	0.02278
1563.67064	0.02159
1561.61046	0.02007
1559.55029	0.01841
1557.49012	0.01706
1555.42995	0.01622
1553.36978	0.01571
1551.30960	0.01525
1549.24943	0.01468
1547.18926	0.01389
1545.12909	0.01284
1543.06892	0.01162
1541.00874	0.01052
1538.94857	0.00988
1536.88840	0.00970
1534.82823	0.00965
1532.76805	0.00954
1530.70788	0.00938
1528.64771	0.00921
1526.58754	0.00909
1524.52737	0.00917
1522.46719	0.00970
1520.40702	0.01082
1518.34685	0.01226
1516.28668	0.01347
1514.22651	0.01393
1512.16633	0.01335
1510.10616	0.01188
1508.04599	0.01004
1505.98582	0.00853
1503.92565	0.00761
1501.86547	0.00697
1499.80530	0.00627
1497.74513	0.00550
1495.68496	0.00484
1493.62478	0.00433
1491.56461	0.00387
1489.50444	0.00353
1487.44427	0.00342
1485.38410	0.00355
1483.32392	0.00384
1481.26375	0.00426
1479.20358	0.00487
1477.14341	0.00578
1475.08324	0.00717
1473.02306	0.00919
1470.96289	0.01173
1468.90272	0.01435
1466.84255	0.01671
1464.78238	0.01868
1462.72220	0.02023
1460.66203	0.02136
1458.60186	0.02224
1456.54169	0.02310
1454.48151	0.02399
1452.42134	0.02485
1450.36117	0.02569
1448.30100	0.02659
1446.24083	0.02762
1444.18065	0.02870
1442.12048	0.02973
1440.06031	0.03061
1438.00014	0.03129
1435.93997	0.03184
1433.87979	0.03226
1431.81962	0.03249
1429.75945	0.03258
1427.69928	0.03263
1425.63910	0.03269
1423.57893	0.03273
1421.51876	0.03274
1419.45859	0.03277
1417.39842	0.03286
1415.33824	0.03293
1413.27807	0.03283
1411.21790	0.03248
1409.15773	0.03187
1407.09756	0.03103
1405.03738	0.03002
1402.97721	0.02898
1400.91704	0.02798
1398.85687	0.02705
1396.79670	0.02630
1394.73652	0.02584
1392.67635	0.02569
1390.61618	0.02575
1388.55601	0.02598
1386.49583	0.02646
1384.43566	0.02721
1382.37549	0.02812
1380.31532	0.02899
1378.25515	0.02971
1376.19497	0.03025
1374.13480	0.03061
1372.07463	0.03079
1370.01446	0.03071
1367.95429	0.03036
1365.89411	0.02979
1363.83394	0.02917
1361.77377	0.02864
1359.71360	0.02830
1357.65343	0.02812
1355.59325	0.02799
1353.53308	0.02785
1351.47291	0.02769
1349.41274	0.02756
1347.35256	0.02750
1345.29239	0.02745
1343.23222	0.02736
1341.17205	0.02717
1339.11188	0.02694
1337.05170	0.02676
1334.99153	0.02670
1332.93136	0.02678
1330.87119	0.02693
1328.81102	0.02710
1326.75084	0.02725
1324.69067	0.02739
1322.63050	0.02752
1320.57033	0.02758
1318.51015	0.02752
1316.44998	0.02733
1314.38981	0.02703
1312.32964	0.02663
1310.26947	0.02615
1308.20929	0.02559
1306.14912	0.02495
1304.08895	0.02429
1302.02878	0.02370
1299.96861	0.02325
1297.90843	0.02296
1295.84826	0.02281
1293.78809	0.02280
1291.72792	0.02286
1289.66775	0.02296
1287.60757	0.02310
1285.54740	0.02325
1283.48723	0.02343
1281.42706	0.02367
1279.36688	0.02399
1277.30671	0.02436
1275.24654	0.02473
1273.18637	0.02512
1271.12620	0.02562
1269.06602	0.02625
1267.00585	0.02701
1264.94568	0.02785
1262.88551	0.02872
1260.82534	0.02956
1258.76516	0.03034
1256.70499	0.03102
1254.64482	0.03159
1252.58465	0.03206
1250.52447	0.03248
1248.46430	0.03287
1246.40413	0.03323
1244.34396	0.03354
1242.28379	0.03377
1240.22361	0.03387
1238.16344	0.03378
1236.10327	0.03345
1234.04310	0.03288
1231.98293	0.03212
1229.92275	0.03120
1227.86258	0.03012
1225.80241	0.02888
1223.74224	0.02748
1221.68207	0.02597
1219.62189	0.02445
1217.56172	0.02297
1215.50155	0.02152
1213.44138	0.02013
1211.38120	0.01880
1209.32103	0.01749
1207.26086	0.01613
1205.20069	0.01465
1203.14052	0.01306
1201.08034	0.01143
1199.02017	0.00983
1196.96000	0.00830
1194.89983	0.00686
1192.83966	0.00561
1190.77948	0.00467
1188.71931	0.00414
1186.65914	0.00396
1184.59897	0.00397
1182.53880	0.00430
1180.47862	0.00502
1178.41845	0.00616
1176.35828	0.00780
1174.29811	0.00996
1172.23793	0.01248
1170.17776	0.01504
1168.11759	0.01722
1166.05742	0.01876
1163.99725	0.01971
1161.93707	0.02035
1159.87690	0.02092
1157.81673	0.02157
1155.75656	0.02249
1153.69639	0.02365
1151.63621	0.02489
1149.57604	0.02614
1147.51587	0.02738
1145.45570	0.02854
1143.39552	0.02949
1141.33535	0.03020
1139.27518	0.03085
1137.21501	0.03151
1135.15484	0.03215
1133.09466	0.03282
1131.03449	0.03373
1128.97432	0.03497
1126.91415	0.03638
1124.85398	0.03774
1122.79380	0.03914
1120.73363	0.04065
1118.67346	0.04224
1116.61329	0.04381
1114.55312	0.04524
1112.49294	0.04643
1110.43277	0.04748
1108.37260	0.04856
1106.31243	0.04990
1104.25225	0.05147
1102.19208	0.05311
1100.13191	0.05489
1098.07174	0.05704
1096.01157	0.05952
1093.95139	0.06207
1091.89122	0.06448
1089.83105	0.06665
1087.77088	0.06855
1085.71071	0.07035
1083.65053	0.07229
1081.59036	0.07443
1079.53019	0.07664
1077.47002	0.07892
1075.40985	0.08136
1073.34967	0.08379
1071.28950	0.08598
1069.22933	0.08793
1067.16916	0.08976
1065.10898	0.09156
1063.04881	0.09339
1060.98864	0.09515
1058.92847	0.09682
1056.86830	0.09853
1054.80812	0.10046
1052.74795	0.10260
1050.68778	0.10478
1048.62761	0.10708
1046.56744	0.10971
1044.50726	0.11250
1042.44709	0.11514
1040.38692	0.11758
1038.32675	0.11990
1036.26657	0.12192
1034.20640	0.12336
1032.14623	0.12412
1030.08606	0.12430
1028.02589	0.12399
1025.96571	0.12331
1023.90554	0.12264
1021.84537	0.12232
1019.78520	0.12224
1017.72503	0.12211
1015.66485	0.12184
1013.60468	0.12163
1011.54451	0.12168
1009.48434	0.12186
1007.42417	0.12184
1005.36399	0.12156
1003.30382	0.12106
1001.24365	0.12024
999.18348	0.11912
997.12330	0.11768
995.06313	0.11581
993.00296	0.11370
990.94279	0.11172
988.88262	0.10999
986.82244	0.10831
984.76227	0.10641
982.70210	0.10443
980.64193	0.10266
978.58176	0.10104
976.52158	0.09944
974.46141	0.09783
972.40124	0.09609
970.34107	0.09414
968.28089	0.09220
966.22072	0.09046
964.16055	0.08865
962.10038	0.08658
960.04021	0.08446
957.98003	0.08252
955.91986	0.08069
953.85969	0.07888
951.79952	0.07706
949.73935	0.07531
947.67917	0.07373
945.61900	0.07212
943.55883	0.07006
941.49866	0.06731
939.43849	0.06383
937.37831	0.05980
935.31814	0.05549
933.25797	0.05136
931.19780	0.04791
929.13762	0.04518
927.07745	0.04270
925.01728	0.04014
922.95711	0.03754
920.89694	0.03521
918.83676	0.03335
916.77659	0.03176
914.71642	0.03017
912.65625	0.02853
910.59608	0.02680
908.53590	0.02513
906.47573	0.02392
904.41556	0.02331
902.35539	0.02291
900.29522	0.02248
898.23504	0.02223
896.17487	0.02240
894.11470	0.02288
892.05453	0.02315
889.99435	0.02294
887.93418	0.02232
885.87401	0.02127
883.81384	0.01993
881.75367	0.01866
879.69349	0.01753
877.63332	0.01645
875.57315	0.01541
873.51298	0.01454
871.45281	0.01404
869.39263	0.01378
867.33246	0.01349
865.27229	0.01309
863.21212	0.01264
861.15194	0.01215
859.09177	0.01173
857.03160	0.01140
854.97143	0.01121
852.91126	0.01121
850.85108	0.01130
848.79091	0.01138
846.73074	0.01144
844.67057	0.01163
842.61040	0.01197
840.55022	0.01211
838.49005	0.01177
836.42988	0.01112
834.36971	0.01040
832.30954	0.00965
830.24936	0.00894
828.18919	0.00847
826.12902	0.00806
824.06885	0.00736
822.00867	0.00670
819.94850	0.00666
817.88833	0.00701
815.82816	0.00721
813.76799	0.00708
811.70781	0.00689
809.64764	0.00704
807.58747	0.00746
805.52730	0.00778
803.46713	0.00787
801.40695	0.00782
799.34678	0.00755
797.28661	0.00697
795.22644	0.00635
793.16627	0.00602
791.10609	0.00584
789.04592	0.00543
786.98575	0.00484
784.92558	0.00453
782.86540	0.00480
780.80523	0.00578
778.74506	0.00669
776.68489	0.00671
774.62472	0.00602
772.56454	0.00539
770.50437	0.00511
768.44420	0.00486
766.38403	0.00453
764.32386	0.00457
762.26368	0.00512
760.20351	0.00558
758.14334	0.00558
756.08317	0.00533
754.02299	0.00497
751.96282	0.00458
749.90265	0.00401
747.84248	0.00362
745.78231	0.00333
743.72213	0.00286
741.66196	0.00214
739.60179	0.00143
737.54162	0.00097
735.48145	0.00084
733.42127	0.00108
731.36110	0.00173
729.30093	0.00261
727.24076	0.00326
725.18059	0.00355
723.12041	0.00385
721.06024	0.00420
719.00007	0.00448
716.93990	0.00459
714.87972	0.00461
712.81955	0.00475
710.75938	0.00517
708.69921	0.00587
706.63904	0.00666
704.57886	0.00735
702.51869	0.00791
700.45852	0.00833
698.39835	0.00839
696.33818	0.00793
694.27800	0.00708
692.21783	0.00627
690.15766	0.00575
688.09749	0.00553
686.03731	0.00549
683.97714	0.00544
681.91697	0.00521
679.85680	0.00482
677.79663	0.00442
675.73645	0.00398
673.67628	0.00338
671.61611	0.00272
669.55594	0.00239
667.49577	0.00284
665.43559	0.00372
663.37542	0.00407
661.31525	0.00363
659.25508	0.00281
657.19491	0.00212
655.13473	0.00186
653.07456	0.00208
651.01439	0.00274
648.95422	0.00359
646.89404	0.00417
644.83387	0.00447
642.77370	0.00445
640.71353	0.00417
638.65336	0.00380
636.59318	0.00346
634.53301	0.00319
632.47284	0.00306
630.41267	0.00317
628.35250	0.00337
626.29232	0.00318
624.23215	0.00222
622.17198	0.00166
620.11181	0.00261
618.05164	0.00401
615.99146	0.00414
613.93129	0.00277
611.87112	0.00126
609.81095	0.00087
607.75077	0.00089
605.69060	0.00063
603.63043	0.00001
601.57026	0.00000
599.51009	0.00000
