3996.73391	0.00167
3994.67373	0.00145
3992.61356	0.00110
3990.55339	0.00068
3988.49322	0.00032
3986.43305	0.00011
3984.37287	0.00000
3982.31270	0.00001
3980.25253	0.00016
3978.19236	0.00036
3976.13219	0.00049
3974.07201	0.00055
3972.01184	0.00057
3969.95167	0.00063
3967.89150	0.00070
3965.83133	0.00077
3963.77115	0.00085
3961.71098	0.00103
3959.65081	0.00131
3957.59064	0.00153
3955.53046	0.00156
3953.47029	0.00144
3951.41012	0.00129
3949.34995	0.00121
3947.28978	0.00122
3945.22960	0.00117
3943.16943	0.00100
3941.10926	0.00078
3939.04909	0.00068
3936.98892	0.00075
3934.92874	0.00093
3932.86857	0.00108
3930.80840	0.00113
3928.74823	0.00107
3926.68805	0.00090
3924.62788	0.00066
3922.56771	0.00047
3920.50754	0.00040
3918.44737	0.00042
3916.38719	0.00049
3914.32702	0.00057
3912.26685	0.00068
3910.20668	0.00092
3908.14651	0.00126
3906.08633	0.00154
3904.02616	0.00158
3901.96599	0.00134
3899.90582	0.00099
3897.84565	0.00079
3895.78547	0.00079
3893.72530	0.00083
3891.66513	0.00076
3889.60496	0.00059
3887.54478	0.00043
3885.48461	0.00027
3883.42444	0.00014
3881.36427	0.00008
3879.30410	0.00016
3877.24392	0.00037
3875.18375	0.00060
3873.12358	0.00082
3871.06341	0.00101
3869.00324	0.00108
3866.94306	0.00093
3864.88289	0.00064
3862.82272	0.00041
3860.76255	0.00042
3858.70237	0.00070
3856.64220	0.00117
3854.58203	0.00167
3852.52186	0.00199
3850.46169	0.00210
3848.40151	0.00218
3846.34134	0.00235
3844.28117	0.00247
3842.22100	0.00234
3840.16083	0.00206
3838.10065	0.00189
3836.04048	0.00190
3833.98031	0.00188
3831.92014	0.00164
3829.85997	0.00125
3827.79979	0.00093
3825.73962	0.00078
3823.67945	0.00065
3821.61928	0.00038
3819.55910	0.00015
3817.49893	0.00026
3815.43876	0.00070
3813.37859	0.00124
3811.31842	0.00160
3809.25824	0.00161
3807.19807	0.00131
3805.13790	0.00088
3803.07773	0.00057
3801.01756	0.00051
3798.95738	0.00068
3796.89721	0.00092
3794.83704	0.00112
3792.77687	0.00131
3790.71670	0.00160
3788.65652	0.00194
3786.59635	0.00215
3784.53618	0.00216
3782.47601	0.00201
3780.41583	0.00173
3778.35566	0.00143
3776.29549	0.00131
3774.23532	0.00139
3772.17515	0.00156
3770.11497	0.00169
3768.05480	0.00176
3765.99463	0.00183
3763.93446	0.00196
3761.87429	0.00207
3759.81411	0.00208
3757.75394	0.00194
3755.69377	0.00179
3753.63360	0.00169
3751.57342	0.00160
3749.51325	0.00158
3747.45308	0.00171
3745.39291	0.00194
3743.33274	0.00200
3741.27256	0.00165
3739.21239	0.00096
3737.15222	0.00029
3735.09205	0.00017
3733.03188	0.00081
3730.97170	0.00172
3728.91153	0.00227
3726.85136	0.00233
3724.79119	0.00212
3722.73102	0.00188
3720.67084	0.00177
3718.61067	0.00177
3716.55050	0.00174
3714.49033	0.00172
3712.43015	0.00184
3710.36998	0.00205
3708.30981	0.00218
3706.24964	0.00218
3704.18947	0.00208
3702.12929	0.00189
3700.06912	0.00165
3698.00895	0.00155
3695.94878	0.00170
3693.88861	0.00205
3691.82843	0.00246
3689.76826	0.00277
3687.70809	0.00287
3685.64792	0.00267
3683.58775	0.00215
3681.52757	0.00149
3679.46740	0.00092
3677.40723	0.00050
3675.34706	0.00024
3673.28688	0.00021
3671.22671	0.00044
3669.16654	0.00096
3667.10637	0.00175
3665.04620	0.00264
3662.98602	0.00337
3660.92585	0.00373
3658.86568	0.00365
3656.80551	0.00317
3654.74534	0.00248
3652.68516	0.00176
3650.62499	0.00119
3648.56482	0.00102
3646.50465	0.00145
3644.44447	0.00230
3642.38430	0.00317
3640.32413	0.00370
3638.26396	0.00376
3636.20379	0.00349
3634.14361	0.00323
3632.08344	0.00331
3630.02327	0.00390
3627.96310	0.00484
3625.90293	0.00579
3623.84275	0.00653
3621.78258	0.00711
3619.72241	0.00758
3617.66224	0.00794
3615.60207	0.00811
3613.54189	0.00804
3611.48172	0.00770
3609.42155	0.00725
3607.36138	0.00696
3605.30120	0.00692
3603.24103	0.00704
3601.18086	0.00728
3599.12069	0.00770
3597.06052	0.00827
3595.00034	0.00885
3592.94017	0.00921
3590.88000	0.00928
3588.81983	0.00923
3586.75966	0.00943
3584.69948	0.01012
3582.63931	0.01113
3580.57914	0.01198
3578.51897	0.01238
3576.45879	0.01250
3574.39862	0.01260
3572.33845	0.01274
3570.27828	0.01284
3568.21811	0.01292
3566.15793	0.01310
3564.09776	0.01354
3562.03759	0.01420
3559.97742	0.01490
3557.91725	0.01547
3555.85707	0.01592
3553.79690	0.01639
3551.73673	0.01695
3549.67656	0.01753
3547.61639	0.01804
3545.55621	0.01842
3543.49604	0.01869
3541.43587	0.01895
3539.37570	0.01941
3537.31552	0.02016
3535.25535	0.02106
3533.19518	0.02187
3531.13501	0.02259
3529.07484	0.02329
3527.01466	0.02391
3524.95449	0.02445
3522.89432	0.02494
3520.83415	0.02532
3518.77398	0.02566
3516.71380	0.02607
3514.65363	0.02653
3512.59346	0.02697
3510.53329	0.02738
3508.47312	0.02782
3506.41294	0.02836
3504.35277	0.02897
3502.29260	0.02952
3500.23243	0.02988
3498.17225	0.03008
3496.11208	0.03033
3494.05191	0.03076
3491.99174	0.03131
3489.93157	0.03182
3487.87139	0.03225
3485.81122	0.03270
3483.75105	0.03328
3481.69088	0.03391
3479.63071	0.03437
3477.57053	0.03462
3475.51036	0.03481
3473.45019	0.03515
3471.39002	0.03573
3469.32984	0.03653
3467.26967	0.03745
3465.20950	0.03835
3463.14933	0.03906
3461.08916	0.03952
3459.02898	0.03976
3456.96881	0.03994
3454.90864	0.04022
3452.84847	0.04066
3450.78830	0.04120
3448.72812	0.04174
3446.66795	0.04223
3444.60778	0.04267
3442.54761	0.04310
3440.48744	0.04353
3438.42726	0.04393
3436.36709	0.04426
3434.30692	0.04456
3432.24675	0.04497
3430.18657	0.04560
3428.12640	0.04638
3426.06623	0.04707
3424.00606	0.04756
3421.94589	0.04790
3419.88571	0.04815
3417.82554	0.04835
3415.76537	0.04854
3413.70520	0.04879
3411.64503	0.04905
3409.58485	0.04925
3407.52468	0.04940
3405.46451	0.04958
3403.40434	0.04984
3401.34416	0.05012
3399.28399	0.05040
3397.22382	0.05074
3395.16365	0.05120
3393.10348	0.05170
3391.04330	0.05214
3388.98313	0.05251
3386.92296	0.05280
3384.86279	0.05304
3382.80262	0.05327
3380.74244	0.05351
3378.68227	0.05381
3376.62210	0.05414
3374.56193	0.05442
3372.50176	0.05455
3370.44158	0.05457
3368.38141	0.05461
3366.32124	0.05482
3364.26107	0.05523
3362.20089	0.05573
3360.14072	0.05610
3358.08055	0.05622
3356.02038	0.05615
3353.96021	0.05615
3351.90003	0.05639
3349.83986	0.05677
3347.77969	0.05702
3345.71952	0.05703
3343.65935	0.05692
3341.59917	0.05686
3339.53900	0.05690
3337.47883	0.05701
3335.41866	0.05718
3333.35849	0.05735
3331.29831	0.05747
3329.23814	0.05756
3327.17797	0.05769
3325.11780	0.05781
3323.05762	0.05780
3320.99745	0.05767
3318.93728	0.05756
3316.87711	0.05761
3314.81694	0.05780
3312.75676	0.05796
3310.69659	0.05798
3308.63642	0.05783
3306.57625	0.05760
3304.51608	0.05740
3302.45590	0.05734
3300.39573	0.05740
3298.33556	0.05742
3296.27539	0.05730
3294.21521	0.05709
3292.15504	0.05690
3290.09487	0.05689
3288.03470	0.05711
3285.97453	0.05744
3283.91435	0.05775
3281.85418	0.05800
3279.79401	0.05818
3277.73384	0.05827
3275.67367	0.05822
3273.61349	0.05799
3271.55332	0.05765
3269.49315	0.05729
3267.43298	0.05697
3265.37281	0.05669
3263.31263	0.05643
3261.25246	0.05620
3259.19229	0.05606
3257.13212	0.05606
3255.07194	0.05622
3253.01177	0.05640
3250.95160	0.05642
3248.89143	0.05620
3246.83126	0.05583
3244.77108	0.05551
3242.71091	0.05539
3240.65074	0.05545
3238.59057	0.05550
3236.53040	0.05538
3234.47022	0.05507
3232.41005	0.05470
3230.34988	0.05447
3228.28971	0.05450
3226.22954	0.05467
3224.16936	0.05473
3222.10919	0.05456
3220.04902	0.05420
3217.98885	0.05381
3215.92867	0.05347
3213.86850	0.05321
3211.80833	0.05302
3209.74816	0.05286
3207.68799	0.05267
3205.62781	0.05247
3203.56764	0.05229
3201.50747	0.05214
3199.44730	0.05197
3197.38713	0.05180
3195.32695	0.05158
3193.26678	0.05126
3191.20661	0.05078
3189.14644	0.05019
3187.08626	0.04960
3185.02609	0.04911
3182.96592	0.04878
3180.90575	0.04863
3178.84558	0.04868
3176.78540	0.04882
3174.72523	0.04882
3172.66506	0.04852
3170.60489	0.04801
3168.54472	0.04749
3166.48454	0.04704
3164.42437	0.04665
3162.36420	0.04634
3160.30403	0.04605
3158.24386	0.04578
3156.18368	0.04550
3154.12351	0.04521
3152.06334	0.04488
3150.00317	0.04456
3147.94299	0.04432
3145.88282	0.04414
3143.82265	0.04393
3141.76248	0.04360
3139.70231	0.04309
3137.64213	0.04242
3135.58196	0.04171
3133.52179	0.04117
3131.46162	0.04087
3129.40145	0.04080
3127.34127	0.04080
3125.28110	0.04071
3123.22093	0.04044
3121.16076	0.03999
3119.10058	0.03942
3117.04041	0.03886
3114.98024	0.03841
3112.92007	0.03813
3110.85990	0.03796
3108.79972	0.03781
3106.73955	0.03766
3104.67938	0.03752
3102.61921	0.03739
3100.55904	0.03725
3098.49886	0.03713
3096.43869	0.03697
3094.37852	0.03666
3092.31835	0.03614
3090.25818	0.03545
3088.19800	0.03479
3086.13783	0.03434
3084.07766	0.03414
3082.01749	0.03406
3079.95731	0.03395
3077.89714	0.03374
3075.83697	0.03343
3073.77680	0.03301
3071.71663	0.03251
3069.65645	0.03204
3067.59628	0.03167
3065.53611	0.03134
3063.47594	0.03098
3061.41577	0.03064
3059.35559	0.03035
3057.29542	0.03015
3055.23525	0.03001
3053.17508	0.02992
3051.11491	0.02984
3049.05473	0.02969
3046.99456	0.02940
3044.93439	0.02904
3042.87422	0.02868
3040.81404	0.02829
3038.75387	0.02788
3036.69370	0.02753
3034.63353	0.02735
3032.57336	0.02727
3030.51318	0.02717
3028.45301	0.02698
3026.39284	0.02676
3024.33267	0.02665
3022.27250	0.02676
3020.21232	0.02707
3018.15215	0.02737
3016.09198	0.02749
3014.03181	0.02741
3011.97163	0.02721
3009.91146	0.02697
3007.85129	0.02674
3005.79112	0.02649
3003.73095	0.02613
3001.67077	0.02571
2999.61060	0.02543
2997.55043	0.02543
2995.49026	0.02551
2993.43009	0.02550
2991.36991	0.02543
2989.30974	0.02537
2987.24957	0.02525
2985.18940	0.02517
2983.12923	0.02532
2981.06905	0.02579
2979.00888	0.02645
2976.94871	0.02715
2974.88854	0.02799
2972.82836	0.02906
2970.76819	0.03009
2968.70802	0.03089
2966.64785	0.03174
2964.58768	0.03305
2962.52750	0.03497
2960.46733	0.03724
2958.40716	0.03944
2956.34699	0.04136
2954.28682	0.04305
2952.22664	0.04461
2950.16647	0.04614
2948.10630	0.04786
2946.04613	0.04984
2943.98596	0.05208
2941.92578	0.05468
2939.86561	0.05762
2937.80544	0.06065
2935.74527	0.06360
2933.68509	0.06641
2931.62492	0.06901
2929.56475	0.07142
2927.50458	0.07356
2925.44441	0.07517
2923.38423	0.07598
2921.32406	0.07606
2919.26389	0.07562
2917.20372	0.07455
2915.14355	0.07261
2913.08337	0.06987
2911.02320	0.06690
2908.96303	0.06427
2906.90286	0.06223
2904.84268	0.06056
2902.78251	0.05889
2900.72234	0.05699
2898.66217	0.05493
2896.60200	0.05303
2894.54182	0.05152
2892.48165	0.05033
2890.42148	0.04937
2888.36131	0.04844
2886.30114	0.04731
2884.24096	0.04616
2882.18079	0.04542
2880.12062	0.04516
2878.06045	0.04517
2876.00028	0.04529
2873.94010	0.04558
2871.87993	0.04605
2869.81976	0.04650
2867.75959	0.04687
2865.69941	0.04743
2863.63924	0.04862
2861.57907	0.05063
2859.51890	0.05305
2857.45873	0.05531
2855.39855	0.05725
2853.33838	0.05866
2851.27821	0.05892
2849.21804	0.05748
2847.15787	0.05441
2845.09769	0.05041
2843.03752	0.04645
2840.97735	0.04327
2838.91718	0.04102
2836.85700	0.03923
2834.79683	0.03741
2832.73666	0.03565
2830.67649	0.03435
2828.61632	0.03355
2826.55614	0.03297
2824.49597	0.03238
2822.43580	0.03167
2820.37563	0.03089
2818.31546	0.03020
2816.25528	0.02967
2814.19511	0.02918
2812.13494	0.02861
2810.07477	0.02804
2808.01460	0.02769
2805.95442	0.02761
2803.89425	0.02747
2801.83408	0.02707
2799.77391	0.02658
2797.71373	0.02618
2795.65356	0.02589
2793.59339	0.02572
2791.53322	0.02566
2789.47305	0.02555
2787.41287	0.02530
2785.35270	0.02498
2783.29253	0.02471
2781.23236	0.02450
2779.17219	0.02433
2777.11201	0.02421
2775.05184	0.02415
2772.99167	0.02404
2770.93150	0.02387
2768.87133	0.02368
2766.81115	0.02348
2764.75098	0.02328
2762.69081	0.02323
2760.63064	0.02335
2758.57046	0.02350
2756.51029	0.02353
2754.45012	0.02332
2752.38995	0.02292
2750.32978	0.02265
2748.26960	0.02265
2746.20943	0.02273
2744.14926	0.02269
2742.08909	0.02260
2740.02892	0.02257
2737.96874	0.02247
2735.90857	0.02228
2733.84840	0.02209
2731.78823	0.02196
2729.72805	0.02196
2727.66788	0.02199
2725.60771	0.02195
2723.54754	0.02187
2721.48737	0.02178
2719.42719	0.02164
2717.36702	0.02150
2715.30685	0.02150
2713.24668	0.02156
2711.18651	0.02152
2709.12633	0.02145
2707.06616	0.02148
2705.00599	0.02158
2702.94582	0.02169
2700.88565	0.02163
2698.82547	0.02123
2696.76530	0.02074
2694.70513	0.02055
2692.64496	0.02068
2690.58478	0.02089
2688.52461	0.02099
2686.46444	0.02095
2684.40427	0.02085
2682.34410	0.02077
2680.28392	0.02071
2678.22375	0.02064
2676.16358	0.02060
2674.10341	0.02057
2672.04324	0.02043
2669.98306	0.02015
2667.92289	0.01983
2665.86272	0.01965
2663.80255	0.01974
2661.74238	0.02002
2659.68220	0.02022
2657.62203	0.02010
2655.56186	0.01973
2653.50169	0.01941
2651.44151	0.01930
2649.38134	0.01926
2647.32117	0.01922
2645.26100	0.01916
2643.20083	0.01901
2641.14065	0.01862
2639.08048	0.01809
2637.02031	0.01779
2634.96014	0.01786
2632.89997	0.01804
2630.83979	0.01809
2628.77962	0.01808
2626.71945	0.01805
2624.65928	0.01794
2622.59910	0.01789
2620.53893	0.01799
2618.47876	0.01815
2616.41859	0.01816
2614.35842	0.01799
2612.29824	0.01777
2610.23807	0.01762
2608.17790	0.01756
2606.11773	0.01764
2604.05756	0.01776
2601.99738	0.01768
2599.93721	0.01740
2597.87704	0.01710
2595.81687	0.01684
2593.75670	0.01654
2591.69652	0.01619
2589.63635	0.01583
2587.57618	0.01554
2585.51601	0.01545
2583.45583	0.01547
2581.39566	0.01541
2579.33549	0.01530
2577.27532	0.01535
2575.21515	0.01552
2573.15497	0.01552
2571.09480	0.01522
2569.03463	0.01480
2566.97446	0.01445
2564.91429	0.01418
2562.85411	0.01404
2560.79394	0.01414
2558.73377	0.01460
2556.67360	0.01519
2554.61342	0.01529
2552.55325	0.01487
2550.49308	0.01451
2548.43291	0.01445
2546.37274	0.01452
2544.31256	0.01464
2542.25239	0.01480
2540.19222	0.01486
2538.13205	0.01473
2536.07188	0.01447
2534.01170	0.01413
2531.95153	0.01374
2529.89136	0.01360
2527.83119	0.01395
2525.77102	0.01440
2523.71084	0.01449
2521.65067	0.01424
2519.59050	0.01383
2517.53033	0.01340
2515.47015	0.01301
2513.40998	0.01281
2511.34981	0.01294
2509.28964	0.01333
2507.22947	0.01372
2505.16929	0.01393
2503.10912	0.01382
2501.04895	0.01333
2498.98878	0.01275
2496.92861	0.01251
2494.86843	0.01262
2492.80826	0.01269
2490.74809	0.01259
2488.68792	0.01266
2486.62775	0.01286
2484.56757	0.01276
2482.50740	0.01245
2480.44723	0.01238
2478.38706	0.01268
2476.32688	0.01307
2474.26671	0.01327
2472.20654	0.01319
2470.14637	0.01284
2468.08620	0.01241
2466.02602	0.01210
2463.96585	0.01190
2461.90568	0.01173
2459.84551	0.01161
2457.78534	0.01173
2455.72516	0.01207
2453.66499	0.01222
2451.60482	0.01188
2449.54465	0.01139
2447.48447	0.01127
2445.42430	0.01148
2443.36413	0.01149
2441.30396	0.01121
2439.24379	0.01105
2437.18361	0.01112
2435.12344	0.01123
2433.06327	0.01123
2431.00310	0.01119
2428.94293	0.01113
2426.88275	0.01112
2424.82258	0.01114
2422.76241	0.01108
2420.70224	0.01108
2418.64207	0.01124
2416.58189	0.01123
2414.52172	0.01095
2412.46155	0.01082
2410.40138	0.01099
2408.34120	0.01119
2406.28103	0.01124
2404.22086	0.01101
2402.16069	0.01053
2400.10052	0.01019
2398.04034	0.01022
2395.98017	0.01050
2393.92000	0.01091
2391.85983	0.01130
2389.79966	0.01157
2387.73948	0.01164
2385.67931	0.01154
2383.61914	0.01133
2381.55897	0.01113
2379.49880	0.01111
2377.43862	0.01125
2375.37845	0.01133
2373.31828	0.01118
2371.25811	0.01096
2369.19793	0.01096
2367.13776	0.01123
2365.07759	0.01146
2363.01742	0.01130
2360.95725	0.01068
2358.89707	0.00981
2356.83690	0.00912
2354.77673	0.00908
2352.71656	0.00977
2350.65639	0.01079
2348.59621	0.01156
2346.53604	0.01187
2344.47587	0.01198
2342.41570	0.01203
2340.35552	0.01194
2338.29535	0.01172
2336.23518	0.01143
2334.17501	0.01117
2332.11484	0.01115
2330.05466	0.01153
2327.99449	0.01218
2325.93432	0.01285
2323.87415	0.01330
2321.81398	0.01351
2319.75380	0.01358
2317.69363	0.01350
2315.63346	0.01313
2313.57329	0.01248
2311.51312	0.01176
2309.45294	0.01127
2307.39277	0.01110
2305.33260	0.01114
2303.27243	0.01120
2301.21225	0.01122
2299.15208	0.01119
2297.09191	0.01109
2295.03174	0.01087
2292.97157	0.01060
2290.91139	0.01036
2288.85122	0.01023
2286.79105	0.01019
2284.73088	0.01016
2282.67071	0.01008
2280.61053	0.00992
2278.55036	0.00974
2276.49019	0.00950
2274.43002	0.00916
2272.36984	0.00879
2270.30967	0.00858
2268.24950	0.00860
2266.18933	0.00859
2264.12916	0.00831
2262.06898	0.00781
2260.00881	0.00737
2257.94864	0.00723
2255.88847	0.00750
2253.82830	0.00813
2251.76812	0.00897
2249.70795	0.00986
2247.64778	0.01057
2245.58761	0.01066
2243.52744	0.00979
2241.46726	0.00847
2239.40709	0.00738
2237.34692	0.00661
2235.28675	0.00638
2233.22657	0.00697
2231.16640	0.00786
2229.10623	0.00850
2227.04606	0.00870
2224.98589	0.00836
2222.92571	0.00761
2220.86554	0.00675
2218.80537	0.00619
2216.74520	0.00653
2214.68503	0.00769
2212.62485	0.00871
2210.56468	0.00900
2208.50451	0.00876
2206.44434	0.00825
2204.38417	0.00767
2202.32399	0.00707
2200.26382	0.00647
2198.20365	0.00619
2196.14348	0.00611
2194.08330	0.00586
2192.02313	0.00543
2189.96296	0.00524
2187.90279	0.00564
2185.84262	0.00651
2183.78244	0.00734
2181.72227	0.00739
2179.66210	0.00677
2177.60193	0.00626
2175.54176	0.00620
2173.48158	0.00666
2171.42141	0.00724
2169.36124	0.00687
2167.30107	0.00556
2165.24089	0.00558
2163.18072	0.00789
2161.12055	0.00888
2159.06038	0.00606
2157.00021	0.00302
2154.94003	0.00342
2152.87986	0.00551
2150.81969	0.00635
2148.75952	0.00635
2146.69935	0.00692
2144.63917	0.00762
2142.57900	0.00779
2140.51883	0.00780
2138.45866	0.00763
2136.39849	0.00698
2134.33831	0.00618
2132.27814	0.00573
2130.21797	0.00592
2128.15780	0.00672
2126.09762	0.00756
2124.03745	0.00787
2121.97728	0.00763
2119.91711	0.00745
2117.85694	0.00759
2115.79676	0.00765
2113.73659	0.00758
2111.67642	0.00770
2109.61625	0.00793
2107.55608	0.00808
2105.49590	0.00824
2103.43573	0.00832
2101.37556	0.00820
2099.31539	0.00818
2097.25521	0.00821
2095.19504	0.00807
2093.13487	0.00768
2091.07470	0.00715
2089.01453	0.00669
2086.95435	0.00652
2084.89418	0.00673
2082.83401	0.00716
2080.77384	0.00757
2078.71367	0.00768
2076.65349	0.00741
2074.59332	0.00695
2072.53315	0.00656
2070.47298	0.00642
2068.41281	0.00659
2066.35263	0.00690
2064.29246	0.00708
2062.23229	0.00709
2060.17212	0.00710
2058.11194	0.00721
2056.05177	0.00734
2053.99160	0.00731
2051.93143	0.00712
2049.87126	0.00695
2047.81108	0.00698
2045.75091	0.00715
2043.69074	0.00718
2041.63057	0.00676
2039.57040	0.00586
2037.51022	0.00486
2035.45005	0.00420
2033.38988	0.00420
2031.32971	0.00481
2029.26954	0.00543
2027.20936	0.00533
2025.14919	0.00454
2023.08902	0.00364
2021.02885	0.00284
2018.96867	0.00196
2016.90850	0.00127
2014.84833	0.00132
2012.78816	0.00208
2010.72799	0.00308
2008.66781	0.00408
2006.60764	0.00503
2004.54747	0.00562
2002.48730	0.00562
2000.42713	0.00524
1998.36695	0.00475
1996.30678	0.00425
1994.24661	0.00383
1992.18644	0.00362
1990.12626	0.00368
1988.06609	0.00399
1986.00592	0.00441
1983.94575	0.00470
1981.88558	0.00480
1979.82540	0.00464
1977.76523	0.00396
1975.70506	0.00277
1973.64489	0.00167
1971.58472	0.00130
1969.52454	0.00161
1967.46437	0.00205
1965.40420	0.00222
1963.34403	0.00215
1961.28386	0.00216
1959.22368	0.00260
1957.16351	0.00353
1955.10334	0.00460
1953.04317	0.00539
1950.98299	0.00581
1948.92282	0.00593
1946.86265	0.00581
1944.80248	0.00549
1942.74231	0.00502
1940.68213	0.00453
1938.62196	0.00419
1936.56179	0.00399
1934.50162	0.00384
1932.44145	0.00375
1930.38127	0.00370
1928.32110	0.00363
1926.26093	0.00356
1924.20076	0.00360
1922.14059	0.00382
1920.08041	0.00410
1918.02024	0.00425
1915.96007	0.00425
1913.89990	0.00418
1911.83972	0.00408
1909.77955	0.00395
1907.71938	0.00382
1905.65921	0.00378
1903.59904	0.00385
1901.53886	0.00401
1899.47869	0.00416
1897.41852	0.00417
1895.35835	0.00399
1893.29818	0.00373
1891.23800	0.00351
1889.17783	0.00340
1887.11766	0.00335
1885.05749	0.00331
1882.99731	0.00332
1880.93714	0.00340
1878.87697	0.00351
1876.81680	0.00363
1874.75663	0.00377
1872.69645	0.00391
1870.63628	0.00395
1868.57611	0.00383
1866.51594	0.00352
1864.45577	0.00307
1862.39559	0.00268
1860.33542	0.00251
1858.27525	0.00262
1856.21508	0.00295
1854.15491	0.00323
1852.09473	0.00327
1850.03456	0.00305
1847.97439	0.00275
1845.91422	0.00252
1843.85404	0.00240
1841.79387	0.00235
1839.73370	0.00235
1837.67353	0.00231
1835.61336	0.00220
1833.55318	0.00206
1831.49301	0.00198
1829.43284	0.00200
1827.37267	0.00205
1825.31250	0.00206
1823.25232	0.00211
1821.19215	0.00218
1819.13198	0.00215
1817.07181	0.00204
1815.01163	0.00200
1812.95146	0.00207
1810.89129	0.00218
1808.83112	0.00225
1806.77095	0.00223
1804.71077	0.00217
1802.65060	0.00210
1800.59043	0.00203
1798.53026	0.00196
1796.47009	0.00188
1794.40991	0.00177
1792.34974	0.00167
1790.28957	0.00166
1788.22940	0.00174
1786.16923	0.00187
1784.10905	0.00198
1782.04888	0.00202
1779.98871	0.00195
1777.92854	0.00179
1775.86836	0.00157
1773.80819	0.00143
1771.74802	0.00144
1769.68785	0.00180
1767.62768	0.00248
1765.56750	0.00338
1763.50733	0.00444
1761.44716	0.00572
1759.38699	0.00731
1757.32682	0.00927
1755.26664	0.01157
1753.20647	0.01412
1751.14630	0.01678
1749.08613	0.01933
1747.02596	0.02152
1744.96578	0.02313
1742.90561	0.02405
1740.84544	0.02425
1738.78527	0.02389
1736.72509	0.02321
1734.66492	0.02247
1732.60475	0.02191
1730.54458	0.02163
1728.48441	0.02155
1726.42423	0.02156
1724.36406	0.02161
1722.30389	0.02169
1720.24372	0.02169
1718.18355	0.02154
1716.12337	0.02132
1714.06320	0.02115
1712.00303	0.02104
1709.94286	0.02084
1707.88268	0.02050
1705.82251	0.01998
1703.76234	0.01938
1701.70217	0.01885
1699.64200	0.01864
1697.58182	0.01891
1695.52165	0.01961
1693.46148	0.02057
1691.40131	0.02165
1689.34114	0.02282
1687.28096	0.02415
1685.22079	0.02587
1683.16062	0.02808
1681.10045	0.03047
1679.04028	0.03263
1676.98010	0.03429
1674.91993	0.03533
1672.85976	0.03576
1670.79959	0.03570
1668.73941	0.03536
1666.67924	0.03493
1664.61907	0.03442
1662.55890	0.03380
1660.49873	0.03312
1658.43855	0.03247
1656.37838	0.03183
1654.31821	0.03114
1652.25804	0.03047
1650.19787	0.03005
1648.13769	0.02996
1646.07752	0.03024
1644.01735	0.03082
1641.95718	0.03153
1639.89701	0.03221
1637.83683	0.03284
1635.77666	0.03354
1633.71649	0.03443
1631.65632	0.03537
1629.59614	0.03613
1627.53597	0.03667
1625.47580	0.03707
1623.41563	0.03748
1621.35546	0.03797
1619.29528	0.03851
1617.23511	0.03913
1615.17494	0.03989
1613.11477	0.04083
1611.05460	0.04194
1608.99442	0.04309
1606.93425	0.04400
1604.87408	0.04433
1602.81391	0.04385
1600.75373	0.04265
1598.69356	0.04101
1596.63339	0.03922
1594.57322	0.03753
1592.51305	0.03609
1590.45287	0.03489
1588.39270	0.03386
1586.33253	0.03286
1584.27236	0.03178
1582.21219	0.03058
1580.15201	0.02931
1578.09184	0.02803
1576.03167	0.02683
1573.97150	0.02582
1571.91133	0.02494
1569.85115	0.02411
1567.79098	0.02329
1565.73081	0.02243
1563.67064	0.02148
1561.61046	0.02034
1559.55029	0.01895
1557.49012	0.01740
1555.42995	0.01608
1553.36978	0.01517
1551.30960	0.01455
1549.24943	0.01391
1547.18926	0.01301
1545.12909	0.01180
1543.06892	0.01045
1541.00874	0.00934
1538.94857	0.00874
1536.88840	0.00857
1534.82823	0.00847
1532.76805	0.00823
1530.70788	0.00792
1528.64771	0.00767
1526.58754	0.00757
1524.52737	0.00773
1522.46719	0.00835
1520.40702	0.00959
1518.34685	0.01114
1516.28668	0.01241
1514.22651	0.01290
1512.16633	0.01242
1510.10616	0.01109
1508.04599	0.00929
1505.98582	0.00760
1503.92565	0.00637
1501.86547	0.00543
1499.80530	0.00453
1497.74513	0.00365
1495.68496	0.00295
1493.62478	0.00244
1491.56461	0.00206
1489.50444	0.00177
1487.44427	0.00161
1485.38410	0.00161
1483.32392	0.00179
1481.26375	0.00220
1479.20358	0.00285
1477.14341	0.00386
1475.08324	0.00542
1473.02306	0.00766
1470.96289	0.01041
1468.90272	0.01327
1466.84255	0.01585
1464.78238	0.01798
1462.72220	0.01959
1460.66203	0.02073
1458.60186	0.02162
1456.54169	0.02254
1454.48151	0.02354
1452.42134	0.02452
1450.36117	0.02549
1448.30100	0.02657
1446.24083	0.02774
1444.18065	0.02887
1442.12048	0.02984
1440.06031	0.03064
1438.00014	0.03132
1435.93997	0.03198
1433.87979	0.03252
1431.81962	0.03280
1429.75945	0.03286
1427.69928	0.03287
1425.63910	0.03292
1423.57893	0.03297
1421.51876	0.03302
1419.45859	0.03311
1417.39842	0.03323
1415.33824	0.03327
1413.27807	0.03310
1411.21790	0.03268
1409.15773	0.03203
1407.09756	0.03118
1405.03738	0.03018
1402.97721	0.02911
1400.91704	0.02807
1398.85687	0.02711
1396.79670	0.02632
1394.73652	0.02577
1392.67635	0.02549
1390.61618	0.02543
1388.55601	0.02555
1386.49583	0.02590
1384.43566	0.02656
1382.37549	0.02748
1380.31532	0.02851
1378.25515	0.02945
1376.19497	0.03017
1374.13480	0.03063
1372.07463	0.03085
1370.01446	0.03081
1367.95429	0.03050
1365.89411	0.02996
1363.83394	0.02931
1361.77377	0.02874
1359.71360	0.02836
1357.65343	0.02815
1355.59325	0.02796
1353.53308	0.02774
1351.47291	0.02750
1349.41274	0.02731
1347.35256	0.02719
1345.29239	0.02712
1343.23222	0.02705
1341.17205	0.02696
1339.11188	0.02682
1337.05170	0.02663
1334.99153	0.02648
1332.93136	0.02642
1330.87119	0.02647
1328.81102	0.02660
1326.75084	0.02679
1324.69067	0.02701
1322.63050	0.02718
1320.57033	0.02721
1318.51015	0.02708
1316.44998	0.02682
1314.38981	0.02647
1312.32964	0.02605
1310.26947	0.02554
1308.20929	0.02493
1306.14912	0.02426
1304.08895	0.02361
1302.02878	0.02303
1299.96861	0.02250
1297.90843	0.02207
1295.84826	0.02183
1293.78809	0.02181
1291.72792	0.02196
1289.66775	0.02219
1287.60757	0.02244
1285.54740	0.02266
1283.48723	0.02282
1281.42706	0.02296
1279.36688	0.02314
1277.30671	0.02339
1275.24654	0.02373
1273.18637	0.02420
1271.12620	0.02482
1269.06602	0.02564
1267.00585	0.02661
1264.94568	0.02763
1262.88551	0.02861
1260.82534	0.02951
1258.76516	0.03033
1256.70499	0.03103
1254.64482	0.03159
1252.58465	0.03200
1250.52447	0.03233
1248.46430	0.03269
1246.40413	0.03306
1244.34396	0.03340
1242.28379	0.03367
1240.22361	0.03379
1238.16344	0.03368
1236.10327	0.03328
1234.04310	0.03262
1231.98293	0.03173
1229.92275	0.03067
1227.86258	0.02946
1225.80241	0.02810
1223.74224	0.02658
1221.68207	0.02496
1219.62189	0.02331
1217.56172	0.02168
1215.50155	0.02009
1213.44138	0.01853
1211.38120	0.01703
1209.32103	0.01559
1207.26086	0.01415
1205.20069	0.01263
1203.14052	0.01098
1201.08034	0.00921
1199.02017	0.00741
1196.96000	0.00569
1194.89983	0.00419
1192.83966	0.00301
1190.77948	0.00219
1188.71931	0.00180
1186.65914	0.00161
1184.59897	0.00152
1182.53880	0.00171
1180.47862	0.00237
1178.41845	0.00354
1176.35828	0.00524
1174.29811	0.00758
1172.23793	0.01044
1170.17776	0.01336
1168.11759	0.01574
1166.05742	0.01733
1163.99725	0.01833
1161.93707	0.01908
1159.87690	0.01985
1157.81673	0.02070
1155.75656	0.02163
1153.69639	0.02263
1151.63621	0.02369
1149.57604	0.02487
1147.51587	0.02621
1145.45570	0.02762
1143.39552	0.02883
1141.33535	0.02978
1139.27518	0.03064
1137.21501	0.03142
1135.15484	0.03203
1133.09466	0.03259
1131.03449	0.03348
1128.97432	0.03482
1126.91415	0.03634
1124.85398	0.03787
1122.79380	0.03947
1120.73363	0.04112
1118.67346	0.04265
1116.61329	0.04400
1114.55312	0.04535
1112.49294	0.04673
1110.43277	0.04804
1108.37260	0.04929
1106.31243	0.05074
1104.25225	0.05255
1102.19208	0.05458
1100.13191	0.05666
1098.07174	0.05892
1096.01157	0.06144
1093.95139	0.06407
1091.89122	0.06661
1089.83105	0.06894
1087.77088	0.07110
1085.71071	0.07327
1083.65053	0.07560
1081.59036	0.07803
1079.53019	0.08051
1077.47002	0.08311
1075.40985	0.08581
1073.34967	0.08843
1071.28950	0.09078
1069.22933	0.09279
1067.16916	0.09461
1065.10898	0.09642
1063.04881	0.09825
1060.98864	0.10003
1058.92847	0.10184
1056.86830	0.10384
1054.80812	0.10614
1052.74795	0.10858
1050.68778	0.11102
1048.62761	0.11365
1046.56744	0.11665
1044.50726	0.11973
1042.44709	0.12262
1040.38692	0.12538
1038.32675	0.12787
1036.26657	0.12974
1034.20640	0.13088
1032.14623	0.13154
1030.08606	0.13189
1028.02589	0.13195
1025.96571	0.13164
1023.90554	0.13087
1021.84537	0.12992
1019.78520	0.12921
1017.72503	0.12890
1015.66485	0.12881
1013.60468	0.12867
1011.54451	0.12850
1009.48434	0.12853
1007.42417	0.12878
1005.36399	0.12897
1003.30382	0.12868
1001.24365	0.12774
999.18348	0.12620
997.12330	0.12422
995.06313	0.12201
993.00296	0.11985
990.94279	0.11788
988.88262	0.11604
986.82244	0.11426
984.76227	0.11241
982.70210	0.11039
980.64193	0.10831
978.58176	0.10640
976.52158	0.10473
974.46141	0.10301
972.40124	0.10089
970.34107	0.09847
968.28089	0.09626
966.22072	0.09436
964.16055	0.09242
962.10038	0.09018
960.04021	0.08794
957.98003	0.08600
955.91986	0.08409
953.85969	0.08199
951.79952	0.07998
949.73935	0.07824
947.67917	0.07653
945.61900	0.07459
943.55883	0.07225
941.49866	0.06930
939.43849	0.06555
937.37831	0.06123
935.31814	0.05678
933.25797	0.05265
931.19780	0.04917
929.13762	0.04617
927.07745	0.04320
925.01728	0.04026
922.95711	0.03764
920.89694	0.03541
918.83676	0.03331
916.77659	0.03123
914.71642	0.02924
912.65625	0.02726
910.59608	0.02523
908.53590	0.02338
906.47573	0.02208
904.41556	0.02140
902.35539	0.02108
900.29522	0.02084
898.23504	0.02077
896.17487	0.02112
894.11470	0.02176
892.05453	0.02211
889.99435	0.02186
887.93418	0.02107
885.87401	0.01985
883.81384	0.01854
881.75367	0.01738
879.69349	0.01623
877.63332	0.01497
875.57315	0.01388
873.51298	0.01304
871.45281	0.01233
869.39263	0.01168
867.33246	0.01110
865.27229	0.01062
863.21212	0.01027
861.15194	0.01002
859.09177	0.00974
857.03160	0.00938
854.97143	0.00920
852.91126	0.00938
850.85108	0.00969
848.79091	0.00969
846.73074	0.00940
844.67057	0.00921
842.61040	0.00897
840.55022	0.00842
838.49005	0.00783
836.42988	0.00755
834.36971	0.00748
832.30954	0.00724
830.24936	0.00667
828.18919	0.00594
826.12902	0.00526
824.06885	0.00472
822.00867	0.00442
819.94850	0.00445
817.88833	0.00463
815.82816	0.00472
813.76799	0.00459
811.70781	0.00437
809.64764	0.00441
807.58747	0.00455
805.52730	0.00431
803.46713	0.00405
801.40695	0.00436
799.34678	0.00474
797.28661	0.00453
795.22644	0.00394
793.16627	0.00342
791.10609	0.00295
789.04592	0.00243
786.98575	0.00206
784.92558	0.00208
782.86540	0.00266
780.80523	0.00352
778.74506	0.00414
776.68489	0.00415
774.62472	0.00362
772.56454	0.00293
770.50437	0.00242
768.44420	0.00230
766.38403	0.00260
764.32386	0.00305
762.26368	0.00333
760.20351	0.00329
758.14334	0.00311
756.08317	0.00294
754.02299	0.00275
751.96282	0.00249
749.90265	0.00208
747.84248	0.00141
745.78231	0.00121
743.72213	0.00117
741.66196	0.00091
739.60179	0.00054
737.54162	0.00021
735.48145	0.00016
733.42127	0.00053
731.36110	0.00099
729.30093	0.00126
727.24076	0.00162
725.18059	0.00226
723.12041	0.00281
721.06024	0.00315
719.00007	0.00332
716.93990	0.00337
714.87972	0.00333
712.81955	0.00340
710.75938	0.00379
708.69921	0.00452
706.63904	0.00540
704.57886	0.00626
702.51869	0.00700
700.45852	0.00738
698.39835	0.00715
696.33818	0.00631
694.27800	0.00519
692.21783	0.00424
690.15766	0.00372
688.09749	0.00358
686.03731	0.00349
683.97714	0.00322
681.91697	0.00278
679.85680	0.00228
677.79663	0.00191
675.73645	0.00178
673.67628	0.00171
671.61611	0.00145
669.55594	0.00112
667.49577	0.00134
665.43559	0.00217
663.37542	0.00272
661.31525	0.00262
659.25508	0.00216
657.19491	0.00177
655.13473	0.00157
653.07456	0.00158
651.01439	0.00177
648.95422	0.00194
646.89404	0.00203
644.83387	0.00219
642.77370	0.00262
640.71353	0.00333
638.65336	0.00412
636.59318	0.00461
634.53301	0.00470
632.47284	0.00459
630.41267	0.00444
628.35250	0.00410
626.29232	0.00338
624.23215	0.00244
622.17198	0.00173
620.11181	0.00100
618.05164	0.00016
615.99146	0.00000
613.93129	0.00094
611.87112	0.00245
609.81095	0.00410
607.75077	0.00526
605.69060	0.00484
603.63043	0.00285
601.57026	0.00102
599.51009	0.00000
