3996.73391,-0.00024
3994.67373,0.00019
3992.61356,0.00045
3990.55339,0.00034
3988.49322,0.00022
3986.43305,0.00024
3984.37287,0.00012
3982.31270,0.00008
3980.25253,0.00043
3978.19236,0.00076
3976.13219,0.00069
3974.07201,0.00049
3972.01184,0.00043
3969.95167,0.00047
3967.89150,0.00050
3965.83133,0.00042
3963.77115,0.00018
3961.71098,0.00000
3959.65081,0.00026
3957.59064,0.00091
3955.53046,0.00122
3953.47029,0.00097
3951.41012,0.00089
3949.34995,0.00135
3947.28978,0.00180
3945.22960,0.00179
3943.16943,0.00156
3941.10926,0.00138
3939.04909,0.00124
3936.98892,0.00114
3934.92874,0.00113
3932.86857,0.00130
3930.80840,0.00150
3928.74823,0.00127
3926.68805,0.00068
3924.62788,0.00014
3922.56771,0.00000
3920.50754,0.00034
3918.44737,0.00085
3916.38719,0.00113
3914.32702,0.00119
3912.26685,0.00131
3910.20668,0.00141
3908.14651,0.00131
3906.08633,0.00130
3904.02616,0.00144
3901.96599,0.00118
3899.90582,0.00075
3897.84565,0.00074
3895.78547,0.00110
3893.72530,0.00164
3891.66513,0.00203
3889.60496,0.00196
3887.54478,0.00171
3885.48461,0.00157
3883.42444,0.00133
3881.36427,0.00099
3879.30410,0.00086
3877.24392,0.00093
3875.18375,0.00095
3873.12358,0.00077
3871.06341,0.00037
3869.00324,0.00014
3866.94306,0.00039
3864.88289,0.00073
3862.82272,0.00068
3860.76255,0.00044
3858.70237,0.00033
3856.64220,0.00023
3854.58203,0.00015
3852.52186,0.00049
3850.46169,0.00099
3848.40151,0.00112
3846.34134,0.00106
3844.28117,0.00119
3842.22100,0.00143
3840.16083,0.00142
3838.10065,0.00123
3836.04048,0.00125
3833.98031,0.00103
3831.92014,0.00053
3829.85997,0.00066
3827.79979,0.00150
3825.73962,0.00234
3823.67945,0.00268
3821.61928,0.00243
3819.55910,0.00205
3817.49893,0.00218
3815.43876,0.00248
3813.37859,0.00223
3811.31842,0.00161
3809.25824,0.00123
3807.19807,0.00128
3805.13790,0.00157
3803.07773,0.00181
3801.01756,0.00176
3798.95738,0.00151
3796.89721,0.00130
3794.83704,0.00118
3792.77687,0.00113
3790.71670,0.00112
3788.65652,0.00119
3786.59635,0.00128
3784.53618,0.00112
3782.47601,0.00086
3780.41583,0.00075
3778.35566,0.00080
3776.29549,0.00128
3774.23532,0.00216
3772.17515,0.00287
3770.11497,0.00294
3768.05480,0.00238
3765.99463,0.00167
3763.93446,0.00147
3761.87429,0.00187
3759.81411,0.00231
3757.75394,0.00228
3755.69377,0.00206
3753.63360,0.00226
3751.57342,0.00279
3749.51325,0.00260
3747.45308,0.00131
3745.39291,0.00000
3743.33274,-0.00001
3741.27256,0.00092
3739.21239,0.00164
3737.15222,0.00194
3735.09205,0.00188
3733.03188,0.00184
3730.97170,0.00194
3728.91153,0.00170
3726.85136,0.00116
3724.79119,0.00112
3722.73102,0.00186
3720.67084,0.00234
3718.61067,0.00197
3716.55050,0.00119
3714.49033,0.00053
3712.43015,0.00012
3710.36998,0.00009
3708.30981,0.00061
3706.24964,0.00098
3704.18947,0.00086
3702.12929,0.00044
3700.06912,0.00002
3698.00895,0.00004
3695.94878,0.00059
3693.88861,0.00130
3691.82843,0.00170
3689.76826,0.00178
3687.70809,0.00162
3685.64792,0.00111
3683.58775,0.00050
3681.52757,0.00025
3679.46740,0.00017
3677.40723,0.00000
3675.34706,0.00004
3673.28688,0.00032
3671.22671,0.00040
3669.16654,0.00055
3667.10637,0.00101
3665.04620,0.00130
3662.98602,0.00143
3660.92585,0.00163
3658.86568,0.00164
3656.80551,0.00130
3654.74534,0.00109
3652.68516,0.00147
3650.62499,0.00215
3648.56482,0.00232
3646.50465,0.00195
3644.44447,0.00168
3642.38430,0.00192
3640.32413,0.00267
3638.26396,0.00340
3636.20379,0.00380
3634.14361,0.00413
3632.08344,0.00437
3630.02327,0.00423
3627.96310,0.00392
3625.90293,0.00408
3623.84275,0.00461
3621.78258,0.00517
3619.72241,0.00559
3617.66224,0.00548
3615.60207,0.00481
3613.54189,0.00451
3611.48172,0.00521
3609.42155,0.00637
3607.36138,0.00755
3605.30120,0.00824
3603.24103,0.00792
3601.18086,0.00721
3599.12069,0.00691
3597.06052,0.00728
3595.00034,0.00810
3592.94017,0.00882
3590.88000,0.00901
3588.81983,0.00902
3586.75966,0.00941
3584.69948,0.01011
3582.63931,0.01051
3580.57914,0.01044
3578.51897,0.01020
3576.45879,0.01033
3574.39862,0.01095
3572.33845,0.01159
3570.27828,0.01237
3568.21811,0.01334
3566.15793,0.01364
3564.09776,0.01331
3562.03759,0.01346
3559.97742,0.01398
3557.91725,0.01425
3555.85707,0.01440
3553.79690,0.01466
3551.73673,0.01492
3549.67656,0.01532
3547.61639,0.01608
3545.55621,0.01693
3543.49604,0.01755
3541.43587,0.01818
3539.37570,0.01889
3537.31552,0.01926
3535.25535,0.01928
3533.19518,0.01957
3531.13501,0.02035
3529.07484,0.02109
3527.01466,0.02139
3524.95449,0.02171
3522.89432,0.02245
3520.83415,0.02325
3518.77398,0.02387
3516.71380,0.02431
3514.65363,0.02439
3512.59346,0.02433
3510.53329,0.02468
3508.47312,0.02543
3506.41294,0.02618
3504.35277,0.02660
3502.29260,0.02681
3500.23243,0.02716
3498.17225,0.02750
3496.11208,0.02774
3494.05191,0.02837
3491.99174,0.02941
3489.93157,0.02998
3487.87139,0.02985
3485.81122,0.02987
3483.75105,0.03027
3481.69088,0.03076
3479.63071,0.03156
3477.57053,0.03271
3475.51036,0.03365
3473.45019,0.03402
3471.39002,0.03400
3469.32984,0.03410
3467.26967,0.03483
3465.20950,0.03607
3463.14933,0.03685
3461.08916,0.03666
3459.02898,0.03609
3456.96881,0.03603
3454.90864,0.03695
3452.84847,0.03842
3450.78830,0.03914
3448.72812,0.03893
3446.66795,0.03878
3444.60778,0.03904
3442.54761,0.03933
3440.48744,0.03969
3438.42726,0.04039
3436.36709,0.04099
3434.30692,0.04121
3432.24675,0.04184
3430.18657,0.04303
3428.12640,0.04389
3426.06623,0.04401
3424.00606,0.04371
3421.94589,0.04355
3419.88571,0.04379
3417.82554,0.04403
3415.76537,0.04402
3413.70520,0.04429
3411.64503,0.04529
3409.58485,0.04656
3407.52468,0.04715
3405.46451,0.04685
3403.40434,0.04651
3401.34416,0.04670
3399.28399,0.04724
3397.22382,0.04789
3395.16365,0.04839
3393.10348,0.04837
3391.04330,0.04811
3388.98313,0.04842
3386.92296,0.04928
3384.86279,0.04996
3382.80262,0.05018
3380.74244,0.05038
3378.68227,0.05071
3376.62210,0.05067
3374.56193,0.05032
3372.50176,0.05053
3370.44158,0.05129
3368.38141,0.05186
3366.32124,0.05214
3364.26107,0.05227
3362.20089,0.05238
3360.14072,0.05264
3358.08055,0.05284
3356.02038,0.05299
3353.96021,0.05357
3351.90003,0.05423
3349.83986,0.05428
3347.77969,0.05407
3345.71952,0.05411
3343.65935,0.05404
3341.59917,0.05389
3339.53900,0.05414
3337.47883,0.05450
3335.41866,0.05458
3333.35849,0.05453
3331.29831,0.05430
3329.23814,0.05410
3327.17797,0.05451
3325.11780,0.05521
3323.05762,0.05542
3320.99745,0.05500
3318.93728,0.05448
3316.87711,0.05428
3314.81694,0.05444
3312.75676,0.05479
3310.69659,0.05515
3308.63642,0.05531
3306.57625,0.05528
3304.51608,0.05537
3302.45590,0.05562
3300.39573,0.05568
3298.33556,0.05527
3296.27539,0.05484
3294.21521,0.05486
3292.15504,0.05515
3290.09487,0.05549
3288.03470,0.05575
3285.97453,0.05573
3283.91435,0.05574
3281.85418,0.05616
3279.79401,0.05657
3277.73384,0.05664
3275.67367,0.05639
3273.61349,0.05598
3271.55332,0.05585
3269.49315,0.05589
3267.43298,0.05584
3265.37281,0.05577
3263.31263,0.05546
3261.25246,0.05502
3259.19229,0.05489
3257.13212,0.05515
3255.07194,0.05538
3253.01177,0.05532
3250.95160,0.05525
3248.89143,0.05532
3246.83126,0.05508
3244.77108,0.05444
3242.71091,0.05405
3240.65074,0.05419
3238.59057,0.05441
3236.53040,0.05424
3234.47022,0.05377
3232.41005,0.05350
3230.34988,0.05342
3228.28971,0.05323
3226.22954,0.05293
3224.16936,0.05257
3222.10919,0.05239
3220.04902,0.05249
3217.98885,0.05250
3215.92867,0.05231
3213.86850,0.05213
3211.80833,0.05198
3209.74816,0.05184
3207.68799,0.05151
3205.62781,0.05106
3203.56764,0.05102
3201.50747,0.05122
3199.44730,0.05095
3197.38713,0.05026
3195.32695,0.04996
3193.26678,0.05015
3191.20661,0.05017
3189.14644,0.04966
3187.08626,0.04890
3185.02609,0.04843
3182.96592,0.04831
3180.90575,0.04804
3178.84558,0.04775
3176.78540,0.04774
3174.72523,0.04770
3172.66506,0.04760
3170.60489,0.04738
3168.54472,0.04676
3166.48454,0.04613
3164.42437,0.04600
3162.36420,0.04600
3160.30403,0.04579
3158.24386,0.04548
3156.18368,0.04513
3154.12351,0.04481
3152.06334,0.04466
3150.00317,0.04449
3147.94299,0.04404
3145.88282,0.04340
3143.82265,0.04287
3141.76248,0.04255
3139.70231,0.04239
3137.64213,0.04234
3135.58196,0.04226
3133.52179,0.04210
3131.46162,0.04190
3129.40145,0.04144
3127.34127,0.04072
3125.28110,0.03998
3123.22093,0.03930
3121.16076,0.03891
3119.10058,0.03902
3117.04041,0.03937
3114.98024,0.03948
3112.92007,0.03917
3110.85990,0.03864
3108.79972,0.03799
3106.73955,0.03736
3104.67938,0.03698
3102.61921,0.03683
3100.55904,0.03671
3098.49886,0.03640
3096.43869,0.03595
3094.37852,0.03575
3092.31835,0.03564
3090.25818,0.03535
3088.19800,0.03519
3086.13783,0.03520
3084.07766,0.03493
3082.01749,0.03438
3079.95731,0.03392
3077.89714,0.03369
3075.83697,0.03353
3073.77680,0.03326
3071.71663,0.03286
3069.65645,0.03243
3067.59628,0.03206
3065.53611,0.03182
3063.47594,0.03163
3061.41577,0.03131
3059.35559,0.03088
3057.29542,0.03061
3055.23525,0.03049
3053.17508,0.03035
3051.11491,0.03010
3049.05473,0.02971
3046.99456,0.02946
3044.93439,0.02956
3042.87422,0.02949
3040.81404,0.02903
3038.75387,0.02867
3036.69370,0.02839
3034.63353,0.02788
3032.57336,0.02730
3030.51318,0.02697
3028.45301,0.02704
3026.39284,0.02728
3024.33267,0.02746
3022.27250,0.02749
3020.21232,0.02726
3018.15215,0.02687
3016.09198,0.02659
3014.03181,0.02631
3011.97163,0.02584
3009.91146,0.02533
3007.85129,0.02513
3005.79112,0.02523
3003.73095,0.02516
3001.67077,0.02481
2999.61060,0.02460
2997.55043,0.02461
2995.49026,0.02472
2993.43009,0.02479
2991.36991,0.02467
2989.30974,0.02448
2987.24957,0.02446
2985.18940,0.02479
2983.12923,0.02522
2981.06905,0.02531
2979.00888,0.02529
2976.94871,0.02552
2974.88854,0.02601
2972.82836,0.02681
2970.76819,0.02786
2968.70802,0.02885
2966.64785,0.02990
2964.58768,0.03127
2962.52750,0.03282
2960.46733,0.03441
2958.40716,0.03630
2956.34699,0.03843
2954.28682,0.04043
2952.22664,0.04220
2950.16647,0.04397
2948.10630,0.04607
2946.04613,0.04841
2943.98596,0.05079
2941.92578,0.05314
2939.86561,0.05557
2937.80544,0.05831
2935.74527,0.06104
2933.68509,0.06346
2931.62492,0.06585
2929.56475,0.06826
2927.50458,0.07017
2925.44441,0.07148
2923.38423,0.07270
2921.32406,0.07390
2919.26389,0.07439
2917.20372,0.07359
2915.14355,0.07169
2913.08337,0.06917
2911.02320,0.06637
2908.96303,0.06361
2906.90286,0.06116
2904.84268,0.05904
2902.78251,0.05723
2900.72234,0.05563
2898.66217,0.05405
2896.60200,0.05245
2894.54182,0.05070
2892.48165,0.04899
2890.42148,0.04781
2888.36131,0.04686
2886.30114,0.04572
2884.24096,0.04476
2882.18079,0.04426
2880.12062,0.04407
2878.06045,0.04403
2876.00028,0.04414
2873.94010,0.04443
2871.87993,0.04451
2869.81976,0.04463
2867.75959,0.04548
2865.69941,0.04689
2863.63924,0.04847
2861.57907,0.05010
2859.51890,0.05192
2857.45873,0.05415
2855.39855,0.05617
2853.33838,0.05751
2851.27821,0.05824
2849.21804,0.05779
2847.15787,0.05538
2845.09769,0.05142
2843.03752,0.04730
2840.97735,0.04391
2838.91718,0.04140
2836.85700,0.03957
2834.79683,0.03784
2832.73666,0.03600
2830.67649,0.03455
2828.61632,0.03354
2826.55614,0.03274
2824.49597,0.03224
2822.43580,0.03171
2820.37563,0.03106
2818.31546,0.03060
2816.25528,0.03029
2814.19511,0.02982
2812.13494,0.02916
2810.07477,0.02870
2808.01460,0.02843
2805.95442,0.02819
2803.89425,0.02796
2801.83408,0.02765
2799.77391,0.02728
2797.71373,0.02691
2795.65356,0.02658
2793.59339,0.02609
2791.53322,0.02543
2789.47305,0.02499
2787.41287,0.02491
2785.35270,0.02491
2783.29253,0.02484
2781.23236,0.02484
2779.17219,0.02466
2777.11201,0.02434
2775.05184,0.02414
2772.99167,0.02393
2770.93150,0.02370
2768.87133,0.02349
2766.81115,0.02334
2764.75098,0.02341
2762.69081,0.02349
2760.63064,0.02343
2758.57046,0.02353
2756.51029,0.02364
2754.45012,0.02336
2752.38995,0.02292
2750.32978,0.02273
2748.26960,0.02262
2746.20943,0.02244
2744.14926,0.02244
2742.08909,0.02256
2740.02892,0.02258
2737.96874,0.02259
2735.90857,0.02266
2733.84840,0.02262
2731.78823,0.02248
2729.72805,0.02240
2727.66788,0.02229
2725.60771,0.02210
2723.54754,0.02199
2721.48737,0.02199
2719.42719,0.02186
2717.36702,0.02160
2715.30685,0.02136
2713.24668,0.02121
2711.18651,0.02108
2709.12633,0.02090
2707.06616,0.02078
2705.00599,0.02078
2702.94582,0.02095
2700.88565,0.02111
2698.82547,0.02095
2696.76530,0.02062
2694.70513,0.02040
2692.64496,0.02047
2690.58478,0.02076
2688.52461,0.02093
2686.46444,0.02087
2684.40427,0.02071
2682.34410,0.02061
2680.28392,0.02072
2678.22375,0.02089
2676.16358,0.02099
2674.10341,0.02096
2672.04324,0.02068
2669.98306,0.02031
2667.92289,0.02009
2665.86272,0.02005
2663.80255,0.02014
2661.74238,0.02014
2659.68220,0.01999
2657.62203,0.02000
2655.56186,0.02002
2653.50169,0.01965
2651.44151,0.01915
2649.38134,0.01871
2647.32117,0.01851
2645.26100,0.01886
2643.20083,0.01918
2641.14065,0.01895
2639.08048,0.01865
2637.02031,0.01871
2634.96014,0.01896
2632.89997,0.01889
2630.83979,0.01839
2628.77962,0.01796
2626.71945,0.01788
2624.65928,0.01788
2622.59910,0.01773
2620.53893,0.01764
2618.47876,0.01758
2616.41859,0.01729
2614.35842,0.01704
2612.29824,0.01714
2610.23807,0.01736
2608.17790,0.01731
2606.11773,0.01684
2604.05756,0.01641
2601.99738,0.01656
2599.93721,0.01690
2597.87704,0.01688
2595.81687,0.01681
2593.75670,0.01673
2591.69652,0.01646
2589.63635,0.01630
2587.57618,0.01636
2585.51601,0.01640
2583.45583,0.01603
2581.39566,0.01531
2579.33549,0.01489
2577.27532,0.01499
2575.21515,0.01514
2573.15497,0.01509
2571.09480,0.01498
2569.03463,0.01500
2566.97446,0.01503
2564.91429,0.01478
2562.85411,0.01439
2560.79394,0.01437
2558.73377,0.01469
2556.67360,0.01480
2554.61342,0.01449
2552.55325,0.01418
2550.49308,0.01417
2548.43291,0.01413
2546.37274,0.01402
2544.31256,0.01405
2542.25239,0.01406
2540.19222,0.01379
2538.13205,0.01350
2536.07188,0.01351
2534.01170,0.01352
2531.95153,0.01342
2529.89136,0.01340
2527.83119,0.01353
2525.77102,0.01349
2523.71084,0.01325
2521.65067,0.01320
2519.59050,0.01353
2517.53033,0.01394
2515.47015,0.01408
2513.40998,0.01407
2511.34981,0.01401
2509.28964,0.01378
2507.22947,0.01356
2505.16929,0.01329
2503.10912,0.01287
2501.04895,0.01258
2498.98878,0.01245
2496.92861,0.01238
2494.86843,0.01255
2492.80826,0.01285
2490.74809,0.01295
2488.68792,0.01269
2486.62775,0.01234
2484.56757,0.01246
2482.50740,0.01282
2480.44723,0.01276
2478.38706,0.01256
2476.32688,0.01232
2474.26671,0.01199
2472.20654,0.01195
2470.14637,0.01211
2468.08620,0.01221
2466.02602,0.01212
2463.96585,0.01193
2461.90568,0.01175
2459.84551,0.01154
2457.78534,0.01136
2455.72516,0.01129
2453.66499,0.01114
2451.60482,0.01114
2449.54465,0.01155
2447.48447,0.01170
2445.42430,0.01145
2443.36413,0.01127
2441.30396,0.01134
2439.24379,0.01149
2437.18361,0.01131
2435.12344,0.01096
2433.06327,0.01090
2431.00310,0.01103
2428.94293,0.01106
2426.88275,0.01091
2424.82258,0.01067
2422.76241,0.01053
2420.70224,0.01053
2418.64207,0.01047
2416.58189,0.01042
2414.52172,0.01056
2412.46155,0.01056
2410.40138,0.01056
2408.34120,0.01077
2406.28103,0.01088
2404.22086,0.01097
2402.16069,0.01082
2400.10052,0.01017
2398.04034,0.00978
2395.98017,0.00989
2393.92000,0.00993
2391.85983,0.00975
2389.79966,0.00983
2387.73948,0.01012
2385.67931,0.01015
2383.61914,0.00983
2381.55897,0.00947
2379.49880,0.00942
2377.43862,0.00951
2375.37845,0.00997
2373.31828,0.01116
2371.25811,0.01200
2369.19793,0.01107
2367.13776,0.00954
2365.07759,0.00998
2363.01742,0.01191
2360.95725,0.01053
2358.89707,0.00735
2356.83690,0.00620
2354.77673,0.00841
2352.71656,0.01043
2350.65639,0.00885
2348.59621,0.00779
2346.53604,0.01072
2344.47587,0.01165
2342.41570,0.01128
2340.35552,0.01009
2338.29535,0.00719
2336.23518,0.00506
2334.17501,0.00541
2332.11484,0.00728
2330.05466,0.00833
2327.99449,0.00873
2325.93432,0.00861
2323.87415,0.00865
2321.81398,0.00895
2319.75380,0.00998
2317.69363,0.01015
2315.63346,0.00974
2313.57329,0.00924
2311.51312,0.00887
2309.45294,0.00872
2307.39277,0.00870
2305.33260,0.00893
2303.27243,0.00942
2301.21225,0.00992
2299.15208,0.01000
2297.09191,0.00980
2295.03174,0.00947
2292.97157,0.00902
2290.91139,0.00882
2288.85122,0.00921
2286.79105,0.00957
2284.73088,0.00911
2282.67071,0.00852
2280.61053,0.00876
2278.55036,0.00942
2276.49019,0.00978
2274.43002,0.00965
2272.36984,0.00930
2270.30967,0.00899
2268.24950,0.00848
2266.18933,0.00791
2264.12916,0.00771
2262.06898,0.00772
2260.00881,0.00771
2257.94864,0.00755
2255.88847,0.00725
2253.82830,0.00746
2251.76812,0.00822
2249.70795,0.00812
2247.64778,0.00702
2245.58761,0.00672
2243.52744,0.00733
2241.46726,0.00789
2239.40709,0.00810
2237.34692,0.00812
2235.28675,0.00810
2233.22657,0.00755
2231.16640,0.00679
2229.10623,0.00635
2227.04606,0.00654
2224.98589,0.00777
2222.92571,0.00859
2220.86554,0.00806
2218.80537,0.00702
2216.74520,0.00579
2214.68503,0.00495
2212.62485,0.00542
2210.56468,0.00634
2208.50451,0.00670
2206.44434,0.00663
2204.38417,0.00617
2202.32399,0.00534
2200.26382,0.00416
2198.20365,0.00312
2196.14348,0.00292
2194.08330,0.00318
2192.02313,0.00360
2189.96296,0.00506
2187.90279,0.00695
2185.84262,0.00779
2183.78244,0.00787
2181.72227,0.00753
2179.66210,0.00692
2177.60193,0.00604
2175.54176,0.00539
2173.48158,0.00639
2171.42141,0.00753
2169.36124,0.00639
2167.30107,0.00517
2165.24089,0.00472
2163.18072,0.00328
2161.12055,0.00270
2159.06038,0.00287
2157.00021,0.00185
2154.94003,0.00150
2152.87986,0.00245
2150.81969,0.00268
2148.75952,0.00238
2146.69935,0.00239
2144.63917,0.00260
2142.57900,0.00360
2140.51883,0.00481
2138.45866,0.00533
2136.39849,0.00523
2134.33831,0.00449
2132.27814,0.00401
2130.21797,0.00451
2128.15780,0.00497
2126.09762,0.00503
2124.03745,0.00500
2121.97728,0.00495
2119.91711,0.00501
2117.85694,0.00490
2115.79676,0.00494
2113.73659,0.00594
2111.67642,0.00686
2109.61625,0.00653
2107.55608,0.00553
2105.49590,0.00538
2103.43573,0.00668
2101.37556,0.00733
2099.31539,0.00626
2097.25521,0.00488
2095.19504,0.00451
2093.13487,0.00552
2091.07470,0.00659
2089.01453,0.00653
2086.95435,0.00558
2084.89418,0.00464
2082.83401,0.00495
2080.77384,0.00622
2078.71367,0.00704
2076.65349,0.00741
2074.59332,0.00733
2072.53315,0.00638
2070.47298,0.00539
2068.41281,0.00499
2066.35263,0.00505
2064.29246,0.00544
2062.23229,0.00594
2060.17212,0.00628
2058.11194,0.00635
2056.05177,0.00609
2053.99160,0.00525
2051.93143,0.00379
2049.87126,0.00259
2047.81108,0.00263
2045.75091,0.00329
2043.69074,0.00376
2041.63057,0.00478
2039.57040,0.00620
2037.51022,0.00547
2035.45005,0.00245
2033.38988,0.00061
2031.32971,0.00127
2029.26954,0.00206
2027.20936,0.00166
2025.14919,0.00147
2023.08902,0.00226
2021.02885,0.00290
2018.96867,0.00230
2016.90850,0.00106
2014.84833,0.00071
2012.78816,0.00118
2010.72799,0.00177
2008.66781,0.00252
2006.60764,0.00254
2004.54747,0.00141
2002.48730,0.00132
2000.42713,0.00292
1998.36695,0.00433
1996.30678,0.00475
1994.24661,0.00476
1992.18644,0.00447
1990.12626,0.00299
1988.06609,0.00072
1986.00592,0.00000
1983.94575,0.00160
1981.88558,0.00297
1979.82540,0.00305
1977.76523,0.00357
1975.70506,0.00401
1973.64489,0.00336
1971.58472,0.00258
1969.52454,0.00200
1967.46437,0.00189
1965.40420,0.00288
1963.34403,0.00435
1961.28386,0.00512
1959.22368,0.00493
1957.16351,0.00402
1955.10334,0.00261
1953.04317,0.00168
1950.98299,0.00167
1948.92282,0.00174
1946.86265,0.00165
1944.80248,0.00180
1942.74231,0.00254
1940.68213,0.00335
1938.62196,0.00314
1936.56179,0.00248
1934.50162,0.00239
1932.44145,0.00267
1930.38127,0.00274
1928.32110,0.00244
1926.26093,0.00194
1924.20076,0.00174
1922.14059,0.00202
1920.08041,0.00197
1918.02024,0.00194
1915.96007,0.00284
1913.89990,0.00378
1911.83972,0.00374
1909.77955,0.00297
1907.71938,0.00227
1905.65921,0.00211
1903.59904,0.00239
1901.53886,0.00276
1899.47869,0.00285
1897.41852,0.00239
1895.35835,0.00171
1893.29818,0.00147
1891.23800,0.00151
1889.17783,0.00152
1887.11766,0.00179
1885.05749,0.00241
1882.99731,0.00296
1880.93714,0.00295
1878.87697,0.00257
1876.81680,0.00254
1874.75663,0.00273
1872.69645,0.00252
1870.63628,0.00220
1868.57611,0.00233
1866.51594,0.00250
1864.45577,0.00231
1862.39559,0.00197
1860.33542,0.00164
1858.27525,0.00127
1856.21508,0.00110
1854.15491,0.00154
1852.09473,0.00215
1850.03456,0.00223
1847.97439,0.00194
1845.91422,0.00174
1843.85404,0.00154
1841.79387,0.00130
1839.73370,0.00141
1837.67353,0.00177
1835.61336,0.00201
1833.55318,0.00218
1831.49301,0.00248
1829.43284,0.00276
1827.37267,0.00282
1825.31250,0.00272
1823.25232,0.00249
1821.19215,0.00206
1819.13198,0.00155
1817.07181,0.00127
1815.01163,0.00127
1812.95146,0.00137
1810.89129,0.00128
1808.83112,0.00101
1806.77095,0.00069
1804.71077,0.00046
1802.65060,0.00049
1800.59043,0.00081
1798.53026,0.00107
1796.47009,0.00107
1794.40991,0.00080
1792.34974,0.00031
1790.28957,0.00000
1788.22940,-0.00006
1786.16923,-0.00008
1784.10905,-0.00007
1782.04888,0.00019
1779.98871,0.00059
1777.92854,0.00069
1775.86836,0.00033
1773.80819,-0.00014
1771.74802,-0.00035
1769.68785,-0.00007
1767.62768,0.00058
1765.56750,0.00133
1763.50733,0.00207
1761.44716,0.00296
1759.38699,0.00413
1757.32682,0.00555
1755.26664,0.00703
1753.20647,0.00852
1751.14630,0.01038
1749.08613,0.01256
1747.02596,0.01438
1744.96578,0.01577
1742.90561,0.01687
1740.84544,0.01756
1738.78527,0.01786
1736.72509,0.01804
1734.66492,0.01816
1732.60475,0.01810
1730.54458,0.01801
1728.48441,0.01802
1726.42423,0.01804
1724.36406,0.01804
1722.30389,0.01817
1720.24372,0.01833
1718.18355,0.01820
1716.12337,0.01800
1714.06320,0.01809
1712.00303,0.01820
1709.94286,0.01826
1707.88268,0.01834
1705.82251,0.01853
1703.76234,0.01913
1701.70217,0.01996
1699.64200,0.01996
1697.58182,0.01901
1695.52165,0.01880
1693.46148,0.01968
1691.40131,0.02084
1689.34114,0.02209
1687.28096,0.02346
1685.22079,0.02535
1683.16062,0.02811
1681.10045,0.03078
1679.04028,0.03286
1676.98010,0.03449
1674.91993,0.03570
1672.85976,0.03637
1670.79959,0.03650
1668.73941,0.03622
1666.67924,0.03561
1664.61907,0.03477
1662.55890,0.03387
1660.49873,0.03316
1658.43855,0.03264
1656.37838,0.03218
1654.31821,0.03167
1652.25804,0.03131
1650.19787,0.03118
1648.13769,0.03093
1646.07752,0.03086
1644.01735,0.03129
1641.95718,0.03182
1639.89701,0.03222
1637.83683,0.03257
1635.77666,0.03322
1633.71649,0.03433
1631.65632,0.03535
1629.59614,0.03598
1627.53597,0.03629
1625.47580,0.03655
1623.41563,0.03699
1621.35546,0.03750
1619.29528,0.03795
1617.23511,0.03842
1615.17494,0.03899
1613.11477,0.03987
1611.05460,0.04127
1608.99442,0.04299
1606.93425,0.04441
1604.87408,0.04501
1602.81391,0.04464
1600.75373,0.04341
1598.69356,0.04159
1596.63339,0.03954
1594.57322,0.03773
1592.51305,0.03642
1590.45287,0.03550
1588.39270,0.03455
1586.33253,0.03339
1584.27236,0.03221
1582.21219,0.03118
1580.15201,0.03047
1578.09184,0.03001
1576.03167,0.02921
1573.97150,0.02794
1571.91133,0.02675
1569.85115,0.02571
1567.79098,0.02470
1565.73081,0.02376
1563.67064,0.02305
1561.61046,0.02273
1559.55029,0.02212
1557.49012,0.02038
1555.42995,0.01864
1553.36978,0.01752
1551.30960,0.01684
1549.24943,0.01619
1547.18926,0.01511
1545.12909,0.01366
1543.06892,0.01242
1541.00874,0.01160
1538.94857,0.01063
1536.88840,0.00982
1534.82823,0.00937
1532.76805,0.00908
1530.70788,0.00876
1528.64771,0.00830
1526.58754,0.00773
1524.52737,0.00746
1522.46719,0.00812
1520.40702,0.00990
1518.34685,0.01198
1516.28668,0.01368
1514.22651,0.01430
1512.16633,0.01351
1510.10616,0.01185
1508.04599,0.00980
1505.98582,0.00783
1503.92565,0.00666
1501.86547,0.00593
1499.80530,0.00501
1497.74513,0.00385
1495.68496,0.00290
1493.62478,0.00225
1491.56461,0.00164
1489.50444,0.00096
1487.44427,0.00051
1485.38410,0.00047
1483.32392,0.00070
1481.26375,0.00118
1479.20358,0.00186
1477.14341,0.00274
1475.08324,0.00421
1473.02306,0.00681
1470.96289,0.00985
1468.90272,0.01227
1466.84255,0.01434
1464.78238,0.01642
1462.72220,0.01801
1460.66203,0.01891
1458.60186,0.01997
1456.54169,0.02167
1454.48151,0.02284
1452.42134,0.02315
1450.36117,0.02351
1448.30100,0.02456
1446.24083,0.02603
1444.18065,0.02736
1442.12048,0.02844
1440.06031,0.02933
1438.00014,0.03006
1435.93997,0.03071
1433.87979,0.03121
1431.81962,0.03140
1429.75945,0.03129
1427.69928,0.03122
1425.63910,0.03145
1423.57893,0.03179
1421.51876,0.03199
1419.45859,0.03220
1417.39842,0.03245
1415.33824,0.03238
1413.27807,0.03190
1411.21790,0.03125
1409.15773,0.03054
1407.09756,0.02976
1405.03738,0.02881
1402.97721,0.02774
1400.91704,0.02672
1398.85687,0.02581
1396.79670,0.02496
1394.73652,0.02434
1392.67635,0.02404
1390.61618,0.02384
1388.55601,0.02378
1386.49583,0.02418
1384.43566,0.02497
1382.37549,0.02589
1380.31532,0.02686
1378.25515,0.02780
1376.19497,0.02846
1374.13480,0.02883
1372.07463,0.02903
1370.01446,0.02903
1367.95429,0.02886
1365.89411,0.02856
1363.83394,0.02816
1361.77377,0.02764
1359.71360,0.02704
1357.65343,0.02657
1355.59325,0.02635
1353.53308,0.02635
1351.47291,0.02640
1349.41274,0.02642
1347.35256,0.02639
1345.29239,0.02622
1343.23222,0.02592
1341.17205,0.02559
1339.11188,0.02534
1337.05170,0.02529
1334.99153,0.02537
1332.93136,0.02547
1330.87119,0.02562
1328.81102,0.02576
1326.75084,0.02579
1324.69067,0.02586
1322.63050,0.02604
1320.57033,0.02617
1318.51015,0.02614
1316.44998,0.02590
1314.38981,0.02548
1312.32964,0.02504
1310.26947,0.02462
1308.20929,0.02401
1306.14912,0.02316
1304.08895,0.02223
1302.02878,0.02141
1299.96861,0.02087
1297.90843,0.02046
1295.84826,0.02007
1293.78809,0.02002
1291.72792,0.02032
1289.66775,0.02071
1287.60757,0.02114
1285.54740,0.02145
1283.48723,0.02153
1281.42706,0.02166
1279.36688,0.02193
1277.30671,0.02213
1275.24654,0.02225
1273.18637,0.02249
1271.12620,0.02291
1269.06602,0.02352
1267.00585,0.02438
1264.94568,0.02545
1262.88551,0.02659
1260.82534,0.02755
1258.76516,0.02824
1256.70499,0.02876
1254.64482,0.02920
1252.58465,0.02971
1250.52447,0.03044
1248.46430,0.03121
1246.40413,0.03167
1244.34396,0.03185
1242.28379,0.03204
1240.22361,0.03213
1238.16344,0.03198
1236.10327,0.03166
1234.04310,0.03112
1231.98293,0.03026
1229.92275,0.02920
1227.86258,0.02806
1225.80241,0.02682
1223.74224,0.02539
1221.68207,0.02369
1219.62189,0.02202
1217.56172,0.02063
1215.50155,0.01924
1213.44138,0.01764
1211.38120,0.01601
1209.32103,0.01454
1207.26086,0.01330
1205.20069,0.01205
1203.14052,0.01047
1201.08034,0.00871
1199.02017,0.00706
1196.96000,0.00542
1194.89983,0.00374
1192.83966,0.00230
1190.77948,0.00114
1188.71931,0.00028
1186.65914,0.00000
1184.59897,0.00013
1182.53880,0.00042
1180.47862,0.00103
1178.41845,0.00208
1176.35828,0.00353
1174.29811,0.00565
1172.23793,0.00843
1170.17776,0.01124
1168.11759,0.01338
1166.05742,0.01462
1163.99725,0.01540
1161.93707,0.01616
1159.87690,0.01682
1157.81673,0.01746
1155.75656,0.01828
1153.69639,0.01931
1151.63621,0.02044
1149.57604,0.02161
1147.51587,0.02286
1145.45570,0.02414
1143.39552,0.02525
1141.33535,0.02604
1139.27518,0.02660
1137.21501,0.02714
1135.15484,0.02794
1133.09466,0.02915
1131.03449,0.03054
1128.97432,0.03178
1126.91415,0.03302
1124.85398,0.03448
1122.79380,0.03594
1120.73363,0.03735
1118.67346,0.03860
1116.61329,0.03982
1114.55312,0.04122
1112.49294,0.04259
1110.43277,0.04415
1108.37260,0.04573
1106.31243,0.04689
1104.25225,0.04803
1102.19208,0.04966
1100.13191,0.05187
1098.07174,0.05428
1096.01157,0.05659
1093.95139,0.05894
1091.89122,0.06124
1089.83105,0.06331
1087.77088,0.06539
1085.71071,0.06776
1083.65053,0.07033
1081.59036,0.07272
1079.53019,0.07504
1077.47002,0.07770
1075.40985,0.08060
1073.34967,0.08345
1071.28950,0.08607
1069.22933,0.08826
1067.16916,0.09017
1065.10898,0.09209
1063.04881,0.09364
1060.98864,0.09462
1058.92847,0.09589
1056.86830,0.09799
1054.80812,0.10066
1052.74795,0.10363
1050.68778,0.10660
1048.62761,0.10948
1046.56744,0.11224
1044.50726,0.11481
1042.44709,0.11761
1040.38692,0.12076
1038.32675,0.12357
1036.26657,0.12547
1034.20640,0.12661
1032.14623,0.12737
1030.08606,0.12763
1028.02589,0.12749
1025.96571,0.12718
1023.90554,0.12646
1021.84537,0.12534
1019.78520,0.12435
1017.72503,0.12404
1015.66485,0.12414
1013.60468,0.12447
1011.54451,0.12498
1009.48434,0.12511
1007.42417,0.12503
1005.36399,0.12494
1003.30382,0.12429
1001.24365,0.12310
999.18348,0.12162
997.12330,0.11983
995.06313,0.11769
993.00296,0.11534
990.94279,0.11311
988.88262,0.11090
986.82244,0.10869
984.76227,0.10683
982.70210,0.10538
980.64193,0.10373
978.58176,0.10162
976.52158,0.09953
974.46141,0.09754
972.40124,0.09556
970.34107,0.09381
968.28089,0.09216
966.22072,0.09017
964.16055,0.08790
962.10038,0.08587
960.04021,0.08384
957.98003,0.08132
955.91986,0.07899
953.85969,0.07753
951.79952,0.07595
949.73935,0.07392
947.67917,0.07247
945.61900,0.07119
943.55883,0.06881
941.49866,0.06533
939.43849,0.06125
937.37831,0.05704
935.31814,0.05295
933.25797,0.04886
931.19780,0.04484
929.13762,0.04130
927.07745,0.03830
925.01728,0.03553
922.95711,0.03307
920.89694,0.03125
918.83676,0.02984
916.77659,0.02820
914.71642,0.02591
912.65625,0.02347
910.59608,0.02177
908.53590,0.02080
906.47573,0.01983
904.41556,0.01859
902.35539,0.01762
900.29522,0.01741
898.23504,0.01772
896.17487,0.01801
894.11470,0.01800
892.05453,0.01779
889.99435,0.01746
887.93418,0.01714
885.87401,0.01672
883.81384,0.01553
881.75367,0.01413
879.69349,0.01318
877.63332,0.01182
875.57315,0.01031
873.51298,0.00928
871.45281,0.00811
869.39263,0.00700
867.33246,0.00671
865.27229,0.00693
863.21212,0.00683
861.15194,0.00676
859.09177,0.00741
857.03160,0.00769
854.97143,0.00698
852.91126,0.00605
850.85108,0.00571
848.79091,0.00623
846.73074,0.00686
844.67057,0.00648
842.61040,0.00511
840.55022,0.00409
838.49005,0.00418
836.42988,0.00452
834.36971,0.00456
832.30954,0.00447
830.24936,0.00422
828.18919,0.00426
826.12902,0.00406
824.06885,0.00312
822.00867,0.00263
819.94850,0.00233
817.88833,0.00184
815.82816,0.00187
813.76799,0.00170
811.70781,0.00107
809.64764,0.00061
807.58747,0.00023
805.52730,0.00002
803.46713,0.00047
801.40695,0.00106
799.34678,0.00125
797.28661,0.00102
795.22644,0.00048
793.16627,0.00008
791.10609,-0.00010
789.04592,-0.00058
786.98575,-0.00107
784.92558,-0.00123
782.86540,-0.00104
780.80523,0.00007
778.74506,0.00158
776.68489,0.00215
774.62472,0.00176
772.56454,0.00076
770.50437,-0.00027
768.44420,-0.00045
766.38403,0.00017
764.32386,0.00123
762.26368,0.00166
760.20351,0.00024
758.14334,-0.00150
756.08317,-0.00201
754.02299,-0.00142
751.96282,0.00000
749.90265,0.00118
747.84248,0.00152
745.78231,0.00019
743.72213,-0.00095
741.66196,-0.00023
739.60179,-0.00021
737.54162,-0.00149
735.48145,-0.00189
733.42127,-0.00231
731.36110,-0.00329
729.30093,-0.00268
727.24076,-0.00072
725.18059,0.00034
723.12041,0.00074
721.06024,0.00139
719.00007,0.00092
716.93990,0.00010
714.87972,0.00016
712.81955,0.00080
710.75938,0.00173
708.69921,0.00335
706.63904,0.00544
704.57886,0.00669
702.51869,0.00659
700.45852,0.00655
698.39835,0.00763
696.33818,0.00800
694.27800,0.00614
692.21783,0.00441
690.15766,0.00430
688.09749,0.00347
686.03731,0.00115
683.97714,0.00000
681.91697,0.00089
679.85680,0.00206
677.79663,0.00262
675.73645,0.00278
673.67628,0.00179
671.61611,0.00010
669.55594,0.00362
667.49577,0.00722
665.43559,0.00182
663.37542,0.00254
661.31525,0.00407
659.25508,0.00338
657.19491,0.00256
655.13473,0.00198
653.07456,0.00043
651.01439,0.00003
648.95422,0.00194
646.89404,0.00350
644.83387,0.00454
642.77370,0.00576
640.71353,0.00621
638.65336,0.00504
636.59318,0.00365
634.53301,0.00349
632.47284,0.00378
630.41267,0.00394
628.35250,0.00396
626.29232,0.00376
624.23215,0.00551
622.17198,0.00794
620.11181,0.00610
618.05164,0.00301
615.99146,0.00221
613.93129,0.00272
611.87112,0.00532
609.81095,0.00727
607.75077,0.00646
605.69060,0.00496
603.63043,0.00095
601.57026,-0.00369
599.51009,0.00000
