3996.73391,0.00094
3994.67373,0.00132
3992.61356,0.00124
3990.55339,0.00092
3988.49322,0.00091
3986.43305,0.00085
3984.37287,0.00030
3982.31270,0.00000
3980.25253,0.00051
3978.19236,0.00091
3976.13219,0.00072
3974.07201,0.00064
3972.01184,0.00088
3969.95167,0.00092
3967.89150,0.00085
3965.83133,0.00102
3963.77115,0.00110
3961.71098,0.00107
3959.65081,0.00141
3957.59064,0.00176
3955.53046,0.00163
3953.47029,0.00109
3951.41012,0.00061
3949.34995,0.00085
3947.28978,0.00181
3945.22960,0.00209
3943.16943,0.00166
3941.10926,0.00186
3939.04909,0.00212
3936.98892,0.00199
3934.92874,0.00173
3932.86857,0.00146
3930.80840,0.00166
3928.74823,0.00207
3926.68805,0.00183
3924.62788,0.00125
3922.56771,0.00109
3920.50754,0.00095
3918.44737,0.00106
3916.38719,0.00168
3914.32702,0.00235
3912.26685,0.00264
3910.20668,0.00289
3908.14651,0.00294
3906.08633,0.00238
3904.02616,0.00218
3901.96599,0.00246
3899.90582,0.00229
3897.84565,0.00274
3895.78547,0.00334
3893.72530,0.00286
3891.66513,0.00236
3889.60496,0.00308
3887.54478,0.00285
3885.48461,0.00201
3883.42444,0.00205
3881.36427,0.00128
3879.30410,0.00147
3877.24392,0.00251
3875.18375,0.00236
3873.12358,0.00239
3871.06341,0.00231
3869.00324,0.00296
3866.94306,0.00366
3864.88289,0.00230
3862.82272,0.00148
3860.76255,0.00223
3858.70237,0.00317
3856.64220,0.00242
3854.58203,0.00000
3852.52186,0.00041
3850.46169,0.00312
3848.40151,0.00369
3846.34134,0.00258
3844.28117,0.00175
3842.22100,0.00230
3840.16083,0.00277
3838.10065,0.00273
3836.04048,0.00322
3833.98031,0.00293
3831.92014,0.00217
3829.85997,0.00254
3827.79979,0.00317
3825.73962,0.00401
3823.67945,0.00391
3821.61928,0.00244
3819.55910,0.00308
3817.49893,0.00344
3815.43876,0.00297
3813.37859,0.00333
3811.31842,0.00298
3809.25824,0.00206
3807.19807,0.00209
3805.13790,0.00352
3803.07773,0.00302
3801.01756,0.00223
3798.95738,0.00285
3796.89721,0.00215
3794.83704,0.00189
3792.77687,0.00203
3790.71670,0.00156
3788.65652,0.00122
3786.59635,0.00122
3784.53618,0.00156
3782.47601,0.00185
3780.41583,0.00124
3778.35566,0.00120
3776.29549,0.00227
3774.23532,0.00318
3772.17515,0.00329
3770.11497,0.00312
3768.05480,0.00350
3765.99463,0.00347
3763.93446,0.00382
3761.87429,0.00378
3759.81411,0.00274
3757.75394,0.00273
3755.69377,0.00375
3753.63360,0.00381
3751.57342,0.00318
3749.51325,0.00403
3747.45308,0.00408
3745.39291,0.00125
3743.33274,0.00101
3741.27256,0.00330
3739.21239,0.00362
3737.15222,0.00212
3735.09205,0.00115
3733.03188,0.00182
3730.97170,0.00295
3728.91153,0.00281
3726.85136,0.00141
3724.79119,0.00105
3722.73102,0.00182
3720.67084,0.00258
3718.61067,0.00263
3716.55050,0.00227
3714.49033,0.00130
3712.43015,0.00000
3710.36998,0.00036
3708.30981,0.00197
3706.24964,0.00268
3704.18947,0.00188
3702.12929,0.00074
3700.06912,0.00067
3698.00895,0.00087
3695.94878,0.00116
3693.88861,0.00171
3691.82843,0.00144
3689.76826,0.00079
3687.70809,0.00143
3685.64792,0.00220
3683.58775,0.00189
3681.52757,0.00167
3679.46740,0.00178
3677.40723,0.00126
3675.34706,0.00168
3673.28688,0.00403
3671.22671,0.00315
3669.16654,0.00149
3667.10637,0.00207
3665.04620,0.00222
3662.98602,0.00194
3660.92585,0.00212
3658.86568,0.00197
3656.80551,0.00136
3654.74534,0.00205
3652.68516,0.00256
3650.62499,0.00186
3648.56482,0.00202
3646.50465,0.00270
3644.44447,0.00273
3642.38430,0.00239
3640.32413,0.00289
3638.26396,0.00404
3636.20379,0.00496
3634.14361,0.00545
3632.08344,0.00547
3630.02327,0.00410
3627.96310,0.00381
3625.90293,0.00530
3623.84275,0.00616
3621.78258,0.00630
3619.72241,0.00634
3617.66224,0.00681
3615.60207,0.00667
3613.54189,0.00624
3611.48172,0.00667
3609.42155,0.00685
3607.36138,0.00729
3605.30120,0.00827
3603.24103,0.00838
3601.18086,0.00790
3599.12069,0.00769
3597.06052,0.00778
3595.00034,0.00850
3592.94017,0.00974
3590.88000,0.00984
3588.81983,0.00848
3586.75966,0.00847
3584.69948,0.01034
3582.63931,0.01135
3580.57914,0.01128
3578.51897,0.01091
3576.45879,0.01066
3574.39862,0.01099
3572.33845,0.01189
3570.27828,0.01272
3568.21811,0.01314
3566.15793,0.01371
3564.09776,0.01421
3562.03759,0.01425
3559.97742,0.01441
3557.91725,0.01473
3555.85707,0.01485
3553.79690,0.01469
3551.73673,0.01491
3549.67656,0.01572
3547.61639,0.01640
3545.55621,0.01710
3543.49604,0.01798
3541.43587,0.01863
3539.37570,0.01888
3537.31552,0.01879
3535.25535,0.01896
3533.19518,0.01971
3531.13501,0.02055
3529.07484,0.02100
3527.01466,0.02113
3524.95449,0.02151
3522.89432,0.02253
3520.83415,0.02368
3518.77398,0.02417
3516.71380,0.02423
3514.65363,0.02419
3512.59346,0.02440
3510.53329,0.02498
3508.47312,0.02580
3506.41294,0.02632
3504.35277,0.02609
3502.29260,0.02606
3500.23243,0.02671
3498.17225,0.02740
3496.11208,0.02806
3494.05191,0.02891
3491.99174,0.02976
3489.93157,0.03023
3487.87139,0.03047
3485.81122,0.03085
3483.75105,0.03089
3481.69088,0.03067
3479.63071,0.03092
3477.57053,0.03140
3475.51036,0.03211
3473.45019,0.03318
3471.39002,0.03396
3469.32984,0.03426
3467.26967,0.03467
3465.20950,0.03543
3463.14933,0.03566
3461.08916,0.03526
3459.02898,0.03512
3456.96881,0.03561
3454.90864,0.03679
3452.84847,0.03825
3450.78830,0.03889
3448.72812,0.03829
3446.66795,0.03787
3444.60778,0.03843
3442.54761,0.03892
3440.48744,0.03917
3438.42726,0.03944
3436.36709,0.03993
3434.30692,0.04074
3432.24675,0.04193
3430.18657,0.04311
3428.12640,0.04350
3426.06623,0.04335
3424.00606,0.04320
3421.94589,0.04289
3419.88571,0.04259
3417.82554,0.04236
3415.76537,0.04227
3413.70520,0.04317
3411.64503,0.04468
3409.58485,0.04573
3407.52468,0.04597
3405.46451,0.04562
3403.40434,0.04531
3401.34416,0.04564
3399.28399,0.04633
3397.22382,0.04701
3395.16365,0.04745
3393.10348,0.04738
3391.04330,0.04738
3388.98313,0.04817
3386.92296,0.04898
3384.86279,0.04909
3382.80262,0.04894
3380.74244,0.04891
3378.68227,0.04917
3376.62210,0.04970
3374.56193,0.05023
3372.50176,0.05071
3370.44158,0.05103
3368.38141,0.05126
3366.32124,0.05164
3364.26107,0.05193
3362.20089,0.05197
3360.14072,0.05201
3358.08055,0.05172
3356.02038,0.05153
3353.96021,0.05228
3351.90003,0.05321
3349.83986,0.05353
3347.77969,0.05345
3345.71952,0.05332
3343.65935,0.05322
3341.59917,0.05328
3339.53900,0.05381
3337.47883,0.05438
3335.41866,0.05420
3333.35849,0.05369
3331.29831,0.05373
3329.23814,0.05412
3327.17797,0.05440
3325.11780,0.05454
3323.05762,0.05456
3320.99745,0.05447
3318.93728,0.05430
3316.87711,0.05405
3314.81694,0.05398
3312.75676,0.05430
3310.69659,0.05465
3308.63642,0.05471
3306.57625,0.05467
3304.51608,0.05482
3302.45590,0.05509
3300.39573,0.05518
3298.33556,0.05510
3296.27539,0.05501
3294.21521,0.05499
3292.15504,0.05507
3290.09487,0.05522
3288.03470,0.05526
3285.97453,0.05508
3283.91435,0.05493
3281.85418,0.05523
3279.79401,0.05562
3277.73384,0.05555
3275.67367,0.05525
3273.61349,0.05496
3271.55332,0.05482
3269.49315,0.05482
3267.43298,0.05473
3265.37281,0.05471
3263.31263,0.05489
3261.25246,0.05491
3259.19229,0.05466
3257.13212,0.05451
3255.07194,0.05459
3253.01177,0.05468
3250.95160,0.05459
3248.89143,0.05421
3246.83126,0.05364
3244.77108,0.05326
3242.71091,0.05329
3240.65074,0.05355
3238.59057,0.05376
3236.53040,0.05361
3234.47022,0.05323
3232.41005,0.05291
3230.34988,0.05260
3228.28971,0.05226
3226.22954,0.05216
3224.16936,0.05234
3222.10919,0.05246
3220.04902,0.05229
3217.98885,0.05211
3215.92867,0.05190
3213.86850,0.05161
3211.80833,0.05158
3209.74816,0.05158
3207.68799,0.05121
3205.62781,0.05081
3203.56764,0.05083
3201.50747,0.05070
3199.44730,0.05015
3197.38713,0.04991
3195.32695,0.04989
3193.26678,0.04964
3191.20661,0.04953
3189.14644,0.04965
3187.08626,0.04950
3185.02609,0.04901
3182.96592,0.04838
3180.90575,0.04759
3178.84558,0.04698
3176.78540,0.04692
3174.72523,0.04710
3172.66506,0.04732
3170.60489,0.04724
3168.54472,0.04656
3166.48454,0.04605
3164.42437,0.04619
3162.36420,0.04628
3160.30403,0.04592
3158.24386,0.04539
3156.18368,0.04492
3154.12351,0.04452
3152.06334,0.04444
3150.00317,0.04459
3147.94299,0.04432
3145.88282,0.04360
3143.82265,0.04288
3141.76248,0.04242
3139.70231,0.04233
3137.64213,0.04246
3135.58196,0.04235
3133.52179,0.04207
3131.46162,0.04182
3129.40145,0.04137
3127.34127,0.04077
3125.28110,0.04020
3123.22093,0.03973
3121.16076,0.03947
3119.10058,0.03943
3117.04041,0.03946
3114.98024,0.03917
3112.92007,0.03862
3110.85990,0.03827
3108.79972,0.03799
3106.73955,0.03761
3104.67938,0.03728
3102.61921,0.03698
3100.55904,0.03679
3098.49886,0.03661
3096.43869,0.03637
3094.37852,0.03620
3092.31835,0.03582
3090.25818,0.03535
3088.19800,0.03529
3086.13783,0.03540
3084.07766,0.03514
3082.01749,0.03473
3079.95731,0.03444
3077.89714,0.03403
3075.83697,0.03347
3073.77680,0.03296
3071.71663,0.03267
3069.65645,0.03256
3067.59628,0.03248
3065.53611,0.03243
3063.47594,0.03228
3061.41577,0.03185
3059.35559,0.03121
3057.29542,0.03065
3055.23525,0.03062
3053.17508,0.03083
3051.11491,0.03073
3049.05473,0.03053
3046.99456,0.03053
3044.93439,0.03049
3042.87422,0.02992
3040.81404,0.02910
3038.75387,0.02885
3036.69370,0.02891
3034.63353,0.02854
3032.57336,0.02785
3030.51318,0.02743
3028.45301,0.02735
3026.39284,0.02731
3024.33267,0.02760
3022.27250,0.02806
3020.21232,0.02803
3018.15215,0.02770
3016.09198,0.02759
3014.03181,0.02734
3011.97163,0.02665
3009.91146,0.02605
3007.85129,0.02586
3005.79112,0.02582
3003.73095,0.02556
3001.67077,0.02518
2999.61060,0.02500
2997.55043,0.02496
2995.49026,0.02506
2993.43009,0.02519
2991.36991,0.02505
2989.30974,0.02484
2987.24957,0.02496
2985.18940,0.02538
2983.12923,0.02563
2981.06905,0.02559
2979.00888,0.02573
2976.94871,0.02606
2974.88854,0.02628
2972.82836,0.02672
2970.76819,0.02763
2968.70802,0.02866
2966.64785,0.02984
2964.58768,0.03156
2962.52750,0.03352
2960.46733,0.03506
2958.40716,0.03630
2956.34699,0.03791
2954.28682,0.04001
2952.22664,0.04205
2950.16647,0.04388
2948.10630,0.04575
2946.04613,0.04776
2943.98596,0.04991
2941.92578,0.05224
2939.86561,0.05482
2937.80544,0.05768
2935.74527,0.06029
2933.68509,0.06247
2931.62492,0.06493
2929.56475,0.06770
2927.50458,0.06967
2925.44441,0.07060
2923.38423,0.07147
2921.32406,0.07261
2919.26389,0.07317
2917.20372,0.07251
2915.14355,0.07084
2913.08337,0.06842
2911.02320,0.06539
2908.96303,0.06231
2906.90286,0.05998
2904.84268,0.05829
2902.78251,0.05663
2900.72234,0.05499
2898.66217,0.05361
2896.60200,0.05234
2894.54182,0.05079
2892.48165,0.04908
2890.42148,0.04759
2888.36131,0.04641
2886.30114,0.04566
2884.24096,0.04528
2882.18079,0.04481
2880.12062,0.04427
2878.06045,0.04408
2876.00028,0.04421
2873.94010,0.04442
2871.87993,0.04457
2869.81976,0.04476
2867.75959,0.04532
2865.69941,0.04650
2863.63924,0.04831
2861.57907,0.05030
2859.51890,0.05224
2857.45873,0.05421
2855.39855,0.05594
2853.33838,0.05716
2851.27821,0.05772
2849.21804,0.05708
2847.15787,0.05457
2845.09769,0.05069
2843.03752,0.04692
2840.97735,0.04397
2838.91718,0.04160
2836.85700,0.03966
2834.79683,0.03801
2832.73666,0.03655
2830.67649,0.03532
2828.61632,0.03410
2826.55614,0.03309
2824.49597,0.03263
2822.43580,0.03220
2820.37563,0.03159
2818.31546,0.03131
2816.25528,0.03134
2814.19511,0.03099
2812.13494,0.03006
2810.07477,0.02932
2808.01460,0.02896
2805.95442,0.02870
2803.89425,0.02852
2801.83408,0.02818
2799.77391,0.02772
2797.71373,0.02743
2795.65356,0.02724
2793.59339,0.02690
2791.53322,0.02640
2789.47305,0.02598
2787.41287,0.02576
2785.35270,0.02562
2783.29253,0.02555
2781.23236,0.02565
2779.17219,0.02561
2777.11201,0.02527
2775.05184,0.02486
2772.99167,0.02442
2770.93150,0.02403
2768.87133,0.02387
2766.81115,0.02416
2764.75098,0.02466
2762.69081,0.02480
2760.63064,0.02463
2758.57046,0.02455
2756.51029,0.02437
2754.45012,0.02377
2752.38995,0.02317
2750.32978,0.02317
2748.26960,0.02330
2746.20943,0.02301
2744.14926,0.02279
2742.08909,0.02299
2740.02892,0.02310
2737.96874,0.02285
2735.90857,0.02278
2733.84840,0.02322
2731.78823,0.02359
2729.72805,0.02352
2727.66788,0.02333
2725.60771,0.02314
2723.54754,0.02290
2721.48737,0.02261
2719.42719,0.02235
2717.36702,0.02217
2715.30685,0.02209
2713.24668,0.02213
2711.18651,0.02209
2709.12633,0.02188
2707.06616,0.02179
2705.00599,0.02181
2702.94582,0.02177
2700.88565,0.02168
2698.82547,0.02152
2696.76530,0.02140
2694.70513,0.02139
2692.64496,0.02147
2690.58478,0.02168
2688.52461,0.02183
2686.46444,0.02186
2684.40427,0.02176
2682.34410,0.02148
2680.28392,0.02138
2678.22375,0.02164
2676.16358,0.02197
2674.10341,0.02205
2672.04324,0.02176
2669.98306,0.02148
2667.92289,0.02145
2665.86272,0.02147
2663.80255,0.02136
2661.74238,0.02104
2659.68220,0.02071
2657.62203,0.02068
2655.56186,0.02064
2653.50169,0.02030
2651.44151,0.02006
2649.38134,0.01995
2647.32117,0.01986
2645.26100,0.02012
2643.20083,0.02028
2641.14065,0.01989
2639.08048,0.01957
2637.02031,0.01971
2634.96014,0.01985
2632.89997,0.01940
2630.83979,0.01860
2628.77962,0.01820
2626.71945,0.01820
2624.65928,0.01811
2622.59910,0.01804
2620.53893,0.01820
2618.47876,0.01838
2616.41859,0.01829
2614.35842,0.01806
2612.29824,0.01813
2610.23807,0.01836
2608.17790,0.01822
2606.11773,0.01762
2604.05756,0.01715
2601.99738,0.01727
2599.93721,0.01758
2597.87704,0.01771
2595.81687,0.01777
2593.75670,0.01757
2591.69652,0.01731
2589.63635,0.01741
2587.57618,0.01754
2585.51601,0.01746
2583.45583,0.01744
2581.39566,0.01739
2579.33549,0.01692
2577.27532,0.01636
2575.21515,0.01621
2573.15497,0.01618
2571.09480,0.01596
2569.03463,0.01584
2566.97446,0.01596
2564.91429,0.01590
2562.85411,0.01545
2560.79394,0.01501
2558.73377,0.01509
2556.67360,0.01559
2554.61342,0.01583
2552.55325,0.01564
2550.49308,0.01535
2548.43291,0.01506
2546.37274,0.01491
2544.31256,0.01499
2542.25239,0.01523
2540.19222,0.01549
2538.13205,0.01538
2536.07188,0.01497
2534.01170,0.01466
2531.95153,0.01430
2529.89136,0.01381
2527.83119,0.01372
2525.77102,0.01400
2523.71084,0.01429
2521.65067,0.01462
2519.59050,0.01499
2517.53033,0.01535
2515.47015,0.01530
2513.40998,0.01479
2511.34981,0.01447
2509.28964,0.01438
2507.22947,0.01428
2505.16929,0.01410
2503.10912,0.01389
2501.04895,0.01377
2498.98878,0.01369
2496.92861,0.01384
2494.86843,0.01425
2492.80826,0.01448
2490.74809,0.01437
2488.68792,0.01423
2486.62775,0.01408
2484.56757,0.01406
2482.50740,0.01425
2480.44723,0.01424
2478.38706,0.01367
2476.32688,0.01290
2474.26671,0.01288
2472.20654,0.01358
2470.14637,0.01377
2468.08620,0.01335
2466.02602,0.01314
2463.96585,0.01322
2461.90568,0.01295
2459.84551,0.01243
2457.78534,0.01225
2455.72516,0.01230
2453.66499,0.01216
2451.60482,0.01225
2449.54465,0.01290
2447.48447,0.01340
2445.42430,0.01330
2443.36413,0.01296
2441.30396,0.01263
2439.24379,0.01231
2437.18361,0.01178
2435.12344,0.01124
2433.06327,0.01125
2431.00310,0.01149
2428.94293,0.01172
2426.88275,0.01213
2424.82258,0.01238
2422.76241,0.01219
2420.70224,0.01201
2418.64207,0.01223
2416.58189,0.01266
2414.52172,0.01282
2412.46155,0.01261
2410.40138,0.01245
2408.34120,0.01260
2406.28103,0.01292
2404.22086,0.01308
2402.16069,0.01261
2400.10052,0.01185
2398.04034,0.01153
2395.98017,0.01150
2393.92000,0.01135
2391.85983,0.01124
2389.79966,0.01163
2387.73948,0.01222
2385.67931,0.01232
2383.61914,0.01201
2381.55897,0.01181
2379.49880,0.01181
2377.43862,0.01180
2375.37845,0.01192
2373.31828,0.01245
2371.25811,0.01283
2369.19793,0.01211
2367.13776,0.01047
2365.07759,0.00914
2363.01742,0.00988
2360.95725,0.01176
2358.89707,0.01075
2356.83690,0.00802
2354.77673,0.00838
2352.71656,0.01085
2350.65639,0.01222
2348.59621,0.01284
2346.53604,0.01385
2344.47587,0.01443
2342.41570,0.01338
2340.35552,0.01133
2338.29535,0.00941
2336.23518,0.00778
2334.17501,0.00702
2332.11484,0.00762
2330.05466,0.00859
2327.99449,0.00932
2325.93432,0.01006
2323.87415,0.01039
2321.81398,0.01026
2319.75380,0.01018
2317.69363,0.01015
2315.63346,0.00987
2313.57329,0.00936
2311.51312,0.00920
2309.45294,0.00964
2307.39277,0.01035
2305.33260,0.01117
2303.27243,0.01153
2301.21225,0.01112
2299.15208,0.01082
2297.09191,0.01108
2295.03174,0.01114
2292.97157,0.01053
2290.91139,0.00996
2288.85122,0.01018
2286.79105,0.01072
2284.73088,0.01042
2282.67071,0.00955
2280.61053,0.00941
2278.55036,0.01001
2276.49019,0.01046
2274.43002,0.01042
2272.36984,0.01044
2270.30967,0.01064
2268.24950,0.01016
2266.18933,0.00920
2264.12916,0.00869
2262.06898,0.00870
2260.00881,0.00907
2257.94864,0.00941
2255.88847,0.00931
2253.82830,0.00952
2251.76812,0.01013
2249.70795,0.00972
2247.64778,0.00851
2245.58761,0.00831
2243.52744,0.00858
2241.46726,0.00797
2239.40709,0.00720
2237.34692,0.00773
2235.28675,0.00945
2233.22657,0.01077
2231.16640,0.01022
2229.10623,0.00849
2227.04606,0.00797
2224.98589,0.00934
2222.92571,0.01049
2220.86554,0.01042
2218.80537,0.00945
2216.74520,0.00723
2214.68503,0.00550
2212.62485,0.00643
2210.56468,0.00804
2208.50451,0.00844
2206.44434,0.00788
2204.38417,0.00614
2202.32399,0.00459
2200.26382,0.00476
2198.20365,0.00600
2196.14348,0.00639
2194.08330,0.00480
2192.02313,0.00304
2189.96296,0.00431
2187.90279,0.00811
2185.84262,0.01018
2183.78244,0.00885
2181.72227,0.00697
2179.66210,0.00762
2177.60193,0.00961
2175.54176,0.01031
2173.48158,0.00990
2171.42141,0.00916
2169.36124,0.00792
2167.30107,0.00695
2165.24089,0.00652
2163.18072,0.00719
2161.12055,0.00947
2159.06038,0.00909
2157.00021,0.00527
2154.94003,0.00324
2152.87986,0.00304
2150.81969,0.00261
2148.75952,0.00242
2146.69935,0.00145
2144.63917,0.00000
2142.57900,0.00061
2140.51883,0.00285
2138.45866,0.00478
2136.39849,0.00527
2134.33831,0.00425
2132.27814,0.00339
2130.21797,0.00387
2128.15780,0.00440
2126.09762,0.00460
2124.03745,0.00559
2121.97728,0.00662
2119.91711,0.00692
2117.85694,0.00717
2115.79676,0.00755
2113.73659,0.00763
2111.67642,0.00708
2109.61625,0.00629
2107.55608,0.00626
2105.49590,0.00705
2103.43573,0.00792
2101.37556,0.00766
2099.31539,0.00640
2097.25521,0.00514
2095.19504,0.00431
2093.13487,0.00493
2091.07470,0.00661
2089.01453,0.00770
2086.95435,0.00754
2084.89418,0.00671
2082.83401,0.00656
2080.77384,0.00703
2078.71367,0.00745
2076.65349,0.00808
2074.59332,0.00835
2072.53315,0.00776
2070.47298,0.00682
2068.41281,0.00567
2066.35263,0.00488
2064.29246,0.00538
2062.23229,0.00612
2060.17212,0.00595
2058.11194,0.00558
2056.05177,0.00526
2053.99160,0.00446
2051.93143,0.00350
2049.87126,0.00315
2047.81108,0.00369
2045.75091,0.00498
2043.69074,0.00608
2041.63057,0.00680
2039.57040,0.00715
2037.51022,0.00579
2035.45005,0.00394
2033.38988,0.00411
2031.32971,0.00604
2029.26954,0.00709
2027.20936,0.00536
2025.14919,0.00342
2023.08902,0.00420
2021.02885,0.00603
2018.96867,0.00603
2016.90850,0.00427
2014.84833,0.00262
2012.78816,0.00142
2010.72799,0.00089
2008.66781,0.00173
2006.60764,0.00261
2004.54747,0.00246
2002.48730,0.00244
2000.42713,0.00324
1998.36695,0.00479
1996.30678,0.00644
1994.24661,0.00631
1992.18644,0.00453
1990.12626,0.00337
1988.06609,0.00282
1986.00592,0.00290
1983.94575,0.00395
1981.88558,0.00435
1979.82540,0.00379
1977.76523,0.00388
1975.70506,0.00330
1973.64489,0.00121
1971.58472,0.00000
1969.52454,0.00016
1967.46437,0.00066
1965.40420,0.00194
1963.34403,0.00367
1961.28386,0.00478
1959.22368,0.00484
1957.16351,0.00409
1955.10334,0.00330
1953.04317,0.00305
1950.98299,0.00315
1948.92282,0.00314
1946.86265,0.00305
1944.80248,0.00264
1942.74231,0.00236
1940.68213,0.00363
1938.62196,0.00435
1936.56179,0.00333
1934.50162,0.00253
1932.44145,0.00280
1930.38127,0.00331
1928.32110,0.00343
1926.26093,0.00328
1924.20076,0.00321
1922.14059,0.00397
1920.08041,0.00407
1918.02024,0.00268
1915.96007,0.00262
1913.89990,0.00380
1911.83972,0.00446
1909.77955,0.00398
1907.71938,0.00307
1905.65921,0.00261
1903.59904,0.00283
1901.53886,0.00339
1899.47869,0.00368
1897.41852,0.00329
1895.35835,0.00280
1893.29818,0.00304
1891.23800,0.00292
1889.17783,0.00221
1887.11766,0.00217
1885.05749,0.00264
1882.99731,0.00315
1880.93714,0.00322
1878.87697,0.00309
1876.81680,0.00326
1874.75663,0.00341
1872.69645,0.00327
1870.63628,0.00275
1868.57611,0.00250
1866.51594,0.00306
1864.45577,0.00321
1862.39559,0.00268
1860.33542,0.00216
1858.27525,0.00186
1856.21508,0.00171
1854.15491,0.00185
1852.09473,0.00211
1850.03456,0.00217
1847.97439,0.00245
1845.91422,0.00283
1843.85404,0.00294
1841.79387,0.00302
1839.73370,0.00243
1837.67353,0.00195
1835.61336,0.00239
1833.55318,0.00286
1831.49301,0.00238
1829.43284,0.00218
1827.37267,0.00267
1825.31250,0.00230
1823.25232,0.00204
1821.19215,0.00201
1819.13198,0.00165
1817.07181,0.00127
1815.01163,0.00118
1812.95146,0.00110
1810.89129,0.00098
1808.83112,0.00113
1806.77095,0.00123
1804.71077,0.00114
1802.65060,0.00092
1800.59043,0.00077
1798.53026,0.00104
1796.47009,0.00143
1794.40991,0.00103
1792.34974,0.00000
1790.28957,0.00015
1788.22940,0.00062
1786.16923,0.00037
1784.10905,0.00048
1782.04888,0.00081
1779.98871,0.00101
1777.92854,0.00135
1775.86836,0.00118
1773.80819,0.00027
1771.74802,0.00000
1769.68785,0.00079
1767.62768,0.00130
1765.56750,0.00196
1763.50733,0.00208
1761.44716,0.00241
1759.38699,0.00372
1757.32682,0.00493
1755.26664,0.00698
1753.20647,0.00886
1751.14630,0.01005
1749.08613,0.01217
1747.02596,0.01450
1744.96578,0.01591
1742.90561,0.01663
1740.84544,0.01699
1738.78527,0.01790
1736.72509,0.01825
1734.66492,0.01669
1732.60475,0.01692
1730.54458,0.01778
1728.48441,0.01778
1726.42423,0.01778
1724.36406,0.01778
1722.30389,0.01851
1720.24372,0.01858
1718.18355,0.01728
1716.12337,0.01748
1714.06320,0.01855
1712.00303,0.01884
1709.94286,0.01851
1707.88268,0.01784
1705.82251,0.01776
1703.76234,0.01923
1701.70217,0.01950
1699.64200,0.01917
1697.58182,0.01915
1695.52165,0.01870
1693.46148,0.02030
1691.40131,0.02159
1689.34114,0.02285
1687.28096,0.02441
1685.22079,0.02455
1683.16062,0.02712
1681.10045,0.03156
1679.04028,0.03386
1676.98010,0.03408
1674.91993,0.03459
1672.85976,0.03631
1670.79959,0.03607
1668.73941,0.03550
1666.67924,0.03586
1664.61907,0.03446
1662.55890,0.03258
1660.49873,0.03278
1658.43855,0.03334
1656.37838,0.03199
1654.31821,0.02845
1652.25804,0.02887
1650.19787,0.03233
1648.13769,0.03142
1646.07752,0.03018
1644.01735,0.03178
1641.95718,0.03300
1639.89701,0.03341
1637.83683,0.03267
1635.77666,0.03187
1633.71649,0.03397
1631.65632,0.03561
1629.59614,0.03531
1627.53597,0.03551
1625.47580,0.03616
1623.41563,0.03641
1621.35546,0.03791
1619.29528,0.03845
1617.23511,0.03735
1615.17494,0.03814
1613.11477,0.03977
1611.05460,0.04059
1608.99442,0.04166
1606.93425,0.04310
1604.87408,0.04390
1602.81391,0.04355
1600.75373,0.04237
1598.69356,0.04067
1596.63339,0.03865
1594.57322,0.03686
1592.51305,0.03571
1590.45287,0.03492
1588.39270,0.03399
1586.33253,0.03262
1584.27236,0.03106
1582.21219,0.03009
1580.15201,0.02989
1578.09184,0.02882
1576.03167,0.02757
1573.97150,0.02834
1571.91133,0.02764
1569.85115,0.02509
1567.79098,0.02428
1565.73081,0.02407
1563.67064,0.02414
1561.61046,0.02292
1559.55029,0.01918
1557.49012,0.01917
1555.42995,0.01971
1553.36978,0.01854
1551.30960,0.01735
1549.24943,0.01680
1547.18926,0.01649
1545.12909,0.01511
1543.06892,0.01338
1541.00874,0.01115
1538.94857,0.01086
1536.88840,0.01221
1534.82823,0.01072
1532.76805,0.00925
1530.70788,0.00991
1528.64771,0.00949
1526.58754,0.00875
1524.52737,0.00896
1522.46719,0.00890
1520.40702,0.01064
1518.34685,0.01320
1516.28668,0.01461
1514.22651,0.01579
1512.16633,0.01555
1510.10616,0.01330
1508.04599,0.00863
1505.98582,0.00619
1503.92565,0.00766
1501.86547,0.00751
1499.80530,0.00519
1497.74513,0.00300
1495.68496,0.00297
1493.62478,0.00375
1491.56461,0.00240
1489.50444,0.00069
1487.44427,0.00098
1485.38410,0.00163
1483.32392,0.00150
1481.26375,0.00151
1479.20358,0.00248
1477.14341,0.00338
1475.08324,0.00412
1473.02306,0.00572
1470.96289,0.00956
1468.90272,0.01306
1466.84255,0.01415
1464.78238,0.01533
1462.72220,0.01808
1460.66203,0.01918
1458.60186,0.01798
1456.54169,0.01902
1454.48151,0.02248
1452.42134,0.02367
1450.36117,0.02331
1448.30100,0.02354
1446.24083,0.02503
1444.18065,0.02657
1442.12048,0.02768
1440.06031,0.02862
1438.00014,0.02871
1435.93997,0.02958
1433.87979,0.03134
1431.81962,0.03118
1429.75945,0.03044
1427.69928,0.03081
1425.63910,0.03107
1423.57893,0.03135
1421.51876,0.03152
1419.45859,0.03093
1417.39842,0.03159
1415.33824,0.03210
1413.27807,0.03108
1411.21790,0.02982
1409.15773,0.02913
1407.09756,0.02821
1405.03738,0.02715
1402.97721,0.02693
1400.91704,0.02648
1398.85687,0.02551
1396.79670,0.02453
1394.73652,0.02350
1392.67635,0.02355
1390.61618,0.02361
1388.55601,0.02307
1386.49583,0.02351
1384.43566,0.02475
1382.37549,0.02538
1380.31532,0.02586
1378.25515,0.02675
1376.19497,0.02739
1374.13480,0.02761
1372.07463,0.02808
1370.01446,0.02818
1367.95429,0.02818
1365.89411,0.02822
1363.83394,0.02735
1361.77377,0.02643
1359.71360,0.02601
1357.65343,0.02555
1355.59325,0.02536
1353.53308,0.02559
1351.47291,0.02573
1349.41274,0.02559
1347.35256,0.02537
1345.29239,0.02523
1343.23222,0.02511
1341.17205,0.02464
1339.11188,0.02421
1337.05170,0.02441
1334.99153,0.02465
1332.93136,0.02458
1330.87119,0.02437
1328.81102,0.02429
1326.75084,0.02449
1324.69067,0.02504
1322.63050,0.02555
1320.57033,0.02560
1318.51015,0.02545
1316.44998,0.02526
1314.38981,0.02469
1312.32964,0.02406
1310.26947,0.02356
1308.20929,0.02289
1306.14912,0.02220
1304.08895,0.02149
1302.02878,0.02068
1299.96861,0.02000
1297.90843,0.01945
1295.84826,0.01903
1293.78809,0.01911
1291.72792,0.01959
1289.66775,0.01992
1287.60757,0.02008
1285.54740,0.02040
1283.48723,0.02073
1281.42706,0.02103
1279.36688,0.02130
1277.30671,0.02129
1275.24654,0.02127
1273.18637,0.02159
1271.12620,0.02207
1269.06602,0.02276
1267.00585,0.02374
1264.94568,0.02480
1262.88551,0.02587
1260.82534,0.02687
1258.76516,0.02758
1256.70499,0.02788
1254.64482,0.02816
1252.58465,0.02878
1250.52447,0.02957
1248.46430,0.03024
1246.40413,0.03055
1244.34396,0.03081
1242.28379,0.03121
1240.22361,0.03126
1238.16344,0.03083
1236.10327,0.03017
1234.04310,0.02939
1231.98293,0.02862
1229.92275,0.02782
1227.86258,0.02684
1225.80241,0.02572
1223.74224,0.02432
1221.68207,0.02261
1219.62189,0.02102
1217.56172,0.01968
1215.50155,0.01822
1213.44138,0.01657
1211.38120,0.01506
1209.32103,0.01383
1207.26086,0.01270
1205.20069,0.01133
1203.14052,0.00962
1201.08034,0.00789
1199.02017,0.00646
1196.96000,0.00519
1194.89983,0.00395
1192.83966,0.00265
1190.77948,0.00137
1188.71931,0.00043
1186.65914,0.00000
1184.59897,-0.00015
1182.53880,-0.00021
1180.47862,-0.00002
1178.41845,0.00084
1176.35828,0.00250
1174.29811,0.00474
1172.23793,0.00725
1170.17776,0.00987
1168.11759,0.01208
1166.05742,0.01342
1163.99725,0.01425
1161.93707,0.01501
1159.87690,0.01569
1157.81673,0.01625
1155.75656,0.01694
1153.69639,0.01806
1151.63621,0.01933
1149.57604,0.02034
1147.51587,0.02142
1145.45570,0.02284
1143.39552,0.02410
1141.33535,0.02485
1139.27518,0.02545
1137.21501,0.02611
1135.15484,0.02680
1133.09466,0.02786
1131.03449,0.02921
1128.97432,0.03042
1126.91415,0.03170
1124.85398,0.03328
1122.79380,0.03475
1120.73363,0.03614
1118.67346,0.03753
1116.61329,0.03888
1114.55312,0.04036
1112.49294,0.04168
1110.43277,0.04286
1108.37260,0.04400
1106.31243,0.04497
1104.25225,0.04616
1102.19208,0.04782
1100.13191,0.04990
1098.07174,0.05241
1096.01157,0.05493
1093.95139,0.05720
1091.89122,0.05922
1089.83105,0.06106
1087.77088,0.06323
1085.71071,0.06598
1083.65053,0.06887
1081.59036,0.07144
1079.53019,0.07388
1077.47002,0.07639
1075.40985,0.07871
1073.34967,0.08098
1071.28950,0.08341
1069.22933,0.08557
1067.16916,0.08737
1065.10898,0.08913
1063.04881,0.09047
1060.98864,0.09149
1058.92847,0.09302
1056.86830,0.09517
1054.80812,0.09769
1052.74795,0.10059
1050.68778,0.10350
1048.62761,0.10622
1046.56744,0.10913
1044.50726,0.11207
1042.44709,0.11480
1040.38692,0.11743
1038.32675,0.11977
1036.26657,0.12159
1034.20640,0.12295
1032.14623,0.12416
1030.08606,0.12482
1028.02589,0.12435
1025.96571,0.12338
1023.90554,0.12254
1021.84537,0.12167
1019.78520,0.12087
1017.72503,0.12052
1015.66485,0.12044
1013.60468,0.12065
1011.54451,0.12121
1009.48434,0.12160
1007.42417,0.12179
1005.36399,0.12191
1003.30382,0.12129
1001.24365,0.11985
999.18348,0.11832
997.12330,0.11685
995.06313,0.11511
993.00296,0.11274
990.94279,0.11020
988.88262,0.10784
986.82244,0.10561
984.76227,0.10397
982.70210,0.10275
980.64193,0.10114
978.58176,0.09914
976.52158,0.09706
974.46141,0.09485
972.40124,0.09288
970.34107,0.09157
968.28089,0.09037
966.22072,0.08833
964.16055,0.08553
962.10038,0.08294
960.04021,0.08059
957.98003,0.07806
955.91986,0.07599
953.85969,0.07477
951.79952,0.07318
949.73935,0.07108
947.67917,0.06957
945.61900,0.06806
943.55883,0.06576
941.49866,0.06279
939.43849,0.05929
937.37831,0.05546
935.31814,0.05131
933.25797,0.04692
931.19780,0.04298
929.13762,0.03973
927.07745,0.03681
925.01728,0.03417
922.95711,0.03204
920.89694,0.03049
918.83676,0.02912
916.77659,0.02732
914.71642,0.02504
912.65625,0.02309
910.59608,0.02184
908.53590,0.02079
906.47573,0.01957
904.41556,0.01808
902.35539,0.01692
900.29522,0.01689
898.23504,0.01738
896.17487,0.01734
894.11470,0.01710
892.05453,0.01716
889.99435,0.01698
887.93418,0.01633
885.87401,0.01578
883.81384,0.01494
881.75367,0.01339
879.69349,0.01224
877.63332,0.01163
875.57315,0.01065
873.51298,0.00909
871.45281,0.00760
869.39263,0.00688
867.33246,0.00662
865.27229,0.00643
863.21212,0.00591
861.15194,0.00558
859.09177,0.00654
857.03160,0.00768
854.97143,0.00761
852.91126,0.00688
850.85108,0.00649
848.79091,0.00675
846.73074,0.00699
844.67057,0.00636
842.61040,0.00515
840.55022,0.00471
838.49005,0.00514
836.42988,0.00506
834.36971,0.00430
832.30954,0.00375
830.24936,0.00383
828.18919,0.00421
826.12902,0.00433
824.06885,0.00389
822.00867,0.00300
819.94850,0.00198
817.88833,0.00169
815.82816,0.00213
813.76799,0.00193
811.70781,0.00161
809.64764,0.00238
807.58747,0.00304
805.52730,0.00268
803.46713,0.00147
801.40695,0.00000
799.34678,-0.00004
797.28661,0.00136
795.22644,0.00223
793.16627,0.00168
791.10609,0.00028
789.04592,-0.00100
786.98575,-0.00115
784.92558,-0.00043
782.86540,-0.00038
780.80523,-0.00032
778.74506,0.00094
776.68489,0.00209
774.62472,0.00164
772.56454,0.00012
770.50437,-0.00045
768.44420,0.00026
766.38403,0.00100
764.32386,0.00170
762.26368,0.00201
760.20351,0.00126
758.14334,0.00043
756.08317,0.00009
754.02299,-0.00024
751.96282,0.00000
749.90265,0.00108
747.84248,0.00230
745.78231,0.00238
743.72213,0.00193
741.66196,0.00148
739.60179,0.00005
737.54162,-0.00173
735.48145,-0.00248
733.42127,-0.00304
731.36110,-0.00313
729.30093,-0.00183
727.24076,-0.00010
725.18059,0.00112
723.12041,0.00223
721.06024,0.00272
719.00007,0.00201
716.93990,0.00120
714.87972,0.00124
712.81955,0.00183
710.75938,0.00330
708.69921,0.00617
706.63904,0.00874
704.57886,0.00894
702.51869,0.00768
700.45852,0.00810
698.39835,0.01092
696.33818,0.01246
694.27800,0.01019
692.21783,0.00688
690.15766,0.00616
688.09749,0.00668
686.03731,0.00474
683.97714,0.00157
681.91697,0.00102
679.85680,0.00296
677.79663,0.00401
675.73645,0.00246
673.67628,0.00065
671.61611,0.00153
669.55594,0.00413
667.49577,0.00388
665.43559,0.00077
663.37542,-0.00065
661.31525,-0.00060
659.25508,-0.00033
657.19491,0.00121
655.13473,0.00236
653.07456,0.00156
651.01439,0.00153
648.95422,0.00280
646.89404,0.00327
644.83387,0.00353
642.77370,0.00426
640.71353,0.00445
638.65336,0.00399
636.59318,0.00409
634.53301,0.00551
632.47284,0.00766
630.41267,0.00966
628.35250,0.00957
626.29232,0.00664
624.23215,0.00610
622.17198,0.00773
620.11181,0.00559
618.05164,0.00223
615.99146,0.00194
613.93129,0.00208
611.87112,0.00358
609.81095,0.00587
607.75077,0.00705
605.69060,0.00763
603.63043,0.00403
601.57026,-0.00076
599.51009,0.00000
