3996.73391,0.00026
3994.67373,0.00058
3992.61356,0.00051
3990.55339,0.00029
3988.49322,0.00029
3986.43305,0.00035
3984.37287,0.00014
3982.31270,0.00000
3980.25253,0.00027
3978.19236,0.00068
3976.13219,0.00079
3974.07201,0.00062
3972.01184,0.00050
3969.95167,0.00051
3967.89150,0.00054
3965.83133,0.00059
3963.77115,0.00067
3961.71098,0.00066
3959.65081,0.00082
3957.59064,0.00144
3955.53046,0.00171
3953.47029,0.00124
3951.41012,0.00084
3949.34995,0.00094
3947.28978,0.00086
3945.22960,0.00082
3943.16943,0.00120
3941.10926,0.00127
3939.04909,0.00115
3936.98892,0.00112
3934.92874,0.00137
3932.86857,0.00202
3930.80840,0.00213
3928.74823,0.00147
3926.68805,0.00109
3924.62788,0.00071
3922.56771,0.00000
3920.50754,0.00030
3918.44737,0.00139
3916.38719,0.00170
3914.32702,0.00141
3912.26685,0.00163
3910.20668,0.00175
3908.14651,0.00155
3906.08633,0.00209
3904.02616,0.00268
3901.96599,0.00209
3899.90582,0.00143
3897.84565,0.00074
3895.78547,0.00047
3893.72530,0.00169
3891.66513,0.00282
3889.60496,0.00210
3887.54478,0.00191
3885.48461,0.00227
3883.42444,0.00177
3881.36427,0.00219
3879.30410,0.00205
3877.24392,0.00142
3875.18375,0.00206
3873.12358,0.00240
3871.06341,0.00248
3869.00324,0.00173
3866.94306,0.00104
3864.88289,0.00195
3862.82272,0.00195
3860.76255,0.00084
3858.70237,0.00000
3856.64220,0.00052
3854.58203,0.00279
3852.52186,0.00346
3850.46169,0.00181
3848.40151,0.00090
3846.34134,0.00093
3844.28117,0.00107
3842.22100,0.00104
3840.16083,0.00177
3838.10065,0.00247
3836.04048,0.00179
3833.98031,0.00106
3831.92014,0.00088
3829.85997,0.00084
3827.79979,0.00120
3825.73962,0.00120
3823.67945,0.00189
3821.61928,0.00347
3819.55910,0.00270
3817.49893,0.00260
3815.43876,0.00311
3813.37859,0.00176
3811.31842,0.00086
3809.25824,0.00154
3807.19807,0.00233
3805.13790,0.00178
3803.07773,0.00253
3801.01756,0.00326
3798.95738,0.00239
3796.89721,0.00256
3794.83704,0.00243
3792.77687,0.00186
3790.71670,0.00156
3788.65652,0.00137
3786.59635,0.00158
3784.53618,0.00160
3782.47601,0.00130
3780.41583,0.00157
3778.35566,0.00139
3776.29549,0.00102
3774.23532,0.00177
3772.17515,0.00322
3770.11497,0.00408
3768.05480,0.00361
3765.99463,0.00309
3763.93446,0.00252
3761.87429,0.00255
3759.81411,0.00300
3757.75394,0.00214
3755.69377,0.00111
3753.63360,0.00206
3751.57342,0.00373
3749.51325,0.00249
3747.45308,0.00015
3745.39291,0.00031
3743.33274,0.00039
3741.27256,0.00000
3739.21239,0.00085
3737.15222,0.00221
3735.09205,0.00254
3733.03188,0.00181
3730.97170,0.00122
3728.91153,0.00124
3726.85136,0.00168
3724.79119,0.00142
3722.73102,0.00106
3720.67084,0.00098
3718.61067,0.00077
3716.55050,0.00041
3714.49033,0.00077
3712.43015,0.00163
3710.36998,0.00131
3708.30981,0.00046
3706.24964,0.00047
3704.18947,0.00157
3702.12929,0.00250
3700.06912,0.00174
3698.00895,0.00072
3695.94878,0.00039
3693.88861,0.00040
3691.82843,0.00143
3689.76826,0.00293
3687.70809,0.00255
3685.64792,0.00091
3683.58775,0.00013
3681.52757,0.00003
3679.46740,0.00000
3677.40723,0.00083
3675.34706,0.00142
3673.28688,0.00020
3671.22671,0.00137
3669.16654,0.00277
3667.10637,0.00190
3665.04620,0.00144
3662.98602,0.00159
3660.92585,0.00169
3658.86568,0.00226
3656.80551,0.00265
3654.74534,0.00119
3652.68516,0.00087
3650.62499,0.00353
3648.56482,0.00515
3646.50465,0.00379
3644.44447,0.00213
3642.38430,0.00201
3640.32413,0.00293
3638.26396,0.00416
3636.20379,0.00503
3634.14361,0.00498
3632.08344,0.00472
3630.02327,0.00584
3627.96310,0.00578
3625.90293,0.00392
3623.84275,0.00360
3621.78258,0.00501
3619.72241,0.00642
3617.66224,0.00587
3615.60207,0.00483
3613.54189,0.00499
3611.48172,0.00553
3609.42155,0.00647
3607.36138,0.00715
3605.30120,0.00702
3603.24103,0.00710
3601.18086,0.00731
3599.12069,0.00708
3597.06052,0.00724
3595.00034,0.00813
3592.94017,0.00852
3590.88000,0.00855
3588.81983,0.00933
3586.75966,0.00986
3584.69948,0.00975
3582.63931,0.01025
3580.57914,0.01094
3578.51897,0.01110
3576.45879,0.01120
3574.39862,0.01149
3572.33845,0.01163
3570.27828,0.01236
3568.21811,0.01396
3566.15793,0.01419
3564.09776,0.01308
3562.03759,0.01316
3559.97742,0.01418
3557.91725,0.01480
3555.85707,0.01521
3553.79690,0.01573
3551.73673,0.01571
3549.67656,0.01553
3547.61639,0.01639
3545.55621,0.01751
3543.49604,0.01801
3541.43587,0.01847
3539.37570,0.01911
3537.31552,0.01949
3535.25535,0.01954
3533.19518,0.01988
3531.13501,0.02072
3529.07484,0.02141
3527.01466,0.02165
3524.95449,0.02222
3522.89432,0.02321
3520.83415,0.02378
3518.77398,0.02415
3516.71380,0.02450
3514.65363,0.02469
3512.59346,0.02509
3510.53329,0.02593
3508.47312,0.02656
3506.41294,0.02688
3504.35277,0.02732
3502.29260,0.02761
3500.23243,0.02791
3498.17225,0.02844
3496.11208,0.02880
3494.05191,0.02920
3491.99174,0.02997
3489.93157,0.03063
3487.87139,0.03082
3485.81122,0.03094
3483.75105,0.03148
3481.69088,0.03200
3479.63071,0.03217
3477.57053,0.03278
3475.51036,0.03373
3473.45019,0.03419
3471.39002,0.03430
3469.32984,0.03477
3467.26967,0.03578
3465.20950,0.03689
3463.14933,0.03748
3461.08916,0.03718
3459.02898,0.03655
3456.96881,0.03664
3454.90864,0.03785
3452.84847,0.03928
3450.78830,0.03959
3448.72812,0.03928
3446.66795,0.03917
3444.60778,0.03934
3442.54761,0.03989
3440.48744,0.04041
3438.42726,0.04097
3436.36709,0.04173
3434.30692,0.04239
3432.24675,0.04304
3430.18657,0.04372
3428.12640,0.04406
3426.06623,0.04405
3424.00606,0.04407
3421.94589,0.04434
3419.88571,0.04447
3417.82554,0.04453
3415.76537,0.04490
3413.70520,0.04541
3411.64503,0.04607
3409.58485,0.04687
3407.52468,0.04732
3405.46451,0.04731
3403.40434,0.04741
3401.34416,0.04777
3399.28399,0.04820
3397.22382,0.04873
3395.16365,0.04919
3393.10348,0.04934
3391.04330,0.04920
3388.98313,0.04948
3386.92296,0.05005
3384.86279,0.05029
3382.80262,0.05045
3380.74244,0.05086
3378.68227,0.05146
3376.62210,0.05181
3374.56193,0.05177
3372.50176,0.05179
3370.44158,0.05198
3368.38141,0.05221
3366.32124,0.05251
3364.26107,0.05261
3362.20089,0.05278
3360.14072,0.05331
3358.08055,0.05374
3356.02038,0.05396
3353.96021,0.05437
3351.90003,0.05481
3349.83986,0.05488
3347.77969,0.05488
3345.71952,0.05506
3343.65935,0.05506
3341.59917,0.05494
3339.53900,0.05514
3337.47883,0.05557
3335.41866,0.05575
3333.35849,0.05566
3331.29831,0.05548
3329.23814,0.05542
3327.17797,0.05553
3325.11780,0.05568
3323.05762,0.05574
3320.99745,0.05577
3318.93728,0.05592
3316.87711,0.05597
3314.81694,0.05580
3312.75676,0.05573
3310.69659,0.05588
3308.63642,0.05594
3306.57625,0.05593
3304.51608,0.05616
3302.45590,0.05654
3300.39573,0.05671
3298.33556,0.05645
3296.27539,0.05625
3294.21521,0.05646
3292.15504,0.05669
3290.09487,0.05677
3288.03470,0.05682
3285.97453,0.05657
3283.91435,0.05626
3281.85418,0.05653
3279.79401,0.05699
3277.73384,0.05723
3275.67367,0.05726
3273.61349,0.05691
3271.55332,0.05663
3269.49315,0.05665
3267.43298,0.05642
3265.37281,0.05596
3263.31263,0.05563
3261.25246,0.05544
3259.19229,0.05541
3257.13212,0.05562
3255.07194,0.05586
3253.01177,0.05581
3250.95160,0.05581
3248.89143,0.05616
3246.83126,0.05640
3244.77108,0.05602
3242.71091,0.05538
3240.65074,0.05519
3238.59057,0.05537
3236.53040,0.05530
3234.47022,0.05486
3232.41005,0.05453
3230.34988,0.05427
3228.28971,0.05387
3226.22954,0.05351
3224.16936,0.05332
3222.10919,0.05343
3220.04902,0.05365
3217.98885,0.05338
3215.92867,0.05287
3213.86850,0.05268
3211.80833,0.05278
3209.74816,0.05281
3207.68799,0.05237
3205.62781,0.05174
3203.56764,0.05146
3201.50747,0.05147
3199.44730,0.05134
3197.38713,0.05093
3195.32695,0.05044
3193.26678,0.05030
3191.20661,0.05052
3189.14644,0.05050
3187.08626,0.04990
3185.02609,0.04926
3182.96592,0.04895
3180.90575,0.04878
3178.84558,0.04880
3176.78540,0.04873
3174.72523,0.04833
3172.66506,0.04812
3170.60489,0.04820
3168.54472,0.04799
3166.48454,0.04748
3164.42437,0.04712
3162.36420,0.04683
3160.30403,0.04639
3158.24386,0.04598
3156.18368,0.04568
3154.12351,0.04549
3152.06334,0.04548
3150.00317,0.04536
3147.94299,0.04477
3145.88282,0.04398
3143.82265,0.04340
3141.76248,0.04313
3139.70231,0.04303
3137.64213,0.04296
3135.58196,0.04283
3133.52179,0.04261
3131.46162,0.04217
3129.40145,0.04160
3127.34127,0.04109
3125.28110,0.04068
3123.22093,0.04028
3121.16076,0.04007
3119.10058,0.04016
3117.04041,0.04017
3114.98024,0.03986
3112.92007,0.03945
3110.85990,0.03909
3108.79972,0.03860
3106.73955,0.03801
3104.67938,0.03781
3102.61921,0.03796
3100.55904,0.03782
3098.49886,0.03726
3096.43869,0.03689
3094.37852,0.03672
3092.31835,0.03639
3090.25818,0.03595
3088.19800,0.03572
3086.13783,0.03575
3084.07766,0.03556
3082.01749,0.03495
3079.95731,0.03436
3077.89714,0.03416
3075.83697,0.03412
3073.77680,0.03387
3071.71663,0.03342
3069.65645,0.03296
3067.59628,0.03264
3065.53611,0.03260
3063.47594,0.03267
3061.41577,0.03243
3059.35559,0.03180
3057.29542,0.03123
3055.23525,0.03093
3053.17508,0.03081
3051.11491,0.03073
3049.05473,0.03057
3046.99456,0.03049
3044.93439,0.03059
3042.87422,0.03046
3040.81404,0.02992
3038.75387,0.02947
3036.69370,0.02928
3034.63353,0.02899
3032.57336,0.02841
3030.51318,0.02784
3028.45301,0.02771
3026.39284,0.02786
3024.33267,0.02798
3022.27250,0.02801
3020.21232,0.02785
3018.15215,0.02753
3016.09198,0.02728
3014.03181,0.02696
3011.97163,0.02660
3009.91146,0.02645
3007.85129,0.02648
3005.79112,0.02642
3003.73095,0.02606
3001.67077,0.02561
2999.61060,0.02532
2997.55043,0.02523
2995.49026,0.02535
2993.43009,0.02541
2991.36991,0.02526
2989.30974,0.02511
2987.24957,0.02512
2985.18940,0.02528
2983.12923,0.02551
2981.06905,0.02567
2979.00888,0.02605
2976.94871,0.02667
2974.88854,0.02716
2972.82836,0.02768
2970.76819,0.02852
2968.70802,0.02950
2966.64785,0.03064
2964.58768,0.03222
2962.52750,0.03399
2960.46733,0.03555
2958.40716,0.03720
2956.34699,0.03928
2954.28682,0.04141
2952.22664,0.04329
2950.16647,0.04505
2948.10630,0.04696
2946.04613,0.04920
2943.98596,0.05167
2941.92578,0.05415
2939.86561,0.05666
2937.80544,0.05925
2935.74527,0.06174
2933.68509,0.06424
2931.62492,0.06693
2929.56475,0.06967
2927.50458,0.07193
2925.44441,0.07332
2923.38423,0.07431
2921.32406,0.07527
2919.26389,0.07555
2917.20372,0.07468
2915.14355,0.07285
2913.08337,0.07033
2911.02320,0.06734
2908.96303,0.06450
2906.90286,0.06232
2904.84268,0.06047
2902.78251,0.05868
2900.72234,0.05695
2898.66217,0.05526
2896.60200,0.05366
2894.54182,0.05187
2892.48165,0.05003
2890.42148,0.04874
2888.36131,0.04782
2886.30114,0.04684
2884.24096,0.04608
2882.18079,0.04562
2880.12062,0.04529
2878.06045,0.04511
2876.00028,0.04524
2873.94010,0.04562
2871.87993,0.04578
2869.81976,0.04591
2867.75959,0.04659
2865.69941,0.04777
2863.63924,0.04941
2861.57907,0.05137
2859.51890,0.05332
2857.45873,0.05521
2855.39855,0.05701
2853.33838,0.05847
2851.27821,0.05920
2849.21804,0.05862
2847.15787,0.05613
2845.09769,0.05207
2843.03752,0.04796
2840.97735,0.04481
2838.91718,0.04244
2836.85700,0.04052
2834.79683,0.03887
2832.73666,0.03738
2830.67649,0.03601
2828.61632,0.03472
2826.55614,0.03368
2824.49597,0.03301
2822.43580,0.03230
2820.37563,0.03162
2818.31546,0.03137
2816.25528,0.03130
2814.19511,0.03091
2812.13494,0.03018
2810.07477,0.02959
2808.01460,0.02927
2805.95442,0.02903
2803.89425,0.02874
2801.83408,0.02838
2799.77391,0.02811
2797.71373,0.02787
2795.65356,0.02753
2793.59339,0.02707
2791.53322,0.02660
2789.47305,0.02639
2787.41287,0.02638
2785.35270,0.02625
2783.29253,0.02600
2781.23236,0.02588
2779.17219,0.02558
2777.11201,0.02516
2775.05184,0.02513
2772.99167,0.02513
2770.93150,0.02477
2768.87133,0.02429
2766.81115,0.02400
2764.75098,0.02406
2762.69081,0.02420
2760.63064,0.02419
2758.57046,0.02418
2756.51029,0.02422
2754.45012,0.02397
2752.38995,0.02350
2750.32978,0.02339
2748.26960,0.02344
2746.20943,0.02326
2744.14926,0.02310
2742.08909,0.02309
2740.02892,0.02303
2737.96874,0.02296
2735.90857,0.02302
2733.84840,0.02302
2731.78823,0.02305
2729.72805,0.02322
2727.66788,0.02321
2725.60771,0.02300
2723.54754,0.02288
2721.48737,0.02287
2719.42719,0.02279
2717.36702,0.02259
2715.30685,0.02238
2713.24668,0.02223
2711.18651,0.02200
2709.12633,0.02176
2707.06616,0.02174
2705.00599,0.02184
2702.94582,0.02194
2700.88565,0.02207
2698.82547,0.02198
2696.76530,0.02160
2694.70513,0.02132
2692.64496,0.02144
2690.58478,0.02180
2688.52461,0.02203
2686.46444,0.02200
2684.40427,0.02176
2682.34410,0.02144
2680.28392,0.02133
2678.22375,0.02151
2676.16358,0.02173
2674.10341,0.02176
2672.04324,0.02148
2669.98306,0.02111
2667.92289,0.02089
2665.86272,0.02082
2663.80255,0.02080
2661.74238,0.02062
2659.68220,0.02031
2657.62203,0.02031
2655.56186,0.02048
2653.50169,0.02028
2651.44151,0.01992
2649.38134,0.01960
2647.32117,0.01945
2645.26100,0.01972
2643.20083,0.01991
2641.14065,0.01959
2639.08048,0.01921
2637.02031,0.01927
2634.96014,0.01953
2632.89997,0.01947
2630.83979,0.01901
2628.77962,0.01870
2626.71945,0.01881
2624.65928,0.01889
2622.59910,0.01854
2620.53893,0.01819
2618.47876,0.01814
2616.41859,0.01813
2614.35842,0.01820
2612.29824,0.01847
2610.23807,0.01857
2608.17790,0.01828
2606.11773,0.01770
2604.05756,0.01738
2601.99738,0.01760
2599.93721,0.01778
2597.87704,0.01755
2595.81687,0.01720
2593.75670,0.01699
2591.69652,0.01697
2589.63635,0.01709
2587.57618,0.01721
2585.51601,0.01725
2583.45583,0.01717
2581.39566,0.01666
2579.33549,0.01605
2577.27532,0.01590
2575.21515,0.01599
2573.15497,0.01603
2571.09480,0.01603
2569.03463,0.01609
2566.97446,0.01593
2564.91429,0.01547
2562.85411,0.01531
2560.79394,0.01552
2558.73377,0.01552
2556.67360,0.01512
2554.61342,0.01478
2552.55325,0.01504
2550.49308,0.01544
2548.43291,0.01532
2546.37274,0.01504
2544.31256,0.01497
2542.25239,0.01494
2540.19222,0.01489
2538.13205,0.01478
2536.07188,0.01454
2534.01170,0.01433
2531.95153,0.01418
2529.89136,0.01413
2527.83119,0.01426
2525.77102,0.01434
2523.71084,0.01425
2521.65067,0.01415
2519.59050,0.01421
2517.53033,0.01457
2515.47015,0.01490
2513.40998,0.01491
2511.34981,0.01464
2509.28964,0.01437
2507.22947,0.01438
2505.16929,0.01425
2503.10912,0.01358
2501.04895,0.01315
2498.98878,0.01334
2496.92861,0.01353
2494.86843,0.01360
2492.80826,0.01374
2490.74809,0.01377
2488.68792,0.01361
2486.62775,0.01347
2484.56757,0.01374
2482.50740,0.01411
2480.44723,0.01394
2478.38706,0.01350
2476.32688,0.01299
2474.26671,0.01266
2472.20654,0.01274
2470.14637,0.01267
2468.08620,0.01240
2466.02602,0.01234
2463.96585,0.01246
2461.90568,0.01243
2459.84551,0.01220
2457.78534,0.01206
2455.72516,0.01217
2453.66499,0.01235
2451.60482,0.01248
2449.54465,0.01265
2447.48447,0.01269
2445.42430,0.01247
2443.36413,0.01211
2441.30396,0.01191
2439.24379,0.01196
2437.18361,0.01179
2435.12344,0.01148
2433.06327,0.01141
2431.00310,0.01156
2428.94293,0.01180
2426.88275,0.01189
2424.82258,0.01167
2422.76241,0.01149
2420.70224,0.01178
2418.64207,0.01232
2416.58189,0.01249
2414.52172,0.01222
2412.46155,0.01179
2410.40138,0.01147
2408.34120,0.01148
2406.28103,0.01169
2404.22086,0.01184
2402.16069,0.01146
2400.10052,0.01067
2398.04034,0.01051
2395.98017,0.01090
2393.92000,0.01100
2391.85983,0.01071
2389.79966,0.01065
2387.73948,0.01100
2385.67931,0.01129
2383.61914,0.01123
2381.55897,0.01099
2379.49880,0.01085
2377.43862,0.01102
2375.37845,0.01174
2373.31828,0.01299
2371.25811,0.01376
2369.19793,0.01317
2367.13776,0.01167
2365.07759,0.00995
2363.01742,0.00866
2360.95725,0.00865
2358.89707,0.00947
2356.83690,0.00992
2354.77673,0.01033
2352.71656,0.01069
2350.65639,0.01089
2348.59621,0.01162
2346.53604,0.01271
2344.47587,0.01301
2342.41570,0.01236
2340.35552,0.01117
2338.29535,0.00923
2336.23518,0.00783
2334.17501,0.00835
2332.11484,0.00939
2330.05466,0.00918
2327.99449,0.00852
2325.93432,0.00873
2323.87415,0.00944
2321.81398,0.01010
2319.75380,0.01072
2317.69363,0.01109
2315.63346,0.01080
2313.57329,0.00992
2311.51312,0.00907
2309.45294,0.00859
2307.39277,0.00843
2305.33260,0.00875
2303.27243,0.00942
2301.21225,0.00990
2299.15208,0.01011
2297.09191,0.01020
2295.03174,0.01001
2292.97157,0.00964
2290.91139,0.00961
2288.85122,0.01006
2286.79105,0.01041
2284.73088,0.01009
2282.67071,0.00968
2280.61053,0.00983
2278.55036,0.01003
2276.49019,0.01003
2274.43002,0.01004
2272.36984,0.00988
2270.30967,0.00932
2268.24950,0.00862
2266.18933,0.00832
2264.12916,0.00845
2262.06898,0.00857
2260.00881,0.00876
2257.94864,0.00898
2255.88847,0.00880
2253.82830,0.00868
2251.76812,0.00899
2249.70795,0.00885
2247.64778,0.00807
2245.58761,0.00790
2243.52744,0.00838
2241.46726,0.00856
2239.40709,0.00833
2237.34692,0.00827
2235.28675,0.00841
2233.22657,0.00809
2231.16640,0.00727
2229.10623,0.00676
2227.04606,0.00772
2224.98589,0.00961
2222.92571,0.01007
2220.86554,0.00919
2218.80537,0.00812
2216.74520,0.00631
2214.68503,0.00487
2212.62485,0.00555
2210.56468,0.00686
2208.50451,0.00772
2206.44434,0.00827
2204.38417,0.00751
2202.32399,0.00583
2200.26382,0.00457
2198.20365,0.00421
2196.14348,0.00456
2194.08330,0.00468
2192.02313,0.00430
2189.96296,0.00461
2187.90279,0.00556
2185.84262,0.00629
2183.78244,0.00692
2181.72227,0.00744
2179.66210,0.00784
2177.60193,0.00758
2175.54176,0.00650
2173.48158,0.00641
2171.42141,0.00767
2169.36124,0.00769
2167.30107,0.00629
2165.24089,0.00588
2163.18072,0.00668
2161.12055,0.00711
2159.06038,0.00604
2157.00021,0.00433
2154.94003,0.00359
2152.87986,0.00339
2150.81969,0.00270
2148.75952,0.00197
2146.69935,0.00108
2144.63917,0.00061
2142.57900,0.00197
2140.51883,0.00431
2138.45866,0.00586
2136.39849,0.00556
2134.33831,0.00405
2132.27814,0.00346
2130.21797,0.00454
2128.15780,0.00548
2126.09762,0.00566
2124.03745,0.00598
2121.97728,0.00610
2119.91711,0.00578
2117.85694,0.00566
2115.79676,0.00618
2113.73659,0.00688
2111.67642,0.00696
2109.61625,0.00657
2107.55608,0.00600
2105.49590,0.00584
2103.43573,0.00659
2101.37556,0.00689
2099.31539,0.00639
2097.25521,0.00577
2095.19504,0.00537
2093.13487,0.00606
2091.07470,0.00741
2089.01453,0.00785
2086.95435,0.00697
2084.89418,0.00595
2082.83401,0.00581
2080.77384,0.00587
2078.71367,0.00594
2076.65349,0.00685
2074.59332,0.00781
2072.53315,0.00763
2070.47298,0.00651
2068.41281,0.00538
2066.35263,0.00533
2064.29246,0.00619
2062.23229,0.00674
2060.17212,0.00680
2058.11194,0.00709
2056.05177,0.00749
2053.99160,0.00658
2051.93143,0.00451
2049.87126,0.00322
2047.81108,0.00340
2045.75091,0.00418
2043.69074,0.00523
2041.63057,0.00687
2039.57040,0.00809
2037.51022,0.00699
2035.45005,0.00439
2033.38988,0.00301
2031.32971,0.00352
2029.26954,0.00420
2027.20936,0.00378
2025.14919,0.00335
2023.08902,0.00363
2021.02885,0.00352
2018.96867,0.00258
2016.90850,0.00179
2014.84833,0.00166
2012.78816,0.00111
2010.72799,0.00000
2008.66781,0.00000
2006.60764,0.00090
2004.54747,0.00138
2002.48730,0.00216
2000.42713,0.00355
1998.36695,0.00470
1996.30678,0.00544
1994.24661,0.00606
1992.18644,0.00612
1990.12626,0.00519
1988.06609,0.00350
1986.00592,0.00186
1983.94575,0.00246
1981.88558,0.00439
1979.82540,0.00509
1977.76523,0.00556
1975.70506,0.00578
1973.64489,0.00399
1971.58472,0.00147
1969.52454,0.00032
1967.46437,0.00051
1965.40420,0.00134
1963.34403,0.00293
1961.28386,0.00396
1959.22368,0.00298
1957.16351,0.00131
1955.10334,0.00080
1953.04317,0.00133
1950.98299,0.00190
1948.92282,0.00228
1946.86265,0.00265
1944.80248,0.00289
1942.74231,0.00301
1940.68213,0.00296
1938.62196,0.00289
1936.56179,0.00292
1934.50162,0.00337
1932.44145,0.00380
1930.38127,0.00357
1928.32110,0.00324
1926.26093,0.00309
1924.20076,0.00305
1922.14059,0.00280
1920.08041,0.00266
1918.02024,0.00323
1915.96007,0.00356
1913.89990,0.00362
1911.83972,0.00376
1909.77955,0.00379
1907.71938,0.00327
1905.65921,0.00276
1903.59904,0.00295
1901.53886,0.00354
1899.47869,0.00385
1897.41852,0.00346
1895.35835,0.00268
1893.29818,0.00207
1891.23800,0.00205
1889.17783,0.00210
1887.11766,0.00212
1885.05749,0.00276
1882.99731,0.00347
1880.93714,0.00368
1878.87697,0.00359
1876.81680,0.00347
1874.75663,0.00307
1872.69645,0.00247
1870.63628,0.00279
1868.57611,0.00350
1866.51594,0.00305
1864.45577,0.00243
1862.39559,0.00246
1860.33542,0.00253
1858.27525,0.00230
1856.21508,0.00206
1854.15491,0.00221
1852.09473,0.00236
1850.03456,0.00222
1847.97439,0.00228
1845.91422,0.00302
1843.85404,0.00318
1841.79387,0.00183
1839.73370,0.00148
1837.67353,0.00246
1835.61336,0.00293
1833.55318,0.00280
1831.49301,0.00332
1829.43284,0.00356
1827.37267,0.00286
1825.31250,0.00271
1823.25232,0.00249
1821.19215,0.00209
1819.13198,0.00197
1817.07181,0.00179
1815.01163,0.00159
1812.95146,0.00186
1810.89129,0.00206
1808.83112,0.00156
1806.77095,0.00109
1804.71077,0.00112
1802.65060,0.00168
1800.59043,0.00220
1798.53026,0.00181
1796.47009,0.00124
1794.40991,0.00160
1792.34974,0.00198
1790.28957,0.00086
1788.22940,0.00000
1786.16923,0.00027
1784.10905,0.00068
1782.04888,0.00121
1779.98871,0.00154
1777.92854,0.00098
1775.86836,0.00059
1773.80819,0.00118
1771.74802,0.00145
1769.68785,0.00092
1767.62768,0.00102
1765.56750,0.00136
1763.50733,0.00250
1761.44716,0.00383
1759.38699,0.00466
1757.32682,0.00600
1755.26664,0.00696
1753.20647,0.00839
1751.14630,0.01111
1749.08613,0.01322
1747.02596,0.01423
1744.96578,0.01530
1742.90561,0.01673
1740.84544,0.01785
1738.78527,0.01755
1736.72509,0.01765
1734.66492,0.01978
1732.60475,0.01990
1730.54458,0.01881
1728.48441,0.01858
1726.42423,0.01859
1724.36406,0.01872
1722.30389,0.01848
1720.24372,0.01900
1718.18355,0.02043
1716.12337,0.02005
1714.06320,0.01863
1712.00303,0.01787
1709.94286,0.01797
1707.88268,0.01871
1705.82251,0.01915
1703.76234,0.01869
1701.70217,0.01968
1699.64200,0.02031
1697.58182,0.01957
1695.52165,0.01988
1693.46148,0.01963
1691.40131,0.02044
1689.34114,0.02179
1687.28096,0.02327
1685.22079,0.02717
1683.16062,0.03023
1681.10045,0.03075
1679.04028,0.03188
1676.98010,0.03424
1674.91993,0.03609
1672.85976,0.03645
1670.79959,0.03763
1668.73941,0.03758
1666.67924,0.03544
1664.61907,0.03477
1662.55890,0.03491
1660.49873,0.03341
1658.43855,0.03162
1656.37838,0.03154
1654.31821,0.03343
1652.25804,0.03218
1650.19787,0.02936
1648.13769,0.03099
1646.07752,0.03265
1644.01735,0.03148
1641.95718,0.03097
1639.89701,0.03169
1637.83683,0.03371
1635.77666,0.03591
1633.71649,0.03535
1631.65632,0.03499
1629.59614,0.03641
1627.53597,0.03734
1625.47580,0.03772
1623.41563,0.03844
1621.35546,0.03793
1619.29528,0.03818
1617.23511,0.03988
1615.17494,0.03969
1613.11477,0.03952
1611.05460,0.04163
1608.99442,0.04418
1606.93425,0.04561
1604.87408,0.04606
1602.81391,0.04564
1600.75373,0.04400
1598.69356,0.04178
1596.63339,0.03989
1594.57322,0.03833
1592.51305,0.03703
1590.45287,0.03614
1588.39270,0.03525
1586.33253,0.03402
1584.27236,0.03266
1582.21219,0.03127
1580.15201,0.03024
1578.09184,0.03073
1576.03167,0.03066
1573.97150,0.02775
1571.91133,0.02646
1569.85115,0.02696
1567.79098,0.02541
1565.73081,0.02329
1563.67064,0.02161
1561.61046,0.02211
1559.55029,0.02447
1557.49012,0.02135
1555.42995,0.01770
1553.36978,0.01685
1551.30960,0.01674
1549.24943,0.01586
1547.18926,0.01407
1545.12909,0.01283
1543.06892,0.01230
1541.00874,0.01264
1538.94857,0.01076
1536.88840,0.00787
1534.82823,0.00862
1532.76805,0.00963
1530.70788,0.00834
1528.64771,0.00789
1526.58754,0.00788
1524.52737,0.00757
1522.46719,0.00874
1520.40702,0.00986
1518.34685,0.01120
1516.28668,0.01336
1514.22651,0.01350
1512.16633,0.01210
1510.10616,0.01124
1508.04599,0.01206
1505.98582,0.01038
1503.92565,0.00620
1501.86547,0.00454
1499.80530,0.00483
1497.74513,0.00476
1495.68496,0.00297
1493.62478,0.00099
1491.56461,0.00120
1489.50444,0.00183
1487.44427,0.00101
1485.38410,0.00028
1483.32392,0.00059
1481.26375,0.00121
1479.20358,0.00144
1477.14341,0.00228
1475.08324,0.00464
1473.02306,0.00820
1470.96289,0.01021
1468.90272,0.01142
1466.84255,0.01440
1464.78238,0.01729
1462.72220,0.01762
1460.66203,0.01807
1458.60186,0.02095
1456.54169,0.02315
1454.48151,0.02250
1452.42134,0.02242
1450.36117,0.02375
1448.30100,0.02561
1446.24083,0.02679
1444.18065,0.02746
1442.12048,0.02817
1440.06031,0.02903
1438.00014,0.03077
1435.93997,0.03172
1433.87979,0.03105
1431.81962,0.03119
1429.75945,0.03156
1427.69928,0.03124
1425.63910,0.03144
1423.57893,0.03169
1421.51876,0.03203
1419.45859,0.03335
1417.39842,0.03341
1415.33824,0.03243
1413.27807,0.03189
1411.21790,0.03143
1409.15773,0.03062
1407.09756,0.03001
1405.03738,0.02927
1402.97721,0.02766
1400.91704,0.02666
1398.85687,0.02626
1396.79670,0.02546
1394.73652,0.02477
1392.67635,0.02384
1390.61618,0.02352
1388.55601,0.02441
1386.49583,0.02516
1384.43566,0.02542
1382.37549,0.02611
1380.31532,0.02705
1378.25515,0.02791
1376.19497,0.02890
1374.13480,0.02965
1372.07463,0.02946
1370.01446,0.02935
1367.95429,0.02928
1365.89411,0.02887
1363.83394,0.02878
1361.77377,0.02823
1359.71360,0.02711
1357.65343,0.02657
1355.59325,0.02660
1353.53308,0.02668
1351.47291,0.02679
1349.41274,0.02689
1347.35256,0.02671
1345.29239,0.02625
1343.23222,0.02581
1341.17205,0.02581
1339.11188,0.02579
1337.05170,0.02541
1334.99153,0.02533
1332.93136,0.02558
1330.87119,0.02585
1328.81102,0.02601
1326.75084,0.02609
1324.69067,0.02617
1322.63050,0.02634
1320.57033,0.02666
1318.51015,0.02670
1316.44998,0.02618
1314.38981,0.02566
1312.32964,0.02531
1310.26947,0.02497
1308.20929,0.02457
1306.14912,0.02386
1304.08895,0.02290
1302.02878,0.02197
1299.96861,0.02127
1297.90843,0.02081
1295.84826,0.02051
1293.78809,0.02054
1291.72792,0.02083
1289.66775,0.02109
1287.60757,0.02132
1285.54740,0.02158
1283.48723,0.02183
1281.42706,0.02211
1279.36688,0.02237
1277.30671,0.02245
1275.24654,0.02243
1273.18637,0.02264
1271.12620,0.02307
1269.06602,0.02373
1267.00585,0.02477
1264.94568,0.02596
1262.88551,0.02704
1260.82534,0.02794
1258.76516,0.02861
1256.70499,0.02920
1254.64482,0.02979
1252.58465,0.03036
1250.52447,0.03101
1248.46430,0.03167
1246.40413,0.03210
1244.34396,0.03240
1242.28379,0.03275
1240.22361,0.03287
1238.16344,0.03262
1236.10327,0.03206
1234.04310,0.03127
1231.98293,0.03036
1229.92275,0.02934
1227.86258,0.02818
1225.80241,0.02695
1223.74224,0.02561
1221.68207,0.02405
1219.62189,0.02243
1217.56172,0.02091
1215.50155,0.01928
1213.44138,0.01761
1211.38120,0.01612
1209.32103,0.01486
1207.26086,0.01364
1205.20069,0.01223
1203.14052,0.01060
1201.08034,0.00896
1199.02017,0.00732
1196.96000,0.00555
1194.89983,0.00391
1192.83966,0.00252
1190.77948,0.00125
1188.71931,0.00031
1186.65914,0.00000
1184.59897,0.00003
1182.53880,0.00023
1180.47862,0.00088
1178.41845,0.00207
1176.35828,0.00372
1174.29811,0.00590
1172.23793,0.00852
1170.17776,0.01126
1168.11759,0.01345
1166.05742,0.01479
1163.99725,0.01569
1161.93707,0.01646
1159.87690,0.01708
1157.81673,0.01767
1155.75656,0.01844
1153.69639,0.01945
1151.63621,0.02061
1149.57604,0.02179
1147.51587,0.02317
1145.45570,0.02464
1143.39552,0.02574
1141.33535,0.02636
1139.27518,0.02685
1137.21501,0.02753
1135.15484,0.02852
1133.09466,0.02985
1131.03449,0.03132
1128.97432,0.03254
1126.91415,0.03368
1124.85398,0.03522
1122.79380,0.03683
1120.73363,0.03817
1118.67346,0.03932
1116.61329,0.04063
1114.55312,0.04209
1112.49294,0.04347
1110.43277,0.04504
1108.37260,0.04660
1106.31243,0.04788
1104.25225,0.04920
1102.19208,0.05074
1100.13191,0.05267
1098.07174,0.05509
1096.01157,0.05765
1093.95139,0.06015
1091.89122,0.06247
1089.83105,0.06452
1087.77088,0.06650
1085.71071,0.06872
1083.65053,0.07114
1081.59036,0.07358
1079.53019,0.07631
1077.47002,0.07914
1075.40985,0.08176
1073.34967,0.08448
1071.28950,0.08714
1069.22933,0.08944
1067.16916,0.09155
1065.10898,0.09346
1063.04881,0.09504
1060.98864,0.09632
1058.92847,0.09760
1056.86830,0.09934
1054.80812,0.10175
1052.74795,0.10454
1050.68778,0.10750
1048.62761,0.11071
1046.56744,0.11378
1044.50726,0.11649
1042.44709,0.11943
1040.38692,0.12282
1038.32675,0.12594
1036.26657,0.12801
1034.20640,0.12907
1032.14623,0.12955
1030.08606,0.12942
1028.02589,0.12902
1025.96571,0.12882
1023.90554,0.12839
1021.84537,0.12741
1019.78520,0.12648
1017.72503,0.12601
1015.66485,0.12589
1013.60468,0.12613
1011.54451,0.12654
1009.48434,0.12674
1007.42417,0.12701
1005.36399,0.12700
1003.30382,0.12593
1001.24365,0.12433
999.18348,0.12280
997.12330,0.12106
995.06313,0.11904
993.00296,0.11711
990.94279,0.11526
988.88262,0.11307
986.82244,0.11075
984.76227,0.10910
982.70210,0.10796
980.64193,0.10630
978.58176,0.10408
976.52158,0.10192
974.46141,0.09984
972.40124,0.09777
970.34107,0.09587
968.28089,0.09422
966.22072,0.09249
964.16055,0.09038
962.10038,0.08822
960.04021,0.08602
957.98003,0.08326
955.91986,0.08068
953.85969,0.07913
951.79952,0.07748
949.73935,0.07538
947.67917,0.07386
945.61900,0.07225
943.55883,0.06968
941.49866,0.06660
939.43849,0.06307
937.37831,0.05906
935.31814,0.05481
933.25797,0.05029
931.19780,0.04598
929.13762,0.04241
927.07745,0.03947
925.01728,0.03695
922.95711,0.03484
920.89694,0.03316
918.83676,0.03151
916.77659,0.02945
914.71642,0.02722
912.65625,0.02524
910.59608,0.02360
908.53590,0.02221
906.47573,0.02099
904.41556,0.01979
902.35539,0.01903
900.29522,0.01923
898.23504,0.01977
896.17487,0.01995
894.11470,0.01988
892.05453,0.01957
889.99435,0.01904
887.93418,0.01858
885.87401,0.01824
883.81384,0.01728
881.75367,0.01562
879.69349,0.01433
877.63332,0.01322
875.57315,0.01204
873.51298,0.01093
871.45281,0.00958
869.39263,0.00851
867.33246,0.00817
865.27229,0.00804
863.21212,0.00754
861.15194,0.00717
859.09177,0.00762
857.03160,0.00817
854.97143,0.00802
852.91126,0.00742
850.85108,0.00708
848.79091,0.00731
846.73074,0.00762
844.67057,0.00727
842.61040,0.00638
840.55022,0.00591
838.49005,0.00617
836.42988,0.00641
834.36971,0.00622
832.30954,0.00578
830.24936,0.00519
828.18919,0.00456
826.12902,0.00394
824.06885,0.00357
822.00867,0.00412
819.94850,0.00464
817.88833,0.00416
815.82816,0.00373
813.76799,0.00354
811.70781,0.00309
809.64764,0.00282
807.58747,0.00273
805.52730,0.00249
803.46713,0.00218
801.40695,0.00202
799.34678,0.00236
797.28661,0.00276
795.22644,0.00242
793.16627,0.00177
791.10609,0.00144
789.04592,0.00078
786.98575,0.00000
784.92558,0.00007
782.86540,0.00074
780.80523,0.00166
778.74506,0.00258
776.68489,0.00299
774.62472,0.00255
772.56454,0.00133
770.50437,0.00072
768.44420,0.00127
766.38403,0.00186
764.32386,0.00220
762.26368,0.00195
760.20351,0.00069
758.14334,-0.00029
756.08317,-0.00042
754.02299,-0.00042
751.96282,0.00000
749.90265,0.00074
747.84248,0.00112
745.78231,0.00032
743.72213,-0.00027
741.66196,0.00004
739.60179,-0.00082
737.54162,-0.00245
735.48145,-0.00279
733.42127,-0.00255
731.36110,-0.00214
729.30093,-0.00081
727.24076,0.00121
725.18059,0.00290
723.12041,0.00355
721.06024,0.00308
719.00007,0.00224
716.93990,0.00211
714.87972,0.00221
712.81955,0.00173
710.75938,0.00180
708.69921,0.00359
706.63904,0.00603
704.57886,0.00737
702.51869,0.00728
700.45852,0.00702
698.39835,0.00757
696.33818,0.00792
694.27800,0.00700
692.21783,0.00556
690.15766,0.00420
688.09749,0.00230
686.03731,0.00031
683.97714,-0.00032
681.91697,0.00035
679.85680,0.00142
677.79663,0.00221
675.73645,0.00236
673.67628,0.00231
671.61611,0.00244
669.55594,0.00328
667.49577,0.00461
665.43559,0.00474
663.37542,0.00458
661.31525,0.00490
659.25508,0.00539
657.19491,0.00592
655.13473,0.00508
653.07456,0.00236
651.01439,0.00021
648.95422,0.00000
646.89404,0.00117
644.83387,0.00371
642.77370,0.00629
640.71353,0.00748
638.65336,0.00682
636.59318,0.00493
634.53301,0.00306
632.47284,0.00214
630.41267,0.00271
628.35250,0.00357
626.29232,0.00328
624.23215,0.00462
622.17198,0.00609
620.11181,0.00316
618.05164,0.00151
615.99146,0.00311
613.93129,0.00240
611.87112,0.00346
609.81095,0.00621
607.75077,0.00597
605.69060,0.00432
603.63043,0.00032
601.57026,-0.00337
599.51009,0.00000
