3996.73391,0.00124
3994.67373,0.00100
3992.61356,0.00071
3990.55339,0.00041
3988.49322,0.00015
3986.43305,0.00000
3984.37287,0.00002
3982.31270,0.00019
3980.25253,0.00036
3978.19236,0.00040
3976.13219,0.00039
3974.07201,0.00045
3972.01184,0.00056
3969.95167,0.00059
3967.89150,0.00056
3965.83133,0.00056
3963.77115,0.00059
3961.71098,0.00066
3959.65081,0.00075
3957.59064,0.00087
3955.53046,0.00100
3953.47029,0.00112
3951.41012,0.00121
3949.34995,0.00131
3947.28978,0.00145
3945.22960,0.00152
3943.16943,0.00142
3941.10926,0.00120
3939.04909,0.00104
3936.98892,0.00103
3934.92874,0.00109
3932.86857,0.00109
3930.80840,0.00101
3928.74823,0.00096
3926.68805,0.00098
3924.62788,0.00100
3922.56771,0.00097
3920.50754,0.00092
3918.44737,0.00092
3916.38719,0.00096
3914.32702,0.00106
3912.26685,0.00118
3910.20668,0.00129
3908.14651,0.00135
3906.08633,0.00142
3904.02616,0.00159
3901.96599,0.00174
3899.90582,0.00167
3897.84565,0.00142
3895.78547,0.00120
3893.72530,0.00110
3891.66513,0.00105
3889.60496,0.00097
3887.54478,0.00084
3885.48461,0.00072
3883.42444,0.00070
3881.36427,0.00086
3879.30410,0.00116
3877.24392,0.00147
3875.18375,0.00172
3873.12358,0.00183
3871.06341,0.00180
3869.00324,0.00164
3866.94306,0.00135
3864.88289,0.00108
3862.82272,0.00096
3860.76255,0.00101
3858.70237,0.00108
3856.64220,0.00109
3854.58203,0.00105
3852.52186,0.00105
3850.46169,0.00108
3848.40151,0.00113
3846.34134,0.00118
3844.28117,0.00122
3842.22100,0.00119
3840.16083,0.00104
3838.10065,0.00084
3836.04048,0.00081
3833.98031,0.00100
3831.92014,0.00126
3829.85997,0.00148
3827.79979,0.00164
3825.73962,0.00166
3823.67945,0.00143
3821.61928,0.00092
3819.55910,0.00034
3817.49893,-0.00001
3815.43876,0.00000
3813.37859,0.00028
3811.31842,0.00065
3809.25824,0.00097
3807.19807,0.00123
3805.13790,0.00154
3803.07773,0.00193
3801.01756,0.00234
3798.95738,0.00260
3796.89721,0.00255
3794.83704,0.00222
3792.77687,0.00180
3790.71670,0.00146
3788.65652,0.00132
3786.59635,0.00142
3784.53618,0.00169
3782.47601,0.00194
3780.41583,0.00202
3778.35566,0.00198
3776.29549,0.00199
3774.23532,0.00214
3772.17515,0.00231
3770.11497,0.00223
3768.05480,0.00183
3765.99463,0.00127
3763.93446,0.00081
3761.87429,0.00060
3759.81411,0.00071
3757.75394,0.00115
3755.69377,0.00173
3753.63360,0.00217
3751.57342,0.00230
3749.51325,0.00207
3747.45308,0.00162
3745.39291,0.00112
3743.33274,0.00073
3741.27256,0.00056
3739.21239,0.00064
3737.15222,0.00089
3735.09205,0.00126
3733.03188,0.00165
3730.97170,0.00184
3728.91153,0.00174
3726.85136,0.00142
3724.79119,0.00107
3722.73102,0.00094
3720.67084,0.00115
3718.61067,0.00154
3716.55050,0.00190
3714.49033,0.00216
3712.43015,0.00229
3710.36998,0.00218
3708.30981,0.00185
3706.24964,0.00154
3704.18947,0.00141
3702.12929,0.00136
3700.06912,0.00128
3698.00895,0.00118
3695.94878,0.00117
3693.88861,0.00129
3691.82843,0.00140
3689.76826,0.00135
3687.70809,0.00121
3685.64792,0.00121
3683.58775,0.00142
3681.52757,0.00168
3679.46740,0.00181
3677.40723,0.00173
3675.34706,0.00149
3673.28688,0.00124
3671.22671,0.00109
3669.16654,0.00100
3667.10637,0.00091
3665.04620,0.00081
3662.98602,0.00081
3660.92585,0.00096
3658.86568,0.00128
3656.80551,0.00176
3654.74534,0.00237
3652.68516,0.00300
3650.62499,0.00348
3648.56482,0.00355
3646.50465,0.00321
3644.44447,0.00290
3642.38430,0.00297
3640.32413,0.00335
3638.26396,0.00375
3636.20379,0.00392
3634.14361,0.00373
3632.08344,0.00330
3630.02327,0.00296
3627.96310,0.00298
3625.90293,0.00332
3623.84275,0.00372
3621.78258,0.00404
3619.72241,0.00427
3617.66224,0.00438
3615.60207,0.00436
3613.54189,0.00425
3611.48172,0.00420
3609.42155,0.00429
3607.36138,0.00454
3605.30120,0.00493
3603.24103,0.00539
3601.18086,0.00581
3599.12069,0.00606
3597.06052,0.00605
3595.00034,0.00578
3592.94017,0.00533
3590.88000,0.00482
3588.81983,0.00444
3586.75966,0.00450
3584.69948,0.00507
3582.63931,0.00588
3580.57914,0.00659
3578.51897,0.00702
3576.45879,0.00717
3574.39862,0.00715
3572.33845,0.00710
3570.27828,0.00713
3568.21811,0.00729
3566.15793,0.00755
3564.09776,0.00778
3562.03759,0.00784
3559.97742,0.00778
3557.91725,0.00775
3555.85707,0.00789
3553.79690,0.00820
3551.73673,0.00854
3549.67656,0.00877
3547.61639,0.00890
3545.55621,0.00904
3543.49604,0.00931
3541.43587,0.00967
3539.37570,0.00999
3537.31552,0.01013
3535.25535,0.01006
3533.19518,0.00987
3531.13501,0.00969
3529.07484,0.00970
3527.01466,0.00996
3524.95449,0.01038
3522.89432,0.01072
3520.83415,0.01082
3518.77398,0.01068
3516.71380,0.01057
3514.65363,0.01073
3512.59346,0.01105
3510.53329,0.01124
3508.47312,0.01117
3506.41294,0.01106
3504.35277,0.01117
3502.29260,0.01164
3500.23243,0.01232
3498.17225,0.01296
3496.11208,0.01337
3494.05191,0.01356
3491.99174,0.01361
3489.93157,0.01351
3487.87139,0.01329
3485.81122,0.01304
3483.75105,0.01292
3481.69088,0.01305
3479.63071,0.01343
3477.57053,0.01397
3475.51036,0.01456
3473.45019,0.01508
3471.39002,0.01542
3469.32984,0.01551
3467.26967,0.01538
3465.20950,0.01516
3463.14933,0.01499
3461.08916,0.01495
3459.02898,0.01507
3456.96881,0.01525
3454.90864,0.01539
3452.84847,0.01548
3450.78830,0.01557
3448.72812,0.01571
3446.66795,0.01593
3444.60778,0.01616
3442.54761,0.01630
3440.48744,0.01632
3438.42726,0.01633
3436.36709,0.01636
3434.30692,0.01636
3432.24675,0.01627
3430.18657,0.01608
3428.12640,0.01590
3426.06623,0.01584
3424.00606,0.01596
3421.94589,0.01623
3419.88571,0.01660
3417.82554,0.01704
3415.76537,0.01746
3413.70520,0.01770
3411.64503,0.01771
3409.58485,0.01759
3407.52468,0.01751
3405.46451,0.01753
3403.40434,0.01760
3401.34416,0.01775
3399.28399,0.01797
3397.22382,0.01821
3395.16365,0.01834
3393.10348,0.01831
3391.04330,0.01818
3388.98313,0.01811
3386.92296,0.01818
3384.86279,0.01830
3382.80262,0.01834
3380.74244,0.01831
3378.68227,0.01830
3376.62210,0.01833
3374.56193,0.01834
3372.50176,0.01827
3370.44158,0.01813
3368.38141,0.01802
3366.32124,0.01807
3364.26107,0.01829
3362.20089,0.01858
3360.14072,0.01890
3358.08055,0.01924
3356.02038,0.01957
3353.96021,0.01977
3351.90003,0.01973
3349.83986,0.01955
3347.77969,0.01934
3345.71952,0.01923
3343.65935,0.01921
3341.59917,0.01922
3339.53900,0.01921
3337.47883,0.01927
3335.41866,0.01952
3333.35849,0.01985
3331.29831,0.02011
3329.23814,0.02023
3327.17797,0.02023
3325.11780,0.02019
3323.05762,0.02019
3320.99745,0.02024
3318.93728,0.02032
3316.87711,0.02040
3314.81694,0.02046
3312.75676,0.02041
3310.69659,0.02020
3308.63642,0.01993
3306.57625,0.01978
3304.51608,0.01981
3302.45590,0.01992
3300.39573,0.01996
3298.33556,0.01990
3296.27539,0.01982
3294.21521,0.01974
3292.15504,0.01963
3290.09487,0.01946
3288.03470,0.01931
3285.97453,0.01932
3283.91435,0.01959
3281.85418,0.01999
3279.79401,0.02028
3277.73384,0.02029
3275.67367,0.02013
3273.61349,0.01997
3271.55332,0.01992
3269.49315,0.01998
3267.43298,0.02010
3265.37281,0.02022
3263.31263,0.02033
3261.25246,0.02040
3259.19229,0.02034
3257.13212,0.02011
3255.07194,0.01985
3253.01177,0.01974
3250.95160,0.01981
3248.89143,0.01992
3246.83126,0.01996
3244.77108,0.01990
3242.71091,0.01980
3240.65074,0.01970
3238.59057,0.01959
3236.53040,0.01948
3234.47022,0.01939
3232.41005,0.01932
3230.34988,0.01925
3228.28971,0.01918
3226.22954,0.01913
3224.16936,0.01911
3222.10919,0.01908
3220.04902,0.01906
3217.98885,0.01906
3215.92867,0.01901
3213.86850,0.01884
3211.80833,0.01857
3209.74816,0.01829
3207.68799,0.01811
3205.62781,0.01814
3203.56764,0.01835
3201.50747,0.01857
3199.44730,0.01863
3197.38713,0.01842
3195.32695,0.01800
3193.26678,0.01750
3191.20661,0.01710
3189.14644,0.01692
3187.08626,0.01695
3185.02609,0.01706
3182.96592,0.01712
3180.90575,0.01710
3178.84558,0.01705
3176.78540,0.01699
3174.72523,0.01686
3172.66506,0.01663
3170.60489,0.01636
3168.54472,0.01615
3166.48454,0.01602
3164.42437,0.01592
3162.36420,0.01584
3160.30403,0.01578
3158.24386,0.01569
3156.18368,0.01554
3154.12351,0.01537
3152.06334,0.01524
3150.00317,0.01511
3147.94299,0.01488
3145.88282,0.01458
3143.82265,0.01433
3141.76248,0.01422
3139.70231,0.01423
3137.64213,0.01426
3135.58196,0.01424
3133.52179,0.01413
3131.46162,0.01401
3129.40145,0.01396
3127.34127,0.01397
3125.28110,0.01400
3123.22093,0.01395
3121.16076,0.01373
3119.10058,0.01337
3117.04041,0.01299
3114.98024,0.01273
3112.92007,0.01268
3110.85990,0.01284
3108.79972,0.01307
3106.73955,0.01317
3104.67938,0.01305
3102.61921,0.01277
3100.55904,0.01244
3098.49886,0.01212
3096.43869,0.01182
3094.37852,0.01158
3092.31835,0.01142
3090.25818,0.01131
3088.19800,0.01122
3086.13783,0.01122
3084.07766,0.01130
3082.01749,0.01131
3079.95731,0.01110
3077.89714,0.01072
3075.83697,0.01034
3073.77680,0.01012
3071.71663,0.01006
3069.65645,0.01010
3067.59628,0.01014
3065.53611,0.01011
3063.47594,0.01003
3061.41577,0.00998
3059.35559,0.00999
3057.29542,0.01000
3055.23525,0.00996
3053.17508,0.00988
3051.11491,0.00978
3049.05473,0.00963
3046.99456,0.00941
3044.93439,0.00916
3042.87422,0.00898
3040.81404,0.00883
3038.75387,0.00869
3036.69370,0.00856
3034.63353,0.00848
3032.57336,0.00846
3030.51318,0.00847
3028.45301,0.00846
3026.39284,0.00843
3024.33267,0.00843
3022.27250,0.00848
3020.21232,0.00848
3018.15215,0.00836
3016.09198,0.00812
3014.03181,0.00781
3011.97163,0.00757
3009.91146,0.00748
3007.85129,0.00751
3005.79112,0.00760
3003.73095,0.00772
3001.67077,0.00783
2999.61060,0.00780
2997.55043,0.00756
2995.49026,0.00738
2993.43009,0.00752
2991.36991,0.00793
2989.30974,0.00821
2987.24957,0.00816
2985.18940,0.00797
2983.12923,0.00788
2981.06905,0.00790
2979.00888,0.00790
2976.94871,0.00787
2974.88854,0.00796
2972.82836,0.00816
2970.76819,0.00832
2968.70802,0.00838
2966.64785,0.00846
2964.58768,0.00865
2962.52750,0.00881
2960.46733,0.00881
2958.40716,0.00874
2956.34699,0.00880
2954.28682,0.00905
2952.22664,0.00946
2950.16647,0.01008
2948.10630,0.01078
2946.04613,0.01115
2943.98596,0.01104
2941.92578,0.01079
2939.86561,0.01066
2937.80544,0.01061
2935.74527,0.01051
2933.68509,0.01043
2931.62492,0.01048
2929.56475,0.01052
2927.50458,0.01045
2925.44441,0.01041
2923.38423,0.01053
2921.32406,0.01067
2919.26389,0.01058
2917.20372,0.01035
2915.14355,0.01028
2913.08337,0.01038
2911.02320,0.01038
2908.96303,0.01021
2906.90286,0.00990
2904.84268,0.00961
2902.78251,0.00956
2900.72234,0.00981
2898.66217,0.01010
2896.60200,0.01013
2894.54182,0.00992
2892.48165,0.00966
2890.42148,0.00953
2888.36131,0.00961
2886.30114,0.00974
2884.24096,0.00975
2882.18079,0.00969
2880.12062,0.00960
2878.06045,0.00931
2876.00028,0.00878
2873.94010,0.00841
2871.87993,0.00848
2869.81976,0.00873
2867.75959,0.00891
2865.69941,0.00904
2863.63924,0.00917
2861.57907,0.00919
2859.51890,0.00889
2857.45873,0.00832
2855.39855,0.00786
2853.33838,0.00778
2851.27821,0.00792
2849.21804,0.00797
2847.15787,0.00786
2845.09769,0.00772
2843.03752,0.00760
2840.97735,0.00753
2838.91718,0.00751
2836.85700,0.00746
2834.79683,0.00739
2832.73666,0.00736
2830.67649,0.00724
2828.61632,0.00698
2826.55614,0.00672
2824.49597,0.00657
2822.43580,0.00652
2820.37563,0.00653
2818.31546,0.00657
2816.25528,0.00661
2814.19511,0.00667
2812.13494,0.00674
2810.07477,0.00669
2808.01460,0.00649
2805.95442,0.00629
2803.89425,0.00621
2801.83408,0.00630
2799.77391,0.00650
2797.71373,0.00659
2795.65356,0.00644
2793.59339,0.00625
2791.53322,0.00620
2789.47305,0.00620
2787.41287,0.00604
2785.35270,0.00581
2783.29253,0.00581
2781.23236,0.00594
2779.17219,0.00596
2777.11201,0.00594
2775.05184,0.00601
2772.99167,0.00606
2770.93150,0.00595
2768.87133,0.00579
2766.81115,0.00574
2764.75098,0.00572
2762.69081,0.00568
2760.63064,0.00570
2758.57046,0.00586
2756.51029,0.00599
2754.45012,0.00593
2752.38995,0.00583
2750.32978,0.00585
2748.26960,0.00584
2746.20943,0.00565
2744.14926,0.00547
2742.08909,0.00557
2740.02892,0.00585
2737.96874,0.00608
2735.90857,0.00610
2733.84840,0.00590
2731.78823,0.00564
2729.72805,0.00545
2727.66788,0.00533
2725.60771,0.00535
2723.54754,0.00553
2721.48737,0.00564
2719.42719,0.00545
2717.36702,0.00523
2715.30685,0.00525
2713.24668,0.00536
2711.18651,0.00531
2709.12633,0.00521
2707.06616,0.00532
2705.00599,0.00566
2702.94582,0.00595
2700.88565,0.00595
2698.82547,0.00563
2696.76530,0.00520
2694.70513,0.00498
2692.64496,0.00509
2690.58478,0.00529
2688.52461,0.00532
2686.46444,0.00523
2684.40427,0.00520
2682.34410,0.00523
2680.28392,0.00519
2678.22375,0.00512
2676.16358,0.00512
2674.10341,0.00518
2672.04324,0.00520
2669.98306,0.00517
2667.92289,0.00522
2665.86272,0.00533
2663.80255,0.00533
2661.74238,0.00523
2659.68220,0.00532
2657.62203,0.00567
2655.56186,0.00595
2653.50169,0.00584
2651.44151,0.00540
2649.38134,0.00488
2647.32117,0.00458
2645.26100,0.00461
2643.20083,0.00495
2641.14065,0.00542
2639.08048,0.00573
2637.02031,0.00574
2634.96014,0.00556
2632.89997,0.00539
2630.83979,0.00535
2628.77962,0.00543
2626.71945,0.00541
2624.65928,0.00512
2622.59910,0.00481
2620.53893,0.00473
2618.47876,0.00470
2616.41859,0.00450
2614.35842,0.00423
2612.29824,0.00397
2610.23807,0.00383
2608.17790,0.00413
2606.11773,0.00480
2604.05756,0.00526
2601.99738,0.00535
2599.93721,0.00526
2597.87704,0.00511
2595.81687,0.00490
2593.75670,0.00474
2591.69652,0.00478
2589.63635,0.00484
2587.57618,0.00465
2585.51601,0.00439
2583.45583,0.00428
2581.39566,0.00419
2579.33549,0.00390
2577.27532,0.00366
2575.21515,0.00397
2573.15497,0.00473
2571.09480,0.00529
2569.03463,0.00543
2566.97446,0.00538
2564.91429,0.00521
2562.85411,0.00485
2560.79394,0.00442
2558.73377,0.00417
2556.67360,0.00413
2554.61342,0.00409
2552.55325,0.00385
2550.49308,0.00351
2548.43291,0.00327
2546.37274,0.00319
2544.31256,0.00320
2542.25239,0.00327
2540.19222,0.00361
2538.13205,0.00411
2536.07188,0.00428
2534.01170,0.00397
2531.95153,0.00355
2529.89136,0.00329
2527.83119,0.00329
2525.77102,0.00355
2523.71084,0.00384
2521.65067,0.00392
2519.59050,0.00400
2517.53033,0.00420
2515.47015,0.00433
2513.40998,0.00427
2511.34981,0.00412
2509.28964,0.00412
2507.22947,0.00435
2505.16929,0.00450
2503.10912,0.00434
2501.04895,0.00402
2498.98878,0.00375
2496.92861,0.00360
2494.86843,0.00351
2492.80826,0.00333
2490.74809,0.00294
2488.68792,0.00262
2486.62775,0.00261
2484.56757,0.00287
2482.50740,0.00323
2480.44723,0.00351
2478.38706,0.00361
2476.32688,0.00360
2474.26671,0.00354
2472.20654,0.00351
2470.14637,0.00369
2468.08620,0.00400
2466.02602,0.00421
2463.96585,0.00425
2461.90568,0.00415
2459.84551,0.00397
2457.78534,0.00373
2455.72516,0.00356
2453.66499,0.00373
2451.60482,0.00422
2449.54465,0.00456
2447.48447,0.00443
2445.42430,0.00396
2443.36413,0.00350
2441.30396,0.00338
2439.24379,0.00378
2437.18361,0.00447
2435.12344,0.00499
2433.06327,0.00510
2431.00310,0.00485
2428.94293,0.00442
2426.88275,0.00394
2424.82258,0.00351
2422.76241,0.00323
2420.70224,0.00321
2418.64207,0.00336
2416.58189,0.00343
2414.52172,0.00322
2412.46155,0.00284
2410.40138,0.00250
2408.34120,0.00232
2406.28103,0.00220
2404.22086,0.00213
2402.16069,0.00237
2400.10052,0.00291
2398.04034,0.00335
2395.98017,0.00359
2393.92000,0.00367
2391.85983,0.00357
2389.79966,0.00329
2387.73948,0.00291
2385.67931,0.00260
2383.61914,0.00252
2381.55897,0.00275
2379.49880,0.00318
2377.43862,0.00351
2375.37845,0.00349
2373.31828,0.00313
2371.25811,0.00253
2369.19793,0.00187
2367.13776,0.00163
2365.07759,0.00221
2363.01742,0.00329
2360.95725,0.00385
2358.89707,0.00332
2356.83690,0.00231
2354.77673,0.00173
2352.71656,0.00170
2350.65639,0.00184
2348.59621,0.00216
2346.53604,0.00295
2344.47587,0.00425
2342.41570,0.00560
2340.35552,0.00649
2338.29535,0.00671
2336.23518,0.00641
2334.17501,0.00597
2332.11484,0.00571
2330.05466,0.00563
2327.99449,0.00556
2325.93432,0.00540
2323.87415,0.00525
2321.81398,0.00520
2319.75380,0.00520
2317.69363,0.00504
2315.63346,0.00460
2313.57329,0.00405
2311.51312,0.00357
2309.45294,0.00319
2307.39277,0.00288
2305.33260,0.00271
2303.27243,0.00281
2301.21225,0.00321
2299.15208,0.00374
2297.09191,0.00418
2295.03174,0.00449
2292.97157,0.00486
2290.91139,0.00532
2288.85122,0.00560
2286.79105,0.00553
2284.73088,0.00523
2282.67071,0.00493
2280.61053,0.00482
2278.55036,0.00495
2276.49019,0.00526
2274.43002,0.00546
2272.36984,0.00522
2270.30967,0.00448
2268.24950,0.00348
2266.18933,0.00263
2264.12916,0.00230
2262.06898,0.00256
2260.00881,0.00315
2257.94864,0.00365
2255.88847,0.00380
2253.82830,0.00359
2251.76812,0.00329
2249.70795,0.00326
2247.64778,0.00369
2245.58761,0.00445
2243.52744,0.00540
2241.46726,0.00594
2239.40709,0.00555
2237.34692,0.00463
2235.28675,0.00401
2233.22657,0.00393
2231.16640,0.00387
2229.10623,0.00350
2227.04606,0.00342
2224.98589,0.00411
2222.92571,0.00487
2220.86554,0.00500
2218.80537,0.00473
2216.74520,0.00418
2214.68503,0.00330
2212.62485,0.00288
2210.56468,0.00337
2208.50451,0.00398
2206.44434,0.00399
2204.38417,0.00386
2202.32399,0.00434
2200.26382,0.00502
2198.20365,0.00513
2196.14348,0.00490
2194.08330,0.00433
2192.02313,0.00337
2189.96296,0.00312
2187.90279,0.00354
2185.84262,0.00337
2183.78244,0.00295
2181.72227,0.00342
2179.66210,0.00434
2177.60193,0.00500
2175.54176,0.00528
2173.48158,0.00528
2171.42141,0.00570
2169.36124,0.00675
2167.30107,0.00734
2165.24089,0.00641
2163.18072,0.00411
2161.12055,0.00151
2159.06038,0.00000
2157.00021,0.00041
2154.94003,0.00204
2152.87986,0.00334
2150.81969,0.00321
2148.75952,0.00214
2146.69935,0.00174
2144.63917,0.00225
2142.57900,0.00239
2140.51883,0.00190
2138.45866,0.00142
2136.39849,0.00128
2134.33831,0.00168
2132.27814,0.00242
2130.21797,0.00325
2128.15780,0.00410
2126.09762,0.00460
2124.03745,0.00464
2121.97728,0.00455
2119.91711,0.00435
2117.85694,0.00385
2115.79676,0.00331
2113.73659,0.00305
2111.67642,0.00284
2109.61625,0.00249
2107.55608,0.00234
2105.49590,0.00288
2103.43573,0.00406
2101.37556,0.00486
2099.31539,0.00461
2097.25521,0.00396
2095.19504,0.00365
2093.13487,0.00379
2091.07470,0.00413
2089.01453,0.00450
2086.95435,0.00480
2084.89418,0.00490
2082.83401,0.00473
2080.77384,0.00452
2078.71367,0.00451
2076.65349,0.00469
2074.59332,0.00480
2072.53315,0.00458
2070.47298,0.00400
2068.41281,0.00335
2066.35263,0.00299
2064.29246,0.00301
2062.23229,0.00330
2060.17212,0.00373
2058.11194,0.00416
2056.05177,0.00440
2053.99160,0.00414
2051.93143,0.00325
2049.87126,0.00212
2047.81108,0.00135
2045.75091,0.00128
2043.69074,0.00177
2041.63057,0.00229
2039.57040,0.00220
2037.51022,0.00136
2035.45005,0.00041
2033.38988,0.00000
2031.32971,0.00016
2029.26954,0.00071
2027.20936,0.00183
2025.14919,0.00337
2023.08902,0.00450
2021.02885,0.00463
2018.96867,0.00402
2016.90850,0.00315
2014.84833,0.00218
2012.78816,0.00115
2010.72799,0.00034
2008.66781,0.00007
2006.60764,0.00039
2004.54747,0.00096
2002.48730,0.00134
2000.42713,0.00142
1998.36695,0.00150
1996.30678,0.00189
1994.24661,0.00252
1992.18644,0.00309
1990.12626,0.00340
1988.06609,0.00341
1986.00592,0.00311
1983.94575,0.00275
1981.88558,0.00273
1979.82540,0.00305
1977.76523,0.00337
1975.70506,0.00358
1973.64489,0.00362
1971.58472,0.00332
1969.52454,0.00266
1967.46437,0.00205
1965.40420,0.00178
1963.34403,0.00171
1961.28386,0.00159
1959.22368,0.00125
1957.16351,0.00062
1955.10334,0.00005
1953.04317,0.00000
1950.98299,0.00045
1948.92282,0.00100
1946.86265,0.00140
1944.80248,0.00156
1942.74231,0.00138
1940.68213,0.00090
1938.62196,0.00036
1936.56179,0.00005
1934.50162,0.00020
1932.44145,0.00070
1930.38127,0.00120
1928.32110,0.00147
1926.26093,0.00161
1924.20076,0.00197
1922.14059,0.00255
1920.08041,0.00299
1918.02024,0.00302
1915.96007,0.00268
1913.89990,0.00229
1911.83972,0.00212
1909.77955,0.00214
1907.71938,0.00221
1905.65921,0.00218
1903.59904,0.00208
1901.53886,0.00195
1899.47869,0.00175
1897.41852,0.00143
1895.35835,0.00110
1893.29818,0.00096
1891.23800,0.00103
1889.17783,0.00119
1887.11766,0.00130
1885.05749,0.00131
1882.99731,0.00127
1880.93714,0.00124
1878.87697,0.00125
1876.81680,0.00132
1874.75663,0.00139
1872.69645,0.00131
1870.63628,0.00104
1868.57611,0.00073
1866.51594,0.00061
1864.45577,0.00070
1862.39559,0.00088
1860.33542,0.00096
1858.27525,0.00089
1856.21508,0.00075
1854.15491,0.00065
1852.09473,0.00070
1850.03456,0.00094
1847.97439,0.00128
1845.91422,0.00155
1843.85404,0.00157
1841.79387,0.00141
1839.73370,0.00119
1837.67353,0.00101
1835.61336,0.00087
1833.55318,0.00079
1831.49301,0.00073
1829.43284,0.00061
1827.37267,0.00042
1825.31250,0.00025
1823.25232,0.00017
1821.19215,0.00017
1819.13198,0.00028
1817.07181,0.00052
1815.01163,0.00089
1812.95146,0.00127
1810.89129,0.00149
1808.83112,0.00145
1806.77095,0.00124
1804.71077,0.00096
1802.65060,0.00065
1800.59043,0.00035
1798.53026,0.00022
1796.47009,0.00040
1794.40991,0.00082
1792.34974,0.00123
1790.28957,0.00143
1788.22940,0.00140
1786.16923,0.00129
1784.10905,0.00122
1782.04888,0.00121
1779.98871,0.00121
1777.92854,0.00112
1775.86836,0.00096
1773.80819,0.00081
1771.74802,0.00071
1769.68785,0.00070
1767.62768,0.00081
1765.56750,0.00103
1763.50733,0.00132
1761.44716,0.00167
1759.38699,0.00200
1757.32682,0.00219
1755.26664,0.00224
1753.20647,0.00227
1751.14630,0.00242
1749.08613,0.00270
1747.02596,0.00303
1744.96578,0.00333
1742.90561,0.00360
1740.84544,0.00385
1738.78527,0.00409
1736.72509,0.00429
1734.66492,0.00443
1732.60475,0.00449
1730.54458,0.00447
1728.48441,0.00439
1726.42423,0.00430
1724.36406,0.00427
1722.30389,0.00427
1720.24372,0.00419
1718.18355,0.00398
1716.12337,0.00368
1714.06320,0.00345
1712.00303,0.00336
1709.94286,0.00330
1707.88268,0.00311
1705.82251,0.00276
1703.76234,0.00237
1701.70217,0.00209
1699.64200,0.00195
1697.58182,0.00201
1695.52165,0.00229
1693.46148,0.00263
1691.40131,0.00288
1689.34114,0.00300
1687.28096,0.00299
1685.22079,0.00297
1683.16062,0.00306
1681.10045,0.00332
1679.04028,0.00359
1676.98010,0.00373
1674.91993,0.00376
1672.85976,0.00385
1670.79959,0.00410
1668.73941,0.00448
1666.67924,0.00491
1664.61907,0.00537
1662.55890,0.00590
1660.49873,0.00648
1658.43855,0.00702
1656.37838,0.00745
1654.31821,0.00779
1652.25804,0.00801
1650.19787,0.00804
1648.13769,0.00792
1646.07752,0.00782
1644.01735,0.00784
1641.95718,0.00800
1639.89701,0.00825
1637.83683,0.00848
1635.77666,0.00863
1633.71649,0.00865
1631.65632,0.00864
1629.59614,0.00865
1627.53597,0.00870
1625.47580,0.00880
1623.41563,0.00894
1621.35546,0.00906
1619.29528,0.00910
1617.23511,0.00909
1615.17494,0.00910
1613.11477,0.00918
1611.05460,0.00928
1608.99442,0.00933
1606.93425,0.00928
1604.87408,0.00908
1602.81391,0.00875
1600.75373,0.00834
1598.69356,0.00786
1596.63339,0.00732
1594.57322,0.00673
1592.51305,0.00613
1590.45287,0.00557
1588.39270,0.00511
1586.33253,0.00478
1584.27236,0.00454
1582.21219,0.00433
1580.15201,0.00411
1578.09184,0.00388
1576.03167,0.00363
1573.97150,0.00339
1571.91133,0.00313
1569.85115,0.00286
1567.79098,0.00261
1565.73081,0.00239
1563.67064,0.00216
1561.61046,0.00193
1559.55029,0.00175
1557.49012,0.00172
1555.42995,0.00177
1553.36978,0.00177
1551.30960,0.00165
1549.24943,0.00143
1547.18926,0.00110
1545.12909,0.00068
1543.06892,0.00029
1541.00874,0.00003
1538.94857,0.00000
1536.88840,0.00015
1534.82823,0.00041
1532.76805,0.00073
1530.70788,0.00102
1528.64771,0.00114
1526.58754,0.00104
1524.52737,0.00077
1522.46719,0.00046
1520.40702,0.00021
1518.34685,0.00011
1516.28668,0.00015
1514.22651,0.00027
1512.16633,0.00037
1510.10616,0.00048
1508.04599,0.00063
1505.98582,0.00082
1503.92565,0.00102
1501.86547,0.00118
1499.80530,0.00121
1497.74513,0.00111
1495.68496,0.00096
1493.62478,0.00083
1491.56461,0.00081
1489.50444,0.00089
1487.44427,0.00106
1485.38410,0.00124
1483.32392,0.00141
1481.26375,0.00156
1479.20358,0.00170
1477.14341,0.00181
1475.08324,0.00194
1473.02306,0.00219
1470.96289,0.00262
1468.90272,0.00313
1466.84255,0.00361
1464.78238,0.00401
1462.72220,0.00434
1460.66203,0.00457
1458.60186,0.00473
1456.54169,0.00485
1454.48151,0.00501
1452.42134,0.00519
1450.36117,0.00538
1448.30100,0.00556
1446.24083,0.00576
1444.18065,0.00597
1442.12048,0.00617
1440.06031,0.00630
1438.00014,0.00638
1435.93997,0.00646
1433.87979,0.00660
1431.81962,0.00680
1429.75945,0.00705
1427.69928,0.00734
1425.63910,0.00761
1423.57893,0.00781
1421.51876,0.00793
1419.45859,0.00799
1417.39842,0.00804
1415.33824,0.00810
1413.27807,0.00820
1411.21790,0.00831
1409.15773,0.00838
1407.09756,0.00833
1405.03738,0.00815
1402.97721,0.00789
1400.91704,0.00760
1398.85687,0.00729
1396.79670,0.00699
1394.73652,0.00678
1392.67635,0.00669
1390.61618,0.00672
1388.55601,0.00686
1386.49583,0.00707
1384.43566,0.00727
1382.37549,0.00740
1380.31532,0.00749
1378.25515,0.00757
1376.19497,0.00766
1374.13480,0.00773
1372.07463,0.00780
1370.01446,0.00786
1367.95429,0.00790
1365.89411,0.00791
1363.83394,0.00786
1361.77377,0.00777
1359.71360,0.00767
1357.65343,0.00758
1355.59325,0.00747
1353.53308,0.00729
1351.47291,0.00706
1349.41274,0.00689
1347.35256,0.00682
1345.29239,0.00680
1343.23222,0.00673
1341.17205,0.00656
1339.11188,0.00630
1337.05170,0.00605
1334.99153,0.00595
1332.93136,0.00603
1330.87119,0.00622
1328.81102,0.00637
1326.75084,0.00642
1324.69067,0.00640
1322.63050,0.00642
1320.57033,0.00653
1318.51015,0.00669
1316.44998,0.00679
1314.38981,0.00673
1312.32964,0.00651
1310.26947,0.00624
1308.20929,0.00605
1306.14912,0.00599
1304.08895,0.00598
1302.02878,0.00590
1299.96861,0.00576
1297.90843,0.00565
1295.84826,0.00562
1293.78809,0.00563
1291.72792,0.00564
1289.66775,0.00563
1287.60757,0.00559
1285.54740,0.00551
1283.48723,0.00538
1281.42706,0.00527
1279.36688,0.00525
1277.30671,0.00531
1275.24654,0.00536
1273.18637,0.00536
1271.12620,0.00538
1269.06602,0.00554
1267.00585,0.00587
1264.94568,0.00631
1262.88551,0.00671
1260.82534,0.00697
1258.76516,0.00714
1256.70499,0.00731
1254.64482,0.00755
1252.58465,0.00782
1250.52447,0.00808
1248.46430,0.00826
1246.40413,0.00831
1244.34396,0.00821
1242.28379,0.00803
1240.22361,0.00784
1238.16344,0.00766
1236.10327,0.00748
1234.04310,0.00729
1231.98293,0.00707
1229.92275,0.00682
1227.86258,0.00650
1225.80241,0.00615
1223.74224,0.00582
1221.68207,0.00555
1219.62189,0.00535
1217.56172,0.00519
1215.50155,0.00500
1213.44138,0.00476
1211.38120,0.00445
1209.32103,0.00407
1207.26086,0.00357
1205.20069,0.00297
1203.14052,0.00231
1201.08034,0.00167
1199.02017,0.00114
1196.96000,0.00076
1194.89983,0.00042
1192.83966,0.00013
1190.77948,0.00000
1188.71931,0.00004
1186.65914,0.00014
1184.59897,0.00015
1182.53880,0.00008
1180.47862,0.00009
1178.41845,0.00034
1176.35828,0.00085
1174.29811,0.00143
1172.23793,0.00201
1170.17776,0.00273
1168.11759,0.00351
1166.05742,0.00415
1163.99725,0.00464
1161.93707,0.00516
1159.87690,0.00579
1157.81673,0.00636
1155.75656,0.00673
1153.69639,0.00712
1151.63621,0.00770
1149.57604,0.00818
1147.51587,0.00832
1145.45570,0.00839
1143.39552,0.00871
1141.33535,0.00910
1139.27518,0.00934
1137.21501,0.00944
1135.15484,0.00959
1133.09466,0.00995
1131.03449,0.01050
1128.97432,0.01107
1126.91415,0.01160
1124.85398,0.01209
1122.79380,0.01250
1120.73363,0.01285
1118.67346,0.01327
1116.61329,0.01386
1114.55312,0.01455
1112.49294,0.01512
1110.43277,0.01552
1108.37260,0.01588
1106.31243,0.01631
1104.25225,0.01681
1102.19208,0.01749
1100.13191,0.01842
1098.07174,0.01936
1096.01157,0.02012
1093.95139,0.02090
1091.89122,0.02177
1089.83105,0.02251
1087.77088,0.02295
1085.71071,0.02315
1083.65053,0.02351
1081.59036,0.02420
1079.53019,0.02503
1077.47002,0.02590
1075.40985,0.02677
1073.34967,0.02752
1071.28950,0.02803
1069.22933,0.02835
1067.16916,0.02857
1065.10898,0.02878
1063.04881,0.02914
1060.98864,0.02967
1058.92847,0.03010
1056.86830,0.03029
1054.80812,0.03043
1052.74795,0.03076
1050.68778,0.03121
1048.62761,0.03160
1046.56744,0.03191
1044.50726,0.03224
1042.44709,0.03264
1040.38692,0.03307
1038.32675,0.03351
1036.26657,0.03392
1034.20640,0.03401
1032.14623,0.03380
1030.08606,0.03360
1028.02589,0.03344
1025.96571,0.03334
1023.90554,0.03359
1021.84537,0.03415
1019.78520,0.03452
1017.72503,0.03441
1015.66485,0.03400
1013.60468,0.03355
1011.54451,0.03317
1009.48434,0.03294
1007.42417,0.03278
1005.36399,0.03245
1003.30382,0.03195
1001.24365,0.03153
999.18348,0.03117
997.12330,0.03071
995.06313,0.03023
993.00296,0.02982
990.94279,0.02945
988.88262,0.02902
986.82244,0.02854
984.76227,0.02808
982.70210,0.02775
980.64193,0.02760
978.58176,0.02758
976.52158,0.02748
974.46141,0.02710
972.40124,0.02644
970.34107,0.02579
968.28089,0.02544
966.22072,0.02524
964.16055,0.02487
962.10038,0.02441
960.04021,0.02392
957.98003,0.02337
955.91986,0.02288
953.85969,0.02259
951.79952,0.02231
949.73935,0.02183
947.67917,0.02110
945.61900,0.02024
943.55883,0.01929
941.49866,0.01826
939.43849,0.01718
937.37831,0.01601
935.31814,0.01466
933.25797,0.01324
931.19780,0.01190
929.13762,0.01070
927.07745,0.00973
925.01728,0.00899
922.95711,0.00832
920.89694,0.00755
918.83676,0.00682
916.77659,0.00633
914.71642,0.00594
912.65625,0.00545
910.59608,0.00498
908.53590,0.00473
906.47573,0.00474
904.41556,0.00484
902.35539,0.00493
900.29522,0.00501
898.23504,0.00510
896.17487,0.00519
894.11470,0.00511
892.05453,0.00489
889.99435,0.00478
887.93418,0.00483
885.87401,0.00477
883.81384,0.00438
881.75367,0.00384
879.69349,0.00344
877.63332,0.00325
875.57315,0.00317
873.51298,0.00306
871.45281,0.00297
869.39263,0.00297
867.33246,0.00309
865.27229,0.00327
863.21212,0.00330
861.15194,0.00296
859.09177,0.00243
857.03160,0.00207
854.97143,0.00189
852.91126,0.00174
850.85108,0.00169
848.79091,0.00183
846.73074,0.00200
844.67057,0.00197
842.61040,0.00178
840.55022,0.00151
838.49005,0.00108
836.42988,0.00056
834.36971,0.00022
832.30954,0.00000
830.24936,-0.00004
828.18919,0.00034
826.12902,0.00076
824.06885,0.00071
822.00867,0.00049
819.94850,0.00066
817.88833,0.00123
815.82816,0.00172
813.76799,0.00168
811.70781,0.00134
809.64764,0.00126
807.58747,0.00175
805.52730,0.00266
803.46713,0.00334
801.40695,0.00294
799.34678,0.00154
797.28661,0.00032
795.22644,0.00000
793.16627,0.00013
791.10609,0.00006
789.04592,-0.00024
786.98575,-0.00032
784.92558,0.00009
782.86540,0.00066
780.80523,0.00083
778.74506,0.00075
776.68489,0.00103
774.62472,0.00160
772.56454,0.00170
770.50437,0.00121
768.44420,0.00096
766.38403,0.00141
764.32386,0.00188
762.26368,0.00179
760.20351,0.00151
758.14334,0.00154
756.08317,0.00172
754.02299,0.00176
751.96282,0.00160
749.90265,0.00133
747.84248,0.00133
745.78231,0.00147
743.72213,0.00105
741.66196,0.00027
739.60179,0.00009
737.54162,0.00046
735.48145,0.00046
733.42127,0.00003
731.36110,-0.00008
729.30093,0.00026
727.24076,0.00061
725.18059,0.00097
723.12041,0.00140
721.06024,0.00174
719.00007,0.00189
716.93990,0.00192
714.87972,0.00187
712.81955,0.00175
710.75938,0.00161
708.69921,0.00159
706.63904,0.00177
704.57886,0.00212
702.51869,0.00264
700.45852,0.00336
698.39835,0.00419
696.33818,0.00487
694.27800,0.00512
692.21783,0.00493
690.15766,0.00444
688.09749,0.00376
686.03731,0.00292
683.97714,0.00205
681.91697,0.00163
679.85680,0.00207
677.79663,0.00306
675.73645,0.00409
673.67628,0.00504
671.61611,0.00576
669.55594,0.00602
667.49577,0.00594
665.43559,0.00597
663.37542,0.00617
661.31525,0.00612
659.25508,0.00557
657.19491,0.00486
655.13473,0.00444
653.07456,0.00433
651.01439,0.00405
648.95422,0.00310
646.89404,0.00164
644.83387,0.00040
642.77370,0.00000
640.71353,0.00044
638.65336,0.00175
636.59318,0.00357
634.53301,0.00506
632.47284,0.00540
630.41267,0.00452
628.35250,0.00283
626.29232,0.00138
624.23215,0.00189
622.17198,0.00327
620.11181,0.00338
618.05164,0.00318
615.99146,0.00433
613.93129,0.00591
611.87112,0.00722
609.81095,0.00850
607.75077,0.00821
605.69060,0.00542
603.63043,0.00228
601.57026,0.00051
599.51009,0.00000
