3996.73391,0.00074
3994.67373,0.00064
3992.61356,0.00051
3990.55339,0.00035
3988.49322,0.00019
3986.43305,0.00005
3984.37287,0.00000
3982.31270,0.00012
3980.25253,0.00038
3978.19236,0.00059
3976.13219,0.00062
3974.07201,0.00047
3972.01184,0.00028
3969.95167,0.00019
3967.89150,0.00026
3965.83133,0.00045
3963.77115,0.00061
3961.71098,0.00070
3959.65081,0.00071
3957.59064,0.00070
3955.53046,0.00068
3953.47029,0.00066
3951.41012,0.00061
3949.34995,0.00057
3947.28978,0.00052
3945.22960,0.00042
3943.16943,0.00027
3941.10926,0.00014
3939.04909,0.00010
3936.98892,0.00011
3934.92874,0.00011
3932.86857,0.00008
3930.80840,0.00014
3928.74823,0.00035
3926.68805,0.00059
3924.62788,0.00069
3922.56771,0.00061
3920.50754,0.00043
3918.44737,0.00028
3916.38719,0.00018
3914.32702,0.00014
3912.26685,0.00014
3910.20668,0.00019
3908.14651,0.00026
3906.08633,0.00028
3904.02616,0.00022
3901.96599,0.00009
3899.90582,0.00000
3897.84565,0.00004
3895.78547,0.00019
3893.72530,0.00025
3891.66513,0.00015
3889.60496,0.00007
3887.54478,0.00020
3885.48461,0.00052
3883.42444,0.00086
3881.36427,0.00110
3879.30410,0.00118
3877.24392,0.00113
3875.18375,0.00101
3873.12358,0.00083
3871.06341,0.00059
3869.00324,0.00041
3866.94306,0.00041
3864.88289,0.00045
3862.82272,0.00038
3860.76255,0.00029
3858.70237,0.00029
3856.64220,0.00033
3854.58203,0.00030
3852.52186,0.00019
3850.46169,0.00017
3848.40151,0.00037
3846.34134,0.00074
3844.28117,0.00114
3842.22100,0.00144
3840.16083,0.00155
3838.10065,0.00141
3836.04048,0.00112
3833.98031,0.00084
3831.92014,0.00067
3829.85997,0.00064
3827.79979,0.00073
3825.73962,0.00091
3823.67945,0.00121
3821.61928,0.00152
3819.55910,0.00167
3817.49893,0.00156
3815.43876,0.00135
3813.37859,0.00121
3811.31842,0.00125
3809.25824,0.00138
3807.19807,0.00139
3805.13790,0.00119
3803.07773,0.00091
3801.01756,0.00082
3798.95738,0.00096
3796.89721,0.00114
3794.83704,0.00119
3792.77687,0.00112
3790.71670,0.00103
3788.65652,0.00099
3786.59635,0.00100
3784.53618,0.00099
3782.47601,0.00090
3780.41583,0.00070
3778.35566,0.00046
3776.29549,0.00032
3774.23532,0.00034
3772.17515,0.00046
3770.11497,0.00057
3768.05480,0.00058
3765.99463,0.00052
3763.93446,0.00044
3761.87429,0.00036
3759.81411,0.00029
3757.75394,0.00033
3755.69377,0.00056
3753.63360,0.00088
3751.57342,0.00110
3749.51325,0.00116
3747.45308,0.00118
3745.39291,0.00124
3743.33274,0.00131
3741.27256,0.00146
3739.21239,0.00176
3737.15222,0.00210
3735.09205,0.00219
3733.03188,0.00185
3730.97170,0.00132
3728.91153,0.00097
3726.85136,0.00093
3724.79119,0.00102
3722.73102,0.00105
3720.67084,0.00101
3718.61067,0.00097
3716.55050,0.00093
3714.49033,0.00083
3712.43015,0.00071
3710.36998,0.00061
3708.30981,0.00057
3706.24964,0.00067
3704.18947,0.00092
3702.12929,0.00126
3700.06912,0.00159
3698.00895,0.00180
3695.94878,0.00169
3693.88861,0.00126
3691.82843,0.00066
3689.76826,0.00017
3687.70809,0.00000
3685.64792,0.00019
3683.58775,0.00058
3681.52757,0.00103
3679.46740,0.00143
3677.40723,0.00171
3675.34706,0.00179
3673.28688,0.00170
3671.22671,0.00152
3669.16654,0.00132
3667.10637,0.00125
3665.04620,0.00141
3662.98602,0.00172
3660.92585,0.00203
3658.86568,0.00217
3656.80551,0.00211
3654.74534,0.00197
3652.68516,0.00190
3650.62499,0.00189
3648.56482,0.00183
3646.50465,0.00175
3644.44447,0.00183
3642.38430,0.00213
3640.32413,0.00253
3638.26396,0.00292
3636.20379,0.00321
3634.14361,0.00344
3632.08344,0.00363
3630.02327,0.00375
3627.96310,0.00381
3625.90293,0.00390
3623.84275,0.00416
3621.78258,0.00449
3619.72241,0.00476
3617.66224,0.00493
3615.60207,0.00505
3613.54189,0.00512
3611.48172,0.00510
3609.42155,0.00501
3607.36138,0.00491
3605.30120,0.00493
3603.24103,0.00509
3601.18086,0.00535
3599.12069,0.00562
3597.06052,0.00581
3595.00034,0.00595
3592.94017,0.00608
3590.88000,0.00622
3588.81983,0.00639
3586.75966,0.00660
3584.69948,0.00686
3582.63931,0.00718
3580.57914,0.00754
3578.51897,0.00789
3576.45879,0.00821
3574.39862,0.00856
3572.33845,0.00895
3570.27828,0.00924
3568.21811,0.00926
3566.15793,0.00907
3564.09776,0.00903
3562.03759,0.00939
3559.97742,0.01002
3557.91725,0.01058
3555.85707,0.01090
3553.79690,0.01097
3551.73673,0.01095
3549.67656,0.01103
3547.61639,0.01127
3545.55621,0.01149
3543.49604,0.01158
3541.43587,0.01157
3539.37570,0.01159
3537.31552,0.01168
3535.25535,0.01186
3533.19518,0.01212
3531.13501,0.01244
3529.07484,0.01279
3527.01466,0.01306
3524.95449,0.01323
3522.89432,0.01336
3520.83415,0.01359
3518.77398,0.01392
3516.71380,0.01427
3514.65363,0.01458
3512.59346,0.01483
3510.53329,0.01499
3508.47312,0.01505
3506.41294,0.01506
3504.35277,0.01507
3502.29260,0.01515
3500.23243,0.01533
3498.17225,0.01564
3496.11208,0.01607
3494.05191,0.01651
3491.99174,0.01682
3489.93157,0.01697
3487.87139,0.01704
3485.81122,0.01709
3483.75105,0.01715
3481.69088,0.01721
3479.63071,0.01725
3477.57053,0.01732
3475.51036,0.01745
3473.45019,0.01763
3471.39002,0.01789
3469.32984,0.01826
3467.26967,0.01870
3465.20950,0.01910
3463.14933,0.01938
3461.08916,0.01951
3459.02898,0.01950
3456.96881,0.01946
3454.90864,0.01951
3452.84847,0.01971
3450.78830,0.01998
3448.72812,0.02024
3446.66795,0.02046
3444.60778,0.02068
3442.54761,0.02086
3440.48744,0.02096
3438.42726,0.02100
3436.36709,0.02107
3434.30692,0.02123
3432.24675,0.02143
3430.18657,0.02165
3428.12640,0.02187
3426.06623,0.02207
3424.00606,0.02225
3421.94589,0.02237
3419.88571,0.02247
3417.82554,0.02254
3415.76537,0.02268
3413.70520,0.02292
3411.64503,0.02318
3409.58485,0.02327
3407.52468,0.02317
3405.46451,0.02299
3403.40434,0.02295
3401.34416,0.02310
3399.28399,0.02335
3397.22382,0.02353
3395.16365,0.02356
3393.10348,0.02354
3391.04330,0.02363
3388.98313,0.02387
3386.92296,0.02423
3384.86279,0.02461
3382.80262,0.02490
3380.74244,0.02503
3378.68227,0.02502
3376.62210,0.02496
3374.56193,0.02497
3372.50176,0.02505
3370.44158,0.02513
3368.38141,0.02508
3366.32124,0.02491
3364.26107,0.02475
3362.20089,0.02472
3360.14072,0.02486
3358.08055,0.02509
3356.02038,0.02526
3353.96021,0.02529
3351.90003,0.02526
3349.83986,0.02526
3347.77969,0.02532
3345.71952,0.02542
3343.65935,0.02559
3341.59917,0.02581
3339.53900,0.02607
3337.47883,0.02634
3335.41866,0.02655
3333.35849,0.02662
3331.29831,0.02659
3329.23814,0.02655
3327.17797,0.02655
3325.11780,0.02660
3323.05762,0.02665
3320.99745,0.02665
3318.93728,0.02658
3316.87711,0.02646
3314.81694,0.02635
3312.75676,0.02627
3310.69659,0.02622
3308.63642,0.02622
3306.57625,0.02629
3304.51608,0.02645
3302.45590,0.02667
3300.39573,0.02688
3298.33556,0.02704
3296.27539,0.02711
3294.21521,0.02708
3292.15504,0.02697
3290.09487,0.02689
3288.03470,0.02691
3285.97453,0.02702
3283.91435,0.02714
3281.85418,0.02717
3279.79401,0.02714
3277.73384,0.02713
3275.67367,0.02713
3273.61349,0.02708
3271.55332,0.02695
3269.49315,0.02679
3267.43298,0.02672
3265.37281,0.02677
3263.31263,0.02686
3261.25246,0.02689
3259.19229,0.02683
3257.13212,0.02669
3255.07194,0.02655
3253.01177,0.02644
3250.95160,0.02635
3248.89143,0.02625
3246.83126,0.02611
3244.77108,0.02601
3242.71091,0.02601
3240.65074,0.02614
3238.59057,0.02635
3236.53040,0.02649
3234.47022,0.02650
3232.41005,0.02643
3230.34988,0.02636
3228.28971,0.02628
3226.22954,0.02613
3224.16936,0.02591
3222.10919,0.02566
3220.04902,0.02543
3217.98885,0.02519
3215.92867,0.02496
3213.86850,0.02481
3211.80833,0.02474
3209.74816,0.02470
3207.68799,0.02462
3205.62781,0.02452
3203.56764,0.02440
3201.50747,0.02430
3199.44730,0.02422
3197.38713,0.02414
3195.32695,0.02404
3193.26678,0.02389
3191.20661,0.02371
3189.14644,0.02348
3187.08626,0.02328
3185.02609,0.02316
3182.96592,0.02311
3180.90575,0.02301
3178.84558,0.02279
3176.78540,0.02250
3174.72523,0.02219
3172.66506,0.02191
3170.60489,0.02167
3168.54472,0.02148
3166.48454,0.02133
3164.42437,0.02120
3162.36420,0.02109
3160.30403,0.02099
3158.24386,0.02084
3156.18368,0.02059
3154.12351,0.02027
3152.06334,0.02001
3150.00317,0.01988
3147.94299,0.01982
3145.88282,0.01970
3143.82265,0.01949
3141.76248,0.01923
3139.70231,0.01894
3137.64213,0.01870
3135.58196,0.01857
3133.52179,0.01853
3131.46162,0.01847
3129.40145,0.01830
3127.34127,0.01802
3125.28110,0.01773
3123.22093,0.01750
3121.16076,0.01731
3119.10058,0.01715
3117.04041,0.01700
3114.98024,0.01680
3112.92007,0.01656
3110.85990,0.01633
3108.79972,0.01620
3106.73955,0.01617
3104.67938,0.01611
3102.61921,0.01593
3100.55904,0.01563
3098.49886,0.01532
3096.43869,0.01507
3094.37852,0.01485
3092.31835,0.01460
3090.25818,0.01436
3088.19800,0.01420
3086.13783,0.01409
3084.07766,0.01396
3082.01749,0.01373
3079.95731,0.01346
3077.89714,0.01323
3075.83697,0.01310
3073.77680,0.01303
3071.71663,0.01294
3069.65645,0.01284
3067.59628,0.01275
3065.53611,0.01268
3063.47594,0.01260
3061.41577,0.01247
3059.35559,0.01230
3057.29542,0.01213
3055.23525,0.01197
3053.17508,0.01182
3051.11491,0.01169
3049.05473,0.01157
3046.99456,0.01141
3044.93439,0.01121
3042.87422,0.01105
3040.81404,0.01099
3038.75387,0.01098
3036.69370,0.01095
3034.63353,0.01080
3032.57336,0.01053
3030.51318,0.01023
3028.45301,0.00995
3026.39284,0.00973
3024.33267,0.00957
3022.27250,0.00945
3020.21232,0.00937
3018.15215,0.00932
3016.09198,0.00933
3014.03181,0.00937
3011.97163,0.00939
3009.91146,0.00936
3007.85129,0.00926
3005.79112,0.00912
3003.73095,0.00896
3001.67077,0.00882
2999.61060,0.00874
2997.55043,0.00874
2995.49026,0.00889
2993.43009,0.00916
2991.36991,0.00935
2989.30974,0.00940
2987.24957,0.00940
2985.18940,0.00950
2983.12923,0.00964
2981.06905,0.00963
2979.00888,0.00955
2976.94871,0.00953
2974.88854,0.00962
2972.82836,0.00986
2970.76819,0.01016
2968.70802,0.01042
2966.64785,0.01063
2964.58768,0.01086
2962.52750,0.01116
2960.46733,0.01151
2958.40716,0.01170
2956.34699,0.01172
2954.28682,0.01180
2952.22664,0.01200
2950.16647,0.01227
2948.10630,0.01254
2946.04613,0.01272
2943.98596,0.01288
2941.92578,0.01310
2939.86561,0.01331
2937.80544,0.01340
2935.74527,0.01343
2933.68509,0.01340
2931.62492,0.01330
2929.56475,0.01316
2927.50458,0.01302
2925.44441,0.01292
2923.38423,0.01292
2921.32406,0.01296
2919.26389,0.01287
2917.20372,0.01266
2915.14355,0.01249
2913.08337,0.01247
2911.02320,0.01253
2908.96303,0.01250
2906.90286,0.01242
2904.84268,0.01234
2902.78251,0.01221
2900.72234,0.01211
2898.66217,0.01214
2896.60200,0.01211
2894.54182,0.01193
2892.48165,0.01179
2890.42148,0.01179
2888.36131,0.01179
2886.30114,0.01173
2884.24096,0.01166
2882.18079,0.01160
2880.12062,0.01154
2878.06045,0.01151
2876.00028,0.01144
2873.94010,0.01122
2871.87993,0.01094
2869.81976,0.01078
2867.75959,0.01074
2865.69941,0.01057
2863.63924,0.01021
2861.57907,0.00985
2859.51890,0.00962
2857.45873,0.00947
2855.39855,0.00937
2853.33838,0.00924
2851.27821,0.00907
2849.21804,0.00894
2847.15787,0.00891
2845.09769,0.00891
2843.03752,0.00881
2840.97735,0.00861
2838.91718,0.00845
2836.85700,0.00843
2834.79683,0.00850
2832.73666,0.00855
2830.67649,0.00848
2828.61632,0.00826
2826.55614,0.00802
2824.49597,0.00782
2822.43580,0.00766
2820.37563,0.00755
2818.31546,0.00747
2816.25528,0.00738
2814.19511,0.00731
2812.13494,0.00733
2810.07477,0.00738
2808.01460,0.00735
2805.95442,0.00723
2803.89425,0.00716
2801.83408,0.00721
2799.77391,0.00724
2797.71373,0.00708
2795.65356,0.00684
2793.59339,0.00676
2791.53322,0.00687
2789.47305,0.00700
2787.41287,0.00696
2785.35270,0.00677
2783.29253,0.00659
2781.23236,0.00655
2779.17219,0.00651
2777.11201,0.00633
2775.05184,0.00615
2772.99167,0.00611
2770.93150,0.00618
2768.87133,0.00625
2766.81115,0.00627
2764.75098,0.00623
2762.69081,0.00613
2760.63064,0.00608
2758.57046,0.00618
2756.51029,0.00627
2754.45012,0.00625
2752.38995,0.00624
2750.32978,0.00630
2748.26960,0.00632
2746.20943,0.00619
2744.14926,0.00596
2742.08909,0.00578
2740.02892,0.00569
2737.96874,0.00561
2735.90857,0.00551
2733.84840,0.00550
2731.78823,0.00563
2729.72805,0.00579
2727.66788,0.00582
2725.60771,0.00569
2723.54754,0.00555
2721.48737,0.00556
2719.42719,0.00571
2717.36702,0.00582
2715.30685,0.00580
2713.24668,0.00571
2711.18651,0.00561
2709.12633,0.00554
2707.06616,0.00547
2705.00599,0.00532
2702.94582,0.00515
2700.88565,0.00512
2698.82547,0.00526
2696.76530,0.00536
2694.70513,0.00534
2692.64496,0.00533
2690.58478,0.00540
2688.52461,0.00542
2686.46444,0.00529
2684.40427,0.00513
2682.34410,0.00509
2680.28392,0.00521
2678.22375,0.00537
2676.16358,0.00549
2674.10341,0.00552
2672.04324,0.00546
2669.98306,0.00533
2667.92289,0.00520
2665.86272,0.00508
2663.80255,0.00491
2661.74238,0.00478
2659.68220,0.00476
2657.62203,0.00490
2655.56186,0.00512
2653.50169,0.00527
2651.44151,0.00528
2649.38134,0.00519
2647.32117,0.00507
2645.26100,0.00504
2643.20083,0.00505
2641.14065,0.00499
2639.08048,0.00486
2637.02031,0.00473
2634.96014,0.00471
2632.89997,0.00484
2630.83979,0.00501
2628.77962,0.00500
2626.71945,0.00476
2624.65928,0.00451
2622.59910,0.00439
2620.53893,0.00443
2618.47876,0.00452
2616.41859,0.00457
2614.35842,0.00456
2612.29824,0.00453
2610.23807,0.00454
2608.17790,0.00449
2606.11773,0.00427
2604.05756,0.00401
2601.99738,0.00387
2599.93721,0.00383
2597.87704,0.00389
2595.81687,0.00399
2593.75670,0.00402
2591.69652,0.00400
2589.63635,0.00402
2587.57618,0.00412
2585.51601,0.00422
2583.45583,0.00417
2581.39566,0.00395
2579.33549,0.00377
2577.27532,0.00374
2575.21515,0.00378
2573.15497,0.00370
2571.09480,0.00348
2569.03463,0.00332
2566.97446,0.00339
2564.91429,0.00356
2562.85411,0.00357
2560.79394,0.00335
2558.73377,0.00313
2556.67360,0.00303
2554.61342,0.00299
2552.55325,0.00304
2550.49308,0.00321
2548.43291,0.00332
2546.37274,0.00335
2544.31256,0.00343
2542.25239,0.00359
2540.19222,0.00377
2538.13205,0.00385
2536.07188,0.00372
2534.01170,0.00352
2531.95153,0.00343
2529.89136,0.00332
2527.83119,0.00308
2525.77102,0.00294
2523.71084,0.00297
2521.65067,0.00310
2519.59050,0.00334
2517.53033,0.00356
2515.47015,0.00354
2513.40998,0.00329
2511.34981,0.00301
2509.28964,0.00293
2507.22947,0.00310
2505.16929,0.00330
2503.10912,0.00340
2501.04895,0.00343
2498.98878,0.00351
2496.92861,0.00361
2494.86843,0.00359
2492.80826,0.00333
2490.74809,0.00296
2488.68792,0.00288
2486.62775,0.00317
2484.56757,0.00330
2482.50740,0.00301
2480.44723,0.00267
2478.38706,0.00265
2476.32688,0.00274
2474.26671,0.00268
2472.20654,0.00248
2470.14637,0.00236
2468.08620,0.00241
2466.02602,0.00253
2463.96585,0.00262
2461.90568,0.00276
2459.84551,0.00292
2457.78534,0.00293
2455.72516,0.00281
2453.66499,0.00278
2451.60482,0.00278
2449.54465,0.00255
2447.48447,0.00224
2445.42430,0.00221
2443.36413,0.00248
2441.30396,0.00263
2439.24379,0.00255
2437.18361,0.00246
2435.12344,0.00249
2433.06327,0.00251
2431.00310,0.00240
2428.94293,0.00228
2426.88275,0.00231
2424.82258,0.00244
2422.76241,0.00241
2420.70224,0.00219
2418.64207,0.00207
2416.58189,0.00220
2414.52172,0.00235
2412.46155,0.00236
2410.40138,0.00225
2408.34120,0.00214
2406.28103,0.00215
2404.22086,0.00225
2402.16069,0.00235
2400.10052,0.00236
2398.04034,0.00228
2395.98017,0.00217
2393.92000,0.00205
2391.85983,0.00197
2389.79966,0.00197
2387.73948,0.00210
2385.67931,0.00231
2383.61914,0.00256
2381.55897,0.00281
2379.49880,0.00303
2377.43862,0.00320
2375.37845,0.00322
2373.31828,0.00302
2371.25811,0.00263
2369.19793,0.00235
2367.13776,0.00242
2365.07759,0.00271
2363.01742,0.00271
2360.95725,0.00203
2358.89707,0.00091
2356.83690,0.00014
2354.77673,0.00040
2352.71656,0.00149
2350.65639,0.00263
2348.59621,0.00334
2346.53604,0.00371
2344.47587,0.00403
2342.41570,0.00428
2340.35552,0.00421
2338.29535,0.00376
2336.23518,0.00323
2334.17501,0.00291
2332.11484,0.00294
2330.05466,0.00327
2327.99449,0.00374
2325.93432,0.00424
2323.87415,0.00461
2321.81398,0.00457
2319.75380,0.00404
2317.69363,0.00335
2315.63346,0.00290
2313.57329,0.00283
2311.51312,0.00298
2309.45294,0.00307
2307.39277,0.00300
2305.33260,0.00289
2303.27243,0.00284
2301.21225,0.00275
2299.15208,0.00251
2297.09191,0.00225
2295.03174,0.00224
2292.97157,0.00255
2290.91139,0.00299
2288.85122,0.00326
2286.79105,0.00331
2284.73088,0.00329
2282.67071,0.00334
2280.61053,0.00344
2278.55036,0.00348
2276.49019,0.00331
2274.43002,0.00299
2272.36984,0.00271
2270.30967,0.00260
2268.24950,0.00257
2266.18933,0.00252
2264.12916,0.00243
2262.06898,0.00243
2260.00881,0.00258
2257.94864,0.00273
2255.88847,0.00272
2253.82830,0.00259
2251.76812,0.00247
2249.70795,0.00229
2247.64778,0.00191
2245.58761,0.00158
2243.52744,0.00151
2241.46726,0.00151
2239.40709,0.00163
2237.34692,0.00196
2235.28675,0.00231
2233.22657,0.00239
2231.16640,0.00227
2229.10623,0.00222
2227.04606,0.00227
2224.98589,0.00220
2222.92571,0.00198
2220.86554,0.00210
2218.80537,0.00299
2216.74520,0.00417
2214.68503,0.00465
2212.62485,0.00419
2210.56468,0.00333
2208.50451,0.00272
2206.44434,0.00279
2204.38417,0.00326
2202.32399,0.00330
2200.26382,0.00270
2198.20365,0.00214
2196.14348,0.00211
2194.08330,0.00216
2192.02313,0.00191
2189.96296,0.00182
2187.90279,0.00243
2185.84262,0.00324
2183.78244,0.00377
2181.72227,0.00445
2179.66210,0.00537
2177.60193,0.00532
2175.54176,0.00395
2173.48158,0.00263
2171.42141,0.00207
2169.36124,0.00181
2167.30107,0.00184
2165.24089,0.00235
2163.18072,0.00283
2161.12055,0.00288
2159.06038,0.00270
2157.00021,0.00226
2154.94003,0.00131
2152.87986,0.00025
2150.81969,0.00002
2148.75952,0.00051
2146.69935,0.00066
2144.63917,0.00038
2142.57900,0.00036
2140.51883,0.00076
2138.45866,0.00106
2136.39849,0.00092
2134.33831,0.00061
2132.27814,0.00043
2130.21797,0.00054
2128.15780,0.00112
2126.09762,0.00223
2124.03745,0.00335
2121.97728,0.00381
2119.91711,0.00351
2117.85694,0.00304
2115.79676,0.00270
2113.73659,0.00230
2111.67642,0.00192
2109.61625,0.00186
2107.55608,0.00218
2105.49590,0.00267
2103.43573,0.00320
2101.37556,0.00360
2099.31539,0.00365
2097.25521,0.00332
2095.19504,0.00267
2093.13487,0.00192
2091.07470,0.00136
2089.01453,0.00126
2086.95435,0.00163
2084.89418,0.00227
2082.83401,0.00292
2080.77384,0.00337
2078.71367,0.00349
2076.65349,0.00328
2074.59332,0.00297
2072.53315,0.00285
2070.47298,0.00297
2068.41281,0.00316
2066.35263,0.00324
2064.29246,0.00316
2062.23229,0.00304
2060.17212,0.00300
2058.11194,0.00308
2056.05177,0.00325
2053.99160,0.00330
2051.93143,0.00304
2049.87126,0.00253
2047.81108,0.00212
2045.75091,0.00197
2043.69074,0.00209
2041.63057,0.00236
2039.57040,0.00255
2037.51022,0.00248
2035.45005,0.00223
2033.38988,0.00204
2031.32971,0.00198
2029.26954,0.00189
2027.20936,0.00165
2025.14919,0.00127
2023.08902,0.00097
2021.02885,0.00100
2018.96867,0.00135
2016.90850,0.00179
2014.84833,0.00212
2012.78816,0.00219
2010.72799,0.00183
2008.66781,0.00109
2006.60764,0.00032
2004.54747,0.00000
2002.48730,0.00034
2000.42713,0.00115
1998.36695,0.00201
1996.30678,0.00254
1994.24661,0.00264
1992.18644,0.00242
1990.12626,0.00208
1988.06609,0.00184
1986.00592,0.00182
1983.94575,0.00203
1981.88558,0.00224
1979.82540,0.00219
1977.76523,0.00181
1975.70506,0.00141
1973.64489,0.00136
1971.58472,0.00173
1969.52454,0.00219
1967.46437,0.00238
1965.40420,0.00227
1963.34403,0.00214
1961.28386,0.00219
1959.22368,0.00236
1957.16351,0.00248
1955.10334,0.00246
1953.04317,0.00240
1950.98299,0.00241
1948.92282,0.00248
1946.86265,0.00249
1944.80248,0.00237
1942.74231,0.00215
1940.68213,0.00185
1938.62196,0.00149
1936.56179,0.00110
1934.50162,0.00075
1932.44145,0.00051
1930.38127,0.00041
1928.32110,0.00044
1926.26093,0.00060
1924.20076,0.00090
1922.14059,0.00130
1920.08041,0.00171
1918.02024,0.00193
1915.96007,0.00183
1913.89990,0.00153
1911.83972,0.00135
1909.77955,0.00143
1907.71938,0.00159
1905.65921,0.00153
1903.59904,0.00118
1901.53886,0.00074
1899.47869,0.00042
1897.41852,0.00038
1895.35835,0.00057
1893.29818,0.00080
1891.23800,0.00090
1889.17783,0.00087
1887.11766,0.00082
1885.05749,0.00080
1882.99731,0.00081
1880.93714,0.00084
1878.87697,0.00090
1876.81680,0.00098
1874.75663,0.00105
1872.69645,0.00108
1870.63628,0.00107
1868.57611,0.00103
1866.51594,0.00093
1864.45577,0.00080
1862.39559,0.00070
1860.33542,0.00065
1858.27525,0.00063
1856.21508,0.00060
1854.15491,0.00056
1852.09473,0.00050
1850.03456,0.00047
1847.97439,0.00050
1845.91422,0.00054
1843.85404,0.00051
1841.79387,0.00040
1839.73370,0.00024
1837.67353,0.00009
1835.61336,0.00000
1833.55318,0.00000
1831.49301,0.00006
1829.43284,0.00016
1827.37267,0.00027
1825.31250,0.00043
1823.25232,0.00058
1821.19215,0.00061
1819.13198,0.00052
1817.07181,0.00043
1815.01163,0.00040
1812.95146,0.00036
1810.89129,0.00022
1808.83112,0.00004
1806.77095,-0.00008
1804.71077,-0.00009
1802.65060,-0.00001
1800.59043,0.00007
1798.53026,0.00010
1796.47009,0.00012
1794.40991,0.00015
1792.34974,0.00017
1790.28957,0.00021
1788.22940,0.00027
1786.16923,0.00031
1784.10905,0.00027
1782.04888,0.00015
1779.98871,0.00005
1777.92854,0.00005
1775.86836,0.00012
1773.80819,0.00015
1771.74802,0.00009
1769.68785,0.00004
1767.62768,0.00007
1765.56750,0.00018
1763.50733,0.00040
1761.44716,0.00073
1759.38699,0.00116
1757.32682,0.00167
1755.26664,0.00219
1753.20647,0.00271
1751.14630,0.00317
1749.08613,0.00355
1747.02596,0.00385
1744.96578,0.00412
1742.90561,0.00436
1740.84544,0.00459
1738.78527,0.00480
1736.72509,0.00503
1734.66492,0.00526
1732.60475,0.00539
1730.54458,0.00534
1728.48441,0.00514
1726.42423,0.00491
1724.36406,0.00472
1722.30389,0.00458
1720.24372,0.00447
1718.18355,0.00435
1716.12337,0.00408
1714.06320,0.00360
1712.00303,0.00308
1709.94286,0.00269
1707.88268,0.00252
1705.82251,0.00251
1703.76234,0.00258
1701.70217,0.00259
1699.64200,0.00246
1697.58182,0.00223
1695.52165,0.00200
1693.46148,0.00189
1691.40131,0.00198
1689.34114,0.00226
1687.28096,0.00261
1685.22079,0.00293
1683.16062,0.00321
1681.10045,0.00351
1679.04028,0.00387
1676.98010,0.00426
1674.91993,0.00460
1672.85976,0.00488
1670.79959,0.00514
1668.73941,0.00542
1666.67924,0.00573
1664.61907,0.00609
1662.55890,0.00646
1660.49873,0.00684
1658.43855,0.00723
1656.37838,0.00763
1654.31821,0.00799
1652.25804,0.00831
1650.19787,0.00863
1648.13769,0.00893
1646.07752,0.00916
1644.01735,0.00933
1641.95718,0.00955
1639.89701,0.00981
1637.83683,0.01005
1635.77666,0.01022
1633.71649,0.01034
1631.65632,0.01047
1629.59614,0.01060
1627.53597,0.01071
1625.47580,0.01080
1623.41563,0.01093
1621.35546,0.01108
1619.29528,0.01120
1617.23511,0.01121
1615.17494,0.01108
1613.11477,0.01087
1611.05460,0.01060
1608.99442,0.01029
1606.93425,0.00995
1604.87408,0.00960
1602.81391,0.00921
1600.75373,0.00871
1598.69356,0.00812
1596.63339,0.00747
1594.57322,0.00681
1592.51305,0.00618
1590.45287,0.00561
1588.39270,0.00509
1586.33253,0.00459
1584.27236,0.00414
1582.21219,0.00375
1580.15201,0.00345
1578.09184,0.00317
1576.03167,0.00285
1573.97150,0.00250
1571.91133,0.00220
1569.85115,0.00194
1567.79098,0.00170
1565.73081,0.00150
1563.67064,0.00139
1561.61046,0.00137
1559.55029,0.00138
1557.49012,0.00130
1555.42995,0.00112
1553.36978,0.00091
1551.30960,0.00075
1549.24943,0.00067
1547.18926,0.00067
1545.12909,0.00073
1543.06892,0.00080
1541.00874,0.00080
1538.94857,0.00067
1536.88840,0.00046
1534.82823,0.00029
1532.76805,0.00019
1530.70788,0.00015
1528.64771,0.00021
1526.58754,0.00033
1524.52737,0.00042
1522.46719,0.00040
1520.40702,0.00027
1518.34685,0.00010
1516.28668,0.00000
1514.22651,0.00000
1512.16633,0.00008
1510.10616,0.00017
1508.04599,0.00023
1505.98582,0.00024
1503.92565,0.00025
1501.86547,0.00030
1499.80530,0.00038
1497.74513,0.00044
1495.68496,0.00045
1493.62478,0.00044
1491.56461,0.00043
1489.50444,0.00040
1487.44427,0.00038
1485.38410,0.00045
1483.32392,0.00065
1481.26375,0.00096
1479.20358,0.00135
1477.14341,0.00181
1475.08324,0.00233
1473.02306,0.00282
1470.96289,0.00320
1468.90272,0.00350
1466.84255,0.00379
1464.78238,0.00412
1462.72220,0.00452
1460.66203,0.00496
1458.60186,0.00533
1456.54169,0.00552
1454.48151,0.00558
1452.42134,0.00565
1450.36117,0.00581
1448.30100,0.00598
1446.24083,0.00612
1444.18065,0.00625
1442.12048,0.00647
1440.06031,0.00680
1438.00014,0.00717
1435.93997,0.00745
1433.87979,0.00762
1431.81962,0.00778
1429.75945,0.00800
1427.69928,0.00832
1425.63910,0.00869
1423.57893,0.00904
1421.51876,0.00931
1419.45859,0.00948
1417.39842,0.00956
1415.33824,0.00959
1413.27807,0.00957
1411.21790,0.00953
1409.15773,0.00949
1407.09756,0.00943
1405.03738,0.00933
1402.97721,0.00915
1400.91704,0.00893
1398.85687,0.00872
1396.79670,0.00857
1394.73652,0.00842
1392.67635,0.00828
1390.61618,0.00819
1388.55601,0.00815
1386.49583,0.00818
1384.43566,0.00825
1382.37549,0.00837
1380.31532,0.00852
1378.25515,0.00873
1376.19497,0.00899
1374.13480,0.00925
1372.07463,0.00946
1370.01446,0.00957
1367.95429,0.00956
1365.89411,0.00941
1363.83394,0.00919
1361.77377,0.00895
1359.71360,0.00870
1357.65343,0.00848
1355.59325,0.00834
1353.53308,0.00825
1351.47291,0.00816
1349.41274,0.00807
1347.35256,0.00798
1345.29239,0.00791
1343.23222,0.00783
1341.17205,0.00774
1339.11188,0.00764
1337.05170,0.00752
1334.99153,0.00742
1332.93136,0.00738
1330.87119,0.00741
1328.81102,0.00747
1326.75084,0.00755
1324.69067,0.00766
1322.63050,0.00778
1320.57033,0.00787
1318.51015,0.00791
1316.44998,0.00790
1314.38981,0.00787
1312.32964,0.00784
1310.26947,0.00779
1308.20929,0.00767
1306.14912,0.00749
1304.08895,0.00727
1302.02878,0.00707
1299.96861,0.00692
1297.90843,0.00682
1295.84826,0.00676
1293.78809,0.00672
1291.72792,0.00663
1289.66775,0.00648
1287.60757,0.00631
1285.54740,0.00619
1283.48723,0.00618
1281.42706,0.00625
1279.36688,0.00637
1277.30671,0.00648
1275.24654,0.00654
1273.18637,0.00658
1271.12620,0.00664
1269.06602,0.00683
1267.00585,0.00718
1264.94568,0.00767
1262.88551,0.00823
1260.82534,0.00872
1258.76516,0.00908
1256.70499,0.00929
1254.64482,0.00941
1252.58465,0.00951
1250.52447,0.00962
1248.46430,0.00969
1246.40413,0.00969
1244.34396,0.00962
1242.28379,0.00952
1240.22361,0.00943
1238.16344,0.00933
1236.10327,0.00916
1234.04310,0.00887
1231.98293,0.00846
1229.92275,0.00800
1227.86258,0.00755
1225.80241,0.00719
1223.74224,0.00693
1221.68207,0.00669
1219.62189,0.00641
1217.56172,0.00606
1215.50155,0.00566
1213.44138,0.00523
1211.38120,0.00476
1209.32103,0.00422
1207.26086,0.00359
1205.20069,0.00292
1203.14052,0.00229
1201.08034,0.00179
1199.02017,0.00138
1196.96000,0.00097
1194.89983,0.00053
1192.83966,0.00019
1190.77948,0.00007
1188.71931,0.00005
1186.65914,0.00000
1184.59897,-0.00007
1182.53880,0.00007
1180.47862,0.00047
1178.41845,0.00104
1176.35828,0.00168
1174.29811,0.00233
1172.23793,0.00297
1170.17776,0.00362
1168.11759,0.00431
1166.05742,0.00501
1163.99725,0.00556
1161.93707,0.00593
1159.87690,0.00633
1157.81673,0.00691
1155.75656,0.00750
1153.69639,0.00803
1151.63621,0.00853
1149.57604,0.00906
1147.51587,0.00955
1145.45570,0.00994
1143.39552,0.01024
1141.33535,0.01044
1139.27518,0.01058
1137.21501,0.01076
1135.15484,0.01100
1133.09466,0.01130
1131.03449,0.01160
1128.97432,0.01192
1126.91415,0.01240
1124.85398,0.01301
1122.79380,0.01365
1120.73363,0.01425
1118.67346,0.01473
1116.61329,0.01507
1114.55312,0.01547
1112.49294,0.01605
1110.43277,0.01659
1108.37260,0.01691
1106.31243,0.01719
1104.25225,0.01765
1102.19208,0.01827
1100.13191,0.01906
1098.07174,0.02001
1096.01157,0.02094
1093.95139,0.02176
1091.89122,0.02256
1089.83105,0.02342
1087.77088,0.02423
1085.71071,0.02480
1083.65053,0.02528
1081.59036,0.02598
1079.53019,0.02676
1077.47002,0.02734
1075.40985,0.02783
1073.34967,0.02845
1071.28950,0.02918
1069.22933,0.02986
1067.16916,0.03035
1065.10898,0.03063
1063.04881,0.03082
1060.98864,0.03111
1058.92847,0.03159
1056.86830,0.03206
1054.80812,0.03232
1052.74795,0.03259
1050.68778,0.03300
1048.62761,0.03342
1046.56744,0.03385
1044.50726,0.03448
1042.44709,0.03520
1040.38692,0.03568
1038.32675,0.03588
1036.26657,0.03599
1034.20640,0.03624
1032.14623,0.03664
1030.08606,0.03690
1028.02589,0.03690
1025.96571,0.03678
1023.90554,0.03679
1021.84537,0.03694
1019.78520,0.03715
1017.72503,0.03738
1015.66485,0.03752
1013.60468,0.03745
1011.54451,0.03723
1009.48434,0.03706
1007.42417,0.03687
1005.36399,0.03650
1003.30382,0.03601
1001.24365,0.03560
999.18348,0.03534
997.12330,0.03505
995.06313,0.03455
993.00296,0.03398
990.94279,0.03361
988.88262,0.03347
986.82244,0.03329
984.76227,0.03285
982.70210,0.03231
980.64193,0.03191
978.58176,0.03159
976.52158,0.03125
974.46141,0.03088
972.40124,0.03048
970.34107,0.03006
968.28089,0.02966
966.22072,0.02922
964.16055,0.02870
962.10038,0.02815
960.04021,0.02762
957.98003,0.02713
955.91986,0.02678
953.85969,0.02665
951.79952,0.02646
949.73935,0.02609
947.67917,0.02570
945.61900,0.02523
943.55883,0.02436
941.49866,0.02304
939.43849,0.02159
937.37831,0.02026
935.31814,0.01902
933.25797,0.01772
931.19780,0.01633
929.13762,0.01497
927.07745,0.01375
925.01728,0.01270
922.95711,0.01173
920.89694,0.01080
918.83676,0.01004
916.77659,0.00945
914.71642,0.00885
912.65625,0.00823
910.59608,0.00775
908.53590,0.00747
906.47573,0.00732
904.41556,0.00719
902.35539,0.00714
900.29522,0.00713
898.23504,0.00710
896.17487,0.00702
894.11470,0.00682
892.05453,0.00645
889.99435,0.00609
887.93418,0.00585
885.87401,0.00565
883.81384,0.00535
881.75367,0.00505
879.69349,0.00488
877.63332,0.00480
875.57315,0.00460
873.51298,0.00419
871.45281,0.00372
869.39263,0.00340
867.33246,0.00321
865.27229,0.00295
863.21212,0.00264
861.15194,0.00242
859.09177,0.00225
857.03160,0.00218
854.97143,0.00232
852.91126,0.00257
850.85108,0.00257
848.79091,0.00210
846.73074,0.00143
844.67057,0.00106
842.61040,0.00107
840.55022,0.00110
838.49005,0.00098
836.42988,0.00089
834.36971,0.00106
832.30954,0.00131
830.24936,0.00120
828.18919,0.00062
826.12902,0.00000
824.06885,-0.00008
822.00867,0.00024
819.94850,0.00044
817.88833,0.00058
815.82816,0.00109
813.76799,0.00200
811.70781,0.00278
809.64764,0.00295
807.58747,0.00259
805.52730,0.00220
803.46713,0.00203
801.40695,0.00196
799.34678,0.00179
797.28661,0.00145
795.22644,0.00087
793.16627,0.00026
791.10609,0.00003
789.04592,0.00032
786.98575,0.00092
784.92558,0.00144
782.86540,0.00146
780.80523,0.00094
778.74506,0.00041
776.68489,0.00044
774.62472,0.00088
772.56454,0.00110
770.50437,0.00102
768.44420,0.00097
766.38403,0.00100
764.32386,0.00095
762.26368,0.00086
760.20351,0.00091
758.14334,0.00108
756.08317,0.00128
754.02299,0.00145
751.96282,0.00159
749.90265,0.00163
747.84248,0.00147
745.78231,0.00123
743.72213,0.00109
741.66196,0.00115
739.60179,0.00138
737.54162,0.00140
735.48145,0.00096
733.42127,0.00041
731.36110,0.00000
729.30093,-0.00016
727.24076,0.00005
725.18059,0.00028
723.12041,0.00048
721.06024,0.00090
719.00007,0.00152
716.93990,0.00200
714.87972,0.00214
712.81955,0.00214
710.75938,0.00231
708.69921,0.00255
706.63904,0.00264
704.57886,0.00256
702.51869,0.00251
700.45852,0.00257
698.39835,0.00270
696.33818,0.00291
694.27800,0.00316
692.21783,0.00341
690.15766,0.00356
688.09749,0.00353
686.03731,0.00327
683.97714,0.00283
681.91697,0.00233
679.85680,0.00175
677.79663,0.00108
675.73645,0.00044
673.67628,0.00000
671.61611,-0.00009
669.55594,0.00026
667.49577,0.00092
665.43559,0.00163
663.37542,0.00231
661.31525,0.00290
659.25508,0.00314
657.19491,0.00290
655.13473,0.00247
653.07456,0.00224
651.01439,0.00234
648.95422,0.00277
646.89404,0.00340
644.83387,0.00386
642.77370,0.00389
640.71353,0.00361
638.65336,0.00328
636.59318,0.00280
634.53301,0.00202
632.47284,0.00108
630.41267,0.00029
628.35250,0.00000
626.29232,0.00056
624.23215,0.00179
622.17198,0.00242
620.11181,0.00204
618.05164,0.00209
615.99146,0.00320
613.93129,0.00381
611.87112,0.00334
609.81095,0.00306
607.75077,0.00331
605.69060,0.00259
603.63043,0.00071
601.57026,-0.00036
599.51009,0.00000
