3996.73391,0.00110
3994.67373,0.00107
3992.61356,0.00096
3990.55339,0.00077
3988.49322,0.00056
3986.43305,0.00034
3984.37287,0.00012
3982.31270,0.00000
3980.25253,0.00004
3978.19236,0.00022
3976.13219,0.00044
3974.07201,0.00058
3972.01184,0.00059
3969.95167,0.00052
3967.89150,0.00043
3965.83133,0.00036
3963.77115,0.00032
3961.71098,0.00031
3959.65081,0.00034
3957.59064,0.00040
3955.53046,0.00046
3953.47029,0.00052
3951.41012,0.00058
3949.34995,0.00062
3947.28978,0.00058
3945.22960,0.00043
3943.16943,0.00022
3941.10926,0.00003
3939.04909,-0.00005
3936.98892,-0.00003
3934.92874,0.00006
3932.86857,0.00021
3930.80840,0.00036
3928.74823,0.00047
3926.68805,0.00053
3924.62788,0.00054
3922.56771,0.00055
3920.50754,0.00057
3918.44737,0.00052
3916.38719,0.00038
3914.32702,0.00022
3912.26685,0.00016
3910.20668,0.00027
3908.14651,0.00042
3906.08633,0.00043
3904.02616,0.00026
3901.96599,0.00007
3899.90582,0.00000
3897.84565,0.00005
3895.78547,0.00014
3893.72530,0.00019
3891.66513,0.00013
3889.60496,0.00002
3887.54478,0.00000
3885.48461,0.00017
3883.42444,0.00050
3881.36427,0.00083
3879.30410,0.00096
3877.24392,0.00082
3875.18375,0.00052
3873.12358,0.00024
3871.06341,0.00010
3869.00324,0.00010
3866.94306,0.00020
3864.88289,0.00030
3862.82272,0.00032
3860.76255,0.00025
3858.70237,0.00015
3856.64220,0.00011
3854.58203,0.00023
3852.52186,0.00051
3850.46169,0.00080
3848.40151,0.00103
3846.34134,0.00119
3844.28117,0.00125
3842.22100,0.00124
3840.16083,0.00121
3838.10065,0.00124
3836.04048,0.00129
3833.98031,0.00120
3831.92014,0.00095
3829.85997,0.00069
3827.79979,0.00054
3825.73962,0.00055
3823.67945,0.00069
3821.61928,0.00087
3819.55910,0.00097
3817.49893,0.00094
3815.43876,0.00083
3813.37859,0.00072
3811.31842,0.00063
3809.25824,0.00060
3807.19807,0.00059
3805.13790,0.00055
3803.07773,0.00048
3801.01756,0.00046
3798.95738,0.00052
3796.89721,0.00061
3794.83704,0.00068
3792.77687,0.00074
3790.71670,0.00076
3788.65652,0.00074
3786.59635,0.00075
3784.53618,0.00083
3782.47601,0.00097
3780.41583,0.00109
3778.35566,0.00110
3776.29549,0.00098
3774.23532,0.00077
3772.17515,0.00059
3770.11497,0.00050
3768.05480,0.00049
3765.99463,0.00050
3763.93446,0.00046
3761.87429,0.00035
3759.81411,0.00029
3757.75394,0.00038
3755.69377,0.00059
3753.63360,0.00081
3751.57342,0.00104
3749.51325,0.00136
3747.45308,0.00169
3745.39291,0.00184
3743.33274,0.00166
3741.27256,0.00132
3739.21239,0.00105
3737.15222,0.00101
3735.09205,0.00113
3733.03188,0.00122
3730.97170,0.00115
3728.91153,0.00102
3726.85136,0.00096
3724.79119,0.00097
3722.73102,0.00098
3720.67084,0.00098
3718.61067,0.00098
3716.55050,0.00098
3714.49033,0.00102
3712.43015,0.00111
3710.36998,0.00118
3708.30981,0.00116
3706.24964,0.00111
3704.18947,0.00109
3702.12929,0.00119
3700.06912,0.00143
3698.00895,0.00172
3695.94878,0.00183
3693.88861,0.00167
3691.82843,0.00130
3689.76826,0.00095
3687.70809,0.00079
3685.64792,0.00082
3683.58775,0.00087
3681.52757,0.00087
3679.46740,0.00085
3677.40723,0.00086
3675.34706,0.00092
3673.28688,0.00095
3671.22671,0.00089
3669.16654,0.00080
3667.10637,0.00086
3665.04620,0.00113
3662.98602,0.00147
3660.92585,0.00174
3658.86568,0.00196
3656.80551,0.00217
3654.74534,0.00245
3652.68516,0.00278
3650.62499,0.00302
3648.56482,0.00303
3646.50465,0.00282
3644.44447,0.00259
3642.38430,0.00252
3640.32413,0.00263
3638.26396,0.00283
3636.20379,0.00298
3634.14361,0.00308
3632.08344,0.00321
3630.02327,0.00350
3627.96310,0.00388
3625.90293,0.00412
3623.84275,0.00419
3621.78258,0.00417
3619.72241,0.00419
3617.66224,0.00433
3615.60207,0.00458
3613.54189,0.00486
3611.48172,0.00514
3609.42155,0.00538
3607.36138,0.00555
3605.30120,0.00565
3603.24103,0.00576
3601.18086,0.00597
3599.12069,0.00627
3597.06052,0.00654
3595.00034,0.00677
3592.94017,0.00697
3590.88000,0.00709
3588.81983,0.00703
3586.75966,0.00681
3584.69948,0.00657
3582.63931,0.00649
3580.57914,0.00665
3578.51897,0.00701
3576.45879,0.00747
3574.39862,0.00798
3572.33845,0.00848
3570.27828,0.00889
3568.21811,0.00907
3566.15793,0.00905
3564.09776,0.00903
3562.03759,0.00918
3559.97742,0.00946
3557.91725,0.00976
3555.85707,0.00998
3553.79690,0.01009
3551.73673,0.01012
3549.67656,0.01023
3547.61639,0.01051
3545.55621,0.01085
3543.49604,0.01105
3541.43587,0.01109
3539.37570,0.01108
3537.31552,0.01113
3535.25535,0.01126
3533.19518,0.01142
3531.13501,0.01164
3529.07484,0.01194
3527.01466,0.01229
3524.95449,0.01265
3522.89432,0.01297
3520.83415,0.01322
3518.77398,0.01344
3516.71380,0.01369
3514.65363,0.01397
3512.59346,0.01426
3510.53329,0.01451
3508.47312,0.01471
3506.41294,0.01485
3504.35277,0.01493
3502.29260,0.01499
3500.23243,0.01507
3498.17225,0.01523
3496.11208,0.01544
3494.05191,0.01563
3491.99174,0.01571
3489.93157,0.01577
3487.87139,0.01594
3485.81122,0.01626
3483.75105,0.01664
3481.69088,0.01692
3479.63071,0.01711
3477.57053,0.01728
3475.51036,0.01743
3473.45019,0.01752
3471.39002,0.01761
3469.32984,0.01777
3467.26967,0.01798
3465.20950,0.01825
3463.14933,0.01855
3461.08916,0.01879
3459.02898,0.01886
3456.96881,0.01878
3454.90864,0.01870
3452.84847,0.01873
3450.78830,0.01889
3448.72812,0.01913
3446.66795,0.01941
3444.60778,0.01968
3442.54761,0.01988
3440.48744,0.02003
3438.42726,0.02015
3436.36709,0.02025
3434.30692,0.02032
3432.24675,0.02042
3430.18657,0.02060
3428.12640,0.02085
3426.06623,0.02112
3424.00606,0.02133
3421.94589,0.02148
3419.88571,0.02162
3417.82554,0.02177
3415.76537,0.02195
3413.70520,0.02215
3411.64503,0.02234
3409.58485,0.02239
3407.52468,0.02230
3405.46451,0.02217
3403.40434,0.02217
3401.34416,0.02234
3399.28399,0.02259
3397.22382,0.02270
3395.16365,0.02262
3393.10348,0.02249
3391.04330,0.02250
3388.98313,0.02271
3386.92296,0.02305
3384.86279,0.02339
3382.80262,0.02366
3380.74244,0.02385
3378.68227,0.02401
3376.62210,0.02413
3374.56193,0.02418
3372.50176,0.02416
3370.44158,0.02404
3368.38141,0.02384
3366.32124,0.02366
3364.26107,0.02359
3362.20089,0.02365
3360.14072,0.02384
3358.08055,0.02410
3356.02038,0.02432
3353.96021,0.02443
3351.90003,0.02446
3349.83986,0.02444
3347.77969,0.02443
3345.71952,0.02449
3343.65935,0.02466
3341.59917,0.02488
3339.53900,0.02505
3337.47883,0.02513
3335.41866,0.02515
3333.35849,0.02513
3331.29831,0.02510
3329.23814,0.02509
3327.17797,0.02512
3325.11780,0.02519
3323.05762,0.02530
3320.99745,0.02541
3318.93728,0.02546
3316.87711,0.02545
3314.81694,0.02543
3312.75676,0.02546
3310.69659,0.02549
3308.63642,0.02553
3306.57625,0.02561
3304.51608,0.02570
3302.45590,0.02575
3300.39573,0.02576
3298.33556,0.02580
3296.27539,0.02584
3294.21521,0.02587
3292.15504,0.02585
3290.09487,0.02582
3288.03470,0.02584
3285.97453,0.02594
3283.91435,0.02604
3281.85418,0.02601
3279.79401,0.02584
3277.73384,0.02566
3275.67367,0.02557
3273.61349,0.02553
3271.55332,0.02551
3269.49315,0.02554
3267.43298,0.02563
3265.37281,0.02571
3263.31263,0.02569
3261.25246,0.02554
3259.19229,0.02532
3257.13212,0.02517
3255.07194,0.02519
3253.01177,0.02534
3250.95160,0.02549
3248.89143,0.02555
3246.83126,0.02551
3244.77108,0.02541
3242.71091,0.02533
3240.65074,0.02534
3238.59057,0.02539
3236.53040,0.02537
3234.47022,0.02520
3232.41005,0.02496
3230.34988,0.02475
3228.28971,0.02462
3226.22954,0.02451
3224.16936,0.02443
3222.10919,0.02436
3220.04902,0.02427
3217.98885,0.02414
3215.92867,0.02398
3213.86850,0.02387
3211.80833,0.02381
3209.74816,0.02374
3207.68799,0.02363
3205.62781,0.02349
3203.56764,0.02332
3201.50747,0.02315
3199.44730,0.02300
3197.38713,0.02288
3195.32695,0.02277
3193.26678,0.02267
3191.20661,0.02254
3189.14644,0.02239
3187.08626,0.02226
3185.02609,0.02218
3182.96592,0.02213
3180.90575,0.02205
3178.84558,0.02191
3176.78540,0.02171
3174.72523,0.02146
3172.66506,0.02116
3170.60489,0.02087
3168.54472,0.02066
3166.48454,0.02052
3164.42437,0.02038
3162.36420,0.02022
3160.30403,0.02008
3158.24386,0.01992
3156.18368,0.01973
3154.12351,0.01950
3152.06334,0.01930
3150.00317,0.01915
3147.94299,0.01902
3145.88282,0.01887
3143.82265,0.01870
3141.76248,0.01850
3139.70231,0.01830
3137.64213,0.01813
3135.58196,0.01801
3133.52179,0.01790
3131.46162,0.01776
3129.40145,0.01756
3127.34127,0.01730
3125.28110,0.01705
3123.22093,0.01685
3121.16076,0.01669
3119.10058,0.01652
3117.04041,0.01632
3114.98024,0.01609
3112.92007,0.01586
3110.85990,0.01563
3108.79972,0.01545
3106.73955,0.01534
3104.67938,0.01523
3102.61921,0.01510
3100.55904,0.01494
3098.49886,0.01480
3096.43869,0.01465
3094.37852,0.01436
3092.31835,0.01394
3090.25818,0.01355
3088.19800,0.01336
3086.13783,0.01341
3084.07766,0.01355
3082.01749,0.01361
3079.95731,0.01351
3077.89714,0.01326
3075.83697,0.01298
3073.77680,0.01279
3071.71663,0.01271
3069.65645,0.01268
3067.59628,0.01263
3065.53611,0.01250
3063.47594,0.01225
3061.41577,0.01192
3059.35559,0.01159
3057.29542,0.01139
3055.23525,0.01132
3053.17508,0.01135
3051.11491,0.01139
3049.05473,0.01135
3046.99456,0.01119
3044.93439,0.01092
3042.87422,0.01065
3040.81404,0.01046
3038.75387,0.01034
3036.69370,0.01021
3034.63353,0.01000
3032.57336,0.00979
3030.51318,0.00965
3028.45301,0.00960
3026.39284,0.00957
3024.33267,0.00953
3022.27250,0.00948
3020.21232,0.00944
3018.15215,0.00937
3016.09198,0.00930
3014.03181,0.00923
3011.97163,0.00916
3009.91146,0.00906
3007.85129,0.00894
3005.79112,0.00884
3003.73095,0.00878
3001.67077,0.00874
2999.61060,0.00871
2997.55043,0.00869
2995.49026,0.00877
2993.43009,0.00898
2991.36991,0.00923
2989.30974,0.00941
2987.24957,0.00947
2985.18940,0.00946
2983.12923,0.00942
2981.06905,0.00934
2979.00888,0.00924
2976.94871,0.00916
2974.88854,0.00918
2972.82836,0.00941
2970.76819,0.00985
2968.70802,0.01033
2966.64785,0.01062
2964.58768,0.01074
2962.52750,0.01087
2960.46733,0.01116
2958.40716,0.01144
2956.34699,0.01161
2954.28682,0.01175
2952.22664,0.01193
2950.16647,0.01223
2948.10630,0.01256
2946.04613,0.01275
2943.98596,0.01282
2941.92578,0.01293
2939.86561,0.01304
2937.80544,0.01306
2935.74527,0.01303
2933.68509,0.01298
2931.62492,0.01289
2929.56475,0.01278
2927.50458,0.01268
2925.44441,0.01269
2923.38423,0.01286
2921.32406,0.01299
2919.26389,0.01289
2917.20372,0.01259
2915.14355,0.01233
2913.08337,0.01233
2911.02320,0.01248
2908.96303,0.01249
2906.90286,0.01231
2904.84268,0.01212
2902.78251,0.01199
2900.72234,0.01192
2898.66217,0.01183
2896.60200,0.01166
2894.54182,0.01151
2892.48165,0.01151
2890.42148,0.01158
2888.36131,0.01161
2886.30114,0.01163
2884.24096,0.01170
2882.18079,0.01173
2880.12062,0.01167
2878.06045,0.01159
2876.00028,0.01152
2873.94010,0.01144
2871.87993,0.01132
2869.81976,0.01118
2867.75959,0.01094
2865.69941,0.01059
2863.63924,0.01024
2861.57907,0.00995
2859.51890,0.00969
2857.45873,0.00947
2855.39855,0.00938
2853.33838,0.00936
2851.27821,0.00927
2849.21804,0.00912
2847.15787,0.00905
2845.09769,0.00903
2843.03752,0.00886
2840.97735,0.00855
2838.91718,0.00835
2836.85700,0.00838
2834.79683,0.00853
2832.73666,0.00855
2830.67649,0.00842
2828.61632,0.00829
2826.55614,0.00824
2824.49597,0.00815
2822.43580,0.00793
2820.37563,0.00773
2818.31546,0.00772
2816.25528,0.00780
2814.19511,0.00784
2812.13494,0.00785
2810.07477,0.00783
2808.01460,0.00773
2805.95442,0.00754
2803.89425,0.00734
2801.83408,0.00730
2799.77391,0.00735
2797.71373,0.00731
2795.65356,0.00721
2793.59339,0.00722
2791.53322,0.00734
2789.47305,0.00743
2787.41287,0.00735
2785.35270,0.00706
2783.29253,0.00678
2781.23236,0.00672
2779.17219,0.00677
2777.11201,0.00680
2775.05184,0.00683
2772.99167,0.00689
2770.93150,0.00692
2768.87133,0.00685
2766.81115,0.00670
2764.75098,0.00652
2762.69081,0.00643
2760.63064,0.00650
2758.57046,0.00663
2756.51029,0.00662
2754.45012,0.00651
2752.38995,0.00653
2750.32978,0.00665
2748.26960,0.00670
2746.20943,0.00656
2744.14926,0.00631
2742.08909,0.00613
2740.02892,0.00606
2737.96874,0.00603
2735.90857,0.00601
2733.84840,0.00609
2731.78823,0.00632
2729.72805,0.00654
2727.66788,0.00656
2725.60771,0.00643
2723.54754,0.00636
2721.48737,0.00640
2719.42719,0.00639
2717.36702,0.00630
2715.30685,0.00620
2713.24668,0.00619
2711.18651,0.00629
2709.12633,0.00643
2707.06616,0.00642
2705.00599,0.00618
2702.94582,0.00590
2700.88565,0.00584
2698.82547,0.00594
2696.76530,0.00598
2694.70513,0.00591
2692.64496,0.00590
2690.58478,0.00597
2688.52461,0.00596
2686.46444,0.00579
2684.40427,0.00564
2682.34410,0.00563
2680.28392,0.00569
2678.22375,0.00570
2676.16358,0.00571
2674.10341,0.00576
2672.04324,0.00576
2669.98306,0.00572
2667.92289,0.00572
2665.86272,0.00572
2663.80255,0.00568
2661.74238,0.00558
2659.68220,0.00546
2657.62203,0.00547
2655.56186,0.00562
2653.50169,0.00569
2651.44151,0.00559
2649.38134,0.00550
2647.32117,0.00549
2645.26100,0.00552
2643.20083,0.00547
2641.14065,0.00534
2639.08048,0.00532
2637.02031,0.00545
2634.96014,0.00562
2632.89997,0.00578
2630.83979,0.00579
2628.77962,0.00553
2626.71945,0.00515
2624.65928,0.00485
2622.59910,0.00471
2620.53893,0.00470
2618.47876,0.00481
2616.41859,0.00498
2614.35842,0.00509
2612.29824,0.00501
2610.23807,0.00482
2608.17790,0.00471
2606.11773,0.00475
2604.05756,0.00488
2601.99738,0.00500
2599.93721,0.00497
2597.87704,0.00482
2595.81687,0.00466
2593.75670,0.00453
2591.69652,0.00451
2589.63635,0.00460
2587.57618,0.00468
2585.51601,0.00469
2583.45583,0.00463
2581.39566,0.00446
2579.33549,0.00432
2577.27532,0.00432
2575.21515,0.00434
2573.15497,0.00426
2571.09480,0.00412
2569.03463,0.00399
2566.97446,0.00389
2564.91429,0.00378
2562.85411,0.00360
2560.79394,0.00341
2558.73377,0.00343
2556.67360,0.00366
2554.61342,0.00379
2552.55325,0.00383
2550.49308,0.00401
2548.43291,0.00424
2546.37274,0.00434
2544.31256,0.00427
2542.25239,0.00416
2540.19222,0.00417
2538.13205,0.00430
2536.07188,0.00439
2534.01170,0.00432
2531.95153,0.00413
2529.89136,0.00395
2527.83119,0.00374
2525.77102,0.00346
2523.71084,0.00329
2521.65067,0.00346
2519.59050,0.00392
2517.53033,0.00424
2515.47015,0.00412
2513.40998,0.00380
2511.34981,0.00338
2509.28964,0.00294
2507.22947,0.00286
2505.16929,0.00329
2503.10912,0.00379
2501.04895,0.00396
2498.98878,0.00389
2496.92861,0.00374
2494.86843,0.00356
2492.80826,0.00351
2490.74809,0.00358
2488.68792,0.00369
2486.62775,0.00382
2484.56757,0.00390
2482.50740,0.00383
2480.44723,0.00372
2478.38706,0.00371
2476.32688,0.00376
2474.26671,0.00368
2472.20654,0.00348
2470.14637,0.00345
2468.08620,0.00362
2466.02602,0.00370
2463.96585,0.00366
2461.90568,0.00367
2459.84551,0.00375
2457.78534,0.00378
2455.72516,0.00371
2453.66499,0.00356
2451.60482,0.00341
2449.54465,0.00333
2447.48447,0.00333
2445.42430,0.00338
2443.36413,0.00334
2441.30396,0.00317
2439.24379,0.00313
2437.18361,0.00333
2435.12344,0.00349
2433.06327,0.00343
2431.00310,0.00323
2428.94293,0.00309
2426.88275,0.00311
2424.82258,0.00324
2422.76241,0.00332
2420.70224,0.00329
2418.64207,0.00328
2416.58189,0.00342
2414.52172,0.00360
2412.46155,0.00358
2410.40138,0.00329
2408.34120,0.00295
2406.28103,0.00277
2404.22086,0.00276
2402.16069,0.00287
2400.10052,0.00308
2398.04034,0.00327
2395.98017,0.00334
2393.92000,0.00328
2391.85983,0.00320
2389.79966,0.00314
2387.73948,0.00314
2385.67931,0.00318
2383.61914,0.00322
2381.55897,0.00323
2379.49880,0.00329
2377.43862,0.00349
2375.37845,0.00381
2373.31828,0.00411
2371.25811,0.00422
2369.19793,0.00397
2367.13776,0.00344
2365.07759,0.00293
2363.01742,0.00261
2360.95725,0.00230
2358.89707,0.00189
2356.83690,0.00167
2354.77673,0.00201
2352.71656,0.00281
2350.65639,0.00357
2348.59621,0.00395
2346.53604,0.00409
2344.47587,0.00424
2342.41570,0.00453
2340.35552,0.00484
2338.29535,0.00492
2336.23518,0.00458
2334.17501,0.00397
2332.11484,0.00364
2330.05466,0.00391
2327.99449,0.00456
2325.93432,0.00514
2323.87415,0.00535
2321.81398,0.00515
2319.75380,0.00467
2317.69363,0.00414
2315.63346,0.00381
2313.57329,0.00378
2311.51312,0.00388
2309.45294,0.00394
2307.39277,0.00392
2305.33260,0.00384
2303.27243,0.00374
2301.21225,0.00359
2299.15208,0.00342
2297.09191,0.00335
2295.03174,0.00343
2292.97157,0.00364
2290.91139,0.00387
2288.85122,0.00404
2286.79105,0.00416
2284.73088,0.00431
2282.67071,0.00450
2280.61053,0.00464
2278.55036,0.00458
2276.49019,0.00421
2274.43002,0.00362
2272.36984,0.00313
2270.30967,0.00299
2268.24950,0.00322
2266.18933,0.00355
2264.12916,0.00373
2262.06898,0.00368
2260.00881,0.00347
2257.94864,0.00318
2255.88847,0.00298
2253.82830,0.00294
2251.76812,0.00293
2249.70795,0.00278
2247.64778,0.00246
2245.58761,0.00240
2243.52744,0.00279
2241.46726,0.00324
2239.40709,0.00341
2237.34692,0.00349
2235.28675,0.00357
2233.22657,0.00356
2231.16640,0.00352
2229.10623,0.00345
2227.04606,0.00323
2224.98589,0.00278
2222.92571,0.00232
2220.86554,0.00244
2218.80537,0.00313
2216.74520,0.00347
2214.68503,0.00335
2212.62485,0.00349
2210.56468,0.00379
2208.50451,0.00383
2206.44434,0.00393
2204.38417,0.00426
2202.32399,0.00432
2200.26382,0.00404
2198.20365,0.00366
2196.14348,0.00323
2194.08330,0.00269
2192.02313,0.00259
2189.96296,0.00362
2187.90279,0.00495
2185.84262,0.00526
2183.78244,0.00475
2181.72227,0.00441
2179.66210,0.00436
2177.60193,0.00396
2175.54176,0.00329
2173.48158,0.00282
2171.42141,0.00212
2169.36124,0.00098
2167.30107,0.00049
2165.24089,0.00140
2163.18072,0.00271
2161.12055,0.00291
2159.06038,0.00188
2157.00021,0.00056
2154.94003,0.00000
2152.87986,0.00093
2150.81969,0.00274
2148.75952,0.00354
2146.69935,0.00261
2144.63917,0.00131
2142.57900,0.00081
2140.51883,0.00125
2138.45866,0.00204
2136.39849,0.00229
2134.33831,0.00180
2132.27814,0.00132
2130.21797,0.00161
2128.15780,0.00262
2126.09762,0.00369
2124.03745,0.00425
2121.97728,0.00430
2119.91711,0.00409
2117.85694,0.00392
2115.79676,0.00380
2113.73659,0.00351
2111.67642,0.00301
2109.61625,0.00264
2107.55608,0.00280
2105.49590,0.00332
2103.43573,0.00367
2101.37556,0.00369
2099.31539,0.00350
2097.25521,0.00327
2095.19504,0.00311
2093.13487,0.00305
2091.07470,0.00312
2089.01453,0.00332
2086.95435,0.00358
2084.89418,0.00373
2082.83401,0.00368
2080.77384,0.00350
2078.71367,0.00328
2076.65349,0.00305
2074.59332,0.00295
2072.53315,0.00317
2070.47298,0.00369
2068.41281,0.00420
2066.35263,0.00441
2064.29246,0.00426
2062.23229,0.00386
2060.17212,0.00338
2058.11194,0.00295
2056.05177,0.00274
2053.99160,0.00267
2051.93143,0.00249
2049.87126,0.00219
2047.81108,0.00208
2045.75091,0.00243
2043.69074,0.00319
2041.63057,0.00404
2039.57040,0.00462
2037.51022,0.00472
2035.45005,0.00430
2033.38988,0.00351
2031.32971,0.00268
2029.26954,0.00208
2027.20936,0.00172
2025.14919,0.00142
2023.08902,0.00115
2021.02885,0.00093
2018.96867,0.00068
2016.90850,0.00034
2014.84833,0.00002
2012.78816,0.00000
2010.72799,0.00033
2008.66781,0.00075
2006.60764,0.00096
2004.54747,0.00100
2002.48730,0.00106
2000.42713,0.00117
1998.36695,0.00135
1996.30678,0.00172
1994.24661,0.00229
1992.18644,0.00289
1990.12626,0.00334
1988.06609,0.00358
1986.00592,0.00366
1983.94575,0.00358
1981.88558,0.00328
1979.82540,0.00273
1977.76523,0.00199
1975.70506,0.00124
1973.64489,0.00076
1971.58472,0.00066
1969.52454,0.00082
1967.46437,0.00104
1965.40420,0.00124
1963.34403,0.00147
1961.28386,0.00161
1959.22368,0.00141
1957.16351,0.00096
1955.10334,0.00060
1953.04317,0.00056
1950.98299,0.00084
1948.92282,0.00121
1946.86265,0.00141
1944.80248,0.00137
1942.74231,0.00128
1940.68213,0.00123
1938.62196,0.00114
1936.56179,0.00092
1934.50162,0.00061
1932.44145,0.00040
1930.38127,0.00048
1928.32110,0.00078
1926.26093,0.00107
1924.20076,0.00129
1922.14059,0.00148
1920.08041,0.00165
1918.02024,0.00178
1915.96007,0.00180
1913.89990,0.00170
1911.83972,0.00149
1909.77955,0.00122
1907.71938,0.00091
1905.65921,0.00064
1903.59904,0.00053
1901.53886,0.00058
1899.47869,0.00070
1897.41852,0.00082
1895.35835,0.00096
1893.29818,0.00111
1891.23800,0.00121
1889.17783,0.00118
1887.11766,0.00106
1885.05749,0.00090
1882.99731,0.00076
1880.93714,0.00070
1878.87697,0.00073
1876.81680,0.00080
1874.75663,0.00082
1872.69645,0.00078
1870.63628,0.00074
1868.57611,0.00077
1866.51594,0.00085
1864.45577,0.00088
1862.39559,0.00079
1860.33542,0.00059
1858.27525,0.00035
1856.21508,0.00015
1854.15491,0.00011
1852.09473,0.00023
1850.03456,0.00041
1847.97439,0.00058
1845.91422,0.00064
1843.85404,0.00059
1841.79387,0.00049
1839.73370,0.00045
1837.67353,0.00047
1835.61336,0.00047
1833.55318,0.00040
1831.49301,0.00032
1829.43284,0.00024
1827.37267,0.00018
1825.31250,0.00015
1823.25232,0.00017
1821.19215,0.00019
1819.13198,0.00015
1817.07181,0.00009
1815.01163,0.00010
1812.95146,0.00020
1810.89129,0.00031
1808.83112,0.00036
1806.77095,0.00035
1804.71077,0.00035
1802.65060,0.00039
1800.59043,0.00047
1798.53026,0.00052
1796.47009,0.00051
1794.40991,0.00042
1792.34974,0.00030
1790.28957,0.00024
1788.22940,0.00027
1786.16923,0.00032
1784.10905,0.00032
1782.04888,0.00027
1779.98871,0.00024
1777.92854,0.00027
1775.86836,0.00034
1773.80819,0.00038
1771.74802,0.00036
1769.68785,0.00033
1767.62768,0.00034
1765.56750,0.00045
1763.50733,0.00067
1761.44716,0.00097
1759.38699,0.00129
1757.32682,0.00158
1755.26664,0.00187
1753.20647,0.00229
1751.14630,0.00287
1749.08613,0.00351
1747.02596,0.00406
1744.96578,0.00441
1742.90561,0.00457
1740.84544,0.00458
1738.78527,0.00453
1736.72509,0.00457
1734.66492,0.00477
1732.60475,0.00501
1730.54458,0.00513
1728.48441,0.00509
1726.42423,0.00494
1724.36406,0.00471
1722.30389,0.00441
1720.24372,0.00409
1718.18355,0.00384
1716.12337,0.00363
1714.06320,0.00340
1712.00303,0.00312
1709.94286,0.00283
1707.88268,0.00258
1705.82251,0.00238
1703.76234,0.00224
1701.70217,0.00219
1699.64200,0.00217
1697.58182,0.00216
1695.52165,0.00210
1693.46148,0.00206
1691.40131,0.00209
1689.34114,0.00224
1687.28096,0.00250
1685.22079,0.00283
1683.16062,0.00316
1681.10045,0.00342
1679.04028,0.00361
1676.98010,0.00375
1674.91993,0.00389
1672.85976,0.00406
1670.79959,0.00434
1668.73941,0.00478
1666.67924,0.00534
1664.61907,0.00594
1662.55890,0.00648
1660.49873,0.00694
1658.43855,0.00733
1656.37838,0.00764
1654.31821,0.00789
1652.25804,0.00810
1650.19787,0.00830
1648.13769,0.00853
1646.07752,0.00878
1644.01735,0.00902
1641.95718,0.00921
1639.89701,0.00934
1637.83683,0.00945
1635.77666,0.00963
1633.71649,0.00994
1631.65632,0.01027
1629.59614,0.01053
1627.53597,0.01067
1625.47580,0.01073
1623.41563,0.01082
1621.35546,0.01095
1619.29528,0.01105
1617.23511,0.01105
1615.17494,0.01092
1613.11477,0.01069
1611.05460,0.01041
1608.99442,0.01015
1606.93425,0.00992
1604.87408,0.00967
1602.81391,0.00935
1600.75373,0.00891
1598.69356,0.00835
1596.63339,0.00770
1594.57322,0.00698
1592.51305,0.00626
1590.45287,0.00558
1588.39270,0.00497
1586.33253,0.00444
1584.27236,0.00402
1582.21219,0.00370
1580.15201,0.00344
1578.09184,0.00322
1576.03167,0.00300
1573.97150,0.00276
1571.91133,0.00252
1569.85115,0.00227
1567.79098,0.00200
1565.73081,0.00170
1563.67064,0.00143
1561.61046,0.00121
1559.55029,0.00108
1557.49012,0.00103
1555.42995,0.00096
1553.36978,0.00084
1551.30960,0.00068
1549.24943,0.00054
1547.18926,0.00043
1545.12909,0.00033
1543.06892,0.00028
1541.00874,0.00025
1538.94857,0.00020
1536.88840,0.00013
1534.82823,0.00006
1532.76805,0.00001
1530.70788,0.00001
1528.64771,0.00001
1526.58754,-0.00000
1524.52737,0.00000
1522.46719,0.00003
1520.40702,0.00006
1518.34685,0.00006
1516.28668,0.00002
1514.22651,-0.00006
1512.16633,-0.00015
1510.10616,-0.00018
1508.04599,-0.00010
1505.98582,0.00007
1503.92565,0.00025
1501.86547,0.00041
1499.80530,0.00053
1497.74513,0.00064
1495.68496,0.00070
1493.62478,0.00072
1491.56461,0.00071
1489.50444,0.00071
1487.44427,0.00077
1485.38410,0.00089
1483.32392,0.00107
1481.26375,0.00133
1479.20358,0.00164
1477.14341,0.00202
1475.08324,0.00245
1473.02306,0.00285
1470.96289,0.00319
1468.90272,0.00347
1466.84255,0.00376
1464.78238,0.00409
1462.72220,0.00447
1460.66203,0.00488
1458.60186,0.00526
1456.54169,0.00557
1454.48151,0.00573
1452.42134,0.00579
1450.36117,0.00582
1448.30100,0.00590
1446.24083,0.00604
1444.18065,0.00623
1442.12048,0.00646
1440.06031,0.00670
1438.00014,0.00695
1435.93997,0.00718
1433.87979,0.00739
1431.81962,0.00762
1429.75945,0.00791
1427.69928,0.00826
1425.63910,0.00861
1423.57893,0.00892
1421.51876,0.00916
1419.45859,0.00927
1417.39842,0.00928
1415.33824,0.00921
1413.27807,0.00915
1411.21790,0.00913
1409.15773,0.00915
1407.09756,0.00915
1405.03738,0.00908
1402.97721,0.00892
1400.91704,0.00869
1398.85687,0.00843
1396.79670,0.00820
1394.73652,0.00806
1392.67635,0.00801
1390.61618,0.00803
1388.55601,0.00807
1386.49583,0.00812
1384.43566,0.00820
1382.37549,0.00834
1380.31532,0.00854
1378.25515,0.00877
1376.19497,0.00900
1374.13480,0.00920
1372.07463,0.00935
1370.01446,0.00939
1367.95429,0.00932
1365.89411,0.00914
1363.83394,0.00893
1361.77377,0.00875
1359.71360,0.00863
1357.65343,0.00853
1355.59325,0.00845
1353.53308,0.00835
1351.47291,0.00820
1349.41274,0.00801
1347.35256,0.00780
1345.29239,0.00761
1343.23222,0.00745
1341.17205,0.00734
1339.11188,0.00729
1337.05170,0.00727
1334.99153,0.00727
1332.93136,0.00726
1330.87119,0.00723
1328.81102,0.00721
1326.75084,0.00723
1324.69067,0.00731
1322.63050,0.00743
1320.57033,0.00754
1318.51015,0.00760
1316.44998,0.00761
1314.38981,0.00761
1312.32964,0.00762
1310.26947,0.00761
1308.20929,0.00753
1306.14912,0.00736
1304.08895,0.00716
1302.02878,0.00700
1299.96861,0.00692
1297.90843,0.00687
1295.84826,0.00681
1293.78809,0.00670
1291.72792,0.00653
1289.66775,0.00631
1287.60757,0.00610
1285.54740,0.00597
1283.48723,0.00597
1281.42706,0.00606
1279.36688,0.00617
1277.30671,0.00625
1275.24654,0.00630
1273.18637,0.00635
1271.12620,0.00646
1269.06602,0.00666
1267.00585,0.00700
1264.94568,0.00744
1262.88551,0.00792
1260.82534,0.00837
1258.76516,0.00872
1256.70499,0.00900
1254.64482,0.00924
1252.58465,0.00947
1250.52447,0.00964
1248.46430,0.00970
1246.40413,0.00964
1244.34396,0.00950
1242.28379,0.00934
1240.22361,0.00919
1238.16344,0.00901
1236.10327,0.00877
1234.04310,0.00848
1231.98293,0.00820
1229.92275,0.00793
1227.86258,0.00765
1225.80241,0.00735
1223.74224,0.00703
1221.68207,0.00667
1219.62189,0.00627
1217.56172,0.00583
1215.50155,0.00536
1213.44138,0.00488
1211.38120,0.00441
1209.32103,0.00389
1207.26086,0.00329
1205.20069,0.00264
1203.14052,0.00202
1201.08034,0.00150
1199.02017,0.00109
1196.96000,0.00076
1194.89983,0.00044
1192.83966,0.00024
1190.77948,0.00014
1188.71931,0.00007
1186.65914,0.00000
1184.59897,0.00001
1182.53880,0.00026
1180.47862,0.00068
1178.41845,0.00114
1176.35828,0.00168
1174.29811,0.00233
1172.23793,0.00301
1170.17776,0.00368
1168.11759,0.00438
1166.05742,0.00505
1163.99725,0.00558
1161.93707,0.00599
1159.87690,0.00645
1157.81673,0.00707
1155.75656,0.00768
1153.69639,0.00813
1151.63621,0.00850
1149.57604,0.00886
1147.51587,0.00916
1145.45570,0.00941
1143.39552,0.00963
1141.33535,0.00979
1139.27518,0.00993
1137.21501,0.01009
1135.15484,0.01031
1133.09466,0.01069
1131.03449,0.01119
1128.97432,0.01168
1126.91415,0.01212
1124.85398,0.01255
1122.79380,0.01308
1120.73363,0.01376
1118.67346,0.01444
1116.61329,0.01494
1114.55312,0.01533
1112.49294,0.01579
1110.43277,0.01626
1108.37260,0.01659
1106.31243,0.01687
1104.25225,0.01731
1102.19208,0.01793
1100.13191,0.01866
1098.07174,0.01950
1096.01157,0.02038
1093.95139,0.02123
1091.89122,0.02210
1089.83105,0.02297
1087.77088,0.02368
1085.71071,0.02420
1083.65053,0.02471
1081.59036,0.02540
1079.53019,0.02618
1077.47002,0.02684
1075.40985,0.02736
1073.34967,0.02785
1071.28950,0.02842
1069.22933,0.02902
1067.16916,0.02954
1065.10898,0.02995
1063.04881,0.03028
1060.98864,0.03052
1058.92847,0.03087
1056.86830,0.03127
1054.80812,0.03142
1052.74795,0.03148
1050.68778,0.03179
1048.62761,0.03231
1046.56744,0.03290
1044.50726,0.03357
1042.44709,0.03427
1040.38692,0.03484
1038.32675,0.03516
1036.26657,0.03530
1034.20640,0.03543
1032.14623,0.03567
1030.08606,0.03592
1028.02589,0.03601
1025.96571,0.03600
1023.90554,0.03601
1021.84537,0.03594
1019.78520,0.03579
1017.72503,0.03581
1015.66485,0.03607
1013.60468,0.03632
1011.54451,0.03633
1009.48434,0.03617
1007.42417,0.03598
1005.36399,0.03579
1003.30382,0.03557
1001.24365,0.03532
999.18348,0.03495
997.12330,0.03447
995.06313,0.03406
993.00296,0.03377
990.94279,0.03344
988.88262,0.03296
986.82244,0.03239
984.76227,0.03183
982.70210,0.03135
980.64193,0.03095
978.58176,0.03062
976.52158,0.03039
974.46141,0.03021
972.40124,0.02992
970.34107,0.02962
968.28089,0.02936
966.22072,0.02907
964.16055,0.02871
962.10038,0.02835
960.04021,0.02795
957.98003,0.02750
955.91986,0.02714
953.85969,0.02687
951.79952,0.02642
949.73935,0.02580
947.67917,0.02524
945.61900,0.02466
943.55883,0.02389
941.49866,0.02288
939.43849,0.02159
937.37831,0.02010
935.31814,0.01864
933.25797,0.01726
931.19780,0.01590
929.13762,0.01464
927.07745,0.01365
925.01728,0.01282
922.95711,0.01185
920.89694,0.01072
918.83676,0.00968
916.77659,0.00885
914.71642,0.00819
912.65625,0.00760
910.59608,0.00705
908.53590,0.00664
906.47573,0.00642
904.41556,0.00633
902.35539,0.00638
900.29522,0.00661
898.23504,0.00675
896.17487,0.00664
894.11470,0.00649
892.05453,0.00653
889.99435,0.00663
887.93418,0.00641
885.87401,0.00583
883.81384,0.00525
881.75367,0.00482
879.69349,0.00445
877.63332,0.00406
875.57315,0.00379
873.51298,0.00361
871.45281,0.00337
869.39263,0.00312
867.33246,0.00292
865.27229,0.00275
863.21212,0.00268
861.15194,0.00290
859.09177,0.00323
857.03160,0.00319
854.97143,0.00277
852.91126,0.00223
850.85108,0.00165
848.79091,0.00119
846.73074,0.00096
844.67057,0.00086
842.61040,0.00078
840.55022,0.00078
838.49005,0.00088
836.42988,0.00098
834.36971,0.00086
832.30954,0.00047
830.24936,0.00012
828.18919,0.00000
826.12902,-0.00002
824.06885,0.00001
822.00867,0.00011
819.94850,0.00023
817.88833,0.00029
815.82816,0.00055
813.76799,0.00127
811.70781,0.00215
809.64764,0.00259
807.58747,0.00237
805.52730,0.00186
803.46713,0.00161
801.40695,0.00177
799.34678,0.00186
797.28661,0.00149
795.22644,0.00083
793.16627,0.00026
791.10609,0.00000
789.04592,0.00013
786.98575,0.00062
784.92558,0.00105
782.86540,0.00094
780.80523,0.00029
778.74506,-0.00027
776.68489,-0.00031
774.62472,-0.00010
772.56454,-0.00013
770.50437,-0.00021
768.44420,0.00001
766.38403,0.00032
764.32386,0.00027
762.26368,-0.00009
760.20351,-0.00030
758.14334,-0.00014
756.08317,0.00012
754.02299,0.00014
751.96282,0.00000
749.90265,0.00001
747.84248,0.00016
745.78231,0.00007
743.72213,-0.00020
741.66196,-0.00026
739.60179,0.00002
737.54162,0.00013
735.48145,-0.00020
733.42127,-0.00072
731.36110,-0.00119
729.30093,-0.00141
727.24076,-0.00119
725.18059,-0.00083
723.12041,-0.00068
721.06024,-0.00066
719.00007,-0.00062
716.93990,-0.00044
714.87972,-0.00009
712.81955,0.00042
710.75938,0.00096
708.69921,0.00135
706.63904,0.00145
704.57886,0.00137
702.51869,0.00137
700.45852,0.00166
698.39835,0.00210
696.33818,0.00228
694.27800,0.00193
692.21783,0.00135
690.15766,0.00106
688.09749,0.00123
686.03731,0.00160
683.97714,0.00188
681.91697,0.00203
679.85680,0.00200
677.79663,0.00169
675.73645,0.00119
673.67628,0.00089
671.61611,0.00099
669.55594,0.00133
667.49577,0.00150
665.43559,0.00131
663.37542,0.00106
661.31525,0.00110
659.25508,0.00131
657.19491,0.00134
655.13473,0.00115
653.07456,0.00109
651.01439,0.00155
648.95422,0.00264
646.89404,0.00396
644.83387,0.00480
642.77370,0.00479
640.71353,0.00407
638.65336,0.00288
636.59318,0.00147
634.53301,0.00034
632.47284,0.00000
630.41267,0.00024
628.35250,0.00055
626.29232,0.00044
624.23215,0.00043
622.17198,0.00074
620.11181,0.00093
618.05164,0.00054
615.99146,-0.00007
613.93129,0.00022
611.87112,0.00140
609.81095,0.00226
607.75077,0.00227
605.69060,0.00175
603.63043,0.00111
601.57026,0.00059
599.51009,0.00000
