3996.73391,0.00012
3994.67373,0.00030
3992.61356,0.00051
3990.55339,0.00067
3988.49322,0.00069
3986.43305,0.00065
3984.37287,0.00065
3982.31270,0.00055
3980.25253,0.00036
3978.19236,0.00029
3976.13219,0.00028
3974.07201,0.00025
3972.01184,0.00032
3969.95167,0.00039
3967.89150,0.00031
3965.83133,0.00022
3963.77115,0.00019
3961.71098,0.00012
3959.65081,0.00000
3957.59064,0.00008
3955.53046,0.00041
3953.47029,0.00065
3951.41012,0.00049
3949.34995,0.00021
3947.28978,0.00032
3945.22960,0.00067
3943.16943,0.00076
3941.10926,0.00056
3939.04909,0.00029
3936.98892,0.00011
3934.92874,0.00015
3932.86857,0.00040
3930.80840,0.00059
3928.74823,0.00062
3926.68805,0.00068
3924.62788,0.00078
3922.56771,0.00075
3920.50754,0.00058
3918.44737,0.00039
3916.38719,0.00031
3914.32702,0.00040
3912.26685,0.00049
3910.20668,0.00060
3908.14651,0.00090
3906.08633,0.00129
3904.02616,0.00145
3901.96599,0.00121
3899.90582,0.00073
3897.84565,0.00049
3895.78547,0.00074
3893.72530,0.00097
3891.66513,0.00081
3889.60496,0.00063
3887.54478,0.00065
3885.48461,0.00071
3883.42444,0.00081
3881.36427,0.00085
3879.30410,0.00072
3877.24392,0.00058
3875.18375,0.00056
3873.12358,0.00067
3871.06341,0.00075
3869.00324,0.00064
3866.94306,0.00044
3864.88289,0.00025
3862.82272,0.00016
3860.76255,0.00030
3858.70237,0.00040
3856.64220,0.00030
3854.58203,0.00035
3852.52186,0.00065
3850.46169,0.00077
3848.40151,0.00068
3846.34134,0.00061
3844.28117,0.00064
3842.22100,0.00060
3840.16083,0.00039
3838.10065,0.00018
3836.04048,0.00013
3833.98031,0.00019
3831.92014,0.00028
3829.85997,0.00043
3827.79979,0.00052
3825.73962,0.00044
3823.67945,0.00026
3821.61928,0.00011
3819.55910,0.00012
3817.49893,0.00026
3815.43876,0.00032
3813.37859,0.00036
3811.31842,0.00033
3809.25824,0.00019
3807.19807,0.00016
3805.13790,0.00047
3803.07773,0.00096
3801.01756,0.00121
3798.95738,0.00115
3796.89721,0.00092
3794.83704,0.00067
3792.77687,0.00062
3790.71670,0.00069
3788.65652,0.00064
3786.59635,0.00051
3784.53618,0.00048
3782.47601,0.00057
3780.41583,0.00059
3778.35566,0.00048
3776.29549,0.00041
3774.23532,0.00039
3772.17515,0.00035
3770.11497,0.00039
3768.05480,0.00049
3765.99463,0.00045
3763.93446,0.00034
3761.87429,0.00041
3759.81411,0.00052
3757.75394,0.00061
3755.69377,0.00092
3753.63360,0.00135
3751.57342,0.00161
3749.51325,0.00165
3747.45308,0.00141
3745.39291,0.00091
3743.33274,0.00055
3741.27256,0.00061
3739.21239,0.00076
3737.15222,0.00060
3735.09205,0.00022
3733.03188,0.00000
3730.97170,0.00003
3728.91153,0.00003
3726.85136,0.00012
3724.79119,0.00050
3722.73102,0.00073
3720.67084,0.00076
3718.61067,0.00079
3716.55050,0.00100
3714.49033,0.00101
3712.43015,0.00050
3710.36998,0.00024
3708.30981,0.00049
3706.24964,0.00086
3704.18947,0.00077
3702.12929,0.00029
3700.06912,0.00010
3698.00895,0.00045
3695.94878,0.00097
3693.88861,0.00110
3691.82843,0.00087
3689.76826,0.00074
3687.70809,0.00104
3685.64792,0.00124
3683.58775,0.00118
3681.52757,0.00102
3679.46740,0.00090
3677.40723,0.00088
3675.34706,0.00091
3673.28688,0.00086
3671.22671,0.00083
3669.16654,0.00101
3667.10637,0.00133
3665.04620,0.00160
3662.98602,0.00178
3660.92585,0.00194
3658.86568,0.00215
3656.80551,0.00236
3654.74534,0.00248
3652.68516,0.00252
3650.62499,0.00252
3648.56482,0.00258
3646.50465,0.00270
3644.44447,0.00263
3642.38430,0.00251
3640.32413,0.00257
3638.26396,0.00281
3636.20379,0.00318
3634.14361,0.00371
3632.08344,0.00433
3630.02327,0.00458
3627.96310,0.00423
3625.90293,0.00384
3623.84275,0.00412
3621.78258,0.00468
3619.72241,0.00484
3617.66224,0.00466
3615.60207,0.00472
3613.54189,0.00521
3611.48172,0.00549
3609.42155,0.00548
3607.36138,0.00561
3605.30120,0.00598
3603.24103,0.00647
3601.18086,0.00664
3599.12069,0.00647
3597.06052,0.00634
3595.00034,0.00660
3592.94017,0.00691
3590.88000,0.00715
3588.81983,0.00738
3586.75966,0.00770
3584.69948,0.00786
3582.63931,0.00789
3580.57914,0.00800
3578.51897,0.00812
3576.45879,0.00825
3574.39862,0.00842
3572.33845,0.00857
3570.27828,0.00870
3568.21811,0.00899
3566.15793,0.00943
3564.09776,0.00982
3562.03759,0.01009
3559.97742,0.01025
3557.91725,0.01031
3555.85707,0.01036
3553.79690,0.01057
3551.73673,0.01085
3549.67656,0.01105
3547.61639,0.01131
3545.55621,0.01175
3543.49604,0.01216
3541.43587,0.01251
3539.37570,0.01283
3537.31552,0.01285
3535.25535,0.01259
3533.19518,0.01246
3531.13501,0.01272
3529.07484,0.01315
3527.01466,0.01334
3524.95449,0.01332
3522.89432,0.01350
3520.83415,0.01397
3518.77398,0.01438
3516.71380,0.01446
3514.65363,0.01430
3512.59346,0.01432
3510.53329,0.01474
3508.47312,0.01525
3506.41294,0.01559
3504.35277,0.01590
3502.29260,0.01617
3500.23243,0.01620
3498.17225,0.01608
3496.11208,0.01595
3494.05191,0.01593
3491.99174,0.01613
3489.93157,0.01665
3487.87139,0.01720
3485.81122,0.01727
3483.75105,0.01712
3481.69088,0.01720
3479.63071,0.01734
3477.57053,0.01749
3475.51036,0.01768
3473.45019,0.01778
3471.39002,0.01790
3469.32984,0.01809
3467.26967,0.01828
3465.20950,0.01859
3463.14933,0.01894
3461.08916,0.01914
3459.02898,0.01913
3456.96881,0.01913
3454.90864,0.01923
3452.84847,0.01945
3450.78830,0.01983
3448.72812,0.02019
3446.66795,0.02037
3444.60778,0.02044
3442.54761,0.02054
3440.48744,0.02061
3438.42726,0.02076
3436.36709,0.02111
3434.30692,0.02128
3432.24675,0.02114
3430.18657,0.02112
3428.12640,0.02137
3426.06623,0.02162
3424.00606,0.02163
3421.94589,0.02164
3419.88571,0.02201
3417.82554,0.02243
3415.76537,0.02256
3413.70520,0.02249
3411.64503,0.02237
3409.58485,0.02252
3407.52468,0.02299
3405.46451,0.02333
3403.40434,0.02325
3401.34416,0.02302
3399.28399,0.02289
3397.22382,0.02296
3395.16365,0.02335
3393.10348,0.02401
3391.04330,0.02432
3388.98313,0.02405
3386.92296,0.02381
3384.86279,0.02399
3382.80262,0.02435
3380.74244,0.02453
3378.68227,0.02437
3376.62210,0.02404
3374.56193,0.02396
3372.50176,0.02423
3370.44158,0.02444
3368.38141,0.02435
3366.32124,0.02428
3364.26107,0.02454
3362.20089,0.02492
3360.14072,0.02509
3358.08055,0.02506
3356.02038,0.02495
3353.96021,0.02490
3351.90003,0.02488
3349.83986,0.02486
3347.77969,0.02493
3345.71952,0.02494
3343.65935,0.02482
3341.59917,0.02488
3339.53900,0.02518
3337.47883,0.02530
3335.41866,0.02518
3333.35849,0.02503
3331.29831,0.02499
3329.23814,0.02517
3327.17797,0.02540
3325.11780,0.02544
3323.05762,0.02539
3320.99745,0.02544
3318.93728,0.02553
3316.87711,0.02538
3314.81694,0.02516
3312.75676,0.02532
3310.69659,0.02562
3308.63642,0.02556
3306.57625,0.02530
3304.51608,0.02523
3302.45590,0.02539
3300.39573,0.02550
3298.33556,0.02541
3296.27539,0.02550
3294.21521,0.02582
3292.15504,0.02592
3290.09487,0.02583
3288.03470,0.02581
3285.97453,0.02583
3283.91435,0.02571
3281.85418,0.02557
3279.79401,0.02566
3277.73384,0.02582
3275.67367,0.02570
3273.61349,0.02549
3271.55332,0.02541
3269.49315,0.02541
3267.43298,0.02553
3265.37281,0.02561
3263.31263,0.02553
3261.25246,0.02549
3259.19229,0.02553
3257.13212,0.02557
3255.07194,0.02557
3253.01177,0.02542
3250.95160,0.02514
3248.89143,0.02498
3246.83126,0.02510
3244.77108,0.02522
3242.71091,0.02506
3240.65074,0.02485
3238.59057,0.02480
3236.53040,0.02471
3234.47022,0.02458
3232.41005,0.02440
3230.34988,0.02426
3228.28971,0.02427
3226.22954,0.02418
3224.16936,0.02395
3222.10919,0.02391
3220.04902,0.02403
3217.98885,0.02387
3215.92867,0.02354
3213.86850,0.02343
3211.80833,0.02343
3209.74816,0.02336
3207.68799,0.02322
3205.62781,0.02307
3203.56764,0.02303
3201.50747,0.02282
3199.44730,0.02232
3197.38713,0.02207
3195.32695,0.02217
3193.26678,0.02215
3191.20661,0.02201
3189.14644,0.02195
3187.08626,0.02185
3185.02609,0.02168
3182.96592,0.02149
3180.90575,0.02126
3178.84558,0.02118
3176.78540,0.02119
3174.72523,0.02100
3172.66506,0.02063
3170.60489,0.02034
3168.54472,0.02024
3166.48454,0.02021
3164.42437,0.02009
3162.36420,0.01990
3160.30403,0.01972
3158.24386,0.01941
3156.18368,0.01904
3154.12351,0.01892
3152.06334,0.01884
3150.00317,0.01858
3147.94299,0.01829
3145.88282,0.01809
3143.82265,0.01796
3141.76248,0.01793
3139.70231,0.01781
3137.64213,0.01733
3135.58196,0.01680
3133.52179,0.01668
3131.46162,0.01676
3129.40145,0.01666
3127.34127,0.01654
3125.28110,0.01644
3123.22093,0.01620
3121.16076,0.01596
3119.10058,0.01578
3117.04041,0.01556
3114.98024,0.01533
3112.92007,0.01514
3110.85990,0.01504
3108.79972,0.01498
3106.73955,0.01484
3104.67938,0.01471
3102.61921,0.01462
3100.55904,0.01440
3098.49886,0.01413
3096.43869,0.01400
3094.37852,0.01386
3092.31835,0.01360
3090.25818,0.01339
3088.19800,0.01328
3086.13783,0.01314
3084.07766,0.01291
3082.01749,0.01268
3079.95731,0.01256
3077.89714,0.01253
3075.83697,0.01242
3073.77680,0.01216
3071.71663,0.01198
3069.65645,0.01201
3067.59628,0.01204
3065.53611,0.01195
3063.47594,0.01180
3061.41577,0.01163
3059.35559,0.01146
3057.29542,0.01131
3055.23525,0.01112
3053.17508,0.01088
3051.11491,0.01079
3049.05473,0.01078
3046.99456,0.01069
3044.93439,0.01059
3042.87422,0.01041
3040.81404,0.01010
3038.75387,0.00987
3036.69370,0.00978
3034.63353,0.00959
3032.57336,0.00935
3030.51318,0.00918
3028.45301,0.00914
3026.39284,0.00923
3024.33267,0.00931
3022.27250,0.00933
3020.21232,0.00932
3018.15215,0.00927
3016.09198,0.00903
3014.03181,0.00871
3011.97163,0.00856
3009.91146,0.00850
3007.85129,0.00844
3005.79112,0.00843
3003.73095,0.00844
3001.67077,0.00843
2999.61060,0.00834
2997.55043,0.00821
2995.49026,0.00811
2993.43009,0.00815
2991.36991,0.00838
2989.30974,0.00859
2987.24957,0.00869
2985.18940,0.00885
2983.12923,0.00899
2981.06905,0.00894
2979.00888,0.00885
2976.94871,0.00884
2974.88854,0.00882
2972.82836,0.00884
2970.76819,0.00893
2968.70802,0.00902
2966.64785,0.00913
2964.58768,0.00931
2962.52750,0.00947
2960.46733,0.00971
2958.40716,0.01008
2956.34699,0.01033
2954.28682,0.01042
2952.22664,0.01058
2950.16647,0.01090
2948.10630,0.01118
2946.04613,0.01131
2943.98596,0.01135
2941.92578,0.01132
2939.86561,0.01145
2937.80544,0.01175
2935.74527,0.01193
2933.68509,0.01197
2931.62492,0.01199
2929.56475,0.01195
2927.50458,0.01183
2925.44441,0.01176
2923.38423,0.01181
2921.32406,0.01168
2919.26389,0.01132
2917.20372,0.01108
2915.14355,0.01103
2913.08337,0.01107
2911.02320,0.01111
2908.96303,0.01099
2906.90286,0.01071
2904.84268,0.01051
2902.78251,0.01048
2900.72234,0.01042
2898.66217,0.01038
2896.60200,0.01041
2894.54182,0.01038
2892.48165,0.01030
2890.42148,0.01027
2888.36131,0.01028
2886.30114,0.01024
2884.24096,0.01022
2882.18079,0.01024
2880.12062,0.01006
2878.06045,0.00979
2876.00028,0.00978
2873.94010,0.00982
2871.87993,0.00966
2869.81976,0.00950
2867.75959,0.00929
2865.69941,0.00896
2863.63924,0.00872
2861.57907,0.00861
2859.51890,0.00861
2857.45873,0.00864
2855.39855,0.00859
2853.33838,0.00847
2851.27821,0.00824
2849.21804,0.00797
2847.15787,0.00778
2845.09769,0.00763
2843.03752,0.00756
2840.97735,0.00753
2838.91718,0.00742
2836.85700,0.00730
2834.79683,0.00723
2832.73666,0.00707
2830.67649,0.00700
2828.61632,0.00696
2826.55614,0.00682
2824.49597,0.00683
2822.43580,0.00690
2820.37563,0.00684
2818.31546,0.00679
2816.25528,0.00677
2814.19511,0.00674
2812.13494,0.00677
2810.07477,0.00675
2808.01460,0.00656
2805.95442,0.00636
2803.89425,0.00624
2801.83408,0.00618
2799.77391,0.00624
2797.71373,0.00637
2795.65356,0.00641
2793.59339,0.00631
2791.53322,0.00619
2789.47305,0.00607
2787.41287,0.00592
2785.35270,0.00589
2783.29253,0.00603
2781.23236,0.00617
2779.17219,0.00615
2777.11201,0.00605
2775.05184,0.00588
2772.99167,0.00576
2770.93150,0.00583
2768.87133,0.00591
2766.81115,0.00583
2764.75098,0.00568
2762.69081,0.00553
2760.63064,0.00543
2758.57046,0.00544
2756.51029,0.00547
2754.45012,0.00557
2752.38995,0.00568
2750.32978,0.00562
2748.26960,0.00557
2746.20943,0.00564
2744.14926,0.00566
2742.08909,0.00564
2740.02892,0.00567
2737.96874,0.00576
2735.90857,0.00576
2733.84840,0.00559
2731.78823,0.00544
2729.72805,0.00536
2727.66788,0.00530
2725.60771,0.00528
2723.54754,0.00530
2721.48737,0.00531
2719.42719,0.00531
2717.36702,0.00530
2715.30685,0.00531
2713.24668,0.00530
2711.18651,0.00517
2709.12633,0.00503
2707.06616,0.00496
2705.00599,0.00497
2702.94582,0.00503
2700.88565,0.00504
2698.82547,0.00495
2696.76530,0.00491
2694.70513,0.00497
2692.64496,0.00494
2690.58478,0.00485
2688.52461,0.00485
2686.46444,0.00490
2684.40427,0.00493
2682.34410,0.00489
2680.28392,0.00486
2678.22375,0.00493
2676.16358,0.00500
2674.10341,0.00488
2672.04324,0.00469
2669.98306,0.00465
2667.92289,0.00473
2665.86272,0.00479
2663.80255,0.00479
2661.74238,0.00475
2659.68220,0.00477
2657.62203,0.00491
2655.56186,0.00502
2653.50169,0.00495
2651.44151,0.00474
2649.38134,0.00451
2647.32117,0.00441
2645.26100,0.00455
2643.20083,0.00471
2641.14065,0.00470
2639.08048,0.00462
2637.02031,0.00451
2634.96014,0.00441
2632.89997,0.00441
2630.83979,0.00447
2628.77962,0.00441
2626.71945,0.00434
2624.65928,0.00436
2622.59910,0.00425
2620.53893,0.00404
2618.47876,0.00399
2616.41859,0.00413
2614.35842,0.00418
2612.29824,0.00408
2610.23807,0.00400
2608.17790,0.00389
2606.11773,0.00381
2604.05756,0.00383
2601.99738,0.00385
2599.93721,0.00385
2597.87704,0.00387
2595.81687,0.00382
2593.75670,0.00369
2591.69652,0.00355
2589.63635,0.00354
2587.57618,0.00370
2585.51601,0.00378
2583.45583,0.00370
2581.39566,0.00360
2579.33549,0.00357
2577.27532,0.00366
2575.21515,0.00388
2573.15497,0.00405
2571.09480,0.00397
2569.03463,0.00377
2566.97446,0.00369
2564.91429,0.00377
2562.85411,0.00385
2560.79394,0.00382
2558.73377,0.00373
2556.67360,0.00371
2554.61342,0.00371
2552.55325,0.00362
2550.49308,0.00361
2548.43291,0.00377
2546.37274,0.00393
2544.31256,0.00401
2542.25239,0.00411
2540.19222,0.00405
2538.13205,0.00365
2536.07188,0.00346
2534.01170,0.00365
2531.95153,0.00367
2529.89136,0.00356
2527.83119,0.00358
2525.77102,0.00360
2523.71084,0.00349
2521.65067,0.00334
2519.59050,0.00327
2517.53033,0.00320
2515.47015,0.00311
2513.40998,0.00301
2511.34981,0.00309
2509.28964,0.00331
2507.22947,0.00312
2505.16929,0.00260
2503.10912,0.00254
2501.04895,0.00298
2498.98878,0.00338
2496.92861,0.00349
2494.86843,0.00330
2492.80826,0.00311
2490.74809,0.00317
2488.68792,0.00321
2486.62775,0.00314
2484.56757,0.00324
2482.50740,0.00345
2480.44723,0.00347
2478.38706,0.00325
2476.32688,0.00297
2474.26671,0.00277
2472.20654,0.00274
2470.14637,0.00291
2468.08620,0.00314
2466.02602,0.00329
2463.96585,0.00323
2461.90568,0.00314
2459.84551,0.00331
2457.78534,0.00353
2455.72516,0.00352
2453.66499,0.00345
2451.60482,0.00356
2449.54465,0.00357
2447.48447,0.00339
2445.42430,0.00316
2443.36413,0.00294
2441.30396,0.00297
2439.24379,0.00308
2437.18361,0.00302
2435.12344,0.00297
2433.06327,0.00305
2431.00310,0.00314
2428.94293,0.00308
2426.88275,0.00300
2424.82258,0.00301
2422.76241,0.00305
2420.70224,0.00312
2418.64207,0.00317
2416.58189,0.00311
2414.52172,0.00292
2412.46155,0.00274
2410.40138,0.00277
2408.34120,0.00284
2406.28103,0.00277
2404.22086,0.00286
2402.16069,0.00305
2400.10052,0.00304
2398.04034,0.00296
2395.98017,0.00292
2393.92000,0.00290
2391.85983,0.00296
2389.79966,0.00313
2387.73948,0.00335
2385.67931,0.00362
2383.61914,0.00373
2381.55897,0.00351
2379.49880,0.00336
2377.43862,0.00355
2375.37845,0.00329
2373.31828,0.00314
2371.25811,0.00355
2369.19793,0.00400
2367.13776,0.00427
2365.07759,0.00407
2363.01742,0.00237
2360.95725,0.00322
2358.89707,0.00335
2356.83690,0.00329
2354.77673,0.00331
2352.71656,0.00399
2350.65639,0.00789
2348.59621,0.01023
2346.53604,0.00482
2344.47587,0.00429
2342.41570,0.00575
2340.35552,0.00620
2338.29535,0.00564
2336.23518,0.00427
2334.17501,0.00335
2332.11484,0.00285
2330.05466,0.00342
2327.99449,0.00375
2325.93432,0.00524
2323.87415,0.00543
2321.81398,0.00535
2319.75380,0.00444
2317.69363,0.00470
2315.63346,0.00435
2313.57329,0.00358
2311.51312,0.00350
2309.45294,0.00387
2307.39277,0.00421
2305.33260,0.00415
2303.27243,0.00381
2301.21225,0.00329
2299.15208,0.00343
2297.09191,0.00384
2295.03174,0.00401
2292.97157,0.00415
2290.91139,0.00424
2288.85122,0.00410
2286.79105,0.00391
2284.73088,0.00396
2282.67071,0.00409
2280.61053,0.00394
2278.55036,0.00351
2276.49019,0.00321
2274.43002,0.00322
2272.36984,0.00325
2270.30967,0.00331
2268.24950,0.00351
2266.18933,0.00385
2264.12916,0.00401
2262.06898,0.00407
2260.00881,0.00418
2257.94864,0.00395
2255.88847,0.00315
2253.82830,0.00252
2251.76812,0.00258
2249.70795,0.00322
2247.64778,0.00408
2245.58761,0.00441
2243.52744,0.00381
2241.46726,0.00322
2239.40709,0.00321
2237.34692,0.00293
2235.28675,0.00223
2233.22657,0.00215
2231.16640,0.00282
2229.10623,0.00320
2227.04606,0.00328
2224.98589,0.00372
2222.92571,0.00418
2220.86554,0.00426
2218.80537,0.00439
2216.74520,0.00444
2214.68503,0.00383
2212.62485,0.00345
2210.56468,0.00394
2208.50451,0.00398
2206.44434,0.00330
2204.38417,0.00339
2202.32399,0.00397
2200.26382,0.00394
2198.20365,0.00377
2196.14348,0.00374
2194.08330,0.00366
2192.02313,0.00405
2189.96296,0.00491
2187.90279,0.00520
2185.84262,0.00447
2183.78244,0.00322
2181.72227,0.00291
2179.66210,0.00387
2177.60193,0.00415
2175.54176,0.00318
2173.48158,0.00254
2171.42141,0.00328
2169.36124,0.00469
2167.30107,0.00547
2165.24089,0.00549
2163.18072,0.00584
2161.12055,0.00615
2159.06038,0.00504
2157.00021,0.00354
2154.94003,0.00249
2152.87986,0.00241
2150.81969,0.00336
2148.75952,0.00387
2146.69935,0.00350
2144.63917,0.00293
2142.57900,0.00291
2140.51883,0.00340
2138.45866,0.00355
2136.39849,0.00334
2134.33831,0.00302
2132.27814,0.00267
2130.21797,0.00287
2128.15780,0.00345
2126.09762,0.00348
2124.03745,0.00311
2121.97728,0.00333
2119.91711,0.00401
2117.85694,0.00420
2115.79676,0.00388
2113.73659,0.00368
2111.67642,0.00389
2109.61625,0.00416
2107.55608,0.00411
2105.49590,0.00399
2103.43573,0.00430
2101.37556,0.00484
2099.31539,0.00456
2097.25521,0.00372
2095.19504,0.00359
2093.13487,0.00381
2091.07470,0.00371
2089.01453,0.00377
2086.95435,0.00421
2084.89418,0.00456
2082.83401,0.00428
2080.77384,0.00353
2078.71367,0.00305
2076.65349,0.00331
2074.59332,0.00384
2072.53315,0.00411
2070.47298,0.00415
2068.41281,0.00406
2066.35263,0.00368
2064.29246,0.00340
2062.23229,0.00384
2060.17212,0.00460
2058.11194,0.00475
2056.05177,0.00420
2053.99160,0.00426
2051.93143,0.00524
2049.87126,0.00522
2047.81108,0.00376
2045.75091,0.00278
2043.69074,0.00269
2041.63057,0.00297
2039.57040,0.00360
2037.51022,0.00372
2035.45005,0.00298
2033.38988,0.00242
2031.32971,0.00219
2029.26954,0.00174
2027.20936,0.00197
2025.14919,0.00291
2023.08902,0.00298
2021.02885,0.00214
2018.96867,0.00136
2016.90850,0.00141
2014.84833,0.00246
2012.78816,0.00353
2010.72799,0.00381
2008.66781,0.00350
2006.60764,0.00336
2004.54747,0.00341
2002.48730,0.00286
2000.42713,0.00168
1998.36695,0.00045
1996.30678,0.00000
1994.24661,0.00099
1992.18644,0.00281
1990.12626,0.00388
1988.06609,0.00398
1986.00592,0.00402
1983.94575,0.00464
1981.88558,0.00559
1979.82540,0.00537
1977.76523,0.00383
1975.70506,0.00275
1973.64489,0.00265
1971.58472,0.00300
1969.52454,0.00319
1967.46437,0.00315
1965.40420,0.00359
1963.34403,0.00411
1961.28386,0.00397
1959.22368,0.00347
1957.16351,0.00274
1955.10334,0.00193
1953.04317,0.00160
1950.98299,0.00175
1948.92282,0.00206
1946.86265,0.00224
1944.80248,0.00204
1942.74231,0.00188
1940.68213,0.00221
1938.62196,0.00261
1936.56179,0.00275
1934.50162,0.00266
1932.44145,0.00236
1930.38127,0.00207
1928.32110,0.00203
1926.26093,0.00224
1924.20076,0.00250
1922.14059,0.00232
1920.08041,0.00160
1918.02024,0.00121
1915.96007,0.00155
1913.89990,0.00183
1911.83972,0.00175
1909.77955,0.00161
1907.71938,0.00169
1905.65921,0.00201
1903.59904,0.00215
1901.53886,0.00191
1899.47869,0.00172
1897.41852,0.00164
1895.35835,0.00152
1893.29818,0.00151
1891.23800,0.00148
1889.17783,0.00127
1887.11766,0.00129
1885.05749,0.00173
1882.99731,0.00202
1880.93714,0.00187
1878.87697,0.00163
1876.81680,0.00150
1874.75663,0.00151
1872.69645,0.00167
1870.63628,0.00183
1868.57611,0.00190
1866.51594,0.00187
1864.45577,0.00170
1862.39559,0.00163
1860.33542,0.00182
1858.27525,0.00193
1856.21508,0.00175
1854.15491,0.00148
1852.09473,0.00132
1850.03456,0.00126
1847.97439,0.00120
1845.91422,0.00102
1843.85404,0.00081
1841.79387,0.00078
1839.73370,0.00100
1837.67353,0.00126
1835.61336,0.00137
1833.55318,0.00138
1831.49301,0.00144
1829.43284,0.00140
1827.37267,0.00113
1825.31250,0.00082
1823.25232,0.00075
1821.19215,0.00084
1819.13198,0.00086
1817.07181,0.00079
1815.01163,0.00080
1812.95146,0.00093
1810.89129,0.00112
1808.83112,0.00115
1806.77095,0.00097
1804.71077,0.00086
1802.65060,0.00090
1800.59043,0.00081
1798.53026,0.00058
1796.47009,0.00051
1794.40991,0.00059
1792.34974,0.00066
1790.28957,0.00062
1788.22940,0.00055
1786.16923,0.00053
1784.10905,0.00060
1782.04888,0.00068
1779.98871,0.00070
1777.92854,0.00070
1775.86836,0.00071
1773.80819,0.00076
1771.74802,0.00086
1769.68785,0.00095
1767.62768,0.00103
1765.56750,0.00106
1763.50733,0.00108
1761.44716,0.00124
1759.38699,0.00160
1757.32682,0.00202
1755.26664,0.00234
1753.20647,0.00264
1751.14630,0.00305
1749.08613,0.00354
1747.02596,0.00399
1744.96578,0.00430
1742.90561,0.00449
1740.84544,0.00472
1738.78527,0.00495
1736.72509,0.00505
1734.66492,0.00510
1732.60475,0.00508
1730.54458,0.00491
1728.48441,0.00486
1726.42423,0.00498
1724.36406,0.00505
1722.30389,0.00501
1720.24372,0.00496
1718.18355,0.00486
1716.12337,0.00453
1714.06320,0.00408
1712.00303,0.00372
1709.94286,0.00340
1707.88268,0.00309
1705.82251,0.00300
1703.76234,0.00316
1701.70217,0.00327
1699.64200,0.00323
1697.58182,0.00318
1695.52165,0.00321
1693.46148,0.00329
1691.40131,0.00344
1689.34114,0.00368
1687.28096,0.00392
1685.22079,0.00426
1683.16062,0.00487
1681.10045,0.00539
1679.04028,0.00561
1676.98010,0.00580
1674.91993,0.00621
1672.85976,0.00677
1670.79959,0.00730
1668.73941,0.00780
1666.67924,0.00819
1664.61907,0.00851
1662.55890,0.00896
1660.49873,0.00951
1658.43855,0.00998
1656.37838,0.01044
1654.31821,0.01110
1652.25804,0.01177
1650.19787,0.01204
1648.13769,0.01225
1646.07752,0.01251
1644.01735,0.01260
1641.95718,0.01262
1639.89701,0.01270
1637.83683,0.01288
1635.77666,0.01313
1633.71649,0.01321
1631.65632,0.01307
1629.59614,0.01297
1627.53597,0.01305
1625.47580,0.01313
1623.41563,0.01313
1621.35546,0.01306
1619.29528,0.01290
1617.23511,0.01275
1615.17494,0.01266
1613.11477,0.01252
1611.05460,0.01230
1608.99442,0.01201
1606.93425,0.01157
1604.87408,0.01108
1602.81391,0.01062
1600.75373,0.01013
1598.69356,0.00955
1596.63339,0.00887
1594.57322,0.00816
1592.51305,0.00748
1590.45287,0.00688
1588.39270,0.00632
1586.33253,0.00574
1584.27236,0.00517
1582.21219,0.00468
1580.15201,0.00431
1578.09184,0.00401
1576.03167,0.00365
1573.97150,0.00328
1571.91133,0.00306
1569.85115,0.00298
1567.79098,0.00282
1565.73081,0.00251
1563.67064,0.00224
1561.61046,0.00210
1559.55029,0.00201
1557.49012,0.00183
1555.42995,0.00161
1553.36978,0.00138
1551.30960,0.00113
1549.24943,0.00096
1547.18926,0.00092
1545.12909,0.00092
1543.06892,0.00078
1541.00874,0.00060
1538.94857,0.00067
1536.88840,0.00085
1534.82823,0.00082
1532.76805,0.00059
1530.70788,0.00035
1528.64771,0.00024
1526.58754,0.00030
1524.52737,0.00051
1522.46719,0.00067
1520.40702,0.00061
1518.34685,0.00044
1516.28668,0.00035
1514.22651,0.00033
1512.16633,0.00037
1510.10616,0.00044
1508.04599,0.00053
1505.98582,0.00060
1503.92565,0.00062
1501.86547,0.00062
1499.80530,0.00066
1497.74513,0.00069
1495.68496,0.00065
1493.62478,0.00061
1491.56461,0.00066
1489.50444,0.00082
1487.44427,0.00097
1485.38410,0.00104
1483.32392,0.00112
1481.26375,0.00126
1479.20358,0.00150
1477.14341,0.00182
1475.08324,0.00227
1473.02306,0.00288
1470.96289,0.00339
1468.90272,0.00364
1466.84255,0.00384
1464.78238,0.00419
1462.72220,0.00451
1460.66203,0.00467
1458.60186,0.00486
1456.54169,0.00527
1454.48151,0.00566
1452.42134,0.00587
1450.36117,0.00603
1448.30100,0.00614
1446.24083,0.00623
1444.18065,0.00638
1442.12048,0.00665
1440.06031,0.00697
1438.00014,0.00733
1435.93997,0.00769
1433.87979,0.00791
1431.81962,0.00806
1429.75945,0.00825
1427.69928,0.00846
1425.63910,0.00870
1423.57893,0.00895
1421.51876,0.00915
1419.45859,0.00942
1417.39842,0.00979
1415.33824,0.01006
1413.27807,0.01004
1411.21790,0.00983
1409.15773,0.00964
1407.09756,0.00953
1405.03738,0.00941
1402.97721,0.00916
1400.91704,0.00886
1398.85687,0.00868
1396.79670,0.00861
1394.73652,0.00842
1392.67635,0.00820
1390.61618,0.00815
1388.55601,0.00829
1386.49583,0.00842
1384.43566,0.00845
1382.37549,0.00855
1380.31532,0.00877
1378.25515,0.00898
1376.19497,0.00910
1374.13480,0.00921
1372.07463,0.00937
1370.01446,0.00950
1367.95429,0.00948
1365.89411,0.00933
1363.83394,0.00925
1361.77377,0.00923
1359.71360,0.00910
1357.65343,0.00888
1355.59325,0.00873
1353.53308,0.00863
1351.47291,0.00848
1349.41274,0.00827
1347.35256,0.00804
1345.29239,0.00788
1343.23222,0.00787
1341.17205,0.00800
1339.11188,0.00812
1337.05170,0.00806
1334.99153,0.00791
1332.93136,0.00781
1330.87119,0.00776
1328.81102,0.00776
1326.75084,0.00778
1324.69067,0.00779
1322.63050,0.00788
1320.57033,0.00806
1318.51015,0.00818
1316.44998,0.00825
1314.38981,0.00835
1312.32964,0.00839
1310.26947,0.00829
1308.20929,0.00817
1306.14912,0.00814
1304.08895,0.00801
1302.02878,0.00773
1299.96861,0.00741
1297.90843,0.00718
1295.84826,0.00705
1293.78809,0.00693
1291.72792,0.00677
1289.66775,0.00664
1287.60757,0.00661
1285.54740,0.00660
1283.48723,0.00651
1281.42706,0.00643
1279.36688,0.00641
1277.30671,0.00646
1275.24654,0.00668
1273.18637,0.00703
1271.12620,0.00734
1269.06602,0.00762
1267.00585,0.00783
1264.94568,0.00805
1262.88551,0.00846
1260.82534,0.00895
1258.76516,0.00934
1256.70499,0.00967
1254.64482,0.00992
1252.58465,0.01008
1250.52447,0.01029
1248.46430,0.01053
1246.40413,0.01058
1244.34396,0.01049
1242.28379,0.01042
1240.22361,0.01019
1238.16344,0.00980
1236.10327,0.00939
1234.04310,0.00901
1231.98293,0.00871
1229.92275,0.00845
1227.86258,0.00813
1225.80241,0.00776
1223.74224,0.00741
1221.68207,0.00707
1219.62189,0.00676
1217.56172,0.00642
1215.50155,0.00608
1213.44138,0.00564
1211.38120,0.00511
1209.32103,0.00458
1207.26086,0.00395
1205.20069,0.00327
1203.14052,0.00272
1201.08034,0.00225
1199.02017,0.00171
1196.96000,0.00115
1194.89983,0.00063
1192.83966,0.00021
1190.77948,0.00000
1188.71931,-0.00009
1186.65914,-0.00004
1184.59897,0.00018
1182.53880,0.00047
1180.47862,0.00068
1178.41845,0.00088
1176.35828,0.00125
1174.29811,0.00187
1172.23793,0.00268
1170.17776,0.00349
1168.11759,0.00427
1166.05742,0.00516
1163.99725,0.00616
1161.93707,0.00698
1159.87690,0.00756
1157.81673,0.00815
1155.75656,0.00892
1153.69639,0.00959
1151.63621,0.00998
1149.57604,0.01036
1147.51587,0.01080
1145.45570,0.01112
1143.39552,0.01137
1141.33535,0.01161
1139.27518,0.01176
1137.21501,0.01191
1135.15484,0.01218
1133.09466,0.01254
1131.03449,0.01294
1128.97432,0.01344
1126.91415,0.01410
1124.85398,0.01494
1122.79380,0.01577
1120.73363,0.01644
1118.67346,0.01697
1116.61329,0.01741
1114.55312,0.01782
1112.49294,0.01828
1110.43277,0.01886
1108.37260,0.01945
1106.31243,0.01990
1104.25225,0.02050
1102.19208,0.02151
1100.13191,0.02274
1098.07174,0.02385
1096.01157,0.02474
1093.95139,0.02564
1091.89122,0.02666
1089.83105,0.02750
1087.77088,0.02808
1085.71071,0.02865
1083.65053,0.02937
1081.59036,0.03023
1079.53019,0.03104
1077.47002,0.03183
1075.40985,0.03284
1073.34967,0.03393
1071.28950,0.03477
1069.22933,0.03537
1067.16916,0.03591
1065.10898,0.03633
1063.04881,0.03643
1060.98864,0.03647
1058.92847,0.03687
1056.86830,0.03752
1054.80812,0.03797
1052.74795,0.03821
1050.68778,0.03855
1048.62761,0.03916
1046.56744,0.03993
1044.50726,0.04072
1042.44709,0.04142
1040.38692,0.04205
1038.32675,0.04252
1036.26657,0.04273
1034.20640,0.04292
1032.14623,0.04310
1030.08606,0.04310
1028.02589,0.04307
1025.96571,0.04312
1023.90554,0.04311
1021.84537,0.04318
1019.78520,0.04329
1017.72503,0.04317
1015.66485,0.04301
1013.60468,0.04316
1011.54451,0.04333
1009.48434,0.04314
1007.42417,0.04257
1005.36399,0.04195
1003.30382,0.04151
1001.24365,0.04093
999.18348,0.04001
997.12330,0.03907
995.06313,0.03841
993.00296,0.03799
990.94279,0.03752
988.88262,0.03698
986.82244,0.03662
984.76227,0.03634
982.70210,0.03581
980.64193,0.03520
978.58176,0.03469
976.52158,0.03426
974.46141,0.03381
972.40124,0.03326
970.34107,0.03264
968.28089,0.03200
966.22072,0.03142
964.16055,0.03098
962.10038,0.03047
960.04021,0.02980
957.98003,0.02905
955.91986,0.02823
953.85969,0.02751
951.79952,0.02685
949.73935,0.02587
947.67917,0.02469
945.61900,0.02352
943.55883,0.02239
941.49866,0.02116
939.43849,0.01953
937.37831,0.01762
935.31814,0.01585
933.25797,0.01424
931.19780,0.01270
929.13762,0.01122
927.07745,0.00989
925.01728,0.00890
922.95711,0.00821
920.89694,0.00767
918.83676,0.00719
916.77659,0.00655
914.71642,0.00577
912.65625,0.00521
910.59608,0.00483
908.53590,0.00445
906.47573,0.00422
904.41556,0.00415
902.35539,0.00416
900.29522,0.00431
898.23504,0.00451
896.17487,0.00459
894.11470,0.00453
892.05453,0.00447
889.99435,0.00430
887.93418,0.00386
885.87401,0.00340
883.81384,0.00318
881.75367,0.00301
879.69349,0.00266
877.63332,0.00222
875.57315,0.00200
873.51298,0.00185
871.45281,0.00168
869.39263,0.00177
867.33246,0.00189
865.27229,0.00173
863.21212,0.00149
861.15194,0.00141
859.09177,0.00146
857.03160,0.00151
854.97143,0.00142
852.91126,0.00116
850.85108,0.00093
848.79091,0.00088
846.73074,0.00084
844.67057,0.00069
842.61040,0.00054
840.55022,0.00046
838.49005,0.00030
836.42988,0.00000
834.36971,-0.00007
832.30954,0.00008
830.24936,-0.00007
828.18919,-0.00033
826.12902,-0.00035
824.06885,-0.00012
822.00867,0.00030
819.94850,0.00067
817.88833,0.00081
815.82816,0.00089
813.76799,0.00105
811.70781,0.00118
809.64764,0.00127
807.58747,0.00139
805.52730,0.00133
803.46713,0.00108
801.40695,0.00085
799.34678,0.00069
797.28661,0.00066
795.22644,0.00052
793.16627,0.00030
791.10609,0.00035
789.04592,0.00059
786.98575,0.00097
784.92558,0.00114
782.86540,0.00079
780.80523,0.00045
778.74506,0.00048
776.68489,0.00056
774.62472,0.00066
772.56454,0.00080
770.50437,0.00068
768.44420,0.00029
766.38403,0.00000
764.32386,0.00016
762.26368,0.00081
760.20351,0.00150
758.14334,0.00165
756.08317,0.00151
754.02299,0.00137
751.96282,0.00129
749.90265,0.00125
747.84248,0.00089
745.78231,0.00045
743.72213,0.00033
741.66196,0.00046
739.60179,0.00091
737.54162,0.00127
735.48145,0.00119
733.42127,0.00122
731.36110,0.00166
729.30093,0.00210
727.24076,0.00216
725.18059,0.00233
723.12041,0.00327
721.06024,0.00314
719.00007,0.00307
716.93990,0.00286
714.87972,0.00312
712.81955,0.00382
710.75938,0.00442
708.69921,0.00504
706.63904,0.00590
704.57886,0.00677
702.51869,0.00687
700.45852,0.00624
698.39835,0.00591
696.33818,0.00615
694.27800,0.00643
692.21783,0.00665
690.15766,0.00703
688.09749,0.00741
686.03731,0.00761
683.97714,0.00775
681.91697,0.00792
679.85680,0.00791
677.79663,0.00767
675.73645,0.00743
673.67628,0.00864
671.61611,0.01173
669.55594,0.00718
667.49577,0.00000
665.43559,0.01132
663.37542,0.00958
661.31525,0.00689
659.25508,0.00768
657.19491,0.00844
655.13473,0.00750
653.07456,0.00667
651.01439,0.00701
648.95422,0.00708
646.89404,0.00646
644.83387,0.00493
642.77370,0.00415
640.71353,0.00443
638.65336,0.00458
636.59318,0.00429
634.53301,0.00432
632.47284,0.00432
630.41267,0.00341
628.35250,0.00184
626.29232,0.00098
624.23215,0.00183
622.17198,0.00315
620.11181,0.00238
618.05164,0.00145
615.99146,0.00270
613.93129,0.00321
611.87112,0.00211
609.81095,0.00119
607.75077,0.00083
605.69060,0.00043
603.63043,0.00007
601.57026,0.00007
599.51009,0.00000
