3996.73391,0.00000
3994.67373,0.00015
3992.61356,0.00030
3990.55339,0.00047
3988.49322,0.00068
3986.43305,0.00094
3984.37287,0.00114
3982.31270,0.00117
3980.25253,0.00107
3978.19236,0.00096
3976.13219,0.00092
3974.07201,0.00095
3972.01184,0.00103
3969.95167,0.00112
3967.89150,0.00117
3965.83133,0.00115
3963.77115,0.00111
3961.71098,0.00105
3959.65081,0.00095
3957.59064,0.00074
3955.53046,0.00043
3953.47029,0.00021
3951.41012,0.00028
3949.34995,0.00058
3947.28978,0.00082
3945.22960,0.00075
3943.16943,0.00043
3941.10926,0.00010
3939.04909,0.00000
3936.98892,0.00013
3934.92874,0.00033
3932.86857,0.00044
3930.80840,0.00047
3928.74823,0.00059
3926.68805,0.00087
3924.62788,0.00124
3922.56771,0.00164
3920.50754,0.00201
3918.44737,0.00217
3916.38719,0.00190
3914.32702,0.00133
3912.26685,0.00078
3910.20668,0.00052
3908.14651,0.00053
3906.08633,0.00073
3904.02616,0.00094
3901.96599,0.00104
3899.90582,0.00106
3897.84565,0.00110
3895.78547,0.00123
3893.72530,0.00138
3891.66513,0.00144
3889.60496,0.00150
3887.54478,0.00168
3885.48461,0.00196
3883.42444,0.00212
3881.36427,0.00202
3879.30410,0.00176
3877.24392,0.00154
3875.18375,0.00146
3873.12358,0.00143
3871.06341,0.00131
3869.00324,0.00109
3866.94306,0.00088
3864.88289,0.00081
3862.82272,0.00086
3860.76255,0.00100
3858.70237,0.00116
3856.64220,0.00124
3854.58203,0.00119
3852.52186,0.00109
3850.46169,0.00100
3848.40151,0.00091
3846.34134,0.00080
3844.28117,0.00076
3842.22100,0.00097
3840.16083,0.00137
3838.10065,0.00168
3836.04048,0.00174
3833.98031,0.00152
3831.92014,0.00112
3829.85997,0.00070
3827.79979,0.00042
3825.73962,0.00036
3823.67945,0.00058
3821.61928,0.00094
3819.55910,0.00120
3817.49893,0.00127
3815.43876,0.00122
3813.37859,0.00118
3811.31842,0.00120
3809.25824,0.00126
3807.19807,0.00133
3805.13790,0.00142
3803.07773,0.00152
3801.01756,0.00161
3798.95738,0.00160
3796.89721,0.00152
3794.83704,0.00135
3792.77687,0.00106
3790.71670,0.00073
3788.65652,0.00054
3786.59635,0.00066
3784.53618,0.00097
3782.47601,0.00133
3780.41583,0.00162
3778.35566,0.00176
3776.29549,0.00164
3774.23532,0.00129
3772.17515,0.00091
3770.11497,0.00070
3768.05480,0.00074
3765.99463,0.00093
3763.93446,0.00115
3761.87429,0.00136
3759.81411,0.00158
3757.75394,0.00182
3755.69377,0.00205
3753.63360,0.00214
3751.57342,0.00187
3749.51325,0.00121
3747.45308,0.00046
3745.39291,0.00001
3743.33274,0.00000
3741.27256,0.00035
3739.21239,0.00085
3737.15222,0.00122
3735.09205,0.00129
3733.03188,0.00120
3730.97170,0.00123
3728.91153,0.00144
3726.85136,0.00166
3724.79119,0.00169
3722.73102,0.00149
3720.67084,0.00113
3718.61067,0.00079
3716.55050,0.00060
3714.49033,0.00062
3712.43015,0.00079
3710.36998,0.00098
3708.30981,0.00115
3706.24964,0.00126
3704.18947,0.00120
3702.12929,0.00098
3700.06912,0.00078
3698.00895,0.00082
3695.94878,0.00112
3693.88861,0.00152
3691.82843,0.00187
3689.76826,0.00212
3687.70809,0.00229
3685.64792,0.00241
3683.58775,0.00239
3681.52757,0.00221
3679.46740,0.00199
3677.40723,0.00190
3675.34706,0.00196
3673.28688,0.00207
3671.22671,0.00207
3669.16654,0.00197
3667.10637,0.00192
3665.04620,0.00208
3662.98602,0.00244
3660.92585,0.00277
3658.86568,0.00285
3656.80551,0.00274
3654.74534,0.00274
3652.68516,0.00302
3650.62499,0.00344
3648.56482,0.00372
3646.50465,0.00380
3644.44447,0.00383
3642.38430,0.00395
3640.32413,0.00417
3638.26396,0.00450
3636.20379,0.00485
3634.14361,0.00513
3632.08344,0.00529
3630.02327,0.00531
3627.96310,0.00517
3625.90293,0.00506
3623.84275,0.00515
3621.78258,0.00538
3619.72241,0.00558
3617.66224,0.00571
3615.60207,0.00587
3613.54189,0.00618
3611.48172,0.00664
3609.42155,0.00704
3607.36138,0.00712
3605.30120,0.00690
3603.24103,0.00673
3601.18086,0.00693
3599.12069,0.00748
3597.06052,0.00805
3595.00034,0.00824
3592.94017,0.00798
3590.88000,0.00765
3588.81983,0.00768
3586.75966,0.00815
3584.69948,0.00878
3582.63931,0.00929
3580.57914,0.00967
3578.51897,0.01002
3576.45879,0.01035
3574.39862,0.01068
3572.33845,0.01108
3570.27828,0.01159
3568.21811,0.01215
3566.15793,0.01254
3564.09776,0.01265
3562.03759,0.01264
3559.97742,0.01264
3557.91725,0.01270
3555.85707,0.01281
3553.79690,0.01301
3551.73673,0.01327
3549.67656,0.01353
3547.61639,0.01375
3545.55621,0.01384
3543.49604,0.01383
3541.43587,0.01389
3539.37570,0.01421
3537.31552,0.01474
3535.25535,0.01527
3533.19518,0.01565
3531.13501,0.01589
3529.07484,0.01610
3527.01466,0.01638
3524.95449,0.01677
3522.89432,0.01719
3520.83415,0.01757
3518.77398,0.01789
3516.71380,0.01820
3514.65363,0.01851
3512.59346,0.01878
3510.53329,0.01897
3508.47312,0.01907
3506.41294,0.01912
3504.35277,0.01923
3502.29260,0.01944
3500.23243,0.01969
3498.17225,0.01986
3496.11208,0.01987
3494.05191,0.01979
3491.99174,0.01984
3489.93157,0.02009
3487.87139,0.02048
3485.81122,0.02088
3483.75105,0.02125
3481.69088,0.02167
3479.63071,0.02214
3477.57053,0.02248
3475.51036,0.02254
3473.45019,0.02241
3471.39002,0.02231
3469.32984,0.02242
3467.26967,0.02275
3465.20950,0.02317
3463.14933,0.02352
3461.08916,0.02370
3459.02898,0.02373
3456.96881,0.02379
3454.90864,0.02405
3452.84847,0.02448
3450.78830,0.02490
3448.72812,0.02515
3446.66795,0.02520
3444.60778,0.02521
3442.54761,0.02537
3440.48744,0.02565
3438.42726,0.02594
3436.36709,0.02615
3434.30692,0.02633
3432.24675,0.02652
3430.18657,0.02671
3428.12640,0.02689
3426.06623,0.02707
3424.00606,0.02731
3421.94589,0.02762
3419.88571,0.02799
3417.82554,0.02836
3415.76537,0.02855
3413.70520,0.02849
3411.64503,0.02828
3409.58485,0.02817
3407.52468,0.02826
3405.46451,0.02848
3403.40434,0.02873
3401.34416,0.02911
3399.28399,0.02963
3397.22382,0.03009
3395.16365,0.03028
3393.10348,0.03020
3391.04330,0.03003
3388.98313,0.02996
3386.92296,0.03001
3384.86279,0.03013
3382.80262,0.03026
3380.74244,0.03038
3378.68227,0.03038
3376.62210,0.03022
3374.56193,0.03006
3372.50176,0.03013
3370.44158,0.03047
3368.38141,0.03091
3366.32124,0.03129
3364.26107,0.03160
3362.20089,0.03193
3360.14072,0.03224
3358.08055,0.03243
3356.02038,0.03248
3353.96021,0.03240
3351.90003,0.03226
3349.83986,0.03210
3347.77969,0.03194
3345.71952,0.03186
3343.65935,0.03197
3341.59917,0.03227
3339.53900,0.03260
3337.47883,0.03282
3335.41866,0.03290
3333.35849,0.03290
3331.29831,0.03288
3329.23814,0.03294
3327.17797,0.03310
3325.11780,0.03330
3323.05762,0.03343
3320.99745,0.03338
3318.93728,0.03316
3316.87711,0.03288
3314.81694,0.03269
3312.75676,0.03269
3310.69659,0.03286
3308.63642,0.03308
3306.57625,0.03323
3304.51608,0.03331
3302.45590,0.03336
3300.39573,0.03342
3298.33556,0.03349
3296.27539,0.03359
3294.21521,0.03374
3292.15504,0.03389
3290.09487,0.03397
3288.03470,0.03397
3285.97453,0.03393
3283.91435,0.03390
3281.85418,0.03387
3279.79401,0.03378
3277.73384,0.03365
3275.67367,0.03357
3273.61349,0.03358
3271.55332,0.03367
3269.49315,0.03380
3267.43298,0.03394
3265.37281,0.03401
3263.31263,0.03396
3261.25246,0.03378
3259.19229,0.03352
3257.13212,0.03326
3255.07194,0.03308
3253.01177,0.03296
3250.95160,0.03291
3248.89143,0.03293
3246.83126,0.03297
3244.77108,0.03296
3242.71091,0.03288
3240.65074,0.03274
3238.59057,0.03256
3236.53040,0.03240
3234.47022,0.03231
3232.41005,0.03228
3230.34988,0.03222
3228.28971,0.03209
3226.22954,0.03191
3224.16936,0.03179
3222.10919,0.03179
3220.04902,0.03190
3217.98885,0.03203
3215.92867,0.03213
3213.86850,0.03214
3211.80833,0.03202
3209.74816,0.03177
3207.68799,0.03142
3205.62781,0.03102
3203.56764,0.03059
3201.50747,0.03019
3199.44730,0.02994
3197.38713,0.02987
3195.32695,0.02988
3193.26678,0.02978
3191.20661,0.02956
3189.14644,0.02931
3187.08626,0.02913
3185.02609,0.02906
3182.96592,0.02908
3180.90575,0.02912
3178.84558,0.02910
3176.78540,0.02893
3174.72523,0.02865
3172.66506,0.02836
3170.60489,0.02813
3168.54472,0.02793
3166.48454,0.02769
3164.42437,0.02740
3162.36420,0.02711
3160.30403,0.02682
3158.24386,0.02651
3156.18368,0.02621
3154.12351,0.02592
3152.06334,0.02566
3150.00317,0.02548
3147.94299,0.02543
3145.88282,0.02545
3143.82265,0.02538
3141.76248,0.02513
3139.70231,0.02474
3137.64213,0.02427
3135.58196,0.02379
3133.52179,0.02337
3131.46162,0.02307
3129.40145,0.02287
3127.34127,0.02273
3125.28110,0.02257
3123.22093,0.02237
3121.16076,0.02212
3119.10058,0.02183
3117.04041,0.02150
3114.98024,0.02110
3112.92007,0.02066
3110.85990,0.02020
3108.79972,0.01978
3106.73955,0.01953
3104.67938,0.01954
3102.61921,0.01975
3100.55904,0.01996
3098.49886,0.01998
3096.43869,0.01974
3094.37852,0.01937
3092.31835,0.01899
3090.25818,0.01867
3088.19800,0.01838
3086.13783,0.01806
3084.07766,0.01772
3082.01749,0.01739
3079.95731,0.01713
3077.89714,0.01697
3075.83697,0.01690
3073.77680,0.01691
3071.71663,0.01697
3069.65645,0.01700
3067.59628,0.01687
3065.53611,0.01659
3063.47594,0.01621
3061.41577,0.01582
3059.35559,0.01548
3057.29542,0.01527
3055.23525,0.01523
3053.17508,0.01528
3051.11491,0.01520
3049.05473,0.01488
3046.99456,0.01442
3044.93439,0.01402
3042.87422,0.01378
3040.81404,0.01368
3038.75387,0.01369
3036.69370,0.01377
3034.63353,0.01379
3032.57336,0.01367
3030.51318,0.01348
3028.45301,0.01335
3026.39284,0.01328
3024.33267,0.01325
3022.27250,0.01324
3020.21232,0.01327
3018.15215,0.01326
3016.09198,0.01314
3014.03181,0.01291
3011.97163,0.01267
3009.91146,0.01252
3007.85129,0.01245
3005.79112,0.01230
3003.73095,0.01200
3001.67077,0.01167
2999.61060,0.01161
2997.55043,0.01200
2995.49026,0.01255
2993.43009,0.01284
2991.36991,0.01275
2989.30974,0.01246
2987.24957,0.01232
2985.18940,0.01251
2983.12923,0.01278
2981.06905,0.01285
2979.00888,0.01281
2976.94871,0.01292
2974.88854,0.01321
2972.82836,0.01348
2970.76819,0.01359
2968.70802,0.01354
2966.64785,0.01343
2964.58768,0.01356
2962.52750,0.01408
2960.46733,0.01458
2958.40716,0.01469
2956.34699,0.01464
2954.28682,0.01481
2952.22664,0.01529
2950.16647,0.01577
2948.10630,0.01609
2946.04613,0.01639
2943.98596,0.01668
2941.92578,0.01699
2939.86561,0.01738
2937.80544,0.01767
2935.74527,0.01768
2933.68509,0.01759
2931.62492,0.01763
2929.56475,0.01767
2927.50458,0.01741
2925.44441,0.01687
2923.38423,0.01640
2921.32406,0.01631
2919.26389,0.01645
2917.20372,0.01642
2915.14355,0.01623
2913.08337,0.01611
2911.02320,0.01609
2908.96303,0.01603
2906.90286,0.01597
2904.84268,0.01593
2902.78251,0.01588
2900.72234,0.01584
2898.66217,0.01582
2896.60200,0.01575
2894.54182,0.01571
2892.48165,0.01580
2890.42148,0.01589
2888.36131,0.01581
2886.30114,0.01572
2884.24096,0.01569
2882.18079,0.01556
2880.12062,0.01522
2878.06045,0.01477
2876.00028,0.01437
2873.94010,0.01408
2871.87993,0.01385
2869.81976,0.01371
2867.75959,0.01371
2865.69941,0.01376
2863.63924,0.01371
2861.57907,0.01354
2859.51890,0.01337
2857.45873,0.01319
2855.39855,0.01284
2853.33838,0.01235
2851.27821,0.01197
2849.21804,0.01190
2847.15787,0.01201
2845.09769,0.01204
2843.03752,0.01189
2840.97735,0.01160
2838.91718,0.01131
2836.85700,0.01117
2834.79683,0.01127
2832.73666,0.01146
2830.67649,0.01148
2828.61632,0.01131
2826.55614,0.01119
2824.49597,0.01122
2822.43580,0.01123
2820.37563,0.01106
2818.31546,0.01081
2816.25528,0.01053
2814.19511,0.01010
2812.13494,0.00972
2810.07477,0.00974
2808.01460,0.01010
2805.95442,0.01043
2803.89425,0.01051
2801.83408,0.01035
2799.77391,0.01008
2797.71373,0.00988
2795.65356,0.00987
2793.59339,0.00999
2791.53322,0.01007
2789.47305,0.01000
2787.41287,0.00979
2785.35270,0.00953
2783.29253,0.00928
2781.23236,0.00904
2779.17219,0.00890
2777.11201,0.00892
2775.05184,0.00900
2772.99167,0.00914
2770.93150,0.00936
2768.87133,0.00960
2766.81115,0.00968
2764.75098,0.00949
2762.69081,0.00919
2760.63064,0.00897
2758.57046,0.00880
2756.51029,0.00869
2754.45012,0.00871
2752.38995,0.00881
2750.32978,0.00887
2748.26960,0.00883
2746.20943,0.00871
2744.14926,0.00871
2742.08909,0.00896
2740.02892,0.00922
2737.96874,0.00921
2735.90857,0.00903
2733.84840,0.00884
2731.78823,0.00868
2729.72805,0.00859
2727.66788,0.00863
2725.60771,0.00879
2723.54754,0.00890
2721.48737,0.00879
2719.42719,0.00858
2717.36702,0.00842
2715.30685,0.00839
2713.24668,0.00847
2711.18651,0.00848
2709.12633,0.00831
2707.06616,0.00815
2705.00599,0.00818
2702.94582,0.00832
2700.88565,0.00837
2698.82547,0.00836
2696.76530,0.00835
2694.70513,0.00828
2692.64496,0.00813
2690.58478,0.00800
2688.52461,0.00800
2686.46444,0.00813
2684.40427,0.00838
2682.34410,0.00861
2680.28392,0.00862
2678.22375,0.00848
2676.16358,0.00829
2674.10341,0.00805
2672.04324,0.00786
2669.98306,0.00793
2667.92289,0.00808
2665.86272,0.00805
2663.80255,0.00800
2661.74238,0.00812
2659.68220,0.00824
2657.62203,0.00821
2655.56186,0.00806
2653.50169,0.00793
2651.44151,0.00784
2649.38134,0.00777
2647.32117,0.00768
2645.26100,0.00751
2643.20083,0.00733
2641.14065,0.00720
2639.08048,0.00705
2637.02031,0.00696
2634.96014,0.00720
2632.89997,0.00759
2630.83979,0.00770
2628.77962,0.00743
2626.71945,0.00707
2624.65928,0.00692
2622.59910,0.00697
2620.53893,0.00695
2618.47876,0.00682
2616.41859,0.00688
2614.35842,0.00719
2612.29824,0.00743
2610.23807,0.00733
2608.17790,0.00696
2606.11773,0.00655
2604.05756,0.00625
2601.99738,0.00613
2599.93721,0.00616
2597.87704,0.00623
2595.81687,0.00615
2593.75670,0.00600
2591.69652,0.00611
2589.63635,0.00646
2587.57618,0.00664
2585.51601,0.00652
2583.45583,0.00629
2581.39566,0.00610
2579.33549,0.00603
2577.27532,0.00619
2575.21515,0.00644
2573.15497,0.00649
2571.09480,0.00633
2569.03463,0.00608
2566.97446,0.00580
2564.91429,0.00572
2562.85411,0.00603
2560.79394,0.00641
2558.73377,0.00640
2556.67360,0.00589
2554.61342,0.00523
2552.55325,0.00503
2550.49308,0.00531
2548.43291,0.00542
2546.37274,0.00521
2544.31256,0.00506
2542.25239,0.00508
2540.19222,0.00521
2538.13205,0.00551
2536.07188,0.00579
2534.01170,0.00586
2531.95153,0.00572
2529.89136,0.00538
2527.83119,0.00503
2525.77102,0.00516
2523.71084,0.00575
2521.65067,0.00621
2519.59050,0.00616
2517.53033,0.00589
2515.47015,0.00592
2513.40998,0.00617
2511.34981,0.00616
2509.28964,0.00587
2507.22947,0.00560
2505.16929,0.00545
2503.10912,0.00546
2501.04895,0.00580
2498.98878,0.00635
2496.92861,0.00658
2494.86843,0.00617
2492.80826,0.00540
2490.74809,0.00475
2488.68792,0.00448
2486.62775,0.00452
2484.56757,0.00459
2482.50740,0.00469
2480.44723,0.00486
2478.38706,0.00488
2476.32688,0.00494
2474.26671,0.00532
2472.20654,0.00577
2470.14637,0.00588
2468.08620,0.00560
2466.02602,0.00517
2463.96585,0.00493
2461.90568,0.00495
2459.84551,0.00500
2457.78534,0.00514
2455.72516,0.00541
2453.66499,0.00553
2451.60482,0.00545
2449.54465,0.00529
2447.48447,0.00503
2445.42430,0.00477
2443.36413,0.00477
2441.30396,0.00512
2439.24379,0.00547
2437.18361,0.00546
2435.12344,0.00524
2433.06327,0.00521
2431.00310,0.00541
2428.94293,0.00557
2426.88275,0.00550
2424.82258,0.00526
2422.76241,0.00510
2420.70224,0.00520
2418.64207,0.00544
2416.58189,0.00566
2414.52172,0.00574
2412.46155,0.00560
2410.40138,0.00527
2408.34120,0.00492
2406.28103,0.00474
2404.22086,0.00482
2402.16069,0.00497
2400.10052,0.00506
2398.04034,0.00513
2395.98017,0.00524
2393.92000,0.00539
2391.85983,0.00546
2389.79966,0.00538
2387.73948,0.00521
2385.67931,0.00508
2383.61914,0.00503
2381.55897,0.00514
2379.49880,0.00540
2377.43862,0.00568
2375.37845,0.00568
2373.31828,0.00521
2371.25811,0.00442
2369.19793,0.00368
2367.13776,0.00342
2365.07759,0.00397
2363.01742,0.00509
2360.95725,0.00622
2358.89707,0.00703
2356.83690,0.00758
2354.77673,0.00788
2352.71656,0.00764
2350.65639,0.00687
2348.59621,0.00600
2346.53604,0.00534
2344.47587,0.00500
2342.41570,0.00511
2340.35552,0.00559
2338.29535,0.00589
2336.23518,0.00555
2334.17501,0.00477
2332.11484,0.00411
2330.05466,0.00405
2327.99449,0.00477
2325.93432,0.00592
2323.87415,0.00681
2321.81398,0.00691
2319.75380,0.00626
2317.69363,0.00549
2315.63346,0.00513
2313.57329,0.00523
2311.51312,0.00550
2309.45294,0.00565
2307.39277,0.00552
2305.33260,0.00520
2303.27243,0.00497
2301.21225,0.00499
2299.15208,0.00513
2297.09191,0.00524
2295.03174,0.00527
2292.97157,0.00523
2290.91139,0.00514
2288.85122,0.00511
2286.79105,0.00528
2284.73088,0.00565
2282.67071,0.00605
2280.61053,0.00626
2278.55036,0.00613
2276.49019,0.00576
2274.43002,0.00542
2272.36984,0.00529
2270.30967,0.00535
2268.24950,0.00551
2266.18933,0.00579
2264.12916,0.00622
2262.06898,0.00668
2260.00881,0.00692
2257.94864,0.00674
2255.88847,0.00620
2253.82830,0.00552
2251.76812,0.00496
2249.70795,0.00469
2247.64778,0.00478
2245.58761,0.00493
2243.52744,0.00477
2241.46726,0.00442
2239.40709,0.00434
2237.34692,0.00462
2235.28675,0.00517
2233.22657,0.00600
2231.16640,0.00676
2229.10623,0.00687
2227.04606,0.00643
2224.98589,0.00612
2222.92571,0.00631
2220.86554,0.00654
2218.80537,0.00621
2216.74520,0.00569
2214.68503,0.00532
2212.62485,0.00470
2210.56468,0.00423
2208.50451,0.00450
2206.44434,0.00491
2204.38417,0.00534
2202.32399,0.00633
2200.26382,0.00691
2198.20365,0.00592
2196.14348,0.00432
2194.08330,0.00339
2192.02313,0.00357
2189.96296,0.00483
2187.90279,0.00643
2185.84262,0.00708
2183.78244,0.00605
2181.72227,0.00393
2179.66210,0.00237
2177.60193,0.00254
2175.54176,0.00413
2173.48158,0.00597
2171.42141,0.00767
2169.36124,0.00935
2167.30107,0.00976
2165.24089,0.00782
2163.18072,0.00480
2161.12055,0.00252
2159.06038,0.00149
2157.00021,0.00154
2154.94003,0.00217
2152.87986,0.00291
2150.81969,0.00358
2148.75952,0.00367
2146.69935,0.00301
2144.63917,0.00243
2142.57900,0.00218
2140.51883,0.00185
2138.45866,0.00143
2136.39849,0.00122
2134.33831,0.00165
2132.27814,0.00286
2130.21797,0.00426
2128.15780,0.00520
2126.09762,0.00553
2124.03745,0.00545
2121.97728,0.00515
2119.91711,0.00472
2117.85694,0.00433
2115.79676,0.00418
2113.73659,0.00445
2111.67642,0.00520
2109.61625,0.00587
2107.55608,0.00583
2105.49590,0.00542
2103.43573,0.00514
2101.37556,0.00502
2099.31539,0.00502
2097.25521,0.00507
2095.19504,0.00507
2093.13487,0.00496
2091.07470,0.00474
2089.01453,0.00445
2086.95435,0.00424
2084.89418,0.00433
2082.83401,0.00468
2080.77384,0.00499
2078.71367,0.00510
2076.65349,0.00523
2074.59332,0.00558
2072.53315,0.00603
2070.47298,0.00629
2068.41281,0.00619
2066.35263,0.00569
2064.29246,0.00487
2062.23229,0.00409
2060.17212,0.00385
2058.11194,0.00432
2056.05177,0.00525
2053.99160,0.00615
2051.93143,0.00634
2049.87126,0.00540
2047.81108,0.00377
2045.75091,0.00249
2043.69074,0.00215
2041.63057,0.00253
2039.57040,0.00319
2037.51022,0.00393
2035.45005,0.00481
2033.38988,0.00597
2031.32971,0.00719
2029.26954,0.00796
2027.20936,0.00799
2025.14919,0.00721
2023.08902,0.00577
2021.02885,0.00407
2018.96867,0.00262
2016.90850,0.00155
2014.84833,0.00089
2012.78816,0.00090
2010.72799,0.00141
2008.66781,0.00176
2006.60764,0.00161
2004.54747,0.00143
2002.48730,0.00188
2000.42713,0.00299
1998.36695,0.00434
1996.30678,0.00552
1994.24661,0.00619
1992.18644,0.00616
1990.12626,0.00572
1988.06609,0.00538
1986.00592,0.00530
1983.94575,0.00520
1981.88558,0.00463
1979.82540,0.00327
1977.76523,0.00138
1975.70506,0.00000
1973.64489,0.00005
1971.58472,0.00148
1969.52454,0.00331
1967.46437,0.00453
1965.40420,0.00469
1963.34403,0.00402
1961.28386,0.00315
1959.22368,0.00276
1957.16351,0.00308
1955.10334,0.00385
1953.04317,0.00468
1950.98299,0.00527
1948.92282,0.00545
1946.86265,0.00528
1944.80248,0.00498
1942.74231,0.00473
1940.68213,0.00461
1938.62196,0.00456
1936.56179,0.00446
1934.50162,0.00428
1932.44145,0.00410
1930.38127,0.00399
1928.32110,0.00398
1926.26093,0.00401
1924.20076,0.00390
1922.14059,0.00360
1920.08041,0.00335
1918.02024,0.00334
1915.96007,0.00344
1913.89990,0.00348
1911.83972,0.00358
1909.77955,0.00393
1907.71938,0.00440
1905.65921,0.00462
1903.59904,0.00445
1901.53886,0.00411
1899.47869,0.00382
1897.41852,0.00359
1895.35835,0.00335
1893.29818,0.00308
1891.23800,0.00280
1889.17783,0.00251
1887.11766,0.00232
1885.05749,0.00237
1882.99731,0.00264
1880.93714,0.00289
1878.87697,0.00296
1876.81680,0.00285
1874.75663,0.00270
1872.69645,0.00265
1870.63628,0.00272
1868.57611,0.00280
1866.51594,0.00279
1864.45577,0.00271
1862.39559,0.00256
1860.33542,0.00235
1858.27525,0.00213
1856.21508,0.00205
1854.15491,0.00214
1852.09473,0.00228
1850.03456,0.00233
1847.97439,0.00228
1845.91422,0.00229
1843.85404,0.00249
1841.79387,0.00282
1839.73370,0.00307
1837.67353,0.00312
1835.61336,0.00304
1833.55318,0.00293
1831.49301,0.00285
1829.43284,0.00287
1827.37267,0.00299
1825.31250,0.00310
1823.25232,0.00303
1821.19215,0.00279
1819.13198,0.00251
1817.07181,0.00232
1815.01163,0.00229
1812.95146,0.00246
1810.89129,0.00276
1808.83112,0.00305
1806.77095,0.00317
1804.71077,0.00309
1802.65060,0.00290
1800.59043,0.00275
1798.53026,0.00271
1796.47009,0.00278
1794.40991,0.00287
1792.34974,0.00289
1790.28957,0.00279
1788.22940,0.00262
1786.16923,0.00247
1784.10905,0.00241
1782.04888,0.00243
1779.98871,0.00247
1777.92854,0.00248
1775.86836,0.00248
1773.80819,0.00247
1771.74802,0.00240
1769.68785,0.00226
1767.62768,0.00218
1765.56750,0.00227
1763.50733,0.00258
1761.44716,0.00306
1759.38699,0.00357
1757.32682,0.00403
1755.26664,0.00444
1753.20647,0.00488
1751.14630,0.00544
1749.08613,0.00602
1747.02596,0.00647
1744.96578,0.00673
1742.90561,0.00691
1740.84544,0.00707
1738.78527,0.00720
1736.72509,0.00727
1734.66492,0.00738
1732.60475,0.00756
1730.54458,0.00778
1728.48441,0.00795
1726.42423,0.00797
1724.36406,0.00781
1722.30389,0.00754
1720.24372,0.00728
1718.18355,0.00697
1716.12337,0.00654
1714.06320,0.00605
1712.00303,0.00567
1709.94286,0.00542
1707.88268,0.00521
1705.82251,0.00497
1703.76234,0.00470
1701.70217,0.00443
1699.64200,0.00427
1697.58182,0.00431
1695.52165,0.00454
1693.46148,0.00486
1691.40131,0.00524
1689.34114,0.00564
1687.28096,0.00598
1685.22079,0.00625
1683.16062,0.00640
1681.10045,0.00652
1679.04028,0.00666
1676.98010,0.00681
1674.91993,0.00695
1672.85976,0.00715
1670.79959,0.00746
1668.73941,0.00786
1666.67924,0.00831
1664.61907,0.00876
1662.55890,0.00920
1660.49873,0.00967
1658.43855,0.01024
1656.37838,0.01094
1654.31821,0.01169
1652.25804,0.01239
1650.19787,0.01298
1648.13769,0.01346
1646.07752,0.01375
1644.01735,0.01383
1641.95718,0.01385
1639.89701,0.01392
1637.83683,0.01406
1635.77666,0.01418
1633.71649,0.01424
1631.65632,0.01431
1629.59614,0.01443
1627.53597,0.01461
1625.47580,0.01481
1623.41563,0.01501
1621.35546,0.01521
1619.29528,0.01531
1617.23511,0.01521
1615.17494,0.01494
1613.11477,0.01464
1611.05460,0.01441
1608.99442,0.01414
1606.93425,0.01374
1604.87408,0.01318
1602.81391,0.01253
1600.75373,0.01181
1598.69356,0.01103
1596.63339,0.01021
1594.57322,0.00939
1592.51305,0.00862
1590.45287,0.00793
1588.39270,0.00734
1586.33253,0.00684
1584.27236,0.00640
1582.21219,0.00602
1580.15201,0.00570
1578.09184,0.00545
1576.03167,0.00521
1573.97150,0.00489
1571.91133,0.00451
1569.85115,0.00408
1567.79098,0.00368
1565.73081,0.00336
1563.67064,0.00311
1561.61046,0.00285
1559.55029,0.00254
1557.49012,0.00223
1555.42995,0.00206
1553.36978,0.00208
1551.30960,0.00218
1549.24943,0.00224
1547.18926,0.00229
1545.12909,0.00240
1543.06892,0.00252
1541.00874,0.00241
1538.94857,0.00196
1536.88840,0.00146
1534.82823,0.00119
1532.76805,0.00114
1530.70788,0.00113
1528.64771,0.00117
1526.58754,0.00127
1524.52737,0.00137
1522.46719,0.00140
1520.40702,0.00133
1518.34685,0.00126
1516.28668,0.00126
1514.22651,0.00136
1512.16633,0.00156
1510.10616,0.00184
1508.04599,0.00205
1505.98582,0.00199
1503.92565,0.00168
1501.86547,0.00143
1499.80530,0.00141
1497.74513,0.00153
1495.68496,0.00160
1493.62478,0.00157
1491.56461,0.00154
1489.50444,0.00152
1487.44427,0.00153
1485.38410,0.00165
1483.32392,0.00193
1481.26375,0.00232
1479.20358,0.00275
1477.14341,0.00324
1475.08324,0.00376
1473.02306,0.00423
1470.96289,0.00462
1468.90272,0.00496
1466.84255,0.00531
1464.78238,0.00568
1462.72220,0.00611
1460.66203,0.00666
1458.60186,0.00720
1456.54169,0.00754
1454.48151,0.00762
1452.42134,0.00768
1450.36117,0.00784
1448.30100,0.00809
1446.24083,0.00835
1444.18065,0.00858
1442.12048,0.00877
1440.06031,0.00897
1438.00014,0.00920
1435.93997,0.00942
1433.87979,0.00959
1431.81962,0.00975
1429.75945,0.00996
1427.69928,0.01031
1425.63910,0.01078
1423.57893,0.01129
1421.51876,0.01176
1419.45859,0.01210
1417.39842,0.01224
1415.33824,0.01219
1413.27807,0.01207
1411.21790,0.01194
1409.15773,0.01180
1407.09756,0.01165
1405.03738,0.01145
1402.97721,0.01119
1400.91704,0.01094
1398.85687,0.01073
1396.79670,0.01056
1394.73652,0.01045
1392.67635,0.01042
1390.61618,0.01041
1388.55601,0.01037
1386.49583,0.01030
1384.43566,0.01031
1382.37549,0.01050
1380.31532,0.01083
1378.25515,0.01118
1376.19497,0.01144
1374.13480,0.01161
1372.07463,0.01169
1370.01446,0.01172
1367.95429,0.01170
1365.89411,0.01160
1363.83394,0.01143
1361.77377,0.01123
1359.71360,0.01102
1357.65343,0.01075
1355.59325,0.01045
1353.53308,0.01017
1351.47291,0.00999
1349.41274,0.00986
1347.35256,0.00975
1345.29239,0.00969
1343.23222,0.00966
1341.17205,0.00967
1339.11188,0.00966
1337.05170,0.00960
1334.99153,0.00948
1332.93136,0.00934
1330.87119,0.00922
1328.81102,0.00914
1326.75084,0.00912
1324.69067,0.00915
1322.63050,0.00924
1320.57033,0.00939
1318.51015,0.00950
1316.44998,0.00948
1314.38981,0.00935
1312.32964,0.00920
1310.26947,0.00909
1308.20929,0.00903
1306.14912,0.00898
1304.08895,0.00888
1302.02878,0.00869
1299.96861,0.00842
1297.90843,0.00811
1295.84826,0.00787
1293.78809,0.00775
1291.72792,0.00771
1289.66775,0.00768
1287.60757,0.00761
1285.54740,0.00750
1283.48723,0.00740
1281.42706,0.00740
1279.36688,0.00755
1277.30671,0.00780
1275.24654,0.00806
1273.18637,0.00827
1271.12620,0.00847
1269.06602,0.00870
1267.00585,0.00902
1264.94568,0.00944
1262.88551,0.00993
1260.82534,0.01042
1258.76516,0.01088
1256.70499,0.01127
1254.64482,0.01156
1252.58465,0.01174
1250.52447,0.01179
1248.46430,0.01174
1246.40413,0.01164
1244.34396,0.01151
1242.28379,0.01135
1240.22361,0.01118
1238.16344,0.01098
1236.10327,0.01074
1234.04310,0.01049
1231.98293,0.01024
1229.92275,0.00997
1227.86258,0.00963
1225.80241,0.00923
1223.74224,0.00879
1221.68207,0.00828
1219.62189,0.00768
1217.56172,0.00707
1215.50155,0.00654
1213.44138,0.00610
1211.38120,0.00568
1209.32103,0.00525
1207.26086,0.00475
1205.20069,0.00416
1203.14052,0.00344
1201.08034,0.00260
1199.02017,0.00169
1196.96000,0.00089
1194.89983,0.00043
1192.83966,0.00022
1190.77948,0.00008
1188.71931,0.00000
1186.65914,-0.00006
1184.59897,-0.00004
1182.53880,0.00022
1180.47862,0.00081
1178.41845,0.00155
1176.35828,0.00228
1174.29811,0.00296
1172.23793,0.00361
1170.17776,0.00429
1168.11759,0.00509
1166.05742,0.00593
1163.99725,0.00661
1161.93707,0.00711
1159.87690,0.00757
1157.81673,0.00821
1155.75656,0.00904
1153.69639,0.00983
1151.63621,0.01040
1149.57604,0.01090
1147.51587,0.01134
1145.45570,0.01165
1143.39552,0.01192
1141.33535,0.01219
1139.27518,0.01242
1137.21501,0.01262
1135.15484,0.01288
1133.09466,0.01330
1131.03449,0.01389
1128.97432,0.01460
1126.91415,0.01538
1124.85398,0.01614
1122.79380,0.01671
1120.73363,0.01705
1118.67346,0.01737
1116.61329,0.01789
1114.55312,0.01871
1112.49294,0.01965
1110.43277,0.02037
1108.37260,0.02074
1106.31243,0.02098
1104.25225,0.02144
1102.19208,0.02221
1100.13191,0.02316
1098.07174,0.02413
1096.01157,0.02511
1093.95139,0.02608
1091.89122,0.02693
1089.83105,0.02766
1087.77088,0.02832
1085.71071,0.02896
1083.65053,0.02959
1081.59036,0.03028
1079.53019,0.03117
1077.47002,0.03232
1075.40985,0.03349
1073.34967,0.03439
1071.28950,0.03492
1069.22933,0.03523
1067.16916,0.03560
1065.10898,0.03617
1063.04881,0.03683
1060.98864,0.03747
1058.92847,0.03804
1056.86830,0.03845
1054.80812,0.03856
1052.74795,0.03859
1050.68778,0.03895
1048.62761,0.03962
1046.56744,0.04032
1044.50726,0.04102
1042.44709,0.04173
1040.38692,0.04238
1038.32675,0.04295
1036.26657,0.04339
1034.20640,0.04353
1032.14623,0.04344
1030.08606,0.04341
1028.02589,0.04348
1025.96571,0.04350
1023.90554,0.04345
1021.84537,0.04341
1019.78520,0.04341
1017.72503,0.04359
1015.66485,0.04405
1013.60468,0.04449
1011.54451,0.04455
1009.48434,0.04422
1007.42417,0.04371
1005.36399,0.04313
1003.30382,0.04262
1001.24365,0.04222
999.18348,0.04187
997.12330,0.04148
995.06313,0.04109
993.00296,0.04066
990.94279,0.04017
988.88262,0.03964
986.82244,0.03919
984.76227,0.03884
982.70210,0.03852
980.64193,0.03813
978.58176,0.03760
976.52158,0.03692
974.46141,0.03632
972.40124,0.03603
970.34107,0.03584
968.28089,0.03544
966.22072,0.03486
964.16055,0.03429
962.10038,0.03399
960.04021,0.03396
957.98003,0.03386
955.91986,0.03339
953.85969,0.03258
951.79952,0.03179
949.73935,0.03123
947.67917,0.03066
945.61900,0.02971
943.55883,0.02847
941.49866,0.02714
939.43849,0.02568
937.37831,0.02399
935.31814,0.02224
933.25797,0.02062
931.19780,0.01919
929.13762,0.01789
927.07745,0.01659
925.01728,0.01532
922.95711,0.01428
920.89694,0.01351
918.83676,0.01284
916.77659,0.01204
914.71642,0.01111
912.65625,0.01017
910.59608,0.00931
908.53590,0.00874
906.47573,0.00868
904.41556,0.00892
902.35539,0.00902
900.29522,0.00880
898.23504,0.00855
896.17487,0.00837
894.11470,0.00820
892.05453,0.00809
889.99435,0.00795
887.93418,0.00769
885.87401,0.00745
883.81384,0.00719
881.75367,0.00672
879.69349,0.00605
877.63332,0.00533
875.57315,0.00485
873.51298,0.00489
871.45281,0.00525
869.39263,0.00535
867.33246,0.00491
865.27229,0.00420
863.21212,0.00384
861.15194,0.00396
859.09177,0.00397
857.03160,0.00350
854.97143,0.00298
852.91126,0.00287
850.85108,0.00302
848.79091,0.00308
846.73074,0.00291
844.67057,0.00260
842.61040,0.00214
840.55022,0.00147
838.49005,0.00081
836.42988,0.00038
834.36971,0.00010
832.30954,0.00000
830.24936,0.00013
828.18919,0.00050
826.12902,0.00102
824.06885,0.00168
822.00867,0.00222
819.94850,0.00209
817.88833,0.00131
815.82816,0.00052
813.76799,0.00024
811.70781,0.00040
809.64764,0.00062
807.58747,0.00100
805.52730,0.00179
803.46713,0.00258
801.40695,0.00282
799.34678,0.00252
797.28661,0.00200
795.22644,0.00167
793.16627,0.00174
791.10609,0.00176
789.04592,0.00130
786.98575,0.00055
784.92558,0.00010
782.86540,0.00025
780.80523,0.00063
778.74506,0.00082
776.68489,0.00094
774.62472,0.00132
772.56454,0.00191
770.50437,0.00243
768.44420,0.00262
766.38403,0.00238
764.32386,0.00178
762.26368,0.00120
760.20351,0.00084
758.14334,0.00030
756.08317,-0.00041
754.02299,-0.00057
751.96282,0.00000
749.90265,0.00045
747.84248,0.00029
745.78231,0.00002
743.72213,0.00006
741.66196,0.00006
739.60179,-0.00029
737.54162,-0.00052
735.48145,-0.00044
733.42127,-0.00074
731.36110,-0.00143
729.30093,-0.00145
727.24076,-0.00055
725.18059,0.00028
723.12041,0.00045
721.06024,0.00030
719.00007,0.00039
716.93990,0.00106
714.87972,0.00223
712.81955,0.00344
710.75938,0.00425
708.69921,0.00468
706.63904,0.00497
704.57886,0.00519
702.51869,0.00519
700.45852,0.00489
698.39835,0.00435
696.33818,0.00384
694.27800,0.00366
692.21783,0.00382
690.15766,0.00406
688.09749,0.00417
686.03731,0.00421
683.97714,0.00417
681.91697,0.00384
679.85680,0.00321
677.79663,0.00257
675.73645,0.00222
673.67628,0.00227
671.61611,0.00271
669.55594,0.00336
667.49577,0.00380
665.43559,0.00359
663.37542,0.00291
661.31525,0.00226
659.25508,0.00197
657.19491,0.00191
655.13473,0.00165
653.07456,0.00093
651.01439,0.00011
648.95422,0.00000
646.89404,0.00074
644.83387,0.00211
642.77370,0.00312
640.71353,0.00351
638.65336,0.00370
636.59318,0.00398
634.53301,0.00433
632.47284,0.00462
630.41267,0.00466
628.35250,0.00426
626.29232,0.00339
624.23215,0.00242
622.17198,0.00110
620.11181,-0.00098
618.05164,-0.00336
615.99146,-0.00516
613.93129,-0.00508
611.87112,-0.00327
609.81095,-0.00208
607.75077,-0.00220
605.69060,-0.00225
603.63043,-0.00162
601.57026,-0.00078
599.51009,0.00000
