3996.73391,0.00045
3994.67373,0.00036
3992.61356,0.00036
3990.55339,0.00029
3988.49322,0.00014
3986.43305,0.00014
3984.37287,0.00031
3982.31270,0.00038
3980.25253,0.00030
3978.19236,0.00012
3976.13219,0.00000
3974.07201,0.00009
3972.01184,0.00025
3969.95167,0.00037
3967.89150,0.00052
3965.83133,0.00058
3963.77115,0.00041
3961.71098,0.00040
3959.65081,0.00065
3957.59064,0.00078
3955.53046,0.00078
3953.47029,0.00073
3951.41012,0.00060
3949.34995,0.00057
3947.28978,0.00079
3945.22960,0.00067
3943.16943,0.00015
3941.10926,0.00013
3939.04909,0.00045
3936.98892,0.00079
3934.92874,0.00107
3932.86857,0.00101
3930.80840,0.00088
3928.74823,0.00088
3926.68805,0.00060
3924.62788,0.00037
3922.56771,0.00069
3920.50754,0.00092
3918.44737,0.00092
3916.38719,0.00110
3914.32702,0.00132
3912.26685,0.00128
3910.20668,0.00133
3908.14651,0.00132
3906.08633,0.00080
3904.02616,0.00055
3901.96599,0.00086
3899.90582,0.00082
3897.84565,0.00124
3895.78547,0.00186
3893.72530,0.00143
3891.66513,0.00089
3889.60496,0.00157
3887.54478,0.00162
3885.48461,0.00121
3883.42444,0.00163
3881.36427,0.00137
3879.30410,0.00169
3877.24392,0.00249
3875.18375,0.00204
3873.12358,0.00150
3871.06341,0.00107
3869.00324,0.00161
3866.94306,0.00224
3864.88289,0.00137
3862.82272,0.00116
3860.76255,0.00194
3858.70237,0.00263
3856.64220,0.00200
3854.58203,0.00000
3852.52186,0.00017
3850.46169,0.00213
3848.40151,0.00264
3846.34134,0.00207
3844.28117,0.00156
3842.22100,0.00170
3840.16083,0.00174
3838.10065,0.00172
3836.04048,0.00224
3833.98031,0.00221
3831.92014,0.00161
3829.85997,0.00142
3827.79979,0.00140
3825.73962,0.00182
3823.67945,0.00165
3821.61928,0.00064
3819.55910,0.00147
3817.49893,0.00157
3815.43876,0.00086
3813.37859,0.00156
3811.31842,0.00194
3809.25824,0.00112
3807.19807,0.00054
3805.13790,0.00146
3803.07773,0.00111
3801.01756,0.00054
3798.95738,0.00150
3796.89721,0.00158
3794.83704,0.00156
3792.77687,0.00162
3790.71670,0.00129
3788.65652,0.00097
3786.59635,0.00071
3784.53618,0.00095
3782.47601,0.00139
3780.41583,0.00091
3778.35566,0.00063
3776.29549,0.00106
3774.23532,0.00129
3772.17515,0.00103
3770.11497,0.00078
3768.05480,0.00114
3765.99463,0.00123
3763.93446,0.00163
3761.87429,0.00178
3759.81411,0.00117
3757.75394,0.00137
3755.69377,0.00211
3753.63360,0.00147
3751.57342,0.00016
3749.51325,0.00125
3747.45308,0.00286
3745.39291,0.00185
3743.33274,0.00174
3741.27256,0.00301
3739.21239,0.00281
3737.15222,0.00159
3735.09205,0.00105
3733.03188,0.00154
3730.97170,0.00236
3728.91153,0.00269
3726.85136,0.00210
3724.79119,0.00168
3722.73102,0.00168
3720.67084,0.00197
3718.61067,0.00246
3716.55050,0.00282
3714.49033,0.00232
3712.43015,0.00117
3710.36998,0.00099
3708.30981,0.00191
3706.24964,0.00228
3704.18947,0.00138
3702.12929,0.00035
3700.06912,0.00080
3698.00895,0.00161
3695.94878,0.00185
3693.88861,0.00189
3691.82843,0.00128
3689.76826,0.00036
3687.70809,0.00076
3685.64792,0.00199
3683.58775,0.00244
3681.52757,0.00245
3679.46740,0.00231
3677.40723,0.00139
3675.34706,0.00131
3673.28688,0.00331
3671.22671,0.00285
3669.16654,0.00187
3667.10637,0.00273
3665.04620,0.00282
3662.98602,0.00220
3660.92585,0.00211
3658.86568,0.00217
3656.80551,0.00234
3654.74534,0.00367
3652.68516,0.00405
3650.62499,0.00244
3648.56482,0.00168
3646.50465,0.00249
3644.44447,0.00327
3642.38430,0.00313
3640.32413,0.00278
3638.26396,0.00276
3636.20379,0.00301
3634.14361,0.00339
3632.08344,0.00342
3630.02327,0.00235
3627.96310,0.00258
3625.90293,0.00441
3623.84275,0.00513
3621.78258,0.00454
3619.72241,0.00396
3617.66224,0.00474
3615.60207,0.00544
3613.54189,0.00521
3611.48172,0.00533
3609.42155,0.00516
3607.36138,0.00497
3605.30120,0.00541
3603.24103,0.00543
3601.18086,0.00505
3599.12069,0.00507
3597.06052,0.00531
3595.00034,0.00565
3592.94017,0.00636
3590.88000,0.00630
3588.81983,0.00516
3586.75966,0.00497
3584.69948,0.00597
3582.63931,0.00626
3580.57914,0.00604
3578.51897,0.00611
3576.45879,0.00643
3574.39862,0.00687
3572.33845,0.00727
3570.27828,0.00717
3568.21811,0.00680
3566.15793,0.00736
3564.09776,0.00825
3562.03759,0.00828
3559.97742,0.00806
3557.91725,0.00813
3555.85707,0.00829
3553.79690,0.00846
3551.73673,0.00894
3549.67656,0.00942
3547.61639,0.00934
3545.55621,0.00923
3543.49604,0.00936
3541.43587,0.00926
3539.37570,0.00901
3537.31552,0.00902
3535.25535,0.00961
3533.19518,0.01034
3531.13501,0.01054
3529.07484,0.01041
3527.01466,0.01055
3524.95449,0.01083
3522.89432,0.01099
3520.83415,0.01114
3518.77398,0.01111
3516.71380,0.01106
3514.65363,0.01124
3512.59346,0.01152
3510.53329,0.01169
3508.47312,0.01192
3506.41294,0.01211
3504.35277,0.01191
3502.29260,0.01191
3500.23243,0.01222
3498.17225,0.01242
3496.11208,0.01265
3494.05191,0.01291
3491.99174,0.01288
3489.93157,0.01253
3487.87139,0.01238
3485.81122,0.01273
3483.75105,0.01301
3481.69088,0.01317
3479.63071,0.01348
3477.57053,0.01359
3475.51036,0.01371
3473.45019,0.01417
3471.39002,0.01449
3469.32984,0.01426
3467.26967,0.01394
3465.20950,0.01405
3463.14933,0.01434
3461.08916,0.01460
3459.02898,0.01488
3456.96881,0.01515
3454.90864,0.01544
3452.84847,0.01574
3450.78830,0.01600
3448.72812,0.01604
3446.66795,0.01597
3444.60778,0.01585
3442.54761,0.01568
3440.48744,0.01585
3438.42726,0.01611
3436.36709,0.01628
3434.30692,0.01640
3432.24675,0.01645
3430.18657,0.01662
3428.12640,0.01685
3426.06623,0.01692
3424.00606,0.01690
3421.94589,0.01698
3419.88571,0.01739
3417.82554,0.01770
3415.76537,0.01763
3413.70520,0.01761
3411.64503,0.01772
3409.58485,0.01780
3407.52468,0.01786
3405.46451,0.01799
3403.40434,0.01818
3401.34416,0.01824
3399.28399,0.01821
3397.22382,0.01823
3395.16365,0.01839
3393.10348,0.01858
3391.04330,0.01898
3388.98313,0.01925
3386.92296,0.01921
3384.86279,0.01910
3382.80262,0.01904
3380.74244,0.01907
3378.68227,0.01917
3376.62210,0.01924
3374.56193,0.01929
3372.50176,0.01932
3370.44158,0.01940
3368.38141,0.01942
3366.32124,0.01942
3364.26107,0.01961
3362.20089,0.01983
3360.14072,0.01994
3358.08055,0.01982
3356.02038,0.01971
3353.96021,0.01984
3351.90003,0.01996
3349.83986,0.02006
3347.77969,0.02015
3345.71952,0.02005
3343.65935,0.01995
3341.59917,0.01998
3339.53900,0.01995
3337.47883,0.01985
3335.41866,0.01992
3333.35849,0.02014
3331.29831,0.02024
3329.23814,0.02024
3327.17797,0.02027
3325.11780,0.02035
3323.05762,0.02050
3320.99745,0.02066
3318.93728,0.02082
3316.87711,0.02096
3314.81694,0.02091
3312.75676,0.02075
3310.69659,0.02058
3308.63642,0.02049
3306.57625,0.02057
3304.51608,0.02059
3302.45590,0.02042
3300.39573,0.02035
3298.33556,0.02068
3296.27539,0.02101
3294.21521,0.02093
3292.15504,0.02063
3290.09487,0.02042
3288.03470,0.02028
3285.97453,0.02023
3283.91435,0.02041
3281.85418,0.02058
3279.79401,0.02064
3277.73384,0.02067
3275.67367,0.02063
3273.61349,0.02061
3271.55332,0.02069
3269.49315,0.02070
3267.43298,0.02078
3265.37281,0.02091
3263.31263,0.02085
3261.25246,0.02077
3259.19229,0.02076
3257.13212,0.02065
3255.07194,0.02041
3253.01177,0.02016
3250.95160,0.01999
3248.89143,0.01994
3246.83126,0.01997
3244.77108,0.02002
3242.71091,0.02009
3240.65074,0.02013
3238.59057,0.02012
3236.53040,0.02008
3234.47022,0.01998
3232.41005,0.01987
3230.34988,0.01986
3228.28971,0.01992
3226.22954,0.02009
3224.16936,0.02012
3222.10919,0.01977
3220.04902,0.01942
3217.98885,0.01935
3215.92867,0.01942
3213.86850,0.01948
3211.80833,0.01942
3209.74816,0.01928
3207.68799,0.01923
3205.62781,0.01906
3203.56764,0.01874
3201.50747,0.01853
3199.44730,0.01849
3197.38713,0.01848
3195.32695,0.01844
3193.26678,0.01825
3191.20661,0.01796
3189.14644,0.01787
3187.08626,0.01790
3185.02609,0.01780
3182.96592,0.01767
3180.90575,0.01766
3178.84558,0.01757
3176.78540,0.01743
3174.72523,0.01737
3172.66506,0.01733
3170.60489,0.01728
3168.54472,0.01715
3166.48454,0.01695
3164.42437,0.01674
3162.36420,0.01651
3160.30403,0.01632
3158.24386,0.01623
3156.18368,0.01622
3154.12351,0.01620
3152.06334,0.01603
3150.00317,0.01562
3147.94299,0.01527
3145.88282,0.01508
3143.82265,0.01492
3141.76248,0.01483
3139.70231,0.01489
3137.64213,0.01492
3135.58196,0.01483
3133.52179,0.01473
3131.46162,0.01468
3129.40145,0.01452
3127.34127,0.01427
3125.28110,0.01406
3123.22093,0.01389
3121.16076,0.01380
3119.10058,0.01381
3117.04041,0.01372
3114.98024,0.01347
3112.92007,0.01327
3110.85990,0.01319
3108.79972,0.01320
3106.73955,0.01310
3104.67938,0.01290
3102.61921,0.01271
3100.55904,0.01253
3098.49886,0.01240
3096.43869,0.01232
3094.37852,0.01225
3092.31835,0.01211
3090.25818,0.01196
3088.19800,0.01183
3086.13783,0.01167
3084.07766,0.01156
3082.01749,0.01147
3079.95731,0.01139
3077.89714,0.01135
3075.83697,0.01137
3073.77680,0.01132
3071.71663,0.01112
3069.65645,0.01094
3067.59628,0.01087
3065.53611,0.01073
3063.47594,0.01049
3061.41577,0.01029
3059.35559,0.01012
3057.29542,0.00999
3055.23525,0.01004
3053.17508,0.01009
3051.11491,0.00992
3049.05473,0.00979
3046.99456,0.00983
3044.93439,0.00973
3042.87422,0.00940
3040.81404,0.00920
3038.75387,0.00924
3036.69370,0.00927
3034.63353,0.00920
3032.57336,0.00909
3030.51318,0.00898
3028.45301,0.00896
3026.39284,0.00894
3024.33267,0.00874
3022.27250,0.00847
3020.21232,0.00832
3018.15215,0.00829
3016.09198,0.00820
3014.03181,0.00807
3011.97163,0.00797
3009.91146,0.00789
3007.85129,0.00789
3005.79112,0.00803
3003.73095,0.00821
3001.67077,0.00829
2999.61060,0.00821
2997.55043,0.00806
2995.49026,0.00792
2993.43009,0.00777
2991.36991,0.00768
2989.30974,0.00769
2987.24957,0.00787
2985.18940,0.00816
2983.12923,0.00823
2981.06905,0.00810
2979.00888,0.00810
2976.94871,0.00833
2974.88854,0.00862
2972.82836,0.00875
2970.76819,0.00873
2968.70802,0.00873
2966.64785,0.00886
2964.58768,0.00901
2962.52750,0.00921
2960.46733,0.00954
2958.40716,0.00980
2956.34699,0.00982
2954.28682,0.00983
2952.22664,0.01011
2950.16647,0.01040
2948.10630,0.01054
2946.04613,0.01080
2943.98596,0.01112
2941.92578,0.01120
2939.86561,0.01111
2937.80544,0.01114
2935.74527,0.01135
2933.68509,0.01169
2931.62492,0.01192
2929.56475,0.01188
2927.50458,0.01176
2925.44441,0.01182
2923.38423,0.01194
2921.32406,0.01190
2919.26389,0.01176
2917.20372,0.01167
2915.14355,0.01163
2913.08337,0.01143
2911.02320,0.01107
2908.96303,0.01083
2906.90286,0.01081
2904.84268,0.01078
2902.78251,0.01068
2900.72234,0.01066
2898.66217,0.01065
2896.60200,0.01060
2894.54182,0.01057
2892.48165,0.01052
2890.42148,0.01039
2888.36131,0.01025
2886.30114,0.01015
2884.24096,0.01002
2882.18079,0.00990
2880.12062,0.00982
2878.06045,0.00984
2876.00028,0.00994
2873.94010,0.01001
2871.87993,0.00994
2869.81976,0.00973
2867.75959,0.00958
2865.69941,0.00949
2863.63924,0.00926
2861.57907,0.00899
2859.51890,0.00892
2857.45873,0.00897
2855.39855,0.00901
2853.33838,0.00896
2851.27821,0.00880
2849.21804,0.00860
2847.15787,0.00836
2845.09769,0.00822
2843.03752,0.00824
2840.97735,0.00822
2838.91718,0.00800
2836.85700,0.00772
2834.79683,0.00761
2832.73666,0.00763
2830.67649,0.00760
2828.61632,0.00752
2826.55614,0.00750
2824.49597,0.00748
2822.43580,0.00743
2820.37563,0.00735
2818.31546,0.00721
2816.25528,0.00707
2814.19511,0.00696
2812.13494,0.00691
2810.07477,0.00689
2808.01460,0.00685
2805.95442,0.00683
2803.89425,0.00677
2801.83408,0.00661
2799.77391,0.00654
2797.71373,0.00651
2795.65356,0.00644
2793.59339,0.00639
2791.53322,0.00645
2789.47305,0.00663
2787.41287,0.00678
2785.35270,0.00672
2783.29253,0.00655
2781.23236,0.00645
2779.17219,0.00638
2777.11201,0.00623
2775.05184,0.00614
2772.99167,0.00622
2770.93150,0.00631
2768.87133,0.00626
2766.81115,0.00610
2764.75098,0.00607
2762.69081,0.00608
2760.63064,0.00606
2758.57046,0.00616
2756.51029,0.00618
2754.45012,0.00602
2752.38995,0.00598
2750.32978,0.00608
2748.26960,0.00607
2746.20943,0.00597
2744.14926,0.00592
2742.08909,0.00599
2740.02892,0.00612
2737.96874,0.00616
2735.90857,0.00611
2733.84840,0.00607
2731.78823,0.00606
2729.72805,0.00602
2727.66788,0.00590
2725.60771,0.00574
2723.54754,0.00570
2721.48737,0.00580
2719.42719,0.00581
2717.36702,0.00575
2715.30685,0.00570
2713.24668,0.00571
2711.18651,0.00576
2709.12633,0.00568
2707.06616,0.00555
2705.00599,0.00553
2702.94582,0.00549
2700.88565,0.00551
2698.82547,0.00564
2696.76530,0.00572
2694.70513,0.00575
2692.64496,0.00579
2690.58478,0.00571
2688.52461,0.00553
2686.46444,0.00541
2684.40427,0.00534
2682.34410,0.00530
2680.28392,0.00535
2678.22375,0.00545
2676.16358,0.00548
2674.10341,0.00543
2672.04324,0.00536
2669.98306,0.00527
2667.92289,0.00518
2665.86272,0.00517
2663.80255,0.00529
2661.74238,0.00535
2659.68220,0.00528
2657.62203,0.00529
2655.56186,0.00539
2653.50169,0.00535
2651.44151,0.00524
2649.38134,0.00525
2647.32117,0.00529
2645.26100,0.00522
2643.20083,0.00519
2641.14065,0.00528
2639.08048,0.00526
2637.02031,0.00508
2634.96014,0.00503
2632.89997,0.00509
2630.83979,0.00501
2628.77962,0.00478
2626.71945,0.00462
2624.65928,0.00460
2622.59910,0.00464
2620.53893,0.00475
2618.47876,0.00482
2616.41859,0.00467
2614.35842,0.00446
2612.29824,0.00441
2610.23807,0.00440
2608.17790,0.00433
2606.11773,0.00438
2604.05756,0.00456
2601.99738,0.00473
2599.93721,0.00479
2597.87704,0.00461
2595.81687,0.00441
2593.75670,0.00428
2591.69652,0.00414
2589.63635,0.00411
2587.57618,0.00411
2585.51601,0.00414
2583.45583,0.00423
2581.39566,0.00424
2579.33549,0.00408
2577.27532,0.00398
2575.21515,0.00408
2573.15497,0.00423
2571.09480,0.00433
2569.03463,0.00438
2566.97446,0.00418
2564.91429,0.00387
2562.85411,0.00380
2560.79394,0.00390
2558.73377,0.00402
2556.67360,0.00406
2554.61342,0.00403
2552.55325,0.00399
2550.49308,0.00401
2548.43291,0.00405
2546.37274,0.00405
2544.31256,0.00400
2542.25239,0.00394
2540.19222,0.00394
2538.13205,0.00391
2536.07188,0.00383
2534.01170,0.00370
2531.95153,0.00340
2529.89136,0.00323
2527.83119,0.00341
2525.77102,0.00362
2523.71084,0.00367
2521.65067,0.00376
2519.59050,0.00384
2517.53033,0.00366
2515.47015,0.00344
2513.40998,0.00342
2511.34981,0.00355
2509.28964,0.00377
2507.22947,0.00392
2505.16929,0.00383
2503.10912,0.00362
2501.04895,0.00365
2498.98878,0.00393
2496.92861,0.00402
2494.86843,0.00375
2492.80826,0.00354
2490.74809,0.00364
2488.68792,0.00371
2486.62775,0.00370
2484.56757,0.00373
2482.50740,0.00368
2480.44723,0.00364
2478.38706,0.00368
2476.32688,0.00369
2474.26671,0.00370
2472.20654,0.00376
2470.14637,0.00387
2468.08620,0.00385
2466.02602,0.00365
2463.96585,0.00352
2461.90568,0.00361
2459.84551,0.00377
2457.78534,0.00379
2455.72516,0.00359
2453.66499,0.00337
2451.60482,0.00335
2449.54465,0.00353
2447.48447,0.00378
2445.42430,0.00382
2443.36413,0.00357
2441.30396,0.00328
2439.24379,0.00310
2437.18361,0.00305
2435.12344,0.00310
2433.06327,0.00312
2431.00310,0.00308
2428.94293,0.00308
2426.88275,0.00327
2424.82258,0.00361
2422.76241,0.00387
2420.70224,0.00387
2418.64207,0.00370
2416.58189,0.00372
2414.52172,0.00379
2412.46155,0.00360
2410.40138,0.00338
2408.34120,0.00336
2406.28103,0.00346
2404.22086,0.00348
2402.16069,0.00341
2400.10052,0.00327
2398.04034,0.00289
2395.98017,0.00280
2393.92000,0.00300
2391.85983,0.00326
2389.79966,0.00338
2387.73948,0.00335
2385.67931,0.00320
2383.61914,0.00312
2381.55897,0.00330
2379.49880,0.00363
2377.43862,0.00389
2375.37845,0.00424
2373.31828,0.00398
2371.25811,0.00328
2369.19793,0.00325
2367.13776,0.00332
2365.07759,0.00251
2363.01742,0.00188
2360.95725,0.00000
2358.89707,0.00057
2356.83690,0.00310
2354.77673,0.00558
2352.71656,0.00592
2350.65639,0.00293
2348.59621,0.00115
2346.53604,0.00498
2344.47587,0.00526
2342.41570,0.00410
2340.35552,0.00339
2338.29535,0.00291
2336.23518,0.00294
2334.17501,0.00302
2332.11484,0.00353
2330.05466,0.00425
2327.99449,0.00550
2325.93432,0.00539
2323.87415,0.00523
2321.81398,0.00456
2319.75380,0.00455
2317.69363,0.00408
2315.63346,0.00423
2313.57329,0.00455
2311.51312,0.00428
2309.45294,0.00394
2307.39277,0.00381
2305.33260,0.00390
2303.27243,0.00411
2301.21225,0.00437
2299.15208,0.00412
2297.09191,0.00361
2295.03174,0.00334
2292.97157,0.00347
2290.91139,0.00389
2288.85122,0.00418
2286.79105,0.00409
2284.73088,0.00383
2282.67071,0.00365
2280.61053,0.00360
2278.55036,0.00360
2276.49019,0.00356
2274.43002,0.00323
2272.36984,0.00277
2270.30967,0.00271
2268.24950,0.00317
2266.18933,0.00351
2264.12916,0.00352
2262.06898,0.00355
2260.00881,0.00378
2257.94864,0.00378
2255.88847,0.00345
2253.82830,0.00337
2251.76812,0.00386
2249.70795,0.00433
2247.64778,0.00406
2245.58761,0.00326
2243.52744,0.00281
2241.46726,0.00298
2239.40709,0.00345
2237.34692,0.00358
2235.28675,0.00323
2233.22657,0.00290
2231.16640,0.00275
2229.10623,0.00287
2227.04606,0.00336
2224.98589,0.00357
2222.92571,0.00319
2220.86554,0.00308
2218.80537,0.00349
2216.74520,0.00397
2214.68503,0.00398
2212.62485,0.00308
2210.56468,0.00201
2208.50451,0.00213
2206.44434,0.00292
2204.38417,0.00298
2202.32399,0.00261
2200.26382,0.00247
2198.20365,0.00228
2196.14348,0.00225
2194.08330,0.00250
2192.02313,0.00231
2189.96296,0.00210
2187.90279,0.00267
2185.84262,0.00305
2183.78244,0.00272
2181.72227,0.00291
2179.66210,0.00388
2177.60193,0.00440
2175.54176,0.00418
2173.48158,0.00384
2171.42141,0.00367
2169.36124,0.00370
2167.30107,0.00367
2165.24089,0.00309
2163.18072,0.00177
2161.12055,0.00041
2159.06038,0.00000
2157.00021,0.00038
2154.94003,0.00084
2152.87986,0.00143
2150.81969,0.00224
2148.75952,0.00273
2146.69935,0.00253
2144.63917,0.00208
2142.57900,0.00208
2140.51883,0.00234
2138.45866,0.00187
2136.39849,0.00068
2134.33831,0.00037
2132.27814,0.00149
2130.21797,0.00243
2128.15780,0.00232
2126.09762,0.00216
2124.03745,0.00244
2121.97728,0.00276
2119.91711,0.00292
2117.85694,0.00275
2115.79676,0.00248
2113.73659,0.00264
2111.67642,0.00297
2109.61625,0.00311
2107.55608,0.00322
2105.49590,0.00320
2103.43573,0.00293
2101.37556,0.00261
2099.31539,0.00231
2097.25521,0.00234
2095.19504,0.00262
2093.13487,0.00263
2091.07470,0.00224
2089.01453,0.00204
2086.95435,0.00227
2084.89418,0.00251
2082.83401,0.00242
2080.77384,0.00225
2078.71367,0.00224
2076.65349,0.00205
2074.59332,0.00186
2072.53315,0.00192
2070.47298,0.00166
2068.41281,0.00106
2066.35263,0.00080
2064.29246,0.00116
2062.23229,0.00193
2060.17212,0.00268
2058.11194,0.00294
2056.05177,0.00287
2053.99160,0.00303
2051.93143,0.00317
2049.87126,0.00282
2047.81108,0.00200
2045.75091,0.00114
2043.69074,0.00111
2041.63057,0.00166
2039.57040,0.00164
2037.51022,0.00117
2035.45005,0.00086
2033.38988,0.00062
2031.32971,0.00063
2029.26954,0.00110
2027.20936,0.00192
2025.14919,0.00253
2023.08902,0.00201
2021.02885,0.00096
2018.96867,0.00043
2016.90850,0.00091
2014.84833,0.00197
2012.78816,0.00209
2010.72799,0.00165
2008.66781,0.00137
2006.60764,0.00103
2004.54747,0.00090
2002.48730,0.00096
2000.42713,0.00097
1998.36695,0.00123
1996.30678,0.00168
1994.24661,0.00138
1992.18644,0.00045
1990.12626,0.00050
1988.06609,0.00153
1986.00592,0.00230
1983.94575,0.00213
1981.88558,0.00160
1979.82540,0.00145
1977.76523,0.00162
1975.70506,0.00160
1973.64489,0.00111
1971.58472,0.00060
1969.52454,0.00031
1967.46437,0.00048
1965.40420,0.00146
1963.34403,0.00184
1961.28386,0.00094
1959.22368,0.00003
1957.16351,0.00000
1955.10334,0.00039
1953.04317,0.00050
1950.98299,0.00051
1948.92282,0.00093
1946.86265,0.00128
1944.80248,0.00074
1942.74231,0.00000
1940.68213,0.00026
1938.62196,0.00051
1936.56179,0.00050
1934.50162,0.00057
1932.44145,0.00065
1930.38127,0.00088
1928.32110,0.00131
1926.26093,0.00159
1924.20076,0.00118
1922.14059,0.00069
1920.08041,0.00043
1918.02024,0.00027
1915.96007,0.00099
1913.89990,0.00161
1911.83972,0.00155
1909.77955,0.00128
1907.71938,0.00129
1905.65921,0.00142
1903.59904,0.00146
1901.53886,0.00145
1899.47869,0.00129
1897.41852,0.00099
1895.35835,0.00097
1893.29818,0.00127
1891.23800,0.00096
1889.17783,0.00061
1887.11766,0.00086
1885.05749,0.00082
1882.99731,0.00068
1880.93714,0.00087
1878.87697,0.00098
1876.81680,0.00087
1874.75663,0.00094
1872.69645,0.00109
1870.63628,0.00061
1868.57611,0.00020
1866.51594,0.00084
1864.45577,0.00139
1862.39559,0.00119
1860.33542,0.00074
1858.27525,0.00039
1856.21508,0.00023
1854.15491,0.00026
1852.09473,0.00042
1850.03456,0.00072
1847.97439,0.00111
1845.91422,0.00084
1843.85404,0.00035
1841.79387,0.00086
1839.73370,0.00106
1837.67353,0.00072
1835.61336,0.00082
1833.55318,0.00098
1831.49301,0.00043
1829.43284,0.00025
1827.37267,0.00081
1825.31250,0.00075
1823.25232,0.00074
1821.19215,0.00077
1819.13198,0.00045
1817.07181,0.00036
1815.01163,0.00065
1812.95146,0.00060
1810.89129,0.00029
1808.83112,0.00045
1806.77095,0.00083
1804.71077,0.00092
1802.65060,0.00056
1800.59043,0.00030
1798.53026,0.00073
1796.47009,0.00119
1794.40991,0.00076
1792.34974,0.00009
1790.28957,0.00069
1788.22940,0.00126
1786.16923,0.00095
1784.10905,0.00080
1782.04888,0.00080
1779.98871,0.00087
1777.92854,0.00139
1775.86836,0.00150
1773.80819,0.00068
1771.74802,0.00045
1769.68785,0.00139
1767.62768,0.00189
1765.56750,0.00200
1763.50733,0.00148
1761.44716,0.00136
1759.38699,0.00206
1757.32682,0.00229
1755.26664,0.00286
1753.20647,0.00309
1751.14630,0.00255
1749.08613,0.00290
1747.02596,0.00393
1744.96578,0.00455
1742.90561,0.00454
1740.84544,0.00435
1738.78527,0.00504
1736.72509,0.00528
1734.66492,0.00379
1732.60475,0.00412
1730.54458,0.00528
1728.48441,0.00538
1726.42423,0.00514
1724.36406,0.00493
1722.30389,0.00526
1720.24372,0.00478
1718.18355,0.00320
1716.12337,0.00325
1714.06320,0.00429
1712.00303,0.00464
1709.94286,0.00421
1707.88268,0.00337
1705.82251,0.00308
1703.76234,0.00385
1701.70217,0.00328
1699.64200,0.00273
1697.58182,0.00311
1695.52165,0.00282
1693.46148,0.00371
1691.40131,0.00407
1689.34114,0.00404
1687.28096,0.00387
1685.22079,0.00220
1683.16062,0.00257
1681.10045,0.00500
1679.04028,0.00582
1676.98010,0.00504
1674.91993,0.00485
1672.85976,0.00590
1670.79959,0.00566
1668.73941,0.00578
1666.67924,0.00708
1664.61907,0.00682
1662.55890,0.00616
1660.49873,0.00744
1658.43855,0.00903
1656.37838,0.00869
1654.31821,0.00638
1652.25804,0.00753
1650.19787,0.01053
1648.13769,0.00944
1646.07752,0.00840
1644.01735,0.00988
1641.95718,0.01072
1639.89701,0.01053
1637.83683,0.00936
1635.77666,0.00844
1633.71649,0.01011
1631.65632,0.01120
1629.59614,0.01037
1627.53597,0.00990
1625.47580,0.00996
1623.41563,0.00999
1621.35546,0.01102
1619.29528,0.01091
1617.23511,0.00936
1615.17494,0.00990
1613.11477,0.01095
1611.05460,0.01037
1608.99442,0.00955
1606.93425,0.00937
1604.87408,0.00920
1602.81391,0.00870
1600.75373,0.00829
1598.69356,0.00797
1596.63339,0.00747
1594.57322,0.00694
1592.51305,0.00652
1590.45287,0.00602
1588.39270,0.00548
1586.33253,0.00497
1584.27236,0.00459
1582.21219,0.00463
1580.15201,0.00473
1578.09184,0.00357
1576.03167,0.00258
1573.97150,0.00390
1571.91133,0.00396
1569.85115,0.00255
1567.79098,0.00297
1565.73081,0.00385
1563.67064,0.00439
1561.61046,0.00312
1559.55029,0.00000
1557.49012,0.00142
1555.42995,0.00371
1553.36978,0.00376
1551.30960,0.00315
1549.24943,0.00302
1547.18926,0.00353
1545.12909,0.00344
1543.06892,0.00267
1541.00874,0.00114
1538.94857,0.00177
1536.88840,0.00383
1534.82823,0.00292
1532.76805,0.00175
1530.70788,0.00255
1528.64771,0.00260
1526.58754,0.00242
1524.52737,0.00279
1522.46719,0.00232
1520.40702,0.00260
1518.34685,0.00314
1516.28668,0.00283
1514.22651,0.00321
1512.16633,0.00366
1510.10616,0.00308
1508.04599,0.00074
1505.98582,0.00038
1503.92565,0.00286
1501.86547,0.00351
1499.80530,0.00226
1497.74513,0.00122
1495.68496,0.00183
1493.62478,0.00285
1491.56461,0.00208
1489.50444,0.00116
1487.44427,0.00182
1485.38410,0.00264
1483.32392,0.00260
1481.26375,0.00240
1479.20358,0.00280
1477.14341,0.00303
1475.08324,0.00273
1473.02306,0.00254
1470.96289,0.00400
1468.90272,0.00544
1466.84255,0.00492
1464.78238,0.00458
1462.72220,0.00608
1460.66203,0.00661
1458.60186,0.00494
1456.54169,0.00464
1454.48151,0.00657
1452.42134,0.00714
1450.36117,0.00650
1448.30100,0.00603
1446.24083,0.00637
1444.18065,0.00687
1442.12048,0.00715
1440.06031,0.00721
1438.00014,0.00646
1435.93997,0.00661
1433.87979,0.00800
1431.81962,0.00811
1429.75945,0.00787
1427.69928,0.00841
1425.63910,0.00860
1423.57893,0.00872
1421.51876,0.00882
1419.45859,0.00836
1417.39842,0.00900
1415.33824,0.00978
1413.27807,0.00954
1411.21790,0.00915
1409.15773,0.00916
1407.09756,0.00900
1405.03738,0.00876
1402.97721,0.00904
1400.91704,0.00887
1398.85687,0.00824
1396.79670,0.00783
1394.73652,0.00746
1392.67635,0.00788
1390.61618,0.00810
1388.55601,0.00741
1386.49583,0.00723
1384.43566,0.00775
1382.37549,0.00794
1380.31532,0.00802
1378.25515,0.00826
1376.19497,0.00823
1374.13480,0.00817
1372.07463,0.00864
1370.01446,0.00879
1367.95429,0.00864
1365.89411,0.00852
1363.83394,0.00800
1361.77377,0.00788
1359.71360,0.00821
1357.65343,0.00810
1355.59325,0.00776
1353.53308,0.00761
1351.47291,0.00751
1349.41274,0.00735
1347.35256,0.00726
1345.29239,0.00723
1343.23222,0.00715
1341.17205,0.00679
1339.11188,0.00653
1337.05170,0.00676
1334.99153,0.00695
1332.93136,0.00695
1330.87119,0.00695
1328.81102,0.00695
1326.75084,0.00695
1324.69067,0.00702
1322.63050,0.00709
1320.57033,0.00702
1318.51015,0.00710
1316.44998,0.00735
1314.38981,0.00737
1312.32964,0.00728
1310.26947,0.00718
1308.20929,0.00694
1306.14912,0.00673
1304.08895,0.00657
1302.02878,0.00640
1299.96861,0.00622
1297.90843,0.00603
1295.84826,0.00596
1293.78809,0.00602
1291.72792,0.00604
1289.66775,0.00592
1287.60757,0.00577
1285.54740,0.00575
1283.48723,0.00579
1281.42706,0.00580
1279.36688,0.00582
1277.30671,0.00588
1275.24654,0.00597
1273.18637,0.00607
1271.12620,0.00623
1269.06602,0.00653
1267.00585,0.00685
1264.94568,0.00715
1262.88551,0.00750
1260.82534,0.00786
1258.76516,0.00823
1256.70499,0.00849
1254.64482,0.00861
1252.58465,0.00873
1250.52447,0.00887
1248.46430,0.00893
1246.40413,0.00891
1244.34396,0.00892
1242.28379,0.00890
1240.22361,0.00869
1238.16344,0.00835
1236.10327,0.00807
1234.04310,0.00781
1231.98293,0.00750
1229.92275,0.00723
1227.86258,0.00704
1225.80241,0.00680
1223.74224,0.00651
1221.68207,0.00616
1219.62189,0.00577
1217.56172,0.00549
1215.50155,0.00526
1213.44138,0.00492
1211.38120,0.00445
1209.32103,0.00401
1207.26086,0.00356
1205.20069,0.00307
1203.14052,0.00257
1201.08034,0.00208
1199.02017,0.00155
1196.96000,0.00101
1194.89983,0.00059
1192.83966,0.00037
1190.77948,0.00018
1188.71931,0.00000
1186.65914,-0.00004
1184.59897,0.00011
1182.53880,0.00034
1180.47862,0.00066
1178.41845,0.00106
1176.35828,0.00153
1174.29811,0.00215
1172.23793,0.00283
1170.17776,0.00343
1168.11759,0.00403
1166.05742,0.00473
1163.99725,0.00538
1161.93707,0.00588
1159.87690,0.00638
1157.81673,0.00702
1155.75656,0.00764
1153.69639,0.00812
1151.63621,0.00862
1149.57604,0.00924
1147.51587,0.00977
1145.45570,0.01008
1143.39552,0.01032
1141.33535,0.01055
1139.27518,0.01066
1137.21501,0.01070
1135.15484,0.01089
1133.09466,0.01126
1131.03449,0.01170
1128.97432,0.01221
1126.91415,0.01281
1124.85398,0.01341
1122.79380,0.01400
1120.73363,0.01455
1118.67346,0.01504
1116.61329,0.01553
1114.55312,0.01613
1112.49294,0.01673
1110.43277,0.01724
1108.37260,0.01778
1106.31243,0.01846
1104.25225,0.01922
1102.19208,0.02002
1100.13191,0.02090
1098.07174,0.02190
1096.01157,0.02296
1093.95139,0.02388
1091.89122,0.02472
1089.83105,0.02560
1087.77088,0.02642
1085.71071,0.02709
1083.65053,0.02771
1081.59036,0.02843
1079.53019,0.02927
1077.47002,0.03016
1075.40985,0.03101
1073.34967,0.03169
1071.28950,0.03220
1069.22933,0.03266
1067.16916,0.03318
1065.10898,0.03362
1063.04881,0.03393
1060.98864,0.03418
1058.92847,0.03442
1056.86830,0.03473
1054.80812,0.03510
1052.74795,0.03545
1050.68778,0.03587
1048.62761,0.03646
1046.56744,0.03709
1044.50726,0.03763
1042.44709,0.03811
1040.38692,0.03862
1038.32675,0.03911
1036.26657,0.03951
1034.20640,0.03980
1032.14623,0.03997
1030.08606,0.03997
1028.02589,0.03979
1025.96571,0.03946
1023.90554,0.03912
1021.84537,0.03899
1019.78520,0.03903
1017.72503,0.03912
1015.66485,0.03922
1013.60468,0.03923
1011.54451,0.03906
1009.48434,0.03871
1007.42417,0.03828
1005.36399,0.03783
1003.30382,0.03743
1001.24365,0.03711
999.18348,0.03662
997.12330,0.03586
995.06313,0.03519
993.00296,0.03468
990.94279,0.03414
988.88262,0.03356
986.82244,0.03307
984.76227,0.03263
982.70210,0.03210
980.64193,0.03156
978.58176,0.03120
976.52158,0.03091
974.46141,0.03054
972.40124,0.03004
970.34107,0.02941
968.28089,0.02875
966.22072,0.02797
964.16055,0.02716
962.10038,0.02654
960.04021,0.02600
957.98003,0.02538
955.91986,0.02481
953.85969,0.02437
951.79952,0.02385
949.73935,0.02314
947.67917,0.02234
945.61900,0.02141
943.55883,0.02036
941.49866,0.01928
939.43849,0.01819
937.37831,0.01691
935.31814,0.01534
933.25797,0.01357
931.19780,0.01202
929.13762,0.01094
927.07745,0.01015
925.01728,0.00949
922.95711,0.00897
920.89694,0.00852
918.83676,0.00809
916.77659,0.00766
914.71642,0.00730
912.65625,0.00694
910.59608,0.00652
908.53590,0.00621
906.47573,0.00603
904.41556,0.00579
902.35539,0.00568
900.29522,0.00593
898.23504,0.00628
896.17487,0.00659
894.11470,0.00687
892.05453,0.00699
889.99435,0.00690
887.93418,0.00666
885.87401,0.00642
883.81384,0.00620
881.75367,0.00592
879.69349,0.00578
877.63332,0.00576
875.57315,0.00560
873.51298,0.00531
871.45281,0.00518
869.39263,0.00516
867.33246,0.00508
865.27229,0.00496
863.21212,0.00491
861.15194,0.00512
859.09177,0.00537
857.03160,0.00534
854.97143,0.00523
852.91126,0.00502
850.85108,0.00466
848.79091,0.00438
846.73074,0.00419
844.67057,0.00405
842.61040,0.00386
840.55022,0.00323
838.49005,0.00230
836.42988,0.00136
834.36971,0.00049
832.30954,0.00000
830.24936,-0.00005
828.18919,0.00019
826.12902,0.00052
824.06885,0.00052
822.00867,0.00024
819.94850,0.00024
817.88833,0.00033
815.82816,0.00023
813.76799,0.00027
811.70781,0.00047
809.64764,0.00078
807.58747,0.00111
805.52730,0.00110
803.46713,0.00094
801.40695,0.00098
799.34678,0.00099
797.28661,0.00075
795.22644,0.00054
793.16627,0.00063
791.10609,0.00085
789.04592,0.00102
786.98575,0.00109
784.92558,0.00084
782.86540,0.00046
780.80523,0.00069
778.74506,0.00131
776.68489,0.00160
774.62472,0.00154
772.56454,0.00142
770.50437,0.00140
768.44420,0.00128
766.38403,0.00124
764.32386,0.00159
762.26368,0.00200
760.20351,0.00249
758.14334,0.00290
756.08317,0.00268
754.02299,0.00221
751.96282,0.00201
749.90265,0.00198
747.84248,0.00204
745.78231,0.00218
743.72213,0.00226
741.66196,0.00229
739.60179,0.00250
737.54162,0.00286
735.48145,0.00286
733.42127,0.00246
731.36110,0.00239
729.30093,0.00285
727.24076,0.00323
725.18059,0.00345
723.12041,0.00383
721.06024,0.00491
719.00007,0.00528
716.93990,0.00520
714.87972,0.00471
712.81955,0.00421
710.75938,0.00436
708.69921,0.00518
706.63904,0.00626
704.57886,0.00709
702.51869,0.00730
700.45852,0.00683
698.39835,0.00603
696.33818,0.00531
694.27800,0.00473
692.21783,0.00418
690.15766,0.00362
688.09749,0.00322
686.03731,0.00292
683.97714,0.00261
681.91697,0.00267
679.85680,0.00341
677.79663,0.00447
675.73645,0.00499
673.67628,0.00354
671.61611,0.00000
669.55594,0.00213
667.49577,0.00780
665.43559,0.00055
663.37542,0.00234
661.31525,0.00481
659.25508,0.00487
657.19491,0.00421
655.13473,0.00382
653.07456,0.00338
651.01439,0.00280
648.95422,0.00289
646.89404,0.00367
644.83387,0.00474
642.77370,0.00484
640.71353,0.00438
638.65336,0.00464
636.59318,0.00552
634.53301,0.00584
632.47284,0.00525
630.41267,0.00441
628.35250,0.00397
626.29232,0.00428
624.23215,0.00503
622.17198,0.00512
620.11181,0.00487
618.05164,0.00435
615.99146,0.00387
613.93129,0.00426
611.87112,0.00397
609.81095,0.00255
607.75077,0.00232
605.69060,0.00295
603.63043,0.00242
601.57026,0.00123
599.51009,0.00000
