3996.73391,0.00000
3994.67373,0.00002
3992.61356,0.00032
3990.55339,0.00052
3988.49322,0.00035
3986.43305,0.00013
3984.37287,0.00011
3982.31270,0.00021
3980.25253,0.00035
3978.19236,0.00036
3976.13219,0.00029
3974.07201,0.00029
3972.01184,0.00031
3969.95167,0.00033
3967.89150,0.00034
3965.83133,0.00040
3963.77115,0.00052
3961.71098,0.00052
3959.65081,0.00043
3957.59064,0.00041
3955.53046,0.00042
3953.47029,0.00036
3951.41012,0.00036
3949.34995,0.00050
3947.28978,0.00058
3945.22960,0.00043
3943.16943,0.00017
3941.10926,0.00002
3939.04909,0.00011
3936.98892,0.00030
3934.92874,0.00052
3932.86857,0.00060
3930.80840,0.00039
3928.74823,0.00011
3926.68805,0.00000
3924.62788,0.00005
3922.56771,0.00024
3920.50754,0.00046
3918.44737,0.00058
3916.38719,0.00058
3914.32702,0.00056
3912.26685,0.00057
3910.20668,0.00061
3908.14651,0.00070
3906.08633,0.00079
3904.02616,0.00081
3901.96599,0.00067
3899.90582,0.00047
3897.84565,0.00050
3895.78547,0.00074
3893.72530,0.00091
3891.66513,0.00081
3889.60496,0.00059
3887.54478,0.00055
3885.48461,0.00076
3883.42444,0.00112
3881.36427,0.00134
3879.30410,0.00124
3877.24392,0.00115
3875.18375,0.00124
3873.12358,0.00126
3871.06341,0.00112
3869.00324,0.00094
3866.94306,0.00075
3864.88289,0.00061
3862.82272,0.00061
3860.76255,0.00069
3858.70237,0.00083
3856.64220,0.00104
3854.58203,0.00107
3852.52186,0.00082
3850.46169,0.00060
3848.40151,0.00059
3846.34134,0.00074
3844.28117,0.00092
3842.22100,0.00105
3840.16083,0.00125
3838.10065,0.00130
3836.04048,0.00097
3833.98031,0.00063
3831.92014,0.00054
3829.85997,0.00055
3827.79979,0.00052
3825.73962,0.00046
3823.67945,0.00044
3821.61928,0.00053
3819.55910,0.00081
3817.49893,0.00109
3815.43876,0.00096
3813.37859,0.00058
3811.31842,0.00039
3809.25824,0.00033
3807.19807,0.00034
3805.13790,0.00053
3803.07773,0.00074
3801.01756,0.00078
3798.95738,0.00077
3796.89721,0.00074
3794.83704,0.00069
3792.77687,0.00069
3790.71670,0.00069
3788.65652,0.00061
3786.59635,0.00058
3784.53618,0.00065
3782.47601,0.00074
3780.41583,0.00070
3778.35566,0.00049
3776.29549,0.00030
3774.23532,0.00033
3772.17515,0.00054
3770.11497,0.00074
3768.05480,0.00075
3765.99463,0.00067
3763.93446,0.00076
3761.87429,0.00092
3759.81411,0.00088
3757.75394,0.00067
3755.69377,0.00067
3753.63360,0.00093
3751.57342,0.00109
3749.51325,0.00109
3747.45308,0.00125
3745.39291,0.00152
3743.33274,0.00145
3741.27256,0.00129
3739.21239,0.00140
3737.15222,0.00160
3735.09205,0.00160
3733.03188,0.00142
3730.97170,0.00124
3728.91153,0.00126
3726.85136,0.00147
3724.79119,0.00157
3722.73102,0.00145
3720.67084,0.00123
3718.61067,0.00110
3716.55050,0.00112
3714.49033,0.00122
3712.43015,0.00104
3710.36998,0.00056
3708.30981,0.00040
3706.24964,0.00053
3704.18947,0.00063
3702.12929,0.00072
3700.06912,0.00098
3698.00895,0.00126
3695.94878,0.00127
3693.88861,0.00109
3691.82843,0.00090
3689.76826,0.00076
3687.70809,0.00074
3685.64792,0.00091
3683.58775,0.00114
3681.52757,0.00138
3679.46740,0.00153
3677.40723,0.00151
3675.34706,0.00144
3673.28688,0.00160
3671.22671,0.00177
3669.16654,0.00172
3667.10637,0.00172
3665.04620,0.00180
3662.98602,0.00171
3660.92585,0.00158
3658.86568,0.00179
3656.80551,0.00232
3654.74534,0.00266
3652.68516,0.00259
3650.62499,0.00240
3648.56482,0.00229
3646.50465,0.00237
3644.44447,0.00265
3642.38430,0.00285
3640.32413,0.00281
3638.26396,0.00268
3636.20379,0.00277
3634.14361,0.00312
3632.08344,0.00349
3630.02327,0.00384
3627.96310,0.00412
3625.90293,0.00434
3623.84275,0.00462
3621.78258,0.00493
3619.72241,0.00525
3617.66224,0.00550
3615.60207,0.00565
3613.54189,0.00586
3611.48172,0.00620
3609.42155,0.00637
3607.36138,0.00634
3605.30120,0.00636
3603.24103,0.00652
3601.18086,0.00675
3599.12069,0.00681
3597.06052,0.00684
3595.00034,0.00713
3592.94017,0.00752
3590.88000,0.00766
3588.81983,0.00770
3586.75966,0.00785
3584.69948,0.00806
3582.63931,0.00821
3580.57914,0.00833
3578.51897,0.00865
3576.45879,0.00920
3574.39862,0.00960
3572.33845,0.00972
3570.27828,0.00990
3568.21811,0.01048
3566.15793,0.01108
3564.09776,0.01114
3562.03759,0.01109
3559.97742,0.01120
3557.91725,0.01134
3555.85707,0.01154
3553.79690,0.01188
3551.73673,0.01231
3549.67656,0.01273
3547.61639,0.01307
3545.55621,0.01327
3543.49604,0.01322
3541.43587,0.01301
3539.37570,0.01290
3537.31552,0.01302
3535.25535,0.01337
3533.19518,0.01389
3531.13501,0.01441
3529.07484,0.01484
3527.01466,0.01526
3524.95449,0.01559
3522.89432,0.01575
3520.83415,0.01585
3518.77398,0.01586
3516.71380,0.01575
3514.65363,0.01579
3512.59346,0.01614
3510.53329,0.01651
3508.47312,0.01665
3506.41294,0.01682
3504.35277,0.01721
3502.29260,0.01756
3500.23243,0.01773
3498.17225,0.01792
3496.11208,0.01821
3494.05191,0.01850
3491.99174,0.01863
3489.93157,0.01857
3487.87139,0.01859
3485.81122,0.01885
3483.75105,0.01925
3481.69088,0.01958
3479.63071,0.01970
3477.57053,0.01970
3475.51036,0.01980
3473.45019,0.02010
3471.39002,0.02041
3469.32984,0.02053
3467.26967,0.02058
3465.20950,0.02091
3463.14933,0.02149
3461.08916,0.02192
3459.02898,0.02218
3456.96881,0.02237
3454.90864,0.02236
3452.84847,0.02227
3450.78830,0.02244
3448.72812,0.02279
3446.66795,0.02300
3444.60778,0.02302
3442.54761,0.02319
3440.48744,0.02365
3438.42726,0.02401
3436.36709,0.02401
3434.30692,0.02382
3432.24675,0.02367
3430.18657,0.02384
3428.12640,0.02435
3426.06623,0.02471
3424.00606,0.02486
3421.94589,0.02517
3419.88571,0.02561
3417.82554,0.02577
3415.76537,0.02565
3413.70520,0.02569
3411.64503,0.02593
3409.58485,0.02609
3407.52468,0.02614
3405.46451,0.02623
3403.40434,0.02646
3401.34416,0.02665
3399.28399,0.02676
3397.22382,0.02688
3395.16365,0.02713
3393.10348,0.02744
3391.04330,0.02769
3388.98313,0.02784
3386.92296,0.02794
3384.86279,0.02790
3382.80262,0.02777
3380.74244,0.02787
3378.68227,0.02812
3376.62210,0.02819
3374.56193,0.02815
3372.50176,0.02821
3370.44158,0.02834
3368.38141,0.02845
3366.32124,0.02860
3364.26107,0.02892
3362.20089,0.02933
3360.14072,0.02946
3358.08055,0.02925
3356.02038,0.02909
3353.96021,0.02916
3351.90003,0.02919
3349.83986,0.02914
3347.77969,0.02921
3345.71952,0.02932
3343.65935,0.02931
3341.59917,0.02923
3339.53900,0.02922
3337.47883,0.02937
3335.41866,0.02963
3333.35849,0.02973
3331.29831,0.02959
3329.23814,0.02951
3327.17797,0.02963
3325.11780,0.02981
3323.05762,0.02994
3320.99745,0.03002
3318.93728,0.03006
3316.87711,0.03004
3314.81694,0.02996
3312.75676,0.02991
3310.69659,0.02995
3308.63642,0.03001
3306.57625,0.03003
3304.51608,0.03000
3302.45590,0.02994
3300.39573,0.02998
3298.33556,0.03016
3296.27539,0.03033
3294.21521,0.03035
3292.15504,0.03028
3290.09487,0.03026
3288.03470,0.03026
3285.97453,0.03016
3283.91435,0.03007
3281.85418,0.03004
3279.79401,0.03009
3277.73384,0.03022
3275.67367,0.03029
3273.61349,0.03029
3271.55332,0.03029
3269.49315,0.03018
3267.43298,0.03008
3265.37281,0.03010
3263.31263,0.03018
3261.25246,0.03034
3259.19229,0.03046
3257.13212,0.03037
3255.07194,0.03012
3253.01177,0.02981
3250.95160,0.02953
3248.89143,0.02936
3246.83126,0.02939
3244.77108,0.02957
3242.71091,0.02972
3240.65074,0.02978
3238.59057,0.02977
3236.53040,0.02972
3234.47022,0.02955
3232.41005,0.02927
3230.34988,0.02913
3228.28971,0.02915
3226.22954,0.02916
3224.16936,0.02907
3222.10919,0.02884
3220.04902,0.02862
3217.98885,0.02851
3215.92867,0.02847
3213.86850,0.02840
3211.80833,0.02832
3209.74816,0.02826
3207.68799,0.02817
3205.62781,0.02793
3203.56764,0.02754
3201.50747,0.02723
3199.44730,0.02721
3197.38713,0.02733
3195.32695,0.02731
3193.26678,0.02714
3191.20661,0.02696
3189.14644,0.02676
3187.08626,0.02639
3185.02609,0.02604
3182.96592,0.02598
3180.90575,0.02596
3178.84558,0.02573
3176.78540,0.02552
3174.72523,0.02546
3172.66506,0.02533
3170.60489,0.02514
3168.54472,0.02493
3166.48454,0.02469
3164.42437,0.02452
3162.36420,0.02433
3160.30403,0.02397
3158.24386,0.02367
3156.18368,0.02367
3154.12351,0.02384
3152.06334,0.02370
3150.00317,0.02310
3147.94299,0.02250
3145.88282,0.02227
3143.82265,0.02209
3141.76248,0.02181
3139.70231,0.02174
3137.64213,0.02184
3135.58196,0.02174
3133.52179,0.02138
3131.46162,0.02097
3129.40145,0.02063
3127.34127,0.02041
3125.28110,0.02038
3123.22093,0.02044
3121.16076,0.02039
3119.10058,0.02020
3117.04041,0.01983
3114.98024,0.01933
3112.92007,0.01902
3110.85990,0.01901
3108.79972,0.01903
3106.73955,0.01883
3104.67938,0.01849
3102.61921,0.01822
3100.55904,0.01804
3098.49886,0.01784
3096.43869,0.01761
3094.37852,0.01739
3092.31835,0.01715
3090.25818,0.01697
3088.19800,0.01684
3086.13783,0.01666
3084.07766,0.01640
3082.01749,0.01608
3079.95731,0.01583
3077.89714,0.01573
3075.83697,0.01565
3073.77680,0.01553
3071.71663,0.01535
3069.65645,0.01523
3067.59628,0.01519
3065.53611,0.01503
3063.47594,0.01465
3061.41577,0.01422
3059.35559,0.01391
3057.29542,0.01377
3055.23525,0.01380
3053.17508,0.01372
3051.11491,0.01342
3049.05473,0.01324
3046.99456,0.01328
3044.93439,0.01327
3042.87422,0.01301
3040.81404,0.01274
3038.75387,0.01266
3036.69370,0.01256
3034.63353,0.01235
3032.57336,0.01212
3030.51318,0.01197
3028.45301,0.01196
3026.39284,0.01199
3024.33267,0.01186
3022.27250,0.01158
3020.21232,0.01139
3018.15215,0.01129
3016.09198,0.01119
3014.03181,0.01109
3011.97163,0.01092
3009.91146,0.01065
3007.85129,0.01050
3005.79112,0.01058
3003.73095,0.01075
3001.67077,0.01082
2999.61060,0.01076
2997.55043,0.01061
2995.49026,0.01046
2993.43009,0.01043
2991.36991,0.01044
2989.30974,0.01039
2987.24957,0.01042
2985.18940,0.01062
2983.12923,0.01076
2981.06905,0.01080
2979.00888,0.01090
2976.94871,0.01114
2974.88854,0.01139
2972.82836,0.01158
2970.76819,0.01177
2968.70802,0.01195
2966.64785,0.01214
2964.58768,0.01232
2962.52750,0.01257
2960.46733,0.01289
2958.40716,0.01316
2956.34699,0.01337
2954.28682,0.01361
2952.22664,0.01397
2950.16647,0.01437
2948.10630,0.01468
2946.04613,0.01494
2943.98596,0.01524
2941.92578,0.01547
2939.86561,0.01557
2937.80544,0.01574
2935.74527,0.01595
2933.68509,0.01613
2931.62492,0.01622
2929.56475,0.01613
2927.50458,0.01598
2925.44441,0.01605
2923.38423,0.01624
2921.32406,0.01622
2919.26389,0.01596
2917.20372,0.01570
2915.14355,0.01556
2913.08337,0.01541
2911.02320,0.01519
2908.96303,0.01497
2906.90286,0.01471
2904.84268,0.01447
2902.78251,0.01434
2900.72234,0.01433
2898.66217,0.01438
2896.60200,0.01442
2894.54182,0.01436
2892.48165,0.01419
2890.42148,0.01402
2888.36131,0.01391
2886.30114,0.01385
2884.24096,0.01382
2882.18079,0.01379
2880.12062,0.01371
2878.06045,0.01362
2876.00028,0.01363
2873.94010,0.01363
2871.87993,0.01338
2869.81976,0.01303
2867.75959,0.01285
2865.69941,0.01262
2863.63924,0.01219
2861.57907,0.01184
2859.51890,0.01179
2857.45873,0.01184
2855.39855,0.01184
2853.33838,0.01177
2851.27821,0.01150
2849.21804,0.01121
2847.15787,0.01098
2845.09769,0.01078
2843.03752,0.01069
2840.97735,0.01060
2838.91718,0.01033
2836.85700,0.01002
2834.79683,0.00979
2832.73666,0.00968
2830.67649,0.00965
2828.61632,0.00963
2826.55614,0.00954
2824.49597,0.00936
2822.43580,0.00914
2820.37563,0.00899
2818.31546,0.00892
2816.25528,0.00888
2814.19511,0.00884
2812.13494,0.00885
2810.07477,0.00887
2808.01460,0.00875
2805.95442,0.00858
2803.89425,0.00850
2801.83408,0.00847
2799.77391,0.00842
2797.71373,0.00823
2795.65356,0.00802
2793.59339,0.00801
2791.53322,0.00815
2789.47305,0.00821
2787.41287,0.00808
2785.35270,0.00794
2783.29253,0.00798
2781.23236,0.00802
2779.17219,0.00786
2777.11201,0.00763
2775.05184,0.00755
2772.99167,0.00764
2770.93150,0.00778
2768.87133,0.00784
2766.81115,0.00769
2764.75098,0.00753
2762.69081,0.00747
2760.63064,0.00740
2758.57046,0.00736
2756.51029,0.00735
2754.45012,0.00728
2752.38995,0.00720
2750.32978,0.00715
2748.26960,0.00710
2746.20943,0.00709
2744.14926,0.00708
2742.08909,0.00710
2740.02892,0.00721
2737.96874,0.00730
2735.90857,0.00730
2733.84840,0.00721
2731.78823,0.00709
2729.72805,0.00703
2727.66788,0.00695
2725.60771,0.00686
2723.54754,0.00683
2721.48737,0.00678
2719.42719,0.00666
2717.36702,0.00664
2715.30685,0.00669
2713.24668,0.00674
2711.18651,0.00678
2709.12633,0.00666
2707.06616,0.00642
2705.00599,0.00628
2702.94582,0.00627
2700.88565,0.00644
2698.82547,0.00664
2696.76530,0.00671
2694.70513,0.00669
2692.64496,0.00667
2690.58478,0.00657
2688.52461,0.00646
2686.46444,0.00646
2684.40427,0.00645
2682.34410,0.00641
2680.28392,0.00639
2678.22375,0.00637
2676.16358,0.00635
2674.10341,0.00623
2672.04324,0.00609
2669.98306,0.00604
2667.92289,0.00598
2665.86272,0.00591
2663.80255,0.00600
2661.74238,0.00614
2659.68220,0.00618
2657.62203,0.00619
2655.56186,0.00619
2653.50169,0.00611
2651.44151,0.00595
2649.38134,0.00587
2647.32117,0.00592
2645.26100,0.00591
2643.20083,0.00581
2641.14065,0.00579
2639.08048,0.00577
2637.02031,0.00568
2634.96014,0.00568
2632.89997,0.00577
2630.83979,0.00574
2628.77962,0.00556
2626.71945,0.00536
2624.65928,0.00515
2622.59910,0.00506
2620.53893,0.00518
2618.47876,0.00529
2616.41859,0.00520
2614.35842,0.00500
2612.29824,0.00490
2610.23807,0.00490
2608.17790,0.00490
2606.11773,0.00495
2604.05756,0.00503
2601.99738,0.00497
2599.93721,0.00482
2597.87704,0.00462
2595.81687,0.00441
2593.75670,0.00431
2591.69652,0.00422
2589.63635,0.00415
2587.57618,0.00422
2585.51601,0.00434
2583.45583,0.00445
2581.39566,0.00447
2579.33549,0.00445
2577.27532,0.00445
2575.21515,0.00440
2573.15497,0.00433
2571.09480,0.00439
2569.03463,0.00444
2566.97446,0.00427
2564.91429,0.00414
2562.85411,0.00426
2560.79394,0.00437
2558.73377,0.00440
2556.67360,0.00437
2554.61342,0.00418
2552.55325,0.00412
2550.49308,0.00418
2548.43291,0.00406
2546.37274,0.00407
2544.31256,0.00425
2542.25239,0.00417
2540.19222,0.00401
2538.13205,0.00395
2536.07188,0.00395
2534.01170,0.00399
2531.95153,0.00384
2529.89136,0.00363
2527.83119,0.00364
2525.77102,0.00369
2523.71084,0.00368
2521.65067,0.00370
2519.59050,0.00372
2517.53033,0.00366
2515.47015,0.00363
2513.40998,0.00376
2511.34981,0.00397
2509.28964,0.00414
2507.22947,0.00408
2505.16929,0.00384
2503.10912,0.00378
2501.04895,0.00403
2498.98878,0.00426
2496.92861,0.00419
2494.86843,0.00386
2492.80826,0.00352
2490.74809,0.00336
2488.68792,0.00340
2486.62775,0.00356
2484.56757,0.00375
2482.50740,0.00376
2480.44723,0.00363
2478.38706,0.00360
2476.32688,0.00358
2474.26671,0.00337
2472.20654,0.00331
2470.14637,0.00347
2468.08620,0.00341
2466.02602,0.00323
2463.96585,0.00333
2461.90568,0.00364
2459.84551,0.00380
2457.78534,0.00368
2455.72516,0.00354
2453.66499,0.00354
2451.60482,0.00355
2449.54465,0.00359
2447.48447,0.00366
2445.42430,0.00362
2443.36413,0.00345
2441.30396,0.00322
2439.24379,0.00311
2437.18361,0.00319
2435.12344,0.00331
2433.06327,0.00321
2431.00310,0.00300
2428.94293,0.00293
2426.88275,0.00305
2424.82258,0.00321
2422.76241,0.00331
2420.70224,0.00333
2418.64207,0.00335
2416.58189,0.00334
2414.52172,0.00329
2412.46155,0.00341
2410.40138,0.00355
2408.34120,0.00355
2406.28103,0.00356
2404.22086,0.00355
2402.16069,0.00337
2400.10052,0.00307
2398.04034,0.00267
2395.98017,0.00261
2393.92000,0.00280
2391.85983,0.00299
2389.79966,0.00307
2387.73948,0.00319
2385.67931,0.00334
2383.61914,0.00349
2381.55897,0.00363
2379.49880,0.00381
2377.43862,0.00396
2375.37845,0.00429
2373.31828,0.00458
2371.25811,0.00448
2369.19793,0.00415
2367.13776,0.00333
2365.07759,0.00225
2363.01742,0.00239
2360.95725,0.00294
2358.89707,0.00448
2356.83690,0.00569
2354.77673,0.00622
2352.71656,0.00586
2350.65639,0.00402
2348.59621,0.00340
2346.53604,0.00592
2344.47587,0.00578
2342.41570,0.00461
2340.35552,0.00432
2338.29535,0.00423
2336.23518,0.00433
2334.17501,0.00458
2332.11484,0.00530
2330.05466,0.00590
2327.99449,0.00630
2325.93432,0.00605
2323.87415,0.00596
2321.81398,0.00558
2319.75380,0.00534
2317.69363,0.00492
2315.63346,0.00498
2313.57329,0.00516
2311.51312,0.00496
2309.45294,0.00458
2307.39277,0.00427
2305.33260,0.00417
2303.27243,0.00419
2301.21225,0.00434
2299.15208,0.00441
2297.09191,0.00430
2295.03174,0.00401
2292.97157,0.00386
2290.91139,0.00411
2288.85122,0.00448
2286.79105,0.00466
2284.73088,0.00458
2282.67071,0.00433
2280.61053,0.00403
2278.55036,0.00390
2276.49019,0.00387
2274.43002,0.00362
2272.36984,0.00328
2270.30967,0.00315
2268.24950,0.00314
2266.18933,0.00309
2264.12916,0.00306
2262.06898,0.00317
2260.00881,0.00342
2257.94864,0.00340
2255.88847,0.00312
2253.82830,0.00321
2251.76812,0.00371
2249.70795,0.00387
2247.64778,0.00343
2245.58761,0.00293
2243.52744,0.00311
2241.46726,0.00374
2239.40709,0.00387
2237.34692,0.00333
2235.28675,0.00292
2233.22657,0.00285
2231.16640,0.00264
2229.10623,0.00229
2227.04606,0.00218
2224.98589,0.00224
2222.92571,0.00241
2220.86554,0.00281
2218.80537,0.00343
2216.74520,0.00384
2214.68503,0.00362
2212.62485,0.00292
2210.56468,0.00232
2208.50451,0.00249
2206.44434,0.00319
2204.38417,0.00330
2202.32399,0.00305
2200.26382,0.00324
2198.20365,0.00332
2196.14348,0.00329
2194.08330,0.00339
2192.02313,0.00317
2189.96296,0.00329
2187.90279,0.00370
2185.84262,0.00291
2183.78244,0.00166
2181.72227,0.00191
2179.66210,0.00305
2177.60193,0.00341
2175.54176,0.00290
2173.48158,0.00229
2171.42141,0.00209
2169.36124,0.00219
2167.30107,0.00248
2165.24089,0.00273
2163.18072,0.00225
2161.12055,0.00130
2159.06038,0.00120
2157.00021,0.00191
2154.94003,0.00209
2152.87986,0.00186
2150.81969,0.00199
2148.75952,0.00219
2146.69935,0.00238
2144.63917,0.00250
2142.57900,0.00206
2140.51883,0.00164
2138.45866,0.00170
2136.39849,0.00175
2134.33831,0.00166
2132.27814,0.00185
2130.21797,0.00218
2128.15780,0.00220
2126.09762,0.00224
2124.03745,0.00272
2121.97728,0.00318
2119.91711,0.00325
2117.85694,0.00318
2115.79676,0.00329
2113.73659,0.00351
2111.67642,0.00347
2109.61625,0.00317
2107.55608,0.00295
2105.49590,0.00285
2103.43573,0.00271
2101.37556,0.00258
2099.31539,0.00254
2097.25521,0.00261
2095.19504,0.00276
2093.13487,0.00299
2091.07470,0.00299
2089.01453,0.00282
2086.95435,0.00284
2084.89418,0.00292
2082.83401,0.00300
2080.77384,0.00323
2078.71367,0.00331
2076.65349,0.00310
2074.59332,0.00302
2072.53315,0.00294
2070.47298,0.00273
2068.41281,0.00266
2066.35263,0.00270
2064.29246,0.00290
2062.23229,0.00323
2060.17212,0.00346
2058.11194,0.00354
2056.05177,0.00364
2053.99160,0.00375
2051.93143,0.00365
2049.87126,0.00340
2047.81108,0.00326
2045.75091,0.00290
2043.69074,0.00259
2041.63057,0.00304
2039.57040,0.00351
2037.51022,0.00316
2035.45005,0.00215
2033.38988,0.00138
2031.32971,0.00174
2029.26954,0.00283
2027.20936,0.00385
2025.14919,0.00413
2023.08902,0.00316
2021.02885,0.00175
2018.96867,0.00095
2016.90850,0.00110
2014.84833,0.00221
2012.78816,0.00322
2010.72799,0.00344
2008.66781,0.00311
2006.60764,0.00245
2004.54747,0.00186
2002.48730,0.00193
2000.42713,0.00268
1998.36695,0.00343
1996.30678,0.00371
1994.24661,0.00342
1992.18644,0.00280
1990.12626,0.00276
1988.06609,0.00319
1986.00592,0.00315
1983.94575,0.00289
1981.88558,0.00263
1979.82540,0.00198
1977.76523,0.00129
1975.70506,0.00102
1973.64489,0.00054
1971.58472,0.00000
1969.52454,0.00023
1967.46437,0.00110
1965.40420,0.00204
1963.34403,0.00246
1961.28386,0.00209
1959.22368,0.00140
1957.16351,0.00108
1955.10334,0.00115
1953.04317,0.00128
1950.98299,0.00156
1948.92282,0.00200
1946.86265,0.00213
1944.80248,0.00176
1942.74231,0.00152
1940.68213,0.00175
1938.62196,0.00197
1936.56179,0.00203
1934.50162,0.00198
1932.44145,0.00173
1930.38127,0.00144
1928.32110,0.00136
1926.26093,0.00144
1924.20076,0.00167
1922.14059,0.00191
1920.08041,0.00182
1918.02024,0.00158
1915.96007,0.00174
1913.89990,0.00229
1911.83972,0.00274
1909.77955,0.00269
1907.71938,0.00224
1905.65921,0.00178
1903.59904,0.00154
1901.53886,0.00161
1899.47869,0.00174
1897.41852,0.00180
1895.35835,0.00186
1893.29818,0.00180
1891.23800,0.00154
1889.17783,0.00135
1887.11766,0.00141
1885.05749,0.00151
1882.99731,0.00163
1880.93714,0.00185
1878.87697,0.00195
1876.81680,0.00175
1874.75663,0.00144
1872.69645,0.00125
1870.63628,0.00129
1868.57611,0.00149
1866.51594,0.00160
1864.45577,0.00159
1862.39559,0.00151
1860.33542,0.00134
1858.27525,0.00113
1856.21508,0.00095
1854.15491,0.00079
1852.09473,0.00073
1850.03456,0.00091
1847.97439,0.00122
1845.91422,0.00139
1843.85404,0.00139
1841.79387,0.00138
1839.73370,0.00129
1837.67353,0.00115
1835.61336,0.00116
1833.55318,0.00123
1831.49301,0.00117
1829.43284,0.00109
1827.37267,0.00110
1825.31250,0.00113
1823.25232,0.00110
1821.19215,0.00101
1819.13198,0.00091
1817.07181,0.00087
1815.01163,0.00089
1812.95146,0.00080
1810.89129,0.00059
1808.83112,0.00045
1806.77095,0.00049
1804.71077,0.00061
1802.65060,0.00069
1800.59043,0.00067
1798.53026,0.00064
1796.47009,0.00064
1794.40991,0.00057
1792.34974,0.00046
1790.28957,0.00041
1788.22940,0.00048
1786.16923,0.00064
1784.10905,0.00075
1782.04888,0.00076
1779.98871,0.00079
1777.92854,0.00085
1775.86836,0.00083
1773.80819,0.00072
1771.74802,0.00075
1769.68785,0.00104
1767.62768,0.00137
1765.56750,0.00156
1763.50733,0.00169
1761.44716,0.00191
1759.38699,0.00225
1757.32682,0.00268
1755.26664,0.00320
1753.20647,0.00379
1751.14630,0.00440
1749.08613,0.00482
1747.02596,0.00507
1744.96578,0.00532
1742.90561,0.00557
1740.84544,0.00575
1738.78527,0.00589
1736.72509,0.00597
1734.66492,0.00604
1732.60475,0.00618
1730.54458,0.00634
1728.48441,0.00636
1726.42423,0.00628
1724.36406,0.00617
1722.30389,0.00597
1720.24372,0.00561
1718.18355,0.00525
1716.12337,0.00508
1714.06320,0.00496
1712.00303,0.00467
1709.94286,0.00425
1707.88268,0.00393
1705.82251,0.00379
1703.76234,0.00369
1701.70217,0.00351
1699.64200,0.00333
1697.58182,0.00319
1695.52165,0.00307
1693.46148,0.00309
1691.40131,0.00323
1689.34114,0.00339
1687.28096,0.00350
1685.22079,0.00364
1683.16062,0.00407
1681.10045,0.00468
1679.04028,0.00515
1676.98010,0.00543
1674.91993,0.00576
1672.85976,0.00619
1670.79959,0.00667
1668.73941,0.00719
1666.67924,0.00762
1664.61907,0.00794
1662.55890,0.00838
1660.49873,0.00900
1658.43855,0.00954
1656.37838,0.00985
1654.31821,0.01016
1652.25804,0.01073
1650.19787,0.01116
1648.13769,0.01141
1646.07752,0.01171
1644.01735,0.01201
1641.95718,0.01217
1639.89701,0.01224
1637.83683,0.01236
1635.77666,0.01262
1633.71649,0.01285
1631.65632,0.01290
1629.59614,0.01289
1627.53597,0.01292
1625.47580,0.01301
1623.41563,0.01313
1621.35546,0.01321
1619.29528,0.01321
1617.23511,0.01320
1615.17494,0.01326
1613.11477,0.01321
1611.05460,0.01298
1608.99442,0.01269
1606.93425,0.01240
1604.87408,0.01204
1602.81391,0.01157
1600.75373,0.01102
1598.69356,0.01039
1596.63339,0.00967
1594.57322,0.00889
1592.51305,0.00809
1590.45287,0.00730
1588.39270,0.00653
1586.33253,0.00581
1584.27236,0.00522
1582.21219,0.00477
1580.15201,0.00441
1578.09184,0.00401
1576.03167,0.00351
1573.97150,0.00299
1571.91133,0.00254
1569.85115,0.00221
1567.79098,0.00209
1565.73081,0.00199
1563.67064,0.00181
1561.61046,0.00162
1559.55029,0.00150
1557.49012,0.00142
1555.42995,0.00129
1553.36978,0.00124
1551.30960,0.00123
1549.24943,0.00114
1547.18926,0.00106
1545.12909,0.00100
1543.06892,0.00080
1541.00874,0.00049
1538.94857,0.00037
1536.88840,0.00046
1534.82823,0.00049
1532.76805,0.00034
1530.70788,0.00022
1528.64771,0.00026
1526.58754,0.00041
1524.52737,0.00050
1522.46719,0.00043
1520.40702,0.00036
1518.34685,0.00040
1516.28668,0.00051
1514.22651,0.00060
1512.16633,0.00073
1510.10616,0.00099
1508.04599,0.00120
1505.98582,0.00095
1503.92565,0.00054
1501.86547,0.00042
1499.80530,0.00050
1497.74513,0.00061
1495.68496,0.00062
1493.62478,0.00059
1491.56461,0.00065
1489.50444,0.00087
1487.44427,0.00110
1485.38410,0.00129
1483.32392,0.00150
1481.26375,0.00176
1479.20358,0.00205
1477.14341,0.00235
1475.08324,0.00276
1473.02306,0.00338
1470.96289,0.00406
1468.90272,0.00457
1466.84255,0.00494
1464.78238,0.00533
1462.72220,0.00575
1460.66203,0.00610
1458.60186,0.00643
1456.54169,0.00690
1454.48151,0.00724
1452.42134,0.00735
1450.36117,0.00740
1448.30100,0.00753
1446.24083,0.00775
1444.18065,0.00801
1442.12048,0.00827
1440.06031,0.00845
1438.00014,0.00861
1435.93997,0.00894
1433.87979,0.00935
1431.81962,0.00971
1429.75945,0.01010
1427.69928,0.01048
1425.63910,0.01075
1423.57893,0.01097
1421.51876,0.01132
1419.45859,0.01176
1417.39842,0.01202
1415.33824,0.01199
1413.27807,0.01191
1411.21790,0.01185
1409.15773,0.01181
1407.09756,0.01175
1405.03738,0.01156
1402.97721,0.01120
1400.91704,0.01086
1398.85687,0.01069
1396.79670,0.01050
1394.73652,0.01014
1392.67635,0.00985
1390.61618,0.00975
1388.55601,0.00978
1386.49583,0.00984
1384.43566,0.00989
1382.37549,0.01012
1380.31532,0.01058
1378.25515,0.01105
1376.19497,0.01136
1374.13480,0.01160
1372.07463,0.01173
1370.01446,0.01165
1367.95429,0.01145
1365.89411,0.01127
1363.83394,0.01121
1361.77377,0.01115
1359.71360,0.01088
1357.65343,0.01053
1355.59325,0.01032
1353.53308,0.01021
1351.47291,0.01010
1349.41274,0.00997
1347.35256,0.00984
1345.29239,0.00967
1343.23222,0.00951
1341.17205,0.00945
1339.11188,0.00944
1337.05170,0.00936
1334.99153,0.00924
1332.93136,0.00917
1330.87119,0.00921
1328.81102,0.00931
1326.75084,0.00943
1324.69067,0.00951
1322.63050,0.00958
1320.57033,0.00972
1318.51015,0.00987
1316.44998,0.00997
1314.38981,0.01008
1312.32964,0.01013
1310.26947,0.00999
1308.20929,0.00970
1306.14912,0.00934
1304.08895,0.00903
1302.02878,0.00881
1299.96861,0.00862
1297.90843,0.00843
1295.84826,0.00833
1293.78809,0.00831
1291.72792,0.00825
1289.66775,0.00808
1287.60757,0.00788
1285.54740,0.00781
1283.48723,0.00785
1281.42706,0.00789
1279.36688,0.00794
1277.30671,0.00803
1275.24654,0.00811
1273.18637,0.00832
1271.12620,0.00875
1269.06602,0.00925
1267.00585,0.00971
1264.94568,0.01017
1262.88551,0.01063
1260.82534,0.01108
1258.76516,0.01151
1256.70499,0.01191
1254.64482,0.01218
1252.58465,0.01231
1250.52447,0.01244
1248.46430,0.01257
1246.40413,0.01259
1244.34396,0.01256
1242.28379,0.01249
1240.22361,0.01224
1238.16344,0.01185
1236.10327,0.01150
1234.04310,0.01118
1231.98293,0.01078
1229.92275,0.01035
1227.86258,0.00998
1225.80241,0.00958
1223.74224,0.00915
1221.68207,0.00870
1219.62189,0.00821
1217.56172,0.00775
1215.50155,0.00736
1213.44138,0.00698
1211.38120,0.00643
1209.32103,0.00570
1207.26086,0.00494
1205.20069,0.00423
1203.14052,0.00351
1201.08034,0.00275
1199.02017,0.00198
1196.96000,0.00131
1194.89983,0.00080
1192.83966,0.00040
1190.77948,0.00012
1188.71931,0.00000
1186.65914,-0.00002
1184.59897,0.00018
1182.53880,0.00047
1180.47862,0.00078
1178.41845,0.00121
1176.35828,0.00185
1174.29811,0.00266
1172.23793,0.00357
1170.17776,0.00457
1168.11759,0.00555
1166.05742,0.00645
1163.99725,0.00732
1161.93707,0.00816
1159.87690,0.00891
1157.81673,0.00965
1155.75656,0.01038
1153.69639,0.01105
1151.63621,0.01168
1149.57604,0.01231
1147.51587,0.01283
1145.45570,0.01317
1143.39552,0.01339
1141.33535,0.01351
1139.27518,0.01373
1137.21501,0.01417
1135.15484,0.01466
1133.09466,0.01500
1131.03449,0.01535
1128.97432,0.01589
1126.91415,0.01661
1124.85398,0.01741
1122.79380,0.01811
1120.73363,0.01872
1118.67346,0.01931
1116.61329,0.01993
1114.55312,0.02057
1112.49294,0.02117
1110.43277,0.02177
1108.37260,0.02246
1106.31243,0.02330
1104.25225,0.02424
1102.19208,0.02528
1100.13191,0.02638
1098.07174,0.02752
1096.01157,0.02877
1093.95139,0.03002
1091.89122,0.03120
1089.83105,0.03238
1087.77088,0.03342
1085.71071,0.03421
1083.65053,0.03503
1081.59036,0.03602
1079.53019,0.03708
1077.47002,0.03812
1075.40985,0.03906
1073.34967,0.03997
1071.28950,0.04087
1069.22933,0.04159
1067.16916,0.04209
1065.10898,0.04255
1063.04881,0.04307
1060.98864,0.04353
1058.92847,0.04391
1056.86830,0.04433
1054.80812,0.04475
1052.74795,0.04513
1050.68778,0.04568
1048.62761,0.04648
1046.56744,0.04734
1044.50726,0.04816
1042.44709,0.04894
1040.38692,0.04965
1038.32675,0.05027
1036.26657,0.05075
1034.20640,0.05111
1032.14623,0.05139
1030.08606,0.05155
1028.02589,0.05158
1025.96571,0.05144
1023.90554,0.05119
1021.84537,0.05106
1019.78520,0.05106
1017.72503,0.05118
1015.66485,0.05136
1013.60468,0.05142
1011.54451,0.05134
1009.48434,0.05121
1007.42417,0.05094
1005.36399,0.05042
1003.30382,0.04986
1001.24365,0.04942
999.18348,0.04881
997.12330,0.04791
995.06313,0.04704
993.00296,0.04630
990.94279,0.04551
988.88262,0.04479
986.82244,0.04428
984.76227,0.04380
982.70210,0.04326
980.64193,0.04276
978.58176,0.04229
976.52158,0.04169
974.46141,0.04100
972.40124,0.04033
970.34107,0.03961
968.28089,0.03884
966.22072,0.03805
964.16055,0.03721
962.10038,0.03647
960.04021,0.03587
957.98003,0.03518
955.91986,0.03431
953.85969,0.03345
951.79952,0.03276
949.73935,0.03209
947.67917,0.03103
945.61900,0.02955
943.55883,0.02809
941.49866,0.02668
939.43849,0.02498
937.37831,0.02290
935.31814,0.02072
933.25797,0.01873
931.19780,0.01710
929.13762,0.01586
927.07745,0.01477
925.01728,0.01370
922.95711,0.01275
920.89694,0.01189
918.83676,0.01106
916.77659,0.01039
914.71642,0.00983
912.65625,0.00920
910.59608,0.00857
908.53590,0.00821
906.47573,0.00812
904.41556,0.00801
902.35539,0.00796
900.29522,0.00808
898.23504,0.00819
896.17487,0.00845
894.11470,0.00896
892.05453,0.00934
889.99435,0.00929
887.93418,0.00899
885.87401,0.00861
883.81384,0.00812
881.75367,0.00764
879.69349,0.00737
877.63332,0.00714
875.57315,0.00672
873.51298,0.00640
871.45281,0.00635
869.39263,0.00631
867.33246,0.00615
865.27229,0.00601
863.21212,0.00591
861.15194,0.00579
859.09177,0.00579
857.03160,0.00594
854.97143,0.00604
852.91126,0.00590
850.85108,0.00558
848.79091,0.00530
846.73074,0.00504
844.67057,0.00471
842.61040,0.00416
840.55022,0.00333
838.49005,0.00237
836.42988,0.00142
834.36971,0.00066
832.30954,0.00018
830.24936,0.00000
828.18919,0.00006
826.12902,0.00011
824.06885,-0.00011
822.00867,-0.00035
819.94850,-0.00028
817.88833,-0.00033
815.82816,-0.00074
813.76799,-0.00094
811.70781,-0.00064
809.64764,-0.00012
807.58747,0.00028
805.52730,0.00034
803.46713,0.00021
801.40695,0.00002
799.34678,-0.00018
797.28661,-0.00015
795.22644,0.00002
793.16627,-0.00007
791.10609,-0.00040
789.04592,-0.00059
786.98575,-0.00059
784.92558,-0.00052
782.86540,-0.00032
780.80523,-0.00004
778.74506,0.00001
776.68489,-0.00011
774.62472,0.00008
772.56454,0.00034
770.50437,0.00041
768.44420,0.00053
766.38403,0.00061
764.32386,0.00065
762.26368,0.00099
760.20351,0.00156
758.14334,0.00170
756.08317,0.00128
754.02299,0.00110
751.96282,0.00142
749.90265,0.00171
747.84248,0.00165
745.78231,0.00124
743.72213,0.00081
741.66196,0.00079
739.60179,0.00109
737.54162,0.00124
735.48145,0.00102
733.42127,0.00065
731.36110,0.00051
729.30093,0.00074
727.24076,0.00115
725.18059,0.00151
723.12041,0.00178
721.06024,0.00247
719.00007,0.00303
716.93990,0.00337
714.87972,0.00321
712.81955,0.00278
710.75938,0.00279
708.69921,0.00338
706.63904,0.00430
704.57886,0.00518
702.51869,0.00558
700.45852,0.00528
698.39835,0.00465
696.33818,0.00419
694.27800,0.00392
692.21783,0.00376
690.15766,0.00373
688.09749,0.00360
686.03731,0.00321
683.97714,0.00274
681.91697,0.00237
679.85680,0.00234
677.79663,0.00277
675.73645,0.00309
673.67628,0.00215
671.61611,0.00000
669.55594,0.00187
667.49577,0.00511
665.43559,0.00056
663.37542,0.00167
661.31525,0.00344
659.25508,0.00372
657.19491,0.00321
655.13473,0.00271
653.07456,0.00253
651.01439,0.00244
648.95422,0.00255
646.89404,0.00284
644.83387,0.00322
642.77370,0.00305
640.71353,0.00252
638.65336,0.00254
636.59318,0.00303
634.53301,0.00281
632.47284,0.00185
630.41267,0.00143
628.35250,0.00171
626.29232,0.00155
624.23215,0.00112
622.17198,0.00120
620.11181,0.00173
618.05164,0.00198
615.99146,0.00229
613.93129,0.00285
611.87112,0.00196
609.81095,-0.00045
607.75077,-0.00183
605.69060,-0.00150
603.63043,-0.00053
601.57026,0.00050
599.51009,0.00000
