3996.73391,0.00055
3994.67373,0.00054
3992.61356,0.00046
3990.55339,0.00026
3988.49322,0.00013
3986.43305,0.00010
3984.37287,0.00002
3982.31270,0.00000
3980.25253,0.00026
3978.19236,0.00050
3976.13219,0.00045
3974.07201,0.00048
3972.01184,0.00068
3969.95167,0.00079
3967.89150,0.00082
3965.83133,0.00075
3963.77115,0.00051
3961.71098,0.00040
3959.65081,0.00059
3957.59064,0.00081
3955.53046,0.00100
3953.47029,0.00112
3951.41012,0.00097
3949.34995,0.00066
3947.28978,0.00061
3945.22960,0.00051
3943.16943,0.00018
3941.10926,0.00031
3939.04909,0.00055
3936.98892,0.00064
3934.92874,0.00064
3932.86857,0.00051
3930.80840,0.00077
3928.74823,0.00136
3926.68805,0.00146
3924.62788,0.00136
3922.56771,0.00163
3920.50754,0.00145
3918.44737,0.00090
3916.38719,0.00086
3914.32702,0.00118
3912.26685,0.00120
3910.20668,0.00127
3908.14651,0.00140
3906.08633,0.00095
3904.02616,0.00062
3901.96599,0.00080
3899.90582,0.00069
3897.84565,0.00125
3895.78547,0.00200
3893.72530,0.00131
3891.66513,0.00052
3889.60496,0.00150
3887.54478,0.00196
3885.48461,0.00167
3883.42444,0.00213
3881.36427,0.00184
3879.30410,0.00200
3877.24392,0.00265
3875.18375,0.00230
3873.12358,0.00206
3871.06341,0.00167
3869.00324,0.00203
3866.94306,0.00268
3864.88289,0.00197
3862.82272,0.00179
3860.76255,0.00246
3858.70237,0.00298
3856.64220,0.00216
3854.58203,0.00000
3852.52186,0.00020
3850.46169,0.00246
3848.40151,0.00332
3846.34134,0.00308
3844.28117,0.00274
3842.22100,0.00267
3840.16083,0.00219
3838.10065,0.00150
3836.04048,0.00155
3833.98031,0.00171
3831.92014,0.00179
3829.85997,0.00217
3827.79979,0.00222
3825.73962,0.00240
3823.67945,0.00196
3821.61928,0.00066
3819.55910,0.00115
3817.49893,0.00111
3815.43876,0.00089
3813.37859,0.00221
3811.31842,0.00277
3809.25824,0.00201
3807.19807,0.00167
3805.13790,0.00271
3803.07773,0.00203
3801.01756,0.00088
3798.95738,0.00159
3796.89721,0.00182
3794.83704,0.00206
3792.77687,0.00223
3790.71670,0.00210
3788.65652,0.00222
3786.59635,0.00226
3784.53618,0.00221
3782.47601,0.00210
3780.41583,0.00147
3778.35566,0.00146
3776.29549,0.00208
3774.23532,0.00227
3772.17515,0.00179
3770.11497,0.00131
3768.05480,0.00165
3765.99463,0.00193
3763.93446,0.00239
3761.87429,0.00231
3759.81411,0.00161
3757.75394,0.00196
3755.69377,0.00268
3753.63360,0.00189
3751.57342,0.00058
3749.51325,0.00180
3747.45308,0.00338
3745.39291,0.00197
3743.33274,0.00166
3741.27256,0.00333
3739.21239,0.00357
3737.15222,0.00222
3735.09205,0.00135
3733.03188,0.00220
3730.97170,0.00367
3728.91153,0.00394
3726.85136,0.00269
3724.79119,0.00181
3722.73102,0.00173
3720.67084,0.00209
3718.61067,0.00254
3716.55050,0.00303
3714.49033,0.00259
3712.43015,0.00089
3710.36998,0.00037
3708.30981,0.00158
3706.24964,0.00244
3704.18947,0.00189
3702.12929,0.00110
3700.06912,0.00163
3698.00895,0.00245
3695.94878,0.00289
3693.88861,0.00310
3691.82843,0.00256
3689.76826,0.00177
3687.70809,0.00222
3685.64792,0.00309
3683.58775,0.00331
3681.52757,0.00345
3679.46740,0.00350
3677.40723,0.00229
3675.34706,0.00150
3673.28688,0.00305
3671.22671,0.00263
3669.16654,0.00190
3667.10637,0.00317
3665.04620,0.00369
3662.98602,0.00345
3660.92585,0.00374
3658.86568,0.00401
3656.80551,0.00405
3654.74534,0.00519
3652.68516,0.00564
3650.62499,0.00455
3648.56482,0.00484
3646.50465,0.00628
3644.44447,0.00666
3642.38430,0.00613
3640.32413,0.00617
3638.26396,0.00685
3636.20379,0.00742
3634.14361,0.00759
3632.08344,0.00731
3630.02327,0.00620
3627.96310,0.00681
3625.90293,0.00896
3623.84275,0.00963
3621.78258,0.00890
3619.72241,0.00827
3617.66224,0.00893
3615.60207,0.00955
3613.54189,0.00988
3611.48172,0.01090
3609.42155,0.01150
3607.36138,0.01192
3605.30120,0.01267
3603.24103,0.01274
3601.18086,0.01239
3599.12069,0.01253
3597.06052,0.01268
3595.00034,0.01285
3592.94017,0.01390
3590.88000,0.01480
3588.81983,0.01429
3586.75966,0.01419
3584.69948,0.01527
3582.63931,0.01585
3580.57914,0.01592
3578.51897,0.01635
3576.45879,0.01719
3574.39862,0.01796
3572.33845,0.01823
3570.27828,0.01788
3568.21811,0.01749
3566.15793,0.01826
3564.09776,0.01953
3562.03759,0.01986
3559.97742,0.01978
3557.91725,0.02012
3555.85707,0.02067
3553.79690,0.02097
3551.73673,0.02144
3549.67656,0.02216
3547.61639,0.02232
3545.55621,0.02227
3543.49604,0.02285
3541.43587,0.02381
3539.37570,0.02445
3537.31552,0.02458
3535.25535,0.02475
3533.19518,0.02504
3531.13501,0.02518
3529.07484,0.02544
3527.01466,0.02597
3524.95449,0.02649
3522.89432,0.02696
3520.83415,0.02744
3518.77398,0.02772
3516.71380,0.02807
3514.65363,0.02851
3512.59346,0.02876
3510.53329,0.02903
3508.47312,0.02976
3506.41294,0.03046
3504.35277,0.03051
3502.29260,0.03059
3500.23243,0.03100
3498.17225,0.03130
3496.11208,0.03157
3494.05191,0.03190
3491.99174,0.03223
3489.93157,0.03258
3487.87139,0.03296
3485.81122,0.03342
3483.75105,0.03375
3481.69088,0.03409
3479.63071,0.03463
3477.57053,0.03489
3475.51036,0.03497
3473.45019,0.03528
3471.39002,0.03572
3469.32984,0.03623
3467.26967,0.03676
3465.20950,0.03721
3463.14933,0.03751
3461.08916,0.03769
3459.02898,0.03777
3456.96881,0.03791
3454.90864,0.03835
3452.84847,0.03891
3450.78830,0.03935
3448.72812,0.03955
3446.66795,0.03985
3444.60778,0.04034
3442.54761,0.04048
3440.48744,0.04060
3438.42726,0.04095
3436.36709,0.04142
3434.30692,0.04192
3432.24675,0.04224
3430.18657,0.04221
3428.12640,0.04213
3426.06623,0.04248
3424.00606,0.04297
3421.94589,0.04325
3419.88571,0.04370
3417.82554,0.04405
3415.76537,0.04385
3413.70520,0.04373
3411.64503,0.04411
3409.58485,0.04461
3407.52468,0.04496
3405.46451,0.04538
3403.40434,0.04572
3401.34416,0.04582
3399.28399,0.04607
3397.22382,0.04653
3395.16365,0.04681
3393.10348,0.04677
3391.04330,0.04693
3388.98313,0.04724
3386.92296,0.04737
3384.86279,0.04733
3382.80262,0.04725
3380.74244,0.04735
3378.68227,0.04758
3376.62210,0.04767
3374.56193,0.04772
3372.50176,0.04808
3370.44158,0.04860
3368.38141,0.04882
3366.32124,0.04883
3364.26107,0.04892
3362.20089,0.04903
3360.14072,0.04908
3358.08055,0.04915
3356.02038,0.04933
3353.96021,0.04958
3351.90003,0.04976
3349.83986,0.04995
3347.77969,0.05003
3345.71952,0.04980
3343.65935,0.04958
3341.59917,0.04961
3339.53900,0.04967
3337.47883,0.04975
3335.41866,0.04993
3333.35849,0.05012
3331.29831,0.05026
3329.23814,0.05033
3327.17797,0.05032
3325.11780,0.05034
3323.05762,0.05050
3320.99745,0.05067
3318.93728,0.05086
3316.87711,0.05099
3314.81694,0.05092
3312.75676,0.05082
3310.69659,0.05078
3308.63642,0.05074
3306.57625,0.05071
3304.51608,0.05060
3302.45590,0.05047
3300.39573,0.05047
3298.33556,0.05055
3296.27539,0.05058
3294.21521,0.05039
3292.15504,0.05018
3290.09487,0.05035
3288.03470,0.05064
3285.97453,0.05063
3283.91435,0.05053
3281.85418,0.05046
3279.79401,0.05034
3277.73384,0.05028
3275.67367,0.05044
3273.61349,0.05064
3271.55332,0.05068
3269.49315,0.05061
3267.43298,0.05046
3265.37281,0.05017
3263.31263,0.04987
3261.25246,0.04966
3259.19229,0.04962
3257.13212,0.04969
3255.07194,0.04972
3253.01177,0.04968
3250.95160,0.04951
3248.89143,0.04926
3246.83126,0.04903
3244.77108,0.04891
3242.71091,0.04886
3240.65074,0.04871
3238.59057,0.04848
3236.53040,0.04820
3234.47022,0.04809
3232.41005,0.04827
3230.34988,0.04833
3228.28971,0.04806
3226.22954,0.04776
3224.16936,0.04760
3222.10919,0.04745
3220.04902,0.04716
3217.98885,0.04683
3215.92867,0.04654
3213.86850,0.04631
3211.80833,0.04618
3209.74816,0.04597
3207.68799,0.04569
3205.62781,0.04545
3203.56764,0.04521
3201.50747,0.04489
3199.44730,0.04457
3197.38713,0.04436
3195.32695,0.04405
3193.26678,0.04353
3191.20661,0.04308
3189.14644,0.04283
3187.08626,0.04273
3185.02609,0.04266
3182.96592,0.04238
3180.90575,0.04188
3178.84558,0.04139
3176.78540,0.04109
3174.72523,0.04090
3172.66506,0.04069
3170.60489,0.04033
3168.54472,0.03982
3166.48454,0.03947
3164.42437,0.03927
3162.36420,0.03904
3160.30403,0.03877
3158.24386,0.03836
3156.18368,0.03780
3154.12351,0.03734
3152.06334,0.03711
3150.00317,0.03690
3147.94299,0.03648
3145.88282,0.03589
3143.82265,0.03538
3141.76248,0.03504
3139.70231,0.03476
3137.64213,0.03447
3135.58196,0.03414
3133.52179,0.03380
3131.46162,0.03356
3129.40145,0.03331
3127.34127,0.03290
3125.28110,0.03239
3123.22093,0.03184
3121.16076,0.03141
3119.10058,0.03110
3117.04041,0.03073
3114.98024,0.03038
3112.92007,0.03007
3110.85990,0.02971
3108.79972,0.02940
3106.73955,0.02926
3104.67938,0.02914
3102.61921,0.02886
3100.55904,0.02848
3098.49886,0.02808
3096.43869,0.02762
3094.37852,0.02715
3092.31835,0.02668
3090.25818,0.02631
3088.19800,0.02611
3086.13783,0.02586
3084.07766,0.02551
3082.01749,0.02528
3079.95731,0.02511
3077.89714,0.02468
3075.83697,0.02415
3073.77680,0.02387
3071.71663,0.02374
3069.65645,0.02354
3067.59628,0.02321
3065.53611,0.02287
3063.47594,0.02264
3061.41577,0.02255
3059.35559,0.02242
3057.29542,0.02210
3055.23525,0.02177
3053.17508,0.02149
3051.11491,0.02117
3049.05473,0.02090
3046.99456,0.02060
3044.93439,0.02012
3042.87422,0.01971
3040.81404,0.01955
3038.75387,0.01941
3036.69370,0.01925
3034.63353,0.01918
3032.57336,0.01906
3030.51318,0.01875
3028.45301,0.01828
3026.39284,0.01773
3024.33267,0.01747
3022.27250,0.01763
3020.21232,0.01776
3018.15215,0.01755
3016.09198,0.01722
3014.03181,0.01705
3011.97163,0.01696
3009.91146,0.01678
3007.85129,0.01664
3005.79112,0.01662
3003.73095,0.01664
3001.67077,0.01659
2999.61060,0.01648
2997.55043,0.01645
2995.49026,0.01646
2993.43009,0.01652
2991.36991,0.01672
2989.30974,0.01685
2987.24957,0.01674
2985.18940,0.01657
2983.12923,0.01657
2981.06905,0.01660
2979.00888,0.01665
2976.94871,0.01690
2974.88854,0.01727
2972.82836,0.01761
2970.76819,0.01785
2968.70802,0.01804
2966.64785,0.01825
2964.58768,0.01838
2962.52750,0.01853
2960.46733,0.01893
2958.40716,0.01941
2956.34699,0.01975
2954.28682,0.02005
2952.22664,0.02048
2950.16647,0.02097
2948.10630,0.02142
2946.04613,0.02173
2943.98596,0.02201
2941.92578,0.02246
2939.86561,0.02286
2937.80544,0.02294
2935.74527,0.02290
2933.68509,0.02292
2931.62492,0.02295
2929.56475,0.02287
2927.50458,0.02271
2925.44441,0.02245
2923.38423,0.02223
2921.32406,0.02211
2919.26389,0.02196
2917.20372,0.02177
2915.14355,0.02158
2913.08337,0.02134
2911.02320,0.02105
2908.96303,0.02085
2906.90286,0.02069
2904.84268,0.02044
2902.78251,0.02021
2900.72234,0.02008
2898.66217,0.02016
2896.60200,0.02038
2894.54182,0.02046
2892.48165,0.02039
2890.42148,0.02030
2888.36131,0.02018
2886.30114,0.02005
2884.24096,0.01983
2882.18079,0.01946
2880.12062,0.01919
2878.06045,0.01905
2876.00028,0.01890
2873.94010,0.01877
2871.87993,0.01853
2869.81976,0.01824
2867.75959,0.01802
2865.69941,0.01774
2863.63924,0.01740
2861.57907,0.01714
2859.51890,0.01702
2857.45873,0.01691
2855.39855,0.01666
2853.33838,0.01627
2851.27821,0.01589
2849.21804,0.01566
2847.15787,0.01552
2845.09769,0.01541
2843.03752,0.01522
2840.97735,0.01486
2838.91718,0.01453
2836.85700,0.01441
2834.79683,0.01424
2832.73666,0.01396
2830.67649,0.01382
2828.61632,0.01380
2826.55614,0.01379
2824.49597,0.01374
2822.43580,0.01359
2820.37563,0.01331
2818.31546,0.01298
2816.25528,0.01283
2814.19511,0.01284
2812.13494,0.01279
2810.07477,0.01257
2808.01460,0.01231
2805.95442,0.01219
2803.89425,0.01216
2801.83408,0.01217
2799.77391,0.01215
2797.71373,0.01202
2795.65356,0.01188
2793.59339,0.01178
2791.53322,0.01173
2789.47305,0.01176
2787.41287,0.01176
2785.35270,0.01159
2783.29253,0.01141
2781.23236,0.01128
2779.17219,0.01111
2777.11201,0.01104
2775.05184,0.01114
2772.99167,0.01116
2770.93150,0.01112
2768.87133,0.01111
2766.81115,0.01108
2764.75098,0.01091
2762.69081,0.01069
2760.63064,0.01059
2758.57046,0.01064
2756.51029,0.01067
2754.45012,0.01060
2752.38995,0.01053
2750.32978,0.01051
2748.26960,0.01045
2746.20943,0.01030
2744.14926,0.01014
2742.08909,0.00999
2740.02892,0.00994
2737.96874,0.01002
2735.90857,0.01016
2733.84840,0.01020
2731.78823,0.01012
2729.72805,0.01001
2727.66788,0.00999
2725.60771,0.01002
2723.54754,0.01003
2721.48737,0.01003
2719.42719,0.01006
2717.36702,0.01002
2715.30685,0.00987
2713.24668,0.00970
2711.18651,0.00960
2709.12633,0.00959
2707.06616,0.00956
2705.00599,0.00953
2702.94582,0.00957
2700.88565,0.00963
2698.82547,0.00962
2696.76530,0.00957
2694.70513,0.00949
2692.64496,0.00936
2690.58478,0.00923
2688.52461,0.00912
2686.46444,0.00909
2684.40427,0.00913
2682.34410,0.00914
2680.28392,0.00926
2678.22375,0.00934
2676.16358,0.00914
2674.10341,0.00887
2672.04324,0.00879
2669.98306,0.00878
2667.92289,0.00872
2665.86272,0.00869
2663.80255,0.00875
2661.74238,0.00877
2659.68220,0.00865
2657.62203,0.00850
2655.56186,0.00832
2653.50169,0.00814
2651.44151,0.00816
2649.38134,0.00822
2647.32117,0.00813
2645.26100,0.00805
2643.20083,0.00807
2641.14065,0.00799
2639.08048,0.00777
2637.02031,0.00766
2634.96014,0.00762
2632.89997,0.00751
2630.83979,0.00751
2628.77962,0.00752
2626.71945,0.00727
2624.65928,0.00707
2622.59910,0.00721
2620.53893,0.00728
2618.47876,0.00715
2616.41859,0.00705
2614.35842,0.00683
2612.29824,0.00654
2610.23807,0.00648
2608.17790,0.00656
2606.11773,0.00660
2604.05756,0.00659
2601.99738,0.00648
2599.93721,0.00626
2597.87704,0.00611
2595.81687,0.00609
2593.75670,0.00616
2591.69652,0.00627
2589.63635,0.00642
2587.57618,0.00645
2585.51601,0.00608
2583.45583,0.00571
2581.39566,0.00579
2579.33549,0.00600
2577.27532,0.00608
2575.21515,0.00611
2573.15497,0.00609
2571.09480,0.00584
2569.03463,0.00542
2566.97446,0.00533
2564.91429,0.00568
2562.85411,0.00587
2560.79394,0.00577
2558.73377,0.00567
2556.67360,0.00551
2554.61342,0.00537
2552.55325,0.00540
2550.49308,0.00537
2548.43291,0.00528
2546.37274,0.00543
2544.31256,0.00562
2542.25239,0.00548
2540.19222,0.00517
2538.13205,0.00497
2536.07188,0.00502
2534.01170,0.00518
2531.95153,0.00528
2529.89136,0.00534
2527.83119,0.00531
2525.77102,0.00507
2523.71084,0.00484
2521.65067,0.00485
2519.59050,0.00496
2517.53033,0.00506
2515.47015,0.00506
2513.40998,0.00500
2511.34981,0.00511
2509.28964,0.00516
2507.22947,0.00491
2505.16929,0.00476
2503.10912,0.00486
2501.04895,0.00500
2498.98878,0.00511
2496.92861,0.00510
2494.86843,0.00496
2492.80826,0.00488
2490.74809,0.00491
2488.68792,0.00488
2486.62775,0.00469
2484.56757,0.00468
2482.50740,0.00493
2480.44723,0.00489
2478.38706,0.00470
2476.32688,0.00485
2474.26671,0.00491
2472.20654,0.00465
2470.14637,0.00450
2468.08620,0.00450
2466.02602,0.00442
2463.96585,0.00434
2461.90568,0.00441
2459.84551,0.00439
2457.78534,0.00423
2455.72516,0.00412
2453.66499,0.00415
2451.60482,0.00426
2449.54465,0.00430
2447.48447,0.00428
2445.42430,0.00454
2443.36413,0.00494
2441.30396,0.00485
2439.24379,0.00447
2437.18361,0.00441
2435.12344,0.00453
2433.06327,0.00459
2431.00310,0.00450
2428.94293,0.00424
2426.88275,0.00413
2424.82258,0.00417
2422.76241,0.00405
2420.70224,0.00390
2418.64207,0.00394
2416.58189,0.00415
2414.52172,0.00446
2412.46155,0.00459
2410.40138,0.00453
2408.34120,0.00447
2406.28103,0.00439
2404.22086,0.00428
2402.16069,0.00418
2400.10052,0.00399
2398.04034,0.00375
2395.98017,0.00360
2393.92000,0.00348
2391.85983,0.00348
2389.79966,0.00367
2387.73948,0.00400
2385.67931,0.00441
2383.61914,0.00482
2381.55897,0.00524
2379.49880,0.00544
2377.43862,0.00526
2375.37845,0.00471
2373.31828,0.00464
2371.25811,0.00492
2369.19793,0.00485
2367.13776,0.00520
2365.07759,0.00591
2363.01742,0.00497
2360.95725,0.00491
2358.89707,0.00410
2356.83690,0.00343
2354.77673,0.00343
2352.71656,0.00435
2350.65639,0.00764
2348.59621,0.00957
2346.53604,0.00555
2344.47587,0.00454
2342.41570,0.00509
2340.35552,0.00511
2338.29535,0.00500
2336.23518,0.00463
2334.17501,0.00420
2332.11484,0.00417
2330.05466,0.00543
2327.99449,0.00628
2325.93432,0.00709
2323.87415,0.00669
2321.81398,0.00649
2319.75380,0.00588
2317.69363,0.00579
2315.63346,0.00517
2313.57329,0.00445
2311.51312,0.00440
2309.45294,0.00477
2307.39277,0.00506
2305.33260,0.00495
2303.27243,0.00503
2301.21225,0.00532
2299.15208,0.00551
2297.09191,0.00526
2295.03174,0.00493
2292.97157,0.00492
2290.91139,0.00497
2288.85122,0.00483
2286.79105,0.00465
2284.73088,0.00450
2282.67071,0.00430
2280.61053,0.00410
2278.55036,0.00402
2276.49019,0.00397
2274.43002,0.00386
2272.36984,0.00371
2270.30967,0.00365
2268.24950,0.00370
2266.18933,0.00380
2264.12916,0.00390
2262.06898,0.00411
2260.00881,0.00423
2257.94864,0.00414
2255.88847,0.00411
2253.82830,0.00406
2251.76812,0.00366
2249.70795,0.00319
2247.64778,0.00323
2245.58761,0.00338
2243.52744,0.00329
2241.46726,0.00339
2239.40709,0.00353
2237.34692,0.00357
2235.28675,0.00359
2233.22657,0.00330
2231.16640,0.00295
2229.10623,0.00305
2227.04606,0.00337
2224.98589,0.00343
2222.92571,0.00324
2220.86554,0.00292
2218.80537,0.00275
2216.74520,0.00297
2214.68503,0.00338
2212.62485,0.00342
2210.56468,0.00313
2208.50451,0.00312
2206.44434,0.00328
2204.38417,0.00351
2202.32399,0.00386
2200.26382,0.00425
2198.20365,0.00452
2196.14348,0.00434
2194.08330,0.00391
2192.02313,0.00384
2189.96296,0.00424
2187.90279,0.00429
2185.84262,0.00332
2183.78244,0.00233
2181.72227,0.00235
2179.66210,0.00318
2177.60193,0.00344
2175.54176,0.00198
2173.48158,0.00084
2171.42141,0.00169
2169.36124,0.00271
2167.30107,0.00263
2165.24089,0.00227
2163.18072,0.00215
2161.12055,0.00134
2159.06038,0.00038
2157.00021,0.00017
2154.94003,0.00001
2152.87986,0.00086
2150.81969,0.00245
2148.75952,0.00297
2146.69935,0.00250
2144.63917,0.00186
2142.57900,0.00182
2140.51883,0.00243
2138.45866,0.00273
2136.39849,0.00256
2134.33831,0.00274
2132.27814,0.00352
2130.21797,0.00418
2128.15780,0.00408
2126.09762,0.00373
2124.03745,0.00362
2121.97728,0.00353
2119.91711,0.00367
2117.85694,0.00429
2115.79676,0.00476
2113.73659,0.00455
2111.67642,0.00410
2109.61625,0.00399
2107.55608,0.00409
2105.49590,0.00418
2103.43573,0.00442
2101.37556,0.00470
2099.31539,0.00459
2097.25521,0.00396
2095.19504,0.00338
2093.13487,0.00348
2091.07470,0.00361
2089.01453,0.00330
2086.95435,0.00340
2084.89418,0.00410
2082.83401,0.00439
2080.77384,0.00382
2078.71367,0.00309
2076.65349,0.00303
2074.59332,0.00361
2072.53315,0.00395
2070.47298,0.00377
2068.41281,0.00344
2066.35263,0.00278
2064.29246,0.00226
2062.23229,0.00258
2060.17212,0.00308
2058.11194,0.00344
2056.05177,0.00366
2053.99160,0.00352
2051.93143,0.00357
2049.87126,0.00362
2047.81108,0.00292
2045.75091,0.00208
2043.69074,0.00207
2041.63057,0.00270
2039.57040,0.00264
2037.51022,0.00155
2035.45005,0.00092
2033.38988,0.00145
2031.32971,0.00185
2029.26954,0.00175
2027.20936,0.00191
2025.14919,0.00211
2023.08902,0.00201
2021.02885,0.00202
2018.96867,0.00228
2016.90850,0.00214
2014.84833,0.00139
2012.78816,0.00062
2010.72799,0.00073
2008.66781,0.00159
2006.60764,0.00201
2004.54747,0.00179
2002.48730,0.00171
2000.42713,0.00216
1998.36695,0.00298
1996.30678,0.00385
1994.24661,0.00375
1992.18644,0.00256
1990.12626,0.00177
1988.06609,0.00175
1986.00592,0.00188
1983.94575,0.00204
1981.88558,0.00233
1979.82540,0.00234
1977.76523,0.00149
1975.70506,0.00024
1973.64489,0.00000
1971.58472,0.00082
1969.52454,0.00132
1967.46437,0.00113
1965.40420,0.00133
1963.34403,0.00192
1961.28386,0.00206
1959.22368,0.00155
1957.16351,0.00104
1955.10334,0.00122
1953.04317,0.00181
1950.98299,0.00225
1948.92282,0.00228
1946.86265,0.00201
1944.80248,0.00169
1942.74231,0.00154
1940.68213,0.00209
1938.62196,0.00264
1936.56179,0.00254
1934.50162,0.00218
1932.44145,0.00182
1930.38127,0.00148
1928.32110,0.00138
1926.26093,0.00134
1924.20076,0.00096
1922.14059,0.00132
1920.08041,0.00227
1918.02024,0.00254
1915.96007,0.00267
1913.89990,0.00251
1911.83972,0.00207
1909.77955,0.00187
1907.71938,0.00199
1905.65921,0.00209
1903.59904,0.00199
1901.53886,0.00166
1899.47869,0.00131
1897.41852,0.00121
1895.35835,0.00140
1893.29818,0.00174
1891.23800,0.00139
1889.17783,0.00088
1887.11766,0.00106
1885.05749,0.00114
1882.99731,0.00115
1880.93714,0.00136
1878.87697,0.00148
1876.81680,0.00141
1874.75663,0.00145
1872.69645,0.00154
1870.63628,0.00107
1868.57611,0.00075
1866.51594,0.00151
1864.45577,0.00205
1862.39559,0.00171
1860.33542,0.00111
1858.27525,0.00075
1856.21508,0.00073
1854.15491,0.00092
1852.09473,0.00099
1850.03456,0.00098
1847.97439,0.00114
1845.91422,0.00083
1843.85404,0.00040
1841.79387,0.00106
1839.73370,0.00145
1837.67353,0.00126
1835.61336,0.00153
1833.55318,0.00192
1831.49301,0.00134
1829.43284,0.00080
1827.37267,0.00106
1825.31250,0.00094
1823.25232,0.00094
1821.19215,0.00096
1819.13198,0.00071
1817.07181,0.00076
1815.01163,0.00108
1812.95146,0.00099
1810.89129,0.00074
1808.83112,0.00097
1806.77095,0.00137
1804.71077,0.00147
1802.65060,0.00107
1800.59043,0.00064
1798.53026,0.00092
1796.47009,0.00132
1794.40991,0.00079
1792.34974,0.00006
1790.28957,0.00075
1788.22940,0.00140
1786.16923,0.00097
1784.10905,0.00065
1782.04888,0.00063
1779.98871,0.00079
1777.92854,0.00143
1775.86836,0.00162
1773.80819,0.00079
1771.74802,0.00043
1769.68785,0.00132
1767.62768,0.00217
1765.56750,0.00290
1763.50733,0.00284
1761.44716,0.00310
1759.38699,0.00443
1757.32682,0.00548
1755.26664,0.00691
1753.20647,0.00790
1751.14630,0.00806
1749.08613,0.00897
1747.02596,0.01030
1744.96578,0.01116
1742.90561,0.01162
1740.84544,0.01202
1738.78527,0.01308
1736.72509,0.01332
1734.66492,0.01171
1732.60475,0.01209
1730.54458,0.01338
1728.48441,0.01352
1726.42423,0.01322
1724.36406,0.01289
1722.30389,0.01310
1720.24372,0.01237
1718.18355,0.01021
1716.12337,0.00959
1714.06320,0.01019
1712.00303,0.01018
1709.94286,0.00940
1707.88268,0.00821
1705.82251,0.00747
1703.76234,0.00773
1701.70217,0.00660
1699.64200,0.00560
1697.58182,0.00596
1695.52165,0.00600
1693.46148,0.00722
1691.40131,0.00767
1689.34114,0.00768
1687.28096,0.00764
1685.22079,0.00619
1683.16062,0.00696
1681.10045,0.00973
1679.04028,0.01089
1676.98010,0.01058
1674.91993,0.01075
1672.85976,0.01188
1670.79959,0.01169
1668.73941,0.01236
1666.67924,0.01464
1664.61907,0.01521
1662.55890,0.01507
1660.49873,0.01674
1658.43855,0.01862
1656.37838,0.01848
1654.31821,0.01654
1652.25804,0.01847
1650.19787,0.02229
1648.13769,0.02163
1646.07752,0.02077
1644.01735,0.02262
1641.95718,0.02388
1639.89701,0.02398
1637.83683,0.02299
1635.77666,0.02224
1633.71649,0.02428
1631.65632,0.02591
1629.59614,0.02565
1627.53597,0.02565
1625.47580,0.02594
1623.41563,0.02597
1621.35546,0.02717
1619.29528,0.02727
1617.23511,0.02562
1615.17494,0.02589
1613.11477,0.02682
1611.05460,0.02619
1608.99442,0.02519
1606.93425,0.02467
1604.87408,0.02401
1602.81391,0.02284
1600.75373,0.02164
1598.69356,0.02048
1596.63339,0.01903
1594.57322,0.01751
1592.51305,0.01627
1590.45287,0.01509
1588.39270,0.01389
1586.33253,0.01277
1584.27236,0.01177
1582.21219,0.01108
1580.15201,0.01046
1578.09184,0.00860
1576.03167,0.00692
1573.97150,0.00780
1571.91133,0.00754
1569.85115,0.00566
1567.79098,0.00571
1565.73081,0.00647
1563.67064,0.00704
1561.61046,0.00574
1559.55029,0.00222
1557.49012,0.00298
1555.42995,0.00482
1553.36978,0.00474
1551.30960,0.00411
1549.24943,0.00393
1547.18926,0.00425
1545.12909,0.00380
1543.06892,0.00257
1541.00874,0.00066
1538.94857,0.00132
1536.88840,0.00368
1534.82823,0.00289
1532.76805,0.00181
1530.70788,0.00288
1528.64771,0.00310
1526.58754,0.00268
1524.52737,0.00246
1522.46719,0.00141
1520.40702,0.00149
1518.34685,0.00209
1516.28668,0.00190
1514.22651,0.00262
1512.16633,0.00345
1510.10616,0.00296
1508.04599,0.00040
1505.98582,0.00000
1503.92565,0.00267
1501.86547,0.00346
1499.80530,0.00228
1497.74513,0.00142
1495.68496,0.00240
1493.62478,0.00376
1491.56461,0.00309
1489.50444,0.00205
1487.44427,0.00275
1485.38410,0.00377
1483.32392,0.00389
1481.26375,0.00383
1479.20358,0.00449
1477.14341,0.00501
1475.08324,0.00492
1473.02306,0.00498
1470.96289,0.00688
1468.90272,0.00863
1466.84255,0.00824
1464.78238,0.00807
1462.72220,0.00996
1460.66203,0.01095
1458.60186,0.00963
1456.54169,0.00958
1454.48151,0.01186
1452.42134,0.01290
1450.36117,0.01262
1448.30100,0.01238
1446.24083,0.01302
1444.18065,0.01392
1442.12048,0.01460
1440.06031,0.01503
1438.00014,0.01453
1435.93997,0.01489
1433.87979,0.01663
1431.81962,0.01716
1429.75945,0.01733
1427.69928,0.01838
1425.63910,0.01913
1423.57893,0.01979
1421.51876,0.02025
1419.45859,0.01997
1417.39842,0.02091
1415.33824,0.02205
1413.27807,0.02203
1411.21790,0.02173
1409.15773,0.02166
1407.09756,0.02117
1405.03738,0.02040
1402.97721,0.02019
1400.91704,0.01961
1398.85687,0.01861
1396.79670,0.01788
1394.73652,0.01727
1392.67635,0.01755
1390.61618,0.01781
1388.55601,0.01735
1386.49583,0.01751
1384.43566,0.01833
1382.37549,0.01875
1380.31532,0.01910
1378.25515,0.01960
1376.19497,0.01979
1374.13480,0.01989
1372.07463,0.02054
1370.01446,0.02078
1367.95429,0.02054
1365.89411,0.02015
1363.83394,0.01921
1361.77377,0.01873
1359.71360,0.01896
1357.65343,0.01886
1355.59325,0.01843
1353.53308,0.01809
1351.47291,0.01774
1349.41274,0.01727
1347.35256,0.01696
1345.29239,0.01686
1343.23222,0.01667
1341.17205,0.01615
1339.11188,0.01594
1337.05170,0.01636
1334.99153,0.01653
1332.93136,0.01628
1330.87119,0.01607
1328.81102,0.01610
1326.75084,0.01620
1324.69067,0.01624
1322.63050,0.01624
1320.57033,0.01612
1318.51015,0.01603
1316.44998,0.01603
1314.38981,0.01588
1312.32964,0.01577
1310.26947,0.01575
1308.20929,0.01550
1306.14912,0.01509
1304.08895,0.01465
1302.02878,0.01422
1299.96861,0.01384
1297.90843,0.01353
1295.84826,0.01332
1293.78809,0.01323
1291.72792,0.01320
1289.66775,0.01316
1287.60757,0.01308
1285.54740,0.01305
1283.48723,0.01306
1281.42706,0.01313
1279.36688,0.01319
1277.30671,0.01330
1275.24654,0.01364
1273.18637,0.01414
1271.12620,0.01462
1269.06602,0.01525
1267.00585,0.01618
1264.94568,0.01733
1262.88551,0.01851
1260.82534,0.01964
1258.76516,0.02070
1256.70499,0.02156
1254.64482,0.02225
1252.58465,0.02286
1250.52447,0.02325
1248.46430,0.02340
1246.40413,0.02342
1244.34396,0.02330
1242.28379,0.02302
1240.22361,0.02262
1238.16344,0.02208
1236.10327,0.02140
1234.04310,0.02064
1231.98293,0.01988
1229.92275,0.01902
1227.86258,0.01805
1225.80241,0.01714
1223.74224,0.01628
1221.68207,0.01528
1219.62189,0.01418
1217.56172,0.01310
1215.50155,0.01202
1213.44138,0.01093
1211.38120,0.00988
1209.32103,0.00873
1207.26086,0.00744
1205.20069,0.00615
1203.14052,0.00492
1201.08034,0.00370
1199.02017,0.00256
1196.96000,0.00169
1194.89983,0.00106
1192.83966,0.00049
1190.77948,0.00009
1188.71931,0.00000
1186.65914,-0.00004
1184.59897,0.00004
1182.53880,0.00028
1180.47862,0.00079
1178.41845,0.00171
1176.35828,0.00288
1174.29811,0.00416
1172.23793,0.00570
1170.17776,0.00748
1168.11759,0.00928
1166.05742,0.01100
1163.99725,0.01267
1161.93707,0.01436
1159.87690,0.01595
1157.81673,0.01735
1155.75656,0.01862
1153.69639,0.01982
1151.63621,0.02099
1149.57604,0.02205
1147.51587,0.02282
1145.45570,0.02342
1143.39552,0.02394
1141.33535,0.02422
1139.27518,0.02436
1137.21501,0.02463
1135.15484,0.02502
1133.09466,0.02549
1131.03449,0.02615
1128.97432,0.02710
1126.91415,0.02831
1124.85398,0.02960
1122.79380,0.03070
1120.73363,0.03166
1118.67346,0.03277
1116.61329,0.03392
1114.55312,0.03483
1112.49294,0.03566
1110.43277,0.03667
1108.37260,0.03776
1106.31243,0.03880
1104.25225,0.04013
1102.19208,0.04197
1100.13191,0.04411
1098.07174,0.04648
1096.01157,0.04909
1093.95139,0.05168
1091.89122,0.05398
1089.83105,0.05594
1087.77088,0.05754
1085.71071,0.05906
1083.65053,0.06074
1081.59036,0.06238
1079.53019,0.06403
1077.47002,0.06597
1075.40985,0.06809
1073.34967,0.07007
1071.28950,0.07178
1069.22933,0.07325
1067.16916,0.07460
1065.10898,0.07591
1063.04881,0.07700
1060.98864,0.07779
1058.92847,0.07858
1056.86830,0.07961
1054.80812,0.08086
1052.74795,0.08227
1050.68778,0.08381
1048.62761,0.08546
1046.56744,0.08717
1044.50726,0.08888
1042.44709,0.09058
1040.38692,0.09213
1038.32675,0.09338
1036.26657,0.09423
1034.20640,0.09440
1032.14623,0.09416
1030.08606,0.09399
1028.02589,0.09378
1025.96571,0.09339
1023.90554,0.09291
1021.84537,0.09252
1019.78520,0.09233
1017.72503,0.09221
1015.66485,0.09217
1013.60468,0.09225
1011.54451,0.09222
1009.48434,0.09181
1007.42417,0.09112
1005.36399,0.09016
1003.30382,0.08870
1001.24365,0.08677
999.18348,0.08463
997.12330,0.08253
995.06313,0.08082
993.00296,0.07956
990.94279,0.07833
988.88262,0.07706
986.82244,0.07601
984.76227,0.07512
982.70210,0.07432
980.64193,0.07370
978.58176,0.07299
976.52158,0.07192
974.46141,0.07065
972.40124,0.06944
970.34107,0.06811
968.28089,0.06649
966.22072,0.06473
964.16055,0.06293
962.10038,0.06122
960.04021,0.05963
957.98003,0.05806
955.91986,0.05653
953.85969,0.05505
951.79952,0.05353
949.73935,0.05199
947.67917,0.05018
945.61900,0.04777
943.55883,0.04494
941.49866,0.04170
939.43849,0.03782
937.37831,0.03367
935.31814,0.02981
933.25797,0.02644
931.19780,0.02374
929.13762,0.02182
927.07745,0.02027
925.01728,0.01865
922.95711,0.01701
920.89694,0.01568
918.83676,0.01479
916.77659,0.01396
914.71642,0.01272
912.65625,0.01128
910.59608,0.01027
908.53590,0.00972
906.47573,0.00937
904.41556,0.00931
902.35539,0.00966
900.29522,0.01026
898.23504,0.01083
896.17487,0.01124
894.11470,0.01155
892.05453,0.01181
889.99435,0.01179
887.93418,0.01138
885.87401,0.01082
883.81384,0.01014
881.75367,0.00920
879.69349,0.00803
877.63332,0.00692
875.57315,0.00610
873.51298,0.00570
871.45281,0.00552
869.39263,0.00515
867.33246,0.00461
865.27229,0.00402
863.21212,0.00343
861.15194,0.00310
859.09177,0.00317
857.03160,0.00326
854.97143,0.00297
852.91126,0.00250
850.85108,0.00241
848.79091,0.00254
846.73074,0.00231
844.67057,0.00198
842.61040,0.00188
840.55022,0.00171
838.49005,0.00132
836.42988,0.00084
834.36971,0.00033
832.30954,0.00000
830.24936,-0.00022
828.18919,-0.00018
826.12902,0.00016
824.06885,0.00069
822.00867,0.00105
819.94850,0.00113
817.88833,0.00136
815.82816,0.00170
813.76799,0.00190
811.70781,0.00210
809.64764,0.00245
807.58747,0.00264
805.52730,0.00254
803.46713,0.00252
801.40695,0.00239
799.34678,0.00193
797.28661,0.00149
795.22644,0.00106
793.16627,0.00053
791.10609,0.00000
789.04592,-0.00021
786.98575,0.00028
784.92558,0.00094
782.86540,0.00100
780.80523,0.00075
778.74506,0.00084
776.68489,0.00102
774.62472,0.00083
772.56454,0.00056
770.50437,0.00068
768.44420,0.00096
766.38403,0.00097
764.32386,0.00074
762.26368,0.00064
760.20351,0.00076
758.14334,0.00091
756.08317,0.00109
754.02299,0.00116
751.96282,0.00067
749.90265,0.00000
747.84248,-0.00019
745.78231,-0.00004
743.72213,-0.00010
741.66196,-0.00019
739.60179,-0.00067
737.54162,-0.00154
735.48145,-0.00202
733.42127,-0.00197
731.36110,-0.00165
729.30093,-0.00138
727.24076,-0.00152
725.18059,-0.00163
723.12041,-0.00110
721.06024,-0.00092
719.00007,-0.00026
716.93990,0.00000
714.87972,0.00029
712.81955,0.00115
710.75938,0.00211
708.69921,0.00281
706.63904,0.00327
704.57886,0.00362
702.51869,0.00360
700.45852,0.00325
698.39835,0.00320
696.33818,0.00373
694.27800,0.00415
692.21783,0.00373
690.15766,0.00266
688.09749,0.00145
686.03731,0.00053
683.97714,0.00011
681.91697,0.00014
679.85680,0.00050
677.79663,0.00056
675.73645,-0.00001
673.67628,0.00055
671.61611,0.00362
669.55594,0.00243
667.49577,-0.00182
665.43559,0.00501
663.37542,0.00240
661.31525,-0.00040
659.25508,-0.00008
657.19491,0.00133
655.13473,0.00202
653.07456,0.00187
651.01439,0.00104
648.95422,0.00000
646.89404,0.00022
644.83387,0.00084
642.77370,0.00138
640.71353,0.00205
638.65336,0.00265
636.59318,0.00258
634.53301,0.00163
632.47284,0.00049
630.41267,0.00040
628.35250,0.00115
626.29232,0.00100
624.23215,0.00002
622.17198,0.00058
620.11181,0.00288
618.05164,0.00486
615.99146,0.00438
613.93129,0.00209
611.87112,0.00056
609.81095,0.00098
607.75077,0.00271
605.69060,0.00419
603.63043,0.00390
601.57026,0.00195
599.51009,0.00000
