3996.73391,-0.00283
3994.67373,-0.00270
3992.61356,-0.00260
3990.55339,-0.00242
3988.49322,-0.00231
3986.43305,-0.00232
3984.37287,-0.00232
3982.31270,-0.00220
3980.25253,-0.00185
3978.19236,-0.00141
3976.13219,-0.00120
3974.07201,-0.00124
3972.01184,-0.00136
3969.95167,-0.00142
3967.89150,-0.00131
3965.83133,-0.00112
3963.77115,-0.00096
3961.71098,-0.00074
3959.65081,-0.00045
3957.59064,-0.00027
3955.53046,-0.00027
3953.47029,-0.00026
3951.41012,-0.00016
3949.34995,-0.00002
3947.28978,0.00000
3945.22960,-0.00007
3943.16943,0.00000
3941.10926,0.00007
3939.04909,0.00009
3936.98892,0.00015
3934.92874,0.00030
3932.86857,0.00047
3930.80840,0.00058
3928.74823,0.00062
3926.68805,0.00063
3924.62788,0.00071
3922.56771,0.00086
3920.50754,0.00098
3918.44737,0.00099
3916.38719,0.00080
3914.32702,0.00046
3912.26685,0.00028
3910.20668,0.00041
3908.14651,0.00069
3906.08633,0.00090
3904.02616,0.00103
3901.96599,0.00109
3899.90582,0.00092
3897.84565,0.00069
3895.78547,0.00063
3893.72530,0.00062
3891.66513,0.00046
3889.60496,0.00037
3887.54478,0.00052
3885.48461,0.00069
3883.42444,0.00074
3881.36427,0.00082
3879.30410,0.00085
3877.24392,0.00075
3875.18375,0.00063
3873.12358,0.00053
3871.06341,0.00044
3869.00324,0.00042
3866.94306,0.00050
3864.88289,0.00060
3862.82272,0.00052
3860.76255,0.00039
3858.70237,0.00050
3856.64220,0.00072
3854.58203,0.00078
3852.52186,0.00078
3850.46169,0.00094
3848.40151,0.00131
3846.34134,0.00178
3844.28117,0.00191
3842.22100,0.00153
3840.16083,0.00109
3838.10065,0.00090
3836.04048,0.00086
3833.98031,0.00083
3831.92014,0.00069
3829.85997,0.00055
3827.79979,0.00061
3825.73962,0.00087
3823.67945,0.00118
3821.61928,0.00137
3819.55910,0.00109
3817.49893,0.00068
3815.43876,0.00079
3813.37859,0.00119
3811.31842,0.00129
3809.25824,0.00116
3807.19807,0.00105
3805.13790,0.00090
3803.07773,0.00061
3801.01756,0.00041
3798.95738,0.00062
3796.89721,0.00104
3794.83704,0.00128
3792.77687,0.00127
3790.71670,0.00107
3788.65652,0.00082
3786.59635,0.00071
3784.53618,0.00077
3782.47601,0.00089
3780.41583,0.00108
3778.35566,0.00118
3776.29549,0.00104
3774.23532,0.00085
3772.17515,0.00073
3770.11497,0.00075
3768.05480,0.00093
3765.99463,0.00108
3763.93446,0.00116
3761.87429,0.00130
3759.81411,0.00134
3757.75394,0.00118
3755.69377,0.00100
3753.63360,0.00071
3751.57342,0.00020
3749.51325,0.00000
3747.45308,0.00040
3745.39291,0.00075
3743.33274,0.00090
3741.27256,0.00129
3739.21239,0.00176
3737.15222,0.00189
3735.09205,0.00157
3733.03188,0.00129
3730.97170,0.00133
3728.91153,0.00135
3726.85136,0.00102
3724.79119,0.00066
3722.73102,0.00062
3720.67084,0.00063
3718.61067,0.00042
3716.55050,0.00013
3714.49033,0.00007
3712.43015,0.00017
3710.36998,0.00030
3708.30981,0.00075
3706.24964,0.00107
3704.18947,0.00093
3702.12929,0.00048
3700.06912,0.00025
3698.00895,0.00052
3695.94878,0.00092
3693.88861,0.00112
3691.82843,0.00113
3689.76826,0.00111
3687.70809,0.00105
3685.64792,0.00103
3683.58775,0.00108
3681.52757,0.00128
3679.46740,0.00129
3677.40723,0.00071
3675.34706,0.00004
3673.28688,0.00021
3671.22671,0.00079
3669.16654,0.00103
3667.10637,0.00099
3665.04620,0.00089
3662.98602,0.00081
3660.92585,0.00086
3658.86568,0.00098
3656.80551,0.00101
3654.74534,0.00095
3652.68516,0.00105
3650.62499,0.00146
3648.56482,0.00197
3646.50465,0.00198
3644.44447,0.00153
3642.38430,0.00134
3640.32413,0.00161
3638.26396,0.00182
3636.20379,0.00177
3634.14361,0.00173
3632.08344,0.00182
3630.02327,0.00196
3627.96310,0.00200
3625.90293,0.00191
3623.84275,0.00170
3621.78258,0.00153
3619.72241,0.00155
3617.66224,0.00166
3615.60207,0.00171
3613.54189,0.00192
3611.48172,0.00249
3609.42155,0.00281
3607.36138,0.00274
3605.30120,0.00272
3603.24103,0.00285
3601.18086,0.00309
3599.12069,0.00315
3597.06052,0.00291
3595.00034,0.00273
3592.94017,0.00298
3590.88000,0.00342
3588.81983,0.00387
3586.75966,0.00414
3584.69948,0.00409
3582.63931,0.00386
3580.57914,0.00372
3578.51897,0.00390
3576.45879,0.00428
3574.39862,0.00449
3572.33845,0.00434
3570.27828,0.00419
3568.21811,0.00439
3566.15793,0.00478
3564.09776,0.00500
3562.03759,0.00505
3559.97742,0.00509
3557.91725,0.00522
3555.85707,0.00552
3553.79690,0.00595
3551.73673,0.00621
3549.67656,0.00616
3547.61639,0.00603
3545.55621,0.00606
3543.49604,0.00625
3541.43587,0.00647
3539.37570,0.00658
3537.31552,0.00656
3535.25535,0.00665
3533.19518,0.00689
3531.13501,0.00705
3529.07484,0.00709
3527.01466,0.00719
3524.95449,0.00752
3522.89432,0.00786
3520.83415,0.00791
3518.77398,0.00781
3516.71380,0.00789
3514.65363,0.00821
3512.59346,0.00862
3510.53329,0.00894
3508.47312,0.00915
3506.41294,0.00937
3504.35277,0.00958
3502.29260,0.00959
3500.23243,0.00941
3498.17225,0.00927
3496.11208,0.00930
3494.05191,0.00950
3491.99174,0.00975
3489.93157,0.00990
3487.87139,0.00987
3485.81122,0.00990
3483.75105,0.01015
3481.69088,0.01054
3479.63071,0.01095
3477.57053,0.01110
3475.51036,0.01083
3473.45019,0.01053
3471.39002,0.01058
3469.32984,0.01086
3467.26967,0.01122
3465.20950,0.01152
3463.14933,0.01165
3461.08916,0.01164
3459.02898,0.01158
3456.96881,0.01159
3454.90864,0.01179
3452.84847,0.01206
3450.78830,0.01227
3448.72812,0.01251
3446.66795,0.01266
3444.60778,0.01249
3442.54761,0.01234
3440.48744,0.01260
3438.42726,0.01304
3436.36709,0.01331
3434.30692,0.01345
3432.24675,0.01349
3430.18657,0.01332
3428.12640,0.01311
3426.06623,0.01314
3424.00606,0.01322
3421.94589,0.01319
3419.88571,0.01327
3417.82554,0.01349
3415.76537,0.01362
3413.70520,0.01367
3411.64503,0.01386
3409.58485,0.01410
3407.52468,0.01422
3405.46451,0.01428
3403.40434,0.01447
3401.34416,0.01474
3399.28399,0.01487
3397.22382,0.01481
3395.16365,0.01475
3393.10348,0.01489
3391.04330,0.01516
3388.98313,0.01535
3386.92296,0.01530
3384.86279,0.01515
3382.80262,0.01517
3380.74244,0.01539
3378.68227,0.01556
3376.62210,0.01559
3374.56193,0.01557
3372.50176,0.01562
3370.44158,0.01583
3368.38141,0.01601
3366.32124,0.01606
3364.26107,0.01602
3362.20089,0.01585
3360.14072,0.01582
3358.08055,0.01602
3356.02038,0.01611
3353.96021,0.01607
3351.90003,0.01614
3349.83986,0.01628
3347.77969,0.01624
3345.71952,0.01604
3343.65935,0.01596
3341.59917,0.01608
3339.53900,0.01627
3337.47883,0.01645
3335.41866,0.01644
3333.35849,0.01624
3331.29831,0.01606
3329.23814,0.01612
3327.17797,0.01646
3325.11780,0.01676
3323.05762,0.01684
3320.99745,0.01679
3318.93728,0.01669
3316.87711,0.01660
3314.81694,0.01652
3312.75676,0.01646
3310.69659,0.01633
3308.63642,0.01628
3306.57625,0.01653
3304.51608,0.01677
3302.45590,0.01666
3300.39573,0.01647
3298.33556,0.01646
3296.27539,0.01646
3294.21521,0.01626
3292.15504,0.01612
3290.09487,0.01631
3288.03470,0.01659
3285.97453,0.01664
3283.91435,0.01660
3281.85418,0.01656
3279.79401,0.01655
3277.73384,0.01656
3275.67367,0.01650
3273.61349,0.01653
3271.55332,0.01661
3269.49315,0.01656
3267.43298,0.01646
3265.37281,0.01638
3263.31263,0.01637
3261.25246,0.01642
3259.19229,0.01641
3257.13212,0.01631
3255.07194,0.01629
3253.01177,0.01635
3250.95160,0.01621
3248.89143,0.01598
3246.83126,0.01605
3244.77108,0.01628
3242.71091,0.01631
3240.65074,0.01619
3238.59057,0.01612
3236.53040,0.01608
3234.47022,0.01603
3232.41005,0.01597
3230.34988,0.01580
3228.28971,0.01560
3226.22954,0.01566
3224.16936,0.01586
3222.10919,0.01597
3220.04902,0.01588
3217.98885,0.01559
3215.92867,0.01542
3213.86850,0.01554
3211.80833,0.01576
3209.74816,0.01585
3207.68799,0.01569
3205.62781,0.01543
3203.56764,0.01525
3201.50747,0.01521
3199.44730,0.01527
3197.38713,0.01522
3195.32695,0.01492
3193.26678,0.01459
3191.20661,0.01452
3189.14644,0.01454
3187.08626,0.01440
3185.02609,0.01425
3182.96592,0.01415
3180.90575,0.01399
3178.84558,0.01395
3176.78540,0.01413
3174.72523,0.01429
3172.66506,0.01441
3170.60489,0.01441
3168.54472,0.01420
3166.48454,0.01398
3164.42437,0.01394
3162.36420,0.01392
3160.30403,0.01381
3158.24386,0.01371
3156.18368,0.01361
3154.12351,0.01352
3152.06334,0.01345
3150.00317,0.01338
3147.94299,0.01333
3145.88282,0.01330
3143.82265,0.01315
3141.76248,0.01288
3139.70231,0.01278
3137.64213,0.01280
3135.58196,0.01275
3133.52179,0.01271
3131.46162,0.01277
3129.40145,0.01280
3127.34127,0.01258
3125.28110,0.01215
3123.22093,0.01184
3121.16076,0.01177
3119.10058,0.01185
3117.04041,0.01195
3114.98024,0.01191
3112.92007,0.01169
3110.85990,0.01143
3108.79972,0.01133
3106.73955,0.01152
3104.67938,0.01176
3102.61921,0.01176
3100.55904,0.01156
3098.49886,0.01139
3096.43869,0.01126
3094.37852,0.01104
3092.31835,0.01080
3090.25818,0.01078
3088.19800,0.01095
3086.13783,0.01100
3084.07766,0.01084
3082.01749,0.01076
3079.95731,0.01078
3077.89714,0.01062
3075.83697,0.01047
3073.77680,0.01040
3071.71663,0.01026
3069.65645,0.01013
3067.59628,0.01012
3065.53611,0.01018
3063.47594,0.01020
3061.41577,0.01015
3059.35559,0.01013
3057.29542,0.01012
3055.23525,0.00998
3053.17508,0.00985
3051.11491,0.00976
3049.05473,0.00964
3046.99456,0.00957
3044.93439,0.00954
3042.87422,0.00937
3040.81404,0.00924
3038.75387,0.00936
3036.69370,0.00956
3034.63353,0.00956
3032.57336,0.00941
3030.51318,0.00933
3028.45301,0.00921
3026.39284,0.00889
3024.33267,0.00863
3022.27250,0.00857
3020.21232,0.00864
3018.15215,0.00873
3016.09198,0.00874
3014.03181,0.00865
3011.97163,0.00856
3009.91146,0.00848
3007.85129,0.00842
3005.79112,0.00833
3003.73095,0.00824
3001.67077,0.00829
2999.61060,0.00839
2997.55043,0.00835
2995.49026,0.00829
2993.43009,0.00838
2991.36991,0.00849
2989.30974,0.00851
2987.24957,0.00846
2985.18940,0.00837
2983.12923,0.00829
2981.06905,0.00821
2979.00888,0.00826
2976.94871,0.00854
2974.88854,0.00878
2972.82836,0.00887
2970.76819,0.00892
2968.70802,0.00886
2966.64785,0.00870
2964.58768,0.00871
2962.52750,0.00890
2960.46733,0.00900
2958.40716,0.00893
2956.34699,0.00882
2954.28682,0.00881
2952.22664,0.00896
2950.16647,0.00929
2948.10630,0.00961
2946.04613,0.00974
2943.98596,0.00987
2941.92578,0.01003
2939.86561,0.01020
2937.80544,0.01032
2935.74527,0.01040
2933.68509,0.01037
2931.62492,0.01019
2929.56475,0.01013
2927.50458,0.01018
2925.44441,0.01019
2923.38423,0.01023
2921.32406,0.01031
2919.26389,0.01030
2917.20372,0.01024
2915.14355,0.01028
2913.08337,0.01035
2911.02320,0.01031
2908.96303,0.01026
2906.90286,0.01029
2904.84268,0.01030
2902.78251,0.01017
2900.72234,0.01008
2898.66217,0.01015
2896.60200,0.01024
2894.54182,0.01026
2892.48165,0.01023
2890.42148,0.01017
2888.36131,0.01017
2886.30114,0.01022
2884.24096,0.01012
2882.18079,0.00989
2880.12062,0.00978
2878.06045,0.00978
2876.00028,0.00978
2873.94010,0.00981
2871.87993,0.00963
2869.81976,0.00933
2867.75959,0.00936
2865.69941,0.00956
2863.63924,0.00957
2861.57907,0.00945
2859.51890,0.00938
2857.45873,0.00927
2855.39855,0.00906
2853.33838,0.00904
2851.27821,0.00919
2849.21804,0.00926
2847.15787,0.00928
2845.09769,0.00931
2843.03752,0.00919
2840.97735,0.00890
2838.91718,0.00859
2836.85700,0.00853
2834.79683,0.00861
2832.73666,0.00858
2830.67649,0.00849
2828.61632,0.00843
2826.55614,0.00840
2824.49597,0.00833
2822.43580,0.00825
2820.37563,0.00819
2818.31546,0.00816
2816.25528,0.00821
2814.19511,0.00827
2812.13494,0.00829
2810.07477,0.00821
2808.01460,0.00811
2805.95442,0.00814
2803.89425,0.00825
2801.83408,0.00832
2799.77391,0.00833
2797.71373,0.00829
2795.65356,0.00809
2793.59339,0.00784
2791.53322,0.00784
2789.47305,0.00804
2787.41287,0.00807
2785.35270,0.00785
2783.29253,0.00762
2781.23236,0.00758
2779.17219,0.00769
2777.11201,0.00785
2775.05184,0.00794
2772.99167,0.00786
2770.93150,0.00773
2768.87133,0.00769
2766.81115,0.00775
2764.75098,0.00766
2762.69081,0.00739
2760.63064,0.00732
2758.57046,0.00752
2756.51029,0.00769
2754.45012,0.00770
2752.38995,0.00762
2750.32978,0.00751
2748.26960,0.00738
2746.20943,0.00735
2744.14926,0.00737
2742.08909,0.00728
2740.02892,0.00726
2737.96874,0.00741
2735.90857,0.00747
2733.84840,0.00738
2731.78823,0.00737
2729.72805,0.00736
2727.66788,0.00729
2725.60771,0.00727
2723.54754,0.00729
2721.48737,0.00734
2719.42719,0.00747
2717.36702,0.00753
2715.30685,0.00740
2713.24668,0.00726
2711.18651,0.00729
2709.12633,0.00737
2707.06616,0.00746
2705.00599,0.00753
2702.94582,0.00746
2700.88565,0.00730
2698.82547,0.00720
2696.76530,0.00720
2694.70513,0.00725
2692.64496,0.00730
2690.58478,0.00730
2688.52461,0.00720
2686.46444,0.00722
2684.40427,0.00736
2682.34410,0.00736
2680.28392,0.00730
2678.22375,0.00726
2676.16358,0.00713
2674.10341,0.00701
2672.04324,0.00701
2669.98306,0.00704
2667.92289,0.00707
2665.86272,0.00713
2663.80255,0.00719
2661.74238,0.00718
2659.68220,0.00709
2657.62203,0.00702
2655.56186,0.00704
2653.50169,0.00714
2651.44151,0.00723
2649.38134,0.00717
2647.32117,0.00700
2645.26100,0.00682
2643.20083,0.00679
2641.14065,0.00686
2639.08048,0.00679
2637.02031,0.00662
2634.96014,0.00650
2632.89997,0.00654
2630.83979,0.00675
2628.77962,0.00683
2626.71945,0.00675
2624.65928,0.00670
2622.59910,0.00663
2620.53893,0.00647
2618.47876,0.00639
2616.41859,0.00646
2614.35842,0.00657
2612.29824,0.00656
2610.23807,0.00641
2608.17790,0.00633
2606.11773,0.00643
2604.05756,0.00648
2601.99738,0.00619
2599.93721,0.00579
2597.87704,0.00573
2595.81687,0.00589
2593.75670,0.00583
2591.69652,0.00568
2589.63635,0.00586
2587.57618,0.00612
2585.51601,0.00597
2583.45583,0.00564
2581.39566,0.00566
2579.33549,0.00587
2577.27532,0.00589
2575.21515,0.00583
2573.15497,0.00590
2571.09480,0.00592
2569.03463,0.00596
2566.97446,0.00613
2564.91429,0.00629
2562.85411,0.00619
2560.79394,0.00589
2558.73377,0.00564
2556.67360,0.00556
2554.61342,0.00561
2552.55325,0.00559
2550.49308,0.00551
2548.43291,0.00551
2546.37274,0.00556
2544.31256,0.00555
2542.25239,0.00550
2540.19222,0.00556
2538.13205,0.00571
2536.07188,0.00587
2534.01170,0.00590
2531.95153,0.00572
2529.89136,0.00535
2527.83119,0.00503
2525.77102,0.00502
2523.71084,0.00524
2521.65067,0.00553
2519.59050,0.00576
2517.53033,0.00579
2515.47015,0.00559
2513.40998,0.00519
2511.34981,0.00489
2509.28964,0.00487
2507.22947,0.00492
2505.16929,0.00502
2503.10912,0.00520
2501.04895,0.00521
2498.98878,0.00516
2496.92861,0.00550
2494.86843,0.00576
2492.80826,0.00549
2490.74809,0.00535
2488.68792,0.00556
2486.62775,0.00565
2484.56757,0.00569
2482.50740,0.00571
2480.44723,0.00545
2478.38706,0.00526
2476.32688,0.00532
2474.26671,0.00530
2472.20654,0.00538
2470.14637,0.00572
2468.08620,0.00587
2466.02602,0.00564
2463.96585,0.00539
2461.90568,0.00539
2459.84551,0.00548
2457.78534,0.00554
2455.72516,0.00569
2453.66499,0.00586
2451.60482,0.00587
2449.54465,0.00565
2447.48447,0.00548
2445.42430,0.00547
2443.36413,0.00557
2441.30396,0.00582
2439.24379,0.00603
2437.18361,0.00590
2435.12344,0.00540
2433.06327,0.00504
2431.00310,0.00508
2428.94293,0.00510
2426.88275,0.00504
2424.82258,0.00503
2422.76241,0.00495
2420.70224,0.00489
2418.64207,0.00493
2416.58189,0.00489
2414.52172,0.00491
2412.46155,0.00512
2410.40138,0.00525
2408.34120,0.00531
2406.28103,0.00523
2404.22086,0.00503
2402.16069,0.00501
2400.10052,0.00500
2398.04034,0.00474
2395.98017,0.00457
2393.92000,0.00458
2391.85983,0.00461
2389.79966,0.00462
2387.73948,0.00473
2385.67931,0.00485
2383.61914,0.00499
2381.55897,0.00528
2379.49880,0.00547
2377.43862,0.00529
2375.37845,0.00539
2373.31828,0.00561
2371.25811,0.00569
2369.19793,0.00592
2367.13776,0.00567
2365.07759,0.00503
2363.01742,0.00596
2360.95725,0.00607
2358.89707,0.00701
2356.83690,0.00802
2354.77673,0.00793
2352.71656,0.00673
2350.65639,0.00376
2348.59621,0.00247
2346.53604,0.00646
2344.47587,0.00729
2342.41570,0.00672
2340.35552,0.00621
2338.29535,0.00538
2336.23518,0.00507
2334.17501,0.00498
2332.11484,0.00529
2330.05466,0.00558
2327.99449,0.00609
2325.93432,0.00593
2323.87415,0.00672
2321.81398,0.00750
2319.75380,0.00814
2317.69363,0.00706
2315.63346,0.00595
2313.57329,0.00564
2311.51312,0.00572
2309.45294,0.00589
2307.39277,0.00570
2305.33260,0.00528
2303.27243,0.00518
2301.21225,0.00554
2299.15208,0.00565
2297.09191,0.00572
2295.03174,0.00600
2292.97157,0.00611
2290.91139,0.00606
2288.85122,0.00613
2286.79105,0.00626
2284.73088,0.00607
2282.67071,0.00551
2280.61053,0.00508
2278.55036,0.00520
2276.49019,0.00556
2274.43002,0.00543
2272.36984,0.00488
2270.30967,0.00459
2268.24950,0.00479
2266.18933,0.00502
2264.12916,0.00504
2262.06898,0.00482
2260.00881,0.00447
2257.94864,0.00431
2255.88847,0.00470
2253.82830,0.00511
2251.76812,0.00504
2249.70795,0.00474
2247.64778,0.00463
2245.58761,0.00448
2243.52744,0.00415
2241.46726,0.00375
2239.40709,0.00346
2237.34692,0.00344
2235.28675,0.00344
2233.22657,0.00341
2231.16640,0.00359
2229.10623,0.00395
2227.04606,0.00408
2224.98589,0.00368
2222.92571,0.00316
2220.86554,0.00313
2218.80537,0.00360
2216.74520,0.00404
2214.68503,0.00406
2212.62485,0.00385
2210.56468,0.00377
2208.50451,0.00401
2206.44434,0.00433
2204.38417,0.00448
2202.32399,0.00468
2200.26382,0.00480
2198.20365,0.00490
2196.14348,0.00527
2194.08330,0.00554
2192.02313,0.00574
2189.96296,0.00589
2187.90279,0.00517
2185.84262,0.00390
2183.78244,0.00336
2181.72227,0.00415
2179.66210,0.00561
2177.60193,0.00616
2175.54176,0.00504
2173.48158,0.00369
2171.42141,0.00345
2169.36124,0.00376
2167.30107,0.00459
2165.24089,0.00551
2163.18072,0.00444
2161.12055,0.00139
2159.06038,0.00000
2157.00021,0.00147
2154.94003,0.00265
2152.87986,0.00309
2150.81969,0.00345
2148.75952,0.00321
2146.69935,0.00286
2144.63917,0.00281
2142.57900,0.00296
2140.51883,0.00295
2138.45866,0.00276
2136.39849,0.00266
2134.33831,0.00258
2132.27814,0.00256
2130.21797,0.00262
2128.15780,0.00295
2126.09762,0.00352
2124.03745,0.00366
2121.97728,0.00329
2119.91711,0.00312
2117.85694,0.00351
2115.79676,0.00418
2113.73659,0.00460
2111.67642,0.00458
2109.61625,0.00428
2107.55608,0.00407
2105.49590,0.00386
2103.43573,0.00359
2101.37556,0.00392
2099.31539,0.00462
2097.25521,0.00475
2095.19504,0.00421
2093.13487,0.00366
2091.07470,0.00327
2089.01453,0.00314
2086.95435,0.00383
2084.89418,0.00471
2082.83401,0.00444
2080.77384,0.00340
2078.71367,0.00300
2076.65349,0.00370
2074.59332,0.00470
2072.53315,0.00488
2070.47298,0.00425
2068.41281,0.00372
2066.35263,0.00351
2064.29246,0.00334
2062.23229,0.00323
2060.17212,0.00310
2058.11194,0.00280
2056.05177,0.00275
2053.99160,0.00314
2051.93143,0.00362
2049.87126,0.00345
2047.81108,0.00237
2045.75091,0.00103
2043.69074,0.00051
2041.63057,0.00116
2039.57040,0.00191
2037.51022,0.00199
2035.45005,0.00215
2033.38988,0.00285
2031.32971,0.00323
2029.26954,0.00302
2027.20936,0.00266
2025.14919,0.00201
2023.08902,0.00176
2021.02885,0.00230
2018.96867,0.00247
2016.90850,0.00182
2014.84833,0.00110
2012.78816,0.00064
2010.72799,0.00069
2008.66781,0.00111
2006.60764,0.00138
2004.54747,0.00143
2002.48730,0.00131
2000.42713,0.00138
1998.36695,0.00198
1996.30678,0.00306
1994.24661,0.00397
1992.18644,0.00364
1990.12626,0.00243
1988.06609,0.00207
1986.00592,0.00262
1983.94575,0.00292
1981.88558,0.00283
1979.82540,0.00276
1977.76523,0.00205
1975.70506,0.00051
1973.64489,0.00000
1971.58472,0.00102
1969.52454,0.00210
1967.46437,0.00241
1965.40420,0.00242
1963.34403,0.00284
1961.28386,0.00308
1959.22368,0.00257
1957.16351,0.00187
1955.10334,0.00144
1953.04317,0.00130
1950.98299,0.00138
1948.92282,0.00131
1946.86265,0.00113
1944.80248,0.00137
1942.74231,0.00166
1940.68213,0.00178
1938.62196,0.00229
1936.56179,0.00280
1934.50162,0.00279
1932.44145,0.00249
1930.38127,0.00208
1928.32110,0.00175
1926.26093,0.00175
1924.20076,0.00206
1922.14059,0.00248
1920.08041,0.00291
1918.02024,0.00315
1915.96007,0.00298
1913.89990,0.00259
1911.83972,0.00224
1909.77955,0.00203
1907.71938,0.00206
1905.65921,0.00207
1903.59904,0.00178
1901.53886,0.00137
1899.47869,0.00117
1897.41852,0.00123
1895.35835,0.00137
1893.29818,0.00156
1891.23800,0.00180
1889.17783,0.00199
1887.11766,0.00192
1885.05749,0.00168
1882.99731,0.00167
1880.93714,0.00189
1878.87697,0.00193
1876.81680,0.00183
1874.75663,0.00181
1872.69645,0.00180
1870.63628,0.00170
1868.57611,0.00162
1866.51594,0.00167
1864.45577,0.00182
1862.39559,0.00192
1860.33542,0.00185
1858.27525,0.00174
1856.21508,0.00173
1854.15491,0.00181
1852.09473,0.00181
1850.03456,0.00173
1847.97439,0.00181
1845.91422,0.00196
1843.85404,0.00191
1841.79387,0.00175
1839.73370,0.00163
1837.67353,0.00156
1835.61336,0.00165
1833.55318,0.00188
1831.49301,0.00198
1829.43284,0.00176
1827.37267,0.00149
1825.31250,0.00139
1823.25232,0.00132
1821.19215,0.00116
1819.13198,0.00106
1817.07181,0.00112
1815.01163,0.00122
1812.95146,0.00130
1810.89129,0.00137
1808.83112,0.00139
1806.77095,0.00135
1804.71077,0.00129
1802.65060,0.00128
1800.59043,0.00136
1798.53026,0.00155
1796.47009,0.00168
1794.40991,0.00161
1792.34974,0.00148
1790.28957,0.00149
1788.22940,0.00147
1786.16923,0.00130
1784.10905,0.00108
1782.04888,0.00097
1779.98871,0.00097
1777.92854,0.00109
1775.86836,0.00120
1773.80819,0.00119
1771.74802,0.00108
1769.68785,0.00100
1767.62768,0.00105
1765.56750,0.00120
1763.50733,0.00135
1761.44716,0.00160
1759.38699,0.00200
1757.32682,0.00239
1755.26664,0.00268
1753.20647,0.00301
1751.14630,0.00347
1749.08613,0.00386
1747.02596,0.00396
1744.96578,0.00398
1742.90561,0.00411
1740.84544,0.00431
1738.78527,0.00445
1736.72509,0.00456
1734.66492,0.00477
1732.60475,0.00497
1730.54458,0.00507
1728.48441,0.00523
1726.42423,0.00537
1724.36406,0.00532
1722.30389,0.00516
1720.24372,0.00498
1718.18355,0.00481
1716.12337,0.00462
1714.06320,0.00436
1712.00303,0.00413
1709.94286,0.00402
1707.88268,0.00396
1705.82251,0.00378
1703.76234,0.00348
1701.70217,0.00332
1699.64200,0.00327
1697.58182,0.00307
1695.52165,0.00280
1693.46148,0.00273
1691.40131,0.00283
1689.34114,0.00289
1687.28096,0.00282
1685.22079,0.00272
1683.16062,0.00282
1681.10045,0.00298
1679.04028,0.00312
1676.98010,0.00340
1674.91993,0.00378
1672.85976,0.00399
1670.79959,0.00409
1668.73941,0.00423
1666.67924,0.00443
1664.61907,0.00464
1662.55890,0.00491
1660.49873,0.00525
1658.43855,0.00556
1656.37838,0.00584
1654.31821,0.00620
1652.25804,0.00652
1650.19787,0.00660
1648.13769,0.00670
1646.07752,0.00691
1644.01735,0.00706
1641.95718,0.00709
1639.89701,0.00712
1637.83683,0.00730
1635.77666,0.00767
1633.71649,0.00798
1631.65632,0.00818
1629.59614,0.00830
1627.53597,0.00837
1625.47580,0.00854
1623.41563,0.00883
1621.35546,0.00911
1619.29528,0.00925
1617.23511,0.00926
1615.17494,0.00932
1613.11477,0.00949
1611.05460,0.00963
1608.99442,0.00967
1606.93425,0.00960
1604.87408,0.00942
1602.81391,0.00917
1600.75373,0.00890
1598.69356,0.00860
1596.63339,0.00821
1594.57322,0.00772
1592.51305,0.00723
1590.45287,0.00681
1588.39270,0.00645
1586.33253,0.00615
1584.27236,0.00589
1582.21219,0.00562
1580.15201,0.00528
1578.09184,0.00484
1576.03167,0.00437
1573.97150,0.00404
1571.91133,0.00387
1569.85115,0.00378
1567.79098,0.00379
1565.73081,0.00385
1563.67064,0.00376
1561.61046,0.00350
1559.55029,0.00322
1557.49012,0.00304
1555.42995,0.00295
1553.36978,0.00289
1551.30960,0.00276
1549.24943,0.00259
1547.18926,0.00250
1545.12909,0.00252
1543.06892,0.00258
1541.00874,0.00254
1538.94857,0.00235
1536.88840,0.00218
1534.82823,0.00210
1532.76805,0.00204
1530.70788,0.00202
1528.64771,0.00203
1526.58754,0.00201
1524.52737,0.00189
1522.46719,0.00173
1520.40702,0.00160
1518.34685,0.00151
1516.28668,0.00144
1514.22651,0.00148
1512.16633,0.00155
1510.10616,0.00149
1508.04599,0.00136
1505.98582,0.00139
1503.92565,0.00151
1501.86547,0.00148
1499.80530,0.00132
1497.74513,0.00118
1495.68496,0.00125
1493.62478,0.00148
1491.56461,0.00160
1489.50444,0.00149
1487.44427,0.00140
1485.38410,0.00144
1483.32392,0.00146
1481.26375,0.00145
1479.20358,0.00154
1477.14341,0.00169
1475.08324,0.00178
1473.02306,0.00196
1470.96289,0.00235
1468.90272,0.00265
1466.84255,0.00275
1464.78238,0.00294
1462.72220,0.00335
1460.66203,0.00374
1458.60186,0.00404
1456.54169,0.00428
1454.48151,0.00437
1452.42134,0.00439
1450.36117,0.00447
1448.30100,0.00462
1446.24083,0.00482
1444.18065,0.00503
1442.12048,0.00522
1440.06031,0.00539
1438.00014,0.00550
1435.93997,0.00554
1433.87979,0.00562
1431.81962,0.00583
1429.75945,0.00614
1427.69928,0.00648
1425.63910,0.00683
1423.57893,0.00713
1421.51876,0.00729
1419.45859,0.00740
1417.39842,0.00762
1415.33824,0.00786
1413.27807,0.00801
1411.21790,0.00809
1409.15773,0.00815
1407.09756,0.00819
1405.03738,0.00811
1402.97721,0.00792
1400.91704,0.00770
1398.85687,0.00749
1396.79670,0.00723
1394.73652,0.00695
1392.67635,0.00676
1390.61618,0.00674
1388.55601,0.00685
1386.49583,0.00698
1384.43566,0.00708
1382.37549,0.00720
1380.31532,0.00746
1378.25515,0.00774
1376.19497,0.00794
1374.13480,0.00803
1372.07463,0.00808
1370.01446,0.00814
1367.95429,0.00815
1365.89411,0.00806
1363.83394,0.00790
1361.77377,0.00777
1359.71360,0.00772
1357.65343,0.00765
1355.59325,0.00755
1353.53308,0.00749
1351.47291,0.00741
1349.41274,0.00721
1347.35256,0.00695
1345.29239,0.00676
1343.23222,0.00674
1341.17205,0.00687
1339.11188,0.00699
1337.05170,0.00694
1334.99153,0.00677
1332.93136,0.00666
1330.87119,0.00665
1328.81102,0.00673
1326.75084,0.00678
1324.69067,0.00676
1322.63050,0.00677
1320.57033,0.00683
1318.51015,0.00676
1316.44998,0.00663
1314.38981,0.00663
1312.32964,0.00669
1310.26947,0.00666
1308.20929,0.00655
1306.14912,0.00638
1304.08895,0.00617
1302.02878,0.00596
1299.96861,0.00577
1297.90843,0.00565
1295.84826,0.00562
1293.78809,0.00565
1291.72792,0.00565
1289.66775,0.00558
1287.60757,0.00552
1285.54740,0.00554
1283.48723,0.00557
1281.42706,0.00551
1279.36688,0.00544
1277.30671,0.00544
1275.24654,0.00556
1273.18637,0.00575
1271.12620,0.00594
1269.06602,0.00613
1267.00585,0.00632
1264.94568,0.00655
1262.88551,0.00696
1260.82534,0.00754
1258.76516,0.00812
1256.70499,0.00853
1254.64482,0.00879
1252.58465,0.00895
1250.52447,0.00909
1248.46430,0.00922
1246.40413,0.00939
1244.34396,0.00958
1242.28379,0.00958
1240.22361,0.00940
1238.16344,0.00922
1236.10327,0.00896
1234.04310,0.00868
1231.98293,0.00842
1229.92275,0.00811
1227.86258,0.00778
1225.80241,0.00749
1223.74224,0.00725
1221.68207,0.00702
1219.62189,0.00666
1217.56172,0.00621
1215.50155,0.00570
1213.44138,0.00514
1211.38120,0.00464
1209.32103,0.00415
1207.26086,0.00360
1205.20069,0.00302
1203.14052,0.00249
1201.08034,0.00196
1199.02017,0.00139
1196.96000,0.00098
1194.89983,0.00081
1192.83966,0.00061
1190.77948,0.00039
1188.71931,0.00029
1186.65914,0.00019
1184.59897,0.00006
1182.53880,0.00000
1180.47862,0.00006
1178.41845,0.00035
1176.35828,0.00068
1174.29811,0.00105
1172.23793,0.00165
1170.17776,0.00239
1168.11759,0.00315
1166.05742,0.00387
1163.99725,0.00455
1161.93707,0.00524
1159.87690,0.00589
1157.81673,0.00638
1155.75656,0.00678
1153.69639,0.00721
1151.63621,0.00782
1149.57604,0.00846
1147.51587,0.00895
1145.45570,0.00933
1143.39552,0.00956
1141.33535,0.00968
1139.27518,0.00980
1137.21501,0.00987
1135.15484,0.01000
1133.09466,0.01029
1131.03449,0.01072
1128.97432,0.01132
1126.91415,0.01199
1124.85398,0.01266
1122.79380,0.01323
1120.73363,0.01360
1118.67346,0.01403
1116.61329,0.01473
1114.55312,0.01540
1112.49294,0.01587
1110.43277,0.01637
1108.37260,0.01698
1106.31243,0.01769
1104.25225,0.01861
1102.19208,0.01972
1100.13191,0.02091
1098.07174,0.02222
1096.01157,0.02363
1093.95139,0.02503
1091.89122,0.02624
1089.83105,0.02728
1087.77088,0.02822
1085.71071,0.02909
1083.65053,0.02994
1081.59036,0.03079
1079.53019,0.03180
1077.47002,0.03296
1075.40985,0.03405
1073.34967,0.03512
1071.28950,0.03609
1069.22933,0.03680
1067.16916,0.03741
1065.10898,0.03809
1063.04881,0.03873
1060.98864,0.03926
1058.92847,0.03981
1056.86830,0.04053
1054.80812,0.04140
1052.74795,0.04228
1050.68778,0.04314
1048.62761,0.04401
1046.56744,0.04479
1044.50726,0.04550
1042.44709,0.04629
1040.38692,0.04707
1038.32675,0.04761
1036.26657,0.04772
1034.20640,0.04743
1032.14623,0.04718
1030.08606,0.04711
1028.02589,0.04683
1025.96571,0.04625
1023.90554,0.04563
1021.84537,0.04515
1019.78520,0.04480
1017.72503,0.04440
1015.66485,0.04399
1013.60468,0.04392
1011.54451,0.04394
1009.48434,0.04360
1007.42417,0.04298
1005.36399,0.04218
1003.30382,0.04118
1001.24365,0.04014
999.18348,0.03908
997.12330,0.03792
995.06313,0.03683
993.00296,0.03596
990.94279,0.03517
988.88262,0.03456
986.82244,0.03416
984.76227,0.03368
982.70210,0.03322
980.64193,0.03299
978.58176,0.03262
976.52158,0.03180
974.46141,0.03099
972.40124,0.03041
970.34107,0.02971
968.28089,0.02887
966.22072,0.02805
964.16055,0.02717
962.10038,0.02619
960.04021,0.02528
957.98003,0.02449
955.91986,0.02367
953.85969,0.02283
951.79952,0.02218
949.73935,0.02163
947.67917,0.02088
945.61900,0.01986
943.55883,0.01881
941.49866,0.01786
939.43849,0.01673
937.37831,0.01531
935.31814,0.01399
933.25797,0.01289
931.19780,0.01179
929.13762,0.01088
927.07745,0.01033
925.01728,0.00979
922.95711,0.00922
920.89694,0.00869
918.83676,0.00800
916.77659,0.00731
914.71642,0.00683
912.65625,0.00633
910.59608,0.00582
908.53590,0.00558
906.47573,0.00548
904.41556,0.00532
902.35539,0.00538
900.29522,0.00578
898.23504,0.00603
896.17487,0.00594
894.11470,0.00590
892.05453,0.00609
889.99435,0.00608
887.93418,0.00571
885.87401,0.00533
883.81384,0.00508
881.75367,0.00495
879.69349,0.00464
877.63332,0.00409
875.57315,0.00371
873.51298,0.00336
871.45281,0.00311
869.39263,0.00323
867.33246,0.00323
865.27229,0.00271
863.21212,0.00214
861.15194,0.00222
859.09177,0.00266
857.03160,0.00285
854.97143,0.00277
852.91126,0.00255
850.85108,0.00238
848.79091,0.00239
846.73074,0.00221
844.67057,0.00173
842.61040,0.00134
840.55022,0.00118
838.49005,0.00107
836.42988,0.00090
834.36971,0.00080
832.30954,0.00064
830.24936,0.00033
828.18919,0.00017
826.12902,0.00037
824.06885,0.00069
822.00867,0.00069
819.94850,0.00050
817.88833,0.00045
815.82816,0.00053
813.76799,0.00076
811.70781,0.00097
809.64764,0.00106
807.58747,0.00110
805.52730,0.00116
803.46713,0.00122
801.40695,0.00096
799.34678,0.00051
797.28661,0.00049
795.22644,0.00079
793.16627,0.00066
791.10609,0.00012
789.04592,0.00000
786.98575,0.00015
784.92558,0.00008
782.86540,0.00007
780.80523,0.00048
778.74506,0.00106
776.68489,0.00141
774.62472,0.00117
772.56454,0.00063
770.50437,0.00053
768.44420,0.00070
766.38403,0.00042
764.32386,0.00000
762.26368,0.00030
760.20351,0.00093
758.14334,0.00119
756.08317,0.00134
754.02299,0.00150
751.96282,0.00127
749.90265,0.00051
747.84248,0.00000
745.78231,0.00009
743.72213,0.00047
741.66196,0.00090
739.60179,0.00110
737.54162,0.00103
735.48145,0.00096
733.42127,0.00083
731.36110,0.00069
729.30093,0.00067
727.24076,0.00047
725.18059,0.00018
723.12041,0.00018
721.06024,0.00109
719.00007,0.00128
716.93990,0.00132
714.87972,0.00168
712.81955,0.00209
710.75938,0.00250
708.69921,0.00288
706.63904,0.00297
704.57886,0.00279
702.51869,0.00273
700.45852,0.00301
698.39835,0.00329
696.33818,0.00306
694.27800,0.00231
692.21783,0.00156
690.15766,0.00111
688.09749,0.00087
686.03731,0.00048
683.97714,0.00000
681.91697,0.00013
679.85680,0.00105
677.79663,0.00195
675.73645,0.00215
673.67628,0.00107
671.61611,-0.00074
669.55594,0.00334
667.49577,0.00856
665.43559,0.00027
663.37542,0.00041
661.31525,0.00180
659.25508,0.00220
657.19491,0.00266
655.13473,0.00277
653.07456,0.00241
651.01439,0.00187
648.95422,0.00126
646.89404,0.00042
644.83387,0.00000
642.77370,0.00043
640.71353,0.00219
638.65336,0.00387
636.59318,0.00430
634.53301,0.00386
632.47284,0.00290
630.41267,0.00192
628.35250,0.00164
626.29232,0.00169
624.23215,0.00153
622.17198,0.00219
620.11181,0.00402
618.05164,0.00491
615.99146,0.00380
613.93129,0.00357
611.87112,0.00471
609.81095,0.00487
607.75077,0.00429
605.69060,0.00357
603.63043,0.00159
601.57026,-0.00031
599.51009,0.00000
