3996.73391,0.00032
3994.67373,0.00024
3992.61356,0.00054
3990.55339,0.00079
3988.49322,0.00102
3986.43305,0.00151
3984.37287,0.00174
3982.31270,0.00137
3980.25253,0.00083
3978.19236,0.00031
3976.13219,0.00000
3974.07201,0.00015
3972.01184,0.00054
3969.95167,0.00076
3967.89150,0.00076
3965.83133,0.00087
3963.77115,0.00113
3961.71098,0.00119
3959.65081,0.00105
3957.59064,0.00105
3955.53046,0.00113
3953.47029,0.00101
3951.41012,0.00087
3949.34995,0.00092
3947.28978,0.00113
3945.22960,0.00131
3943.16943,0.00136
3941.10926,0.00133
3939.04909,0.00129
3936.98892,0.00129
3934.92874,0.00139
3932.86857,0.00145
3930.80840,0.00126
3928.74823,0.00093
3926.68805,0.00070
3924.62788,0.00086
3922.56771,0.00146
3920.50754,0.00193
3918.44737,0.00174
3916.38719,0.00127
3914.32702,0.00115
3912.26685,0.00118
3910.20668,0.00104
3908.14651,0.00090
3906.08633,0.00084
3904.02616,0.00079
3901.96599,0.00066
3899.90582,0.00056
3897.84565,0.00071
3895.78547,0.00098
3893.72530,0.00111
3891.66513,0.00106
3889.60496,0.00113
3887.54478,0.00148
3885.48461,0.00186
3883.42444,0.00190
3881.36427,0.00168
3879.30410,0.00149
3877.24392,0.00147
3875.18375,0.00141
3873.12358,0.00117
3871.06341,0.00123
3869.00324,0.00206
3866.94306,0.00290
3864.88289,0.00293
3862.82272,0.00245
3860.76255,0.00193
3858.70237,0.00163
3856.64220,0.00169
3854.58203,0.00187
3852.52186,0.00190
3850.46169,0.00187
3848.40151,0.00179
3846.34134,0.00163
3844.28117,0.00158
3842.22100,0.00183
3840.16083,0.00229
3838.10065,0.00254
3836.04048,0.00224
3833.98031,0.00180
3831.92014,0.00171
3829.85997,0.00178
3827.79979,0.00163
3825.73962,0.00145
3823.67945,0.00154
3821.61928,0.00185
3819.55910,0.00207
3817.49893,0.00193
3815.43876,0.00154
3813.37859,0.00116
3811.31842,0.00100
3809.25824,0.00117
3807.19807,0.00165
3805.13790,0.00199
3803.07773,0.00193
3801.01756,0.00181
3798.95738,0.00189
3796.89721,0.00218
3794.83704,0.00246
3792.77687,0.00238
3790.71670,0.00202
3788.65652,0.00176
3786.59635,0.00173
3784.53618,0.00186
3782.47601,0.00202
3780.41583,0.00224
3778.35566,0.00247
3776.29549,0.00255
3774.23532,0.00242
3772.17515,0.00223
3770.11497,0.00216
3768.05480,0.00218
3765.99463,0.00218
3763.93446,0.00221
3761.87429,0.00235
3759.81411,0.00251
3757.75394,0.00225
3755.69377,0.00127
3753.63360,0.00034
3751.57342,0.00055
3749.51325,0.00148
3747.45308,0.00166
3745.39291,0.00140
3743.33274,0.00154
3741.27256,0.00180
3739.21239,0.00183
3737.15222,0.00201
3735.09205,0.00254
3733.03188,0.00301
3730.97170,0.00311
3728.91153,0.00257
3726.85136,0.00153
3724.79119,0.00081
3722.73102,0.00081
3720.67084,0.00116
3718.61067,0.00141
3716.55050,0.00110
3714.49033,0.00032
3712.43015,0.00000
3710.36998,0.00081
3708.30981,0.00179
3706.24964,0.00226
3704.18947,0.00259
3702.12929,0.00299
3700.06912,0.00307
3698.00895,0.00264
3695.94878,0.00220
3693.88861,0.00198
3691.82843,0.00157
3689.76826,0.00108
3687.70809,0.00131
3685.64792,0.00202
3683.58775,0.00249
3681.52757,0.00254
3679.46740,0.00221
3677.40723,0.00192
3675.34706,0.00239
3673.28688,0.00307
3671.22671,0.00294
3669.16654,0.00251
3667.10637,0.00239
3665.04620,0.00226
3662.98602,0.00201
3660.92585,0.00192
3658.86568,0.00192
3656.80551,0.00171
3654.74534,0.00171
3652.68516,0.00211
3650.62499,0.00217
3648.56482,0.00174
3646.50465,0.00173
3644.44447,0.00214
3642.38430,0.00240
3640.32413,0.00257
3638.26396,0.00305
3636.20379,0.00365
3634.14361,0.00381
3632.08344,0.00367
3630.02327,0.00371
3627.96310,0.00387
3625.90293,0.00375
3623.84275,0.00364
3621.78258,0.00377
3619.72241,0.00367
3617.66224,0.00331
3615.60207,0.00347
3613.54189,0.00401
3611.48172,0.00417
3609.42155,0.00399
3607.36138,0.00410
3605.30120,0.00460
3603.24103,0.00495
3601.18086,0.00515
3599.12069,0.00551
3597.06052,0.00598
3595.00034,0.00642
3592.94017,0.00649
3590.88000,0.00631
3588.81983,0.00659
3586.75966,0.00733
3584.69948,0.00773
3582.63931,0.00771
3580.57914,0.00777
3578.51897,0.00824
3576.45879,0.00878
3574.39862,0.00891
3572.33845,0.00879
3570.27828,0.00878
3568.21811,0.00876
3566.15793,0.00885
3564.09776,0.00935
3562.03759,0.00997
3559.97742,0.01064
3557.91725,0.01138
3555.85707,0.01185
3553.79690,0.01196
3551.73673,0.01219
3549.67656,0.01279
3547.61639,0.01342
3545.55621,0.01399
3543.49604,0.01447
3541.43587,0.01463
3539.37570,0.01459
3537.31552,0.01489
3535.25535,0.01541
3533.19518,0.01556
3531.13501,0.01546
3529.07484,0.01551
3527.01466,0.01556
3524.95449,0.01565
3522.89432,0.01601
3520.83415,0.01650
3518.77398,0.01695
3516.71380,0.01754
3514.65363,0.01833
3512.59346,0.01910
3510.53329,0.01963
3508.47312,0.01981
3506.41294,0.01979
3504.35277,0.01997
3502.29260,0.02061
3500.23243,0.02151
3498.17225,0.02209
3496.11208,0.02224
3494.05191,0.02239
3491.99174,0.02281
3489.93157,0.02330
3487.87139,0.02361
3485.81122,0.02388
3483.75105,0.02437
3481.69088,0.02513
3479.63071,0.02588
3477.57053,0.02626
3475.51036,0.02656
3473.45019,0.02685
3471.39002,0.02684
3469.32984,0.02673
3467.26967,0.02685
3465.20950,0.02723
3463.14933,0.02781
3461.08916,0.02841
3459.02898,0.02873
3456.96881,0.02892
3454.90864,0.02949
3452.84847,0.03018
3450.78830,0.03028
3448.72812,0.03002
3446.66795,0.03020
3444.60778,0.03088
3442.54761,0.03162
3440.48744,0.03214
3438.42726,0.03217
3436.36709,0.03202
3434.30692,0.03216
3432.24675,0.03280
3430.18657,0.03355
3428.12640,0.03399
3426.06623,0.03437
3424.00606,0.03496
3421.94589,0.03550
3419.88571,0.03560
3417.82554,0.03554
3415.76537,0.03572
3413.70520,0.03594
3411.64503,0.03616
3409.58485,0.03640
3407.52468,0.03642
3405.46451,0.03632
3403.40434,0.03656
3401.34416,0.03736
3399.28399,0.03815
3397.22382,0.03835
3395.16365,0.03820
3393.10348,0.03808
3391.04330,0.03808
3388.98313,0.03812
3386.92296,0.03826
3384.86279,0.03879
3382.80262,0.03966
3380.74244,0.04029
3378.68227,0.04051
3376.62210,0.04053
3374.56193,0.04042
3372.50176,0.04036
3370.44158,0.04051
3368.38141,0.04088
3366.32124,0.04141
3364.26107,0.04174
3362.20089,0.04197
3360.14072,0.04250
3358.08055,0.04307
3356.02038,0.04312
3353.96021,0.04300
3351.90003,0.04338
3349.83986,0.04380
3347.77969,0.04363
3345.71952,0.04332
3343.65935,0.04327
3341.59917,0.04332
3339.53900,0.04360
3337.47883,0.04405
3335.41866,0.04435
3333.35849,0.04443
3331.29831,0.04445
3329.23814,0.04440
3327.17797,0.04423
3325.11780,0.04417
3323.05762,0.04438
3320.99745,0.04476
3318.93728,0.04501
3316.87711,0.04505
3314.81694,0.04504
3312.75676,0.04495
3310.69659,0.04494
3308.63642,0.04531
3306.57625,0.04560
3304.51608,0.04550
3302.45590,0.04543
3300.39573,0.04519
3298.33556,0.04474
3296.27539,0.04474
3294.21521,0.04512
3292.15504,0.04551
3290.09487,0.04578
3288.03470,0.04563
3285.97453,0.04512
3283.91435,0.04484
3281.85418,0.04512
3279.79401,0.04563
3277.73384,0.04579
3275.67367,0.04578
3273.61349,0.04584
3271.55332,0.04579
3269.49315,0.04572
3267.43298,0.04585
3265.37281,0.04607
3263.31263,0.04601
3261.25246,0.04554
3259.19229,0.04507
3257.13212,0.04487
3255.07194,0.04476
3253.01177,0.04461
3250.95160,0.04452
3248.89143,0.04464
3246.83126,0.04479
3244.77108,0.04472
3242.71091,0.04453
3240.65074,0.04445
3238.59057,0.04448
3236.53040,0.04458
3234.47022,0.04466
3232.41005,0.04454
3230.34988,0.04437
3228.28971,0.04434
3226.22954,0.04429
3224.16936,0.04407
3222.10919,0.04367
3220.04902,0.04330
3217.98885,0.04317
3215.92867,0.04312
3213.86850,0.04307
3211.80833,0.04307
3209.74816,0.04284
3207.68799,0.04237
3205.62781,0.04237
3203.56764,0.04282
3201.50747,0.04277
3199.44730,0.04232
3197.38713,0.04211
3195.32695,0.04210
3193.26678,0.04208
3191.20661,0.04186
3189.14644,0.04140
3187.08626,0.04110
3185.02609,0.04120
3182.96592,0.04140
3180.90575,0.04128
3178.84558,0.04071
3176.78540,0.04009
3174.72523,0.03990
3172.66506,0.03960
3170.60489,0.03877
3168.54472,0.03818
3166.48454,0.03816
3164.42437,0.03830
3162.36420,0.03842
3160.30403,0.03855
3158.24386,0.03844
3156.18368,0.03800
3154.12351,0.03768
3152.06334,0.03737
3150.00317,0.03694
3147.94299,0.03678
3145.88282,0.03669
3143.82265,0.03643
3141.76248,0.03632
3139.70231,0.03624
3137.64213,0.03595
3135.58196,0.03568
3133.52179,0.03562
3131.46162,0.03562
3129.40145,0.03550
3127.34127,0.03531
3125.28110,0.03505
3123.22093,0.03471
3121.16076,0.03436
3119.10058,0.03396
3117.04041,0.03334
3114.98024,0.03282
3112.92007,0.03279
3110.85990,0.03293
3108.79972,0.03287
3106.73955,0.03279
3104.67938,0.03290
3102.61921,0.03303
3100.55904,0.03262
3098.49886,0.03159
3096.43869,0.03086
3094.37852,0.03096
3092.31835,0.03136
3090.25818,0.03165
3088.19800,0.03169
3086.13783,0.03140
3084.07766,0.03085
3082.01749,0.03029
3079.95731,0.03009
3077.89714,0.03011
3075.83697,0.02999
3073.77680,0.02977
3071.71663,0.02958
3069.65645,0.02946
3067.59628,0.02942
3065.53611,0.02922
3063.47594,0.02875
3061.41577,0.02835
3059.35559,0.02822
3057.29542,0.02830
3055.23525,0.02836
3053.17508,0.02810
3051.11491,0.02751
3049.05473,0.02694
3046.99456,0.02663
3044.93439,0.02648
3042.87422,0.02645
3040.81404,0.02640
3038.75387,0.02618
3036.69370,0.02595
3034.63353,0.02573
3032.57336,0.02548
3030.51318,0.02517
3028.45301,0.02489
3026.39284,0.02478
3024.33267,0.02469
3022.27250,0.02449
3020.21232,0.02435
3018.15215,0.02452
3016.09198,0.02482
3014.03181,0.02469
3011.97163,0.02409
3009.91146,0.02361
3007.85129,0.02344
3005.79112,0.02316
3003.73095,0.02273
3001.67077,0.02259
2999.61060,0.02269
2997.55043,0.02258
2995.49026,0.02226
2993.43009,0.02192
2991.36991,0.02186
2989.30974,0.02198
2987.24957,0.02209
2985.18940,0.02237
2983.12923,0.02276
2981.06905,0.02305
2979.00888,0.02311
2976.94871,0.02318
2974.88854,0.02353
2972.82836,0.02418
2970.76819,0.02505
2968.70802,0.02574
2966.64785,0.02611
2964.58768,0.02672
2962.52750,0.02787
2960.46733,0.02937
2958.40716,0.03086
2956.34699,0.03220
2954.28682,0.03353
2952.22664,0.03493
2950.16647,0.03616
2948.10630,0.03730
2946.04613,0.03896
2943.98596,0.04116
2941.92578,0.04332
2939.86561,0.04522
2937.80544,0.04712
2935.74527,0.04900
2933.68509,0.05080
2931.62492,0.05268
2929.56475,0.05456
2927.50458,0.05646
2925.44441,0.05814
2923.38423,0.05919
2921.32406,0.06000
2919.26389,0.06089
2917.20372,0.06133
2915.14355,0.06053
2913.08337,0.05838
2911.02320,0.05552
2908.96303,0.05292
2906.90286,0.05116
2904.84268,0.04998
2902.78251,0.04885
2900.72234,0.04759
2898.66217,0.04628
2896.60200,0.04518
2894.54182,0.04436
2892.48165,0.04352
2890.42148,0.04244
2888.36131,0.04125
2886.30114,0.04025
2884.24096,0.03963
2882.18079,0.03931
2880.12062,0.03893
2878.06045,0.03865
2876.00028,0.03884
2873.94010,0.03916
2871.87993,0.03932
2869.81976,0.03958
2867.75959,0.04005
2865.69941,0.04065
2863.63924,0.04146
2861.57907,0.04263
2859.51890,0.04422
2857.45873,0.04595
2855.39855,0.04756
2853.33838,0.04890
2851.27821,0.04978
2849.21804,0.04977
2847.15787,0.04810
2845.09769,0.04497
2843.03752,0.04185
2840.97735,0.03962
2838.91718,0.03789
2836.85700,0.03621
2834.79683,0.03476
2832.73666,0.03350
2830.67649,0.03240
2828.61632,0.03187
2826.55614,0.03177
2824.49597,0.03142
2822.43580,0.03069
2820.37563,0.03001
2818.31546,0.02947
2816.25528,0.02912
2814.19511,0.02882
2812.13494,0.02842
2810.07477,0.02810
2808.01460,0.02799
2805.95442,0.02793
2803.89425,0.02765
2801.83408,0.02732
2799.77391,0.02727
2797.71373,0.02706
2795.65356,0.02646
2793.59339,0.02605
2791.53322,0.02582
2789.47305,0.02534
2787.41287,0.02494
2785.35270,0.02496
2783.29253,0.02492
2781.23236,0.02472
2779.17219,0.02465
2777.11201,0.02448
2775.05184,0.02418
2772.99167,0.02404
2770.93150,0.02402
2768.87133,0.02395
2766.81115,0.02385
2764.75098,0.02375
2762.69081,0.02351
2760.63064,0.02335
2758.57046,0.02347
2756.51029,0.02360
2754.45012,0.02353
2752.38995,0.02333
2750.32978,0.02328
2748.26960,0.02330
2746.20943,0.02321
2744.14926,0.02312
2742.08909,0.02312
2740.02892,0.02324
2737.96874,0.02344
2735.90857,0.02334
2733.84840,0.02300
2731.78823,0.02284
2729.72805,0.02273
2727.66788,0.02260
2725.60771,0.02262
2723.54754,0.02269
2721.48737,0.02278
2719.42719,0.02274
2717.36702,0.02244
2715.30685,0.02223
2713.24668,0.02238
2711.18651,0.02258
2709.12633,0.02257
2707.06616,0.02221
2705.00599,0.02166
2702.94582,0.02153
2700.88565,0.02184
2698.82547,0.02211
2696.76530,0.02216
2694.70513,0.02212
2692.64496,0.02194
2690.58478,0.02160
2688.52461,0.02143
2686.46444,0.02150
2684.40427,0.02155
2682.34410,0.02157
2680.28392,0.02159
2678.22375,0.02169
2676.16358,0.02191
2674.10341,0.02190
2672.04324,0.02160
2669.98306,0.02125
2667.92289,0.02092
2665.86272,0.02075
2663.80255,0.02084
2661.74238,0.02094
2659.68220,0.02086
2657.62203,0.02076
2655.56186,0.02088
2653.50169,0.02102
2651.44151,0.02092
2649.38134,0.02070
2647.32117,0.02056
2645.26100,0.02048
2643.20083,0.02052
2641.14065,0.02049
2639.08048,0.02018
2637.02031,0.02010
2634.96014,0.02034
2632.89997,0.02042
2630.83979,0.02038
2628.77962,0.02015
2626.71945,0.01975
2624.65928,0.01932
2622.59910,0.01896
2620.53893,0.01898
2618.47876,0.01932
2616.41859,0.01950
2614.35842,0.01930
2612.29824,0.01904
2610.23807,0.01878
2608.17790,0.01834
2606.11773,0.01813
2604.05756,0.01855
2601.99738,0.01900
2599.93721,0.01878
2597.87704,0.01807
2595.81687,0.01749
2593.75670,0.01728
2591.69652,0.01739
2589.63635,0.01750
2587.57618,0.01753
2585.51601,0.01761
2583.45583,0.01741
2581.39566,0.01701
2579.33549,0.01703
2577.27532,0.01731
2575.21515,0.01740
2573.15497,0.01717
2571.09480,0.01676
2569.03463,0.01682
2566.97446,0.01733
2564.91429,0.01732
2562.85411,0.01678
2560.79394,0.01641
2558.73377,0.01639
2556.67360,0.01642
2554.61342,0.01653
2552.55325,0.01698
2550.49308,0.01713
2548.43291,0.01661
2546.37274,0.01621
2544.31256,0.01621
2542.25239,0.01619
2540.19222,0.01638
2538.13205,0.01705
2536.07188,0.01754
2534.01170,0.01746
2531.95153,0.01715
2529.89136,0.01664
2527.83119,0.01606
2525.77102,0.01616
2523.71084,0.01685
2521.65067,0.01691
2519.59050,0.01625
2517.53033,0.01589
2515.47015,0.01596
2513.40998,0.01597
2511.34981,0.01605
2509.28964,0.01609
2507.22947,0.01563
2505.16929,0.01496
2503.10912,0.01475
2501.04895,0.01502
2498.98878,0.01532
2496.92861,0.01503
2494.86843,0.01426
2492.80826,0.01398
2490.74809,0.01439
2488.68792,0.01480
2486.62775,0.01471
2484.56757,0.01445
2482.50740,0.01450
2480.44723,0.01462
2478.38706,0.01453
2476.32688,0.01440
2474.26671,0.01446
2472.20654,0.01491
2470.14637,0.01532
2468.08620,0.01487
2466.02602,0.01421
2463.96585,0.01418
2461.90568,0.01425
2459.84551,0.01428
2457.78534,0.01428
2455.72516,0.01383
2453.66499,0.01359
2451.60482,0.01403
2449.54465,0.01434
2447.48447,0.01415
2445.42430,0.01380
2443.36413,0.01354
2441.30396,0.01357
2439.24379,0.01383
2437.18361,0.01399
2435.12344,0.01378
2433.06327,0.01345
2431.00310,0.01375
2428.94293,0.01432
2426.88275,0.01396
2424.82258,0.01309
2422.76241,0.01286
2420.70224,0.01308
2418.64207,0.01325
2416.58189,0.01332
2414.52172,0.01329
2412.46155,0.01312
2410.40138,0.01279
2408.34120,0.01241
2406.28103,0.01240
2404.22086,0.01279
2402.16069,0.01287
2400.10052,0.01255
2398.04034,0.01257
2395.98017,0.01269
2393.92000,0.01251
2391.85983,0.01231
2389.79966,0.01247
2387.73948,0.01298
2385.67931,0.01373
2383.61914,0.01426
2381.55897,0.01412
2379.49880,0.01392
2377.43862,0.01429
2375.37845,0.01426
2373.31828,0.01314
2371.25811,0.01122
2369.19793,0.00850
2367.13776,0.00749
2365.07759,0.01110
2363.01742,0.01413
2360.95725,0.01213
2358.89707,0.00921
2356.83690,0.01005
2354.77673,0.01266
2352.71656,0.01394
2350.65639,0.01483
2348.59621,0.01507
2346.53604,0.01305
2344.47587,0.01184
2342.41570,0.01117
2340.35552,0.01037
2338.29535,0.01025
2336.23518,0.01095
2334.17501,0.01205
2332.11484,0.01314
2330.05466,0.01425
2327.99449,0.01454
2325.93432,0.01412
2323.87415,0.01356
2321.81398,0.01374
2319.75380,0.01400
2317.69363,0.01413
2315.63346,0.01442
2313.57329,0.01529
2311.51312,0.01557
2309.45294,0.01455
2307.39277,0.01351
2305.33260,0.01328
2303.27243,0.01366
2301.21225,0.01420
2299.15208,0.01441
2297.09191,0.01386
2295.03174,0.01319
2292.97157,0.01312
2290.91139,0.01311
2288.85122,0.01247
2286.79105,0.01172
2284.73088,0.01153
2282.67071,0.01192
2280.61053,0.01245
2278.55036,0.01240
2276.49019,0.01175
2274.43002,0.01133
2272.36984,0.01134
2270.30967,0.01146
2268.24950,0.01138
2266.18933,0.01100
2264.12916,0.01104
2262.06898,0.01139
2260.00881,0.01082
2257.94864,0.00986
2255.88847,0.01001
2253.82830,0.01086
2251.76812,0.01090
2249.70795,0.01040
2247.64778,0.01095
2245.58761,0.01179
2243.52744,0.01141
2241.46726,0.01015
2239.40709,0.00886
2237.34692,0.00846
2235.28675,0.00916
2233.22657,0.00988
2231.16640,0.01019
2229.10623,0.00995
2227.04606,0.00917
2224.98589,0.00843
2222.92571,0.00811
2220.86554,0.00866
2218.80537,0.00916
2216.74520,0.00852
2214.68503,0.00793
2212.62485,0.00827
2210.56468,0.00907
2208.50451,0.00974
2206.44434,0.00963
2204.38417,0.00937
2202.32399,0.00969
2200.26382,0.00994
2198.20365,0.00944
2196.14348,0.00842
2194.08330,0.00760
2192.02313,0.00712
2189.96296,0.00766
2187.90279,0.00935
2185.84262,0.01050
2183.78244,0.01029
2181.72227,0.00953
2179.66210,0.00927
2177.60193,0.00982
2175.54176,0.01048
2173.48158,0.00994
2171.42141,0.00813
2169.36124,0.00691
2167.30107,0.00724
2165.24089,0.00840
2163.18072,0.00958
2161.12055,0.00951
2159.06038,0.00830
2157.00021,0.00747
2154.94003,0.00717
2152.87986,0.00772
2150.81969,0.00865
2148.75952,0.00815
2146.69935,0.00655
2144.63917,0.00541
2142.57900,0.00478
2140.51883,0.00522
2138.45866,0.00701
2136.39849,0.00848
2134.33831,0.00875
2132.27814,0.00822
2130.21797,0.00703
2128.15780,0.00627
2126.09762,0.00662
2124.03745,0.00726
2121.97728,0.00768
2119.91711,0.00752
2117.85694,0.00737
2115.79676,0.00755
2113.73659,0.00743
2111.67642,0.00766
2109.61625,0.00845
2107.55608,0.00894
2105.49590,0.00892
2103.43573,0.00878
2101.37556,0.00907
2099.31539,0.00977
2097.25521,0.00972
2095.19504,0.00874
2093.13487,0.00768
2091.07470,0.00705
2089.01453,0.00748
2086.95435,0.00846
2084.89418,0.00877
2082.83401,0.00842
2080.77384,0.00830
2078.71367,0.00861
2076.65349,0.00878
2074.59332,0.00900
2072.53315,0.00951
2070.47298,0.00965
2068.41281,0.00891
2066.35263,0.00807
2064.29246,0.00760
2062.23229,0.00732
2060.17212,0.00683
2058.11194,0.00566
2056.05177,0.00536
2053.99160,0.00687
2051.93143,0.00815
2049.87126,0.00754
2047.81108,0.00539
2045.75091,0.00393
2043.69074,0.00450
2041.63057,0.00552
2039.57040,0.00623
2037.51022,0.00703
2035.45005,0.00698
2033.38988,0.00607
2031.32971,0.00433
2029.26954,0.00158
2027.20936,0.00000
2025.14919,0.00111
2023.08902,0.00418
2021.02885,0.00635
2018.96867,0.00552
2016.90850,0.00442
2014.84833,0.00462
2012.78816,0.00395
2010.72799,0.00163
2008.66781,-0.00029
2006.60764,0.00082
2004.54747,0.00376
2002.48730,0.00578
2000.42713,0.00678
1998.36695,0.00699
1996.30678,0.00615
1994.24661,0.00460
1992.18644,0.00350
1990.12626,0.00424
1988.06609,0.00656
1986.00592,0.00876
1983.94575,0.00926
1981.88558,0.00784
1979.82540,0.00556
1977.76523,0.00336
1975.70506,0.00225
1973.64489,0.00320
1971.58472,0.00468
1969.52454,0.00471
1967.46437,0.00415
1965.40420,0.00486
1963.34403,0.00678
1961.28386,0.00811
1959.22368,0.00785
1957.16351,0.00651
1955.10334,0.00492
1953.04317,0.00430
1950.98299,0.00470
1948.92282,0.00441
1946.86265,0.00320
1944.80248,0.00274
1942.74231,0.00361
1940.68213,0.00457
1938.62196,0.00451
1936.56179,0.00387
1934.50162,0.00375
1932.44145,0.00479
1930.38127,0.00596
1928.32110,0.00611
1926.26093,0.00559
1924.20076,0.00520
1922.14059,0.00527
1920.08041,0.00548
1918.02024,0.00536
1915.96007,0.00468
1913.89990,0.00364
1911.83972,0.00286
1909.77955,0.00301
1907.71938,0.00389
1905.65921,0.00442
1903.59904,0.00409
1901.53886,0.00339
1899.47869,0.00308
1897.41852,0.00312
1895.35835,0.00319
1893.29818,0.00350
1891.23800,0.00410
1889.17783,0.00424
1887.11766,0.00349
1885.05749,0.00298
1882.99731,0.00342
1880.93714,0.00397
1878.87697,0.00405
1876.81680,0.00396
1874.75663,0.00374
1872.69645,0.00327
1870.63628,0.00273
1868.57611,0.00270
1866.51594,0.00331
1864.45577,0.00384
1862.39559,0.00392
1860.33542,0.00372
1858.27525,0.00334
1856.21508,0.00289
1854.15491,0.00254
1852.09473,0.00232
1850.03456,0.00222
1847.97439,0.00213
1845.91422,0.00191
1843.85404,0.00192
1841.79387,0.00229
1839.73370,0.00255
1837.67353,0.00250
1835.61336,0.00212
1833.55318,0.00160
1831.49301,0.00157
1829.43284,0.00214
1827.37267,0.00239
1825.31250,0.00185
1823.25232,0.00119
1821.19215,0.00098
1819.13198,0.00107
1817.07181,0.00109
1815.01163,0.00099
1812.95146,0.00099
1810.89129,0.00125
1808.83112,0.00151
1806.77095,0.00137
1804.71077,0.00105
1802.65060,0.00099
1800.59043,0.00114
1798.53026,0.00119
1796.47009,0.00114
1794.40991,0.00100
1792.34974,0.00069
1790.28957,0.00030
1788.22940,0.00005
1786.16923,0.00000
1784.10905,0.00006
1782.04888,0.00013
1779.98871,0.00011
1777.92854,0.00014
1775.86836,0.00023
1773.80819,0.00020
1771.74802,0.00001
1769.68785,-0.00007
1767.62768,0.00007
1765.56750,0.00028
1763.50733,0.00058
1761.44716,0.00108
1759.38699,0.00176
1757.32682,0.00261
1755.26664,0.00349
1753.20647,0.00439
1751.14630,0.00556
1749.08613,0.00697
1747.02596,0.00834
1744.96578,0.00951
1742.90561,0.01032
1740.84544,0.01079
1738.78527,0.01134
1736.72509,0.01225
1734.66492,0.01354
1732.60475,0.01454
1730.54458,0.01455
1728.48441,0.01423
1726.42423,0.01424
1724.36406,0.01450
1722.30389,0.01464
1720.24372,0.01463
1718.18355,0.01474
1716.12337,0.01509
1714.06320,0.01526
1712.00303,0.01511
1709.94286,0.01491
1707.88268,0.01476
1705.82251,0.01452
1703.76234,0.01427
1701.70217,0.01413
1699.64200,0.01406
1697.58182,0.01416
1695.52165,0.01456
1693.46148,0.01514
1691.40131,0.01583
1689.34114,0.01675
1687.28096,0.01788
1685.22079,0.01940
1683.16062,0.02155
1681.10045,0.02353
1679.04028,0.02504
1676.98010,0.02634
1674.91993,0.02753
1672.85976,0.02827
1670.79959,0.02848
1668.73941,0.02854
1666.67924,0.02843
1664.61907,0.02794
1662.55890,0.02718
1660.49873,0.02648
1658.43855,0.02603
1656.37838,0.02566
1654.31821,0.02517
1652.25804,0.02501
1650.19787,0.02533
1648.13769,0.02548
1646.07752,0.02551
1644.01735,0.02576
1641.95718,0.02598
1639.89701,0.02593
1637.83683,0.02612
1635.77666,0.02739
1633.71649,0.02903
1631.65632,0.02966
1629.59614,0.02956
1627.53597,0.02951
1625.47580,0.02979
1623.41563,0.03024
1621.35546,0.03078
1619.29528,0.03133
1617.23511,0.03189
1615.17494,0.03247
1613.11477,0.03323
1611.05460,0.03441
1608.99442,0.03596
1606.93425,0.03747
1604.87408,0.03824
1602.81391,0.03776
1600.75373,0.03622
1598.69356,0.03444
1596.63339,0.03293
1594.57322,0.03172
1592.51305,0.03072
1590.45287,0.02989
1588.39270,0.02917
1586.33253,0.02842
1584.27236,0.02753
1582.21219,0.02650
1580.15201,0.02556
1578.09184,0.02489
1576.03167,0.02445
1573.97150,0.02402
1571.91133,0.02335
1569.85115,0.02237
1567.79098,0.02133
1565.73081,0.02053
1563.67064,0.01995
1561.61046,0.01930
1559.55029,0.01811
1557.49012,0.01670
1555.42995,0.01593
1553.36978,0.01556
1551.30960,0.01522
1549.24943,0.01460
1547.18926,0.01374
1545.12909,0.01290
1543.06892,0.01214
1541.00874,0.01129
1538.94857,0.01031
1536.88840,0.00964
1534.82823,0.00926
1532.76805,0.00886
1530.70788,0.00839
1528.64771,0.00809
1526.58754,0.00806
1524.52737,0.00811
1522.46719,0.00831
1520.40702,0.00919
1518.34685,0.01060
1516.28668,0.01169
1514.22651,0.01187
1512.16633,0.01138
1510.10616,0.01053
1508.04599,0.00910
1505.98582,0.00725
1503.92565,0.00599
1501.86547,0.00525
1499.80530,0.00449
1497.74513,0.00356
1495.68496,0.00266
1493.62478,0.00196
1491.56461,0.00148
1489.50444,0.00116
1487.44427,0.00097
1485.38410,0.00088
1483.32392,0.00083
1481.26375,0.00092
1479.20358,0.00126
1477.14341,0.00190
1475.08324,0.00305
1473.02306,0.00491
1470.96289,0.00705
1468.90272,0.00897
1466.84255,0.01085
1464.78238,0.01268
1462.72220,0.01393
1460.66203,0.01466
1458.60186,0.01558
1456.54169,0.01686
1454.48151,0.01773
1452.42134,0.01821
1450.36117,0.01878
1448.30100,0.01961
1446.24083,0.02065
1444.18065,0.02166
1442.12048,0.02254
1440.06031,0.02333
1438.00014,0.02400
1435.93997,0.02451
1433.87979,0.02501
1431.81962,0.02537
1429.75945,0.02536
1427.69928,0.02520
1425.63910,0.02531
1423.57893,0.02568
1421.51876,0.02599
1419.45859,0.02604
1417.39842,0.02581
1415.33824,0.02543
1413.27807,0.02508
1411.21790,0.02464
1409.15773,0.02398
1407.09756,0.02325
1405.03738,0.02256
1402.97721,0.02182
1400.91704,0.02098
1398.85687,0.02018
1396.79670,0.01970
1394.73652,0.01950
1392.67635,0.01927
1390.61618,0.01899
1388.55601,0.01900
1386.49583,0.01947
1384.43566,0.02010
1382.37549,0.02077
1380.31532,0.02155
1378.25515,0.02236
1376.19497,0.02299
1374.13480,0.02340
1372.07463,0.02365
1370.01446,0.02367
1367.95429,0.02342
1365.89411,0.02294
1363.83394,0.02244
1361.77377,0.02218
1359.71360,0.02198
1357.65343,0.02153
1355.59325,0.02100
1353.53308,0.02079
1351.47291,0.02090
1349.41274,0.02097
1347.35256,0.02086
1345.29239,0.02068
1343.23222,0.02051
1341.17205,0.02041
1339.11188,0.02047
1337.05170,0.02066
1334.99153,0.02085
1332.93136,0.02100
1330.87119,0.02107
1328.81102,0.02106
1326.75084,0.02110
1324.69067,0.02127
1322.63050,0.02153
1320.57033,0.02181
1318.51015,0.02198
1316.44998,0.02190
1314.38981,0.02157
1312.32964,0.02111
1310.26947,0.02062
1308.20929,0.02012
1306.14912,0.01950
1304.08895,0.01866
1302.02878,0.01786
1299.96861,0.01733
1297.90843,0.01698
1295.84826,0.01670
1293.78809,0.01659
1291.72792,0.01678
1289.66775,0.01711
1287.60757,0.01749
1285.54740,0.01790
1283.48723,0.01815
1281.42706,0.01806
1279.36688,0.01782
1277.30671,0.01789
1275.24654,0.01819
1273.18637,0.01837
1271.12620,0.01857
1269.06602,0.01915
1267.00585,0.02003
1264.94568,0.02085
1262.88551,0.02152
1260.82534,0.02224
1258.76516,0.02308
1256.70499,0.02386
1254.64482,0.02436
1252.58465,0.02459
1250.52447,0.02471
1248.46430,0.02484
1246.40413,0.02513
1244.34396,0.02555
1242.28379,0.02600
1240.22361,0.02649
1238.16344,0.02670
1236.10327,0.02638
1234.04310,0.02571
1231.98293,0.02495
1229.92275,0.02417
1227.86258,0.02337
1225.80241,0.02256
1223.74224,0.02166
1221.68207,0.02048
1219.62189,0.01892
1217.56172,0.01736
1215.50155,0.01608
1213.44138,0.01490
1211.38120,0.01375
1209.32103,0.01266
1207.26086,0.01172
1205.20069,0.01076
1203.14052,0.00938
1201.08034,0.00763
1199.02017,0.00601
1196.96000,0.00473
1194.89983,0.00359
1192.83966,0.00241
1190.77948,0.00137
1188.71931,0.00065
1186.65914,0.00019
1184.59897,0.00000
1182.53880,-0.00007
1180.47862,0.00012
1178.41845,0.00078
1176.35828,0.00194
1174.29811,0.00373
1172.23793,0.00595
1170.17776,0.00787
1168.11759,0.00932
1166.05742,0.01054
1163.99725,0.01141
1161.93707,0.01208
1159.87690,0.01266
1157.81673,0.01293
1155.75656,0.01324
1153.69639,0.01396
1151.63621,0.01502
1149.57604,0.01623
1147.51587,0.01734
1145.45570,0.01830
1143.39552,0.01921
1141.33535,0.02013
1139.27518,0.02068
1137.21501,0.02096
1135.15484,0.02175
1133.09466,0.02292
1131.03449,0.02394
1128.97432,0.02495
1126.91415,0.02620
1124.85398,0.02744
1122.79380,0.02852
1120.73363,0.02966
1118.67346,0.03090
1116.61329,0.03219
1114.55312,0.03350
1112.49294,0.03468
1110.43277,0.03586
1108.37260,0.03722
1106.31243,0.03838
1104.25225,0.03932
1102.19208,0.04060
1100.13191,0.04243
1098.07174,0.04430
1096.01157,0.04601
1093.95139,0.04784
1091.89122,0.04979
1089.83105,0.05176
1087.77088,0.05385
1085.71071,0.05592
1083.65053,0.05778
1081.59036,0.05970
1079.53019,0.06182
1077.47002,0.06394
1075.40985,0.06595
1073.34967,0.06801
1071.28950,0.07039
1069.22933,0.07260
1067.16916,0.07421
1065.10898,0.07550
1063.04881,0.07678
1060.98864,0.07806
1058.92847,0.07944
1056.86830,0.08122
1054.80812,0.08323
1052.74795,0.08520
1050.68778,0.08739
1048.62761,0.08962
1046.56744,0.09168
1044.50726,0.09390
1042.44709,0.09643
1040.38692,0.09922
1038.32675,0.10174
1036.26657,0.10342
1034.20640,0.10453
1032.14623,0.10512
1030.08606,0.10496
1028.02589,0.10449
1025.96571,0.10399
1023.90554,0.10333
1021.84537,0.10274
1019.78520,0.10254
1017.72503,0.10250
1015.66485,0.10226
1013.60468,0.10184
1011.54451,0.10182
1009.48434,0.10221
1007.42417,0.10235
1005.36399,0.10197
1003.30382,0.10125
1001.24365,0.10045
999.18348,0.09943
997.12330,0.09790
995.06313,0.09624
993.00296,0.09481
990.94279,0.09349
988.88262,0.09197
986.82244,0.09019
984.76227,0.08825
982.70210,0.08634
980.64193,0.08470
978.58176,0.08320
976.52158,0.08174
974.46141,0.08027
972.40124,0.07866
970.34107,0.07709
968.28089,0.07550
966.22072,0.07365
964.16055,0.07159
962.10038,0.06945
960.04021,0.06748
957.98003,0.06598
955.91986,0.06489
953.85969,0.06377
951.79952,0.06239
949.73935,0.06072
947.67917,0.05899
945.61900,0.05744
943.55883,0.05583
941.49866,0.05365
939.43849,0.05078
937.37831,0.04752
935.31814,0.04396
933.25797,0.04051
931.19780,0.03801
929.13762,0.03637
927.07745,0.03438
925.01728,0.03189
922.95711,0.02988
920.89694,0.02825
918.83676,0.02628
916.77659,0.02432
914.71642,0.02278
912.65625,0.02138
910.59608,0.02025
908.53590,0.01945
906.47573,0.01859
904.41556,0.01773
902.35539,0.01693
900.29522,0.01623
898.23504,0.01618
896.17487,0.01654
894.11470,0.01664
892.05453,0.01674
889.99435,0.01687
887.93418,0.01665
885.87401,0.01619
883.81384,0.01543
881.75367,0.01424
879.69349,0.01264
877.63332,0.01106
875.57315,0.01041
873.51298,0.01031
871.45281,0.00974
869.39263,0.00901
867.33246,0.00877
865.27229,0.00870
863.21212,0.00833
861.15194,0.00791
859.09177,0.00762
857.03160,0.00740
854.97143,0.00712
852.91126,0.00656
850.85108,0.00617
848.79091,0.00665
846.73074,0.00736
844.67057,0.00731
842.61040,0.00726
840.55022,0.00787
838.49005,0.00802
836.42988,0.00736
834.36971,0.00720
832.30954,0.00709
830.24936,0.00611
828.18919,0.00527
826.12902,0.00466
824.06885,0.00370
822.00867,0.00306
819.94850,0.00314
817.88833,0.00347
815.82816,0.00351
813.76799,0.00307
811.70781,0.00274
809.64764,0.00266
807.58747,0.00238
805.52730,0.00250
803.46713,0.00335
801.40695,0.00359
799.34678,0.00227
797.28661,0.00063
795.22644,0.00057
793.16627,0.00151
791.10609,0.00158
789.04592,0.00114
786.98575,0.00170
784.92558,0.00251
782.86540,0.00257
780.80523,0.00263
778.74506,0.00292
776.68489,0.00278
774.62472,0.00231
772.56454,0.00259
770.50437,0.00328
768.44420,0.00326
766.38403,0.00317
764.32386,0.00349
762.26368,0.00349
760.20351,0.00339
758.14334,0.00398
756.08317,0.00464
754.02299,0.00427
751.96282,0.00280
749.90265,0.00103
747.84248,0.00000
745.78231,-0.00004
743.72213,0.00074
741.66196,0.00120
739.60179,0.00122
737.54162,0.00131
735.48145,0.00132
733.42127,0.00046
731.36110,-0.00035
729.30093,0.00010
727.24076,0.00057
725.18059,0.00030
723.12041,0.00031
721.06024,0.00046
719.00007,0.00103
716.93990,0.00163
714.87972,0.00188
712.81955,0.00226
710.75938,0.00300
708.69921,0.00361
706.63904,0.00367
704.57886,0.00357
702.51869,0.00408
700.45852,0.00509
698.39835,0.00559
696.33818,0.00492
694.27800,0.00355
692.21783,0.00232
690.15766,0.00175
688.09749,0.00186
686.03731,0.00192
683.97714,0.00215
681.91697,0.00302
679.85680,0.00292
677.79663,0.00157
675.73645,0.00096
673.67628,0.00157
671.61611,0.00203
669.55594,-0.00003
667.49577,-0.00077
665.43559,0.00292
663.37542,0.00300
661.31525,0.00312
659.25508,0.00439
657.19491,0.00417
655.13473,0.00132
653.07456,-0.00089
651.01439,0.00026
648.95422,0.00225
646.89404,0.00180
644.83387,0.00000
642.77370,-0.00090
640.71353,-0.00089
638.65336,-0.00100
636.59318,-0.00112
634.53301,-0.00158
632.47284,-0.00168
630.41267,-0.00077
628.35250,0.00037
626.29232,0.00208
624.23215,0.00458
622.17198,0.00380
620.11181,-0.00078
618.05164,-0.00539
615.99146,-0.00685
613.93129,-0.00296
611.87112,0.00253
609.81095,0.00288
607.75077,-0.00032
605.69060,-0.00283
603.63043,-0.00305
601.57026,-0.00091
599.51009,0.00000
