3996.73391,0.00000
3994.67373,0.00013
3992.61356,0.00027
3990.55339,0.00052
3988.49322,0.00091
3986.43305,0.00154
3984.37287,0.00177
3982.31270,0.00137
3980.25253,0.00086
3978.19236,0.00052
3976.13219,0.00058
3974.07201,0.00094
3972.01184,0.00116
3969.95167,0.00130
3967.89150,0.00135
3965.83133,0.00113
3963.77115,0.00109
3961.71098,0.00131
3959.65081,0.00143
3957.59064,0.00143
3955.53046,0.00119
3953.47029,0.00102
3951.41012,0.00155
3949.34995,0.00230
3947.28978,0.00226
3945.22960,0.00188
3943.16943,0.00169
3941.10926,0.00119
3939.04909,0.00079
3936.98892,0.00093
3934.92874,0.00152
3932.86857,0.00215
3930.80840,0.00196
3928.74823,0.00133
3926.68805,0.00136
3924.62788,0.00172
3922.56771,0.00145
3920.50754,0.00105
3918.44737,0.00090
3916.38719,0.00089
3914.32702,0.00095
3912.26685,0.00099
3910.20668,0.00063
3908.14651,0.00027
3906.08633,0.00073
3904.02616,0.00115
3901.96599,0.00082
3899.90582,0.00062
3897.84565,0.00018
3895.78547,0.00000
3893.72530,0.00100
3891.66513,0.00175
3889.60496,0.00104
3887.54478,0.00131
3885.48461,0.00230
3883.42444,0.00229
3881.36427,0.00277
3879.30410,0.00241
3877.24392,0.00103
3875.18375,0.00050
3873.12358,0.00040
3871.06341,0.00136
3869.00324,0.00209
3866.94306,0.00212
3864.88289,0.00288
3862.82272,0.00278
3860.76255,0.00151
3858.70237,0.00058
3856.64220,0.00164
3854.58203,0.00392
3852.52186,0.00333
3850.46169,0.00106
3848.40151,0.00037
3846.34134,0.00078
3844.28117,0.00154
3842.22100,0.00213
3840.16083,0.00285
3838.10065,0.00309
3836.04048,0.00209
3833.98031,0.00157
3831.92014,0.00188
3829.85997,0.00196
3827.79979,0.00209
3825.73962,0.00165
3823.67945,0.00126
3821.61928,0.00152
3819.55910,0.00054
3817.49893,0.00056
3815.43876,0.00100
3813.37859,0.00019
3811.31842,0.00019
3809.25824,0.00163
3807.19807,0.00292
3805.13790,0.00230
3803.07773,0.00230
3801.01756,0.00263
3798.95738,0.00208
3796.89721,0.00266
3794.83704,0.00289
3792.77687,0.00252
3790.71670,0.00249
3788.65652,0.00260
3786.59635,0.00254
3784.53618,0.00191
3782.47601,0.00155
3780.41583,0.00268
3778.35566,0.00362
3776.29549,0.00334
3774.23532,0.00280
3772.17515,0.00255
3770.11497,0.00247
3768.05480,0.00253
3765.99463,0.00326
3763.93446,0.00305
3761.87429,0.00244
3759.81411,0.00243
3757.75394,0.00166
3755.69377,0.00063
3753.63360,0.00185
3751.57342,0.00460
3749.51325,0.00437
3747.45308,0.00224
3745.39291,0.00232
3743.33274,0.00219
3741.27256,0.00130
3739.21239,0.00171
3737.15222,0.00316
3735.09205,0.00421
3733.03188,0.00408
3730.97170,0.00321
3728.91153,0.00234
3726.85136,0.00199
3724.79119,0.00176
3722.73102,0.00189
3720.67084,0.00194
3718.61067,0.00137
3716.55050,0.00024
3714.49033,0.00000
3712.43015,0.00161
3710.36998,0.00320
3708.30981,0.00355
3706.24964,0.00380
3704.18947,0.00473
3702.12929,0.00521
3700.06912,0.00408
3698.00895,0.00290
3695.94878,0.00233
3693.88861,0.00185
3691.82843,0.00191
3689.76826,0.00247
3687.70809,0.00236
3685.64792,0.00221
3683.58775,0.00294
3681.52757,0.00383
3679.46740,0.00433
3677.40723,0.00503
3675.34706,0.00482
3673.28688,0.00285
3671.22671,0.00327
3669.16654,0.00424
3667.10637,0.00350
3665.04620,0.00312
3662.98602,0.00298
3660.92585,0.00253
3658.86568,0.00248
3656.80551,0.00257
3654.74534,0.00161
3652.68516,0.00186
3650.62499,0.00380
3648.56482,0.00372
3646.50465,0.00183
3644.44447,0.00123
3642.38430,0.00225
3640.32413,0.00330
3638.26396,0.00401
3636.20379,0.00448
3634.14361,0.00449
3632.08344,0.00448
3630.02327,0.00540
3627.96310,0.00477
3625.90293,0.00273
3623.84275,0.00241
3621.78258,0.00382
3619.72241,0.00506
3617.66224,0.00468
3615.60207,0.00473
3613.54189,0.00579
3611.48172,0.00574
3609.42155,0.00488
3607.36138,0.00448
3605.30120,0.00482
3603.24103,0.00544
3601.18086,0.00589
3599.12069,0.00628
3597.06052,0.00707
3595.00034,0.00782
3592.94017,0.00738
3590.88000,0.00664
3588.81983,0.00756
3586.75966,0.00882
3584.69948,0.00869
3582.63931,0.00823
3580.57914,0.00839
3578.51897,0.00920
3576.45879,0.00976
3574.39862,0.00937
3572.33845,0.00872
3570.27828,0.00896
3568.21811,0.01008
3566.15793,0.01038
3564.09776,0.00982
3562.03759,0.01004
3559.97742,0.01078
3557.91725,0.01125
3555.85707,0.01164
3553.79690,0.01226
3551.73673,0.01269
3549.67656,0.01288
3547.61639,0.01362
3545.55621,0.01468
3543.49604,0.01510
3541.43587,0.01489
3539.37570,0.01477
3537.31552,0.01512
3535.25535,0.01540
3533.19518,0.01522
3531.13501,0.01503
3529.07484,0.01515
3527.01466,0.01547
3524.95449,0.01608
3522.89432,0.01697
3520.83415,0.01764
3518.77398,0.01819
3516.71380,0.01880
3514.65363,0.01927
3512.59346,0.01961
3510.53329,0.01990
3508.47312,0.01973
3506.41294,0.01961
3504.35277,0.02056
3502.29260,0.02183
3500.23243,0.02250
3498.17225,0.02265
3496.11208,0.02256
3494.05191,0.02255
3491.99174,0.02282
3489.93157,0.02316
3487.87139,0.02309
3485.81122,0.02276
3483.75105,0.02336
3481.69088,0.02493
3479.63071,0.02607
3477.57053,0.02645
3475.51036,0.02665
3473.45019,0.02666
3471.39002,0.02628
3469.32984,0.02606
3467.26967,0.02637
3465.20950,0.02704
3463.14933,0.02778
3461.08916,0.02777
3459.02898,0.02705
3456.96881,0.02702
3454.90864,0.02826
3452.84847,0.02948
3450.78830,0.02967
3448.72812,0.02967
3446.66795,0.02995
3444.60778,0.03025
3442.54761,0.03081
3440.48744,0.03125
3438.42726,0.03157
3436.36709,0.03197
3434.30692,0.03212
3432.24675,0.03224
3430.18657,0.03256
3428.12640,0.03292
3426.06623,0.03348
3424.00606,0.03410
3421.94589,0.03438
3419.88571,0.03418
3417.82554,0.03405
3415.76537,0.03442
3413.70520,0.03502
3411.64503,0.03556
3409.58485,0.03580
3407.52468,0.03579
3405.46451,0.03580
3403.40434,0.03557
3401.34416,0.03528
3399.28399,0.03570
3397.22382,0.03659
3395.16365,0.03727
3393.10348,0.03785
3391.04330,0.03813
3388.98313,0.03792
3386.92296,0.03790
3384.86279,0.03848
3382.80262,0.03913
3380.74244,0.03943
3378.68227,0.03960
3376.62210,0.03971
3374.56193,0.03939
3372.50176,0.03909
3370.44158,0.03946
3368.38141,0.04037
3366.32124,0.04112
3364.26107,0.04127
3362.20089,0.04125
3360.14072,0.04132
3358.08055,0.04148
3356.02038,0.04146
3353.96021,0.04116
3351.90003,0.04144
3349.83986,0.04219
3347.77969,0.04246
3345.71952,0.04241
3343.65935,0.04247
3341.59917,0.04245
3339.53900,0.04245
3337.47883,0.04265
3335.41866,0.04262
3333.35849,0.04235
3331.29831,0.04225
3329.23814,0.04232
3327.17797,0.04237
3325.11780,0.04247
3323.05762,0.04300
3320.99745,0.04362
3318.93728,0.04350
3316.87711,0.04298
3314.81694,0.04302
3312.75676,0.04343
3310.69659,0.04383
3308.63642,0.04437
3306.57625,0.04448
3304.51608,0.04411
3302.45590,0.04380
3300.39573,0.04331
3298.33556,0.04273
3296.27539,0.04258
3294.21521,0.04300
3292.15504,0.04363
3290.09487,0.04361
3288.03470,0.04288
3285.97453,0.04233
3283.91435,0.04228
3281.85418,0.04283
3279.79401,0.04383
3277.73384,0.04443
3275.67367,0.04438
3273.61349,0.04406
3271.55332,0.04388
3269.49315,0.04406
3267.43298,0.04419
3265.37281,0.04407
3263.31263,0.04427
3261.25246,0.04453
3259.19229,0.04433
3257.13212,0.04398
3255.07194,0.04381
3253.01177,0.04349
3250.95160,0.04314
3248.89143,0.04321
3246.83126,0.04325
3244.77108,0.04282
3242.71091,0.04243
3240.65074,0.04261
3238.59057,0.04304
3236.53040,0.04325
3234.47022,0.04314
3232.41005,0.04282
3230.34988,0.04251
3228.28971,0.04239
3226.22954,0.04238
3224.16936,0.04225
3222.10919,0.04226
3220.04902,0.04230
3217.98885,0.04199
3215.92867,0.04173
3213.86850,0.04173
3211.80833,0.04187
3209.74816,0.04190
3207.68799,0.04170
3205.62781,0.04184
3203.56764,0.04223
3201.50747,0.04198
3199.44730,0.04150
3197.38713,0.04154
3195.32695,0.04152
3193.26678,0.04085
3191.20661,0.04001
3189.14644,0.03982
3187.08626,0.03992
3185.02609,0.03985
3182.96592,0.03982
3180.90575,0.03991
3178.84558,0.04000
3176.78540,0.03977
3174.72523,0.03953
3172.66506,0.03931
3170.60489,0.03862
3168.54472,0.03790
3166.48454,0.03767
3164.42437,0.03765
3162.36420,0.03761
3160.30403,0.03769
3158.24386,0.03771
3156.18368,0.03736
3154.12351,0.03684
3152.06334,0.03642
3150.00317,0.03621
3147.94299,0.03635
3145.88282,0.03639
3143.82265,0.03607
3141.76248,0.03586
3139.70231,0.03574
3137.64213,0.03541
3135.58196,0.03503
3133.52179,0.03482
3131.46162,0.03455
3129.40145,0.03417
3127.34127,0.03403
3125.28110,0.03406
3123.22093,0.03384
3121.16076,0.03356
3119.10058,0.03352
3117.04041,0.03334
3114.98024,0.03283
3112.92007,0.03239
3110.85990,0.03234
3108.79972,0.03248
3106.73955,0.03231
3104.67938,0.03203
3102.61921,0.03210
3100.55904,0.03193
3098.49886,0.03099
3096.43869,0.03009
3094.37852,0.02998
3092.31835,0.03040
3090.25818,0.03072
3088.19800,0.03068
3086.13783,0.03054
3084.07766,0.03021
3082.01749,0.02955
3079.95731,0.02923
3077.89714,0.02953
3075.83697,0.02969
3073.77680,0.02937
3071.71663,0.02894
3069.65645,0.02872
3067.59628,0.02869
3065.53611,0.02846
3063.47594,0.02775
3061.41577,0.02719
3059.35559,0.02731
3057.29542,0.02771
3055.23525,0.02797
3053.17508,0.02791
3051.11491,0.02752
3049.05473,0.02701
3046.99456,0.02664
3044.93439,0.02649
3042.87422,0.02641
3040.81404,0.02613
3038.75387,0.02576
3036.69370,0.02556
3034.63353,0.02549
3032.57336,0.02557
3030.51318,0.02544
3028.45301,0.02496
3026.39284,0.02481
3024.33267,0.02491
3022.27250,0.02482
3020.21232,0.02444
3018.15215,0.02395
3016.09198,0.02385
3014.03181,0.02406
3011.97163,0.02397
3009.91146,0.02379
3007.85129,0.02380
3005.79112,0.02360
3003.73095,0.02312
3001.67077,0.02292
2999.61060,0.02301
2997.55043,0.02271
2995.49026,0.02201
2993.43009,0.02154
2991.36991,0.02157
2989.30974,0.02165
2987.24957,0.02167
2985.18940,0.02210
2983.12923,0.02264
2981.06905,0.02265
2979.00888,0.02234
2976.94871,0.02242
2974.88854,0.02299
2972.82836,0.02361
2970.76819,0.02428
2968.70802,0.02506
2966.64785,0.02582
2964.58768,0.02668
2962.52750,0.02781
2960.46733,0.02904
2958.40716,0.02998
2956.34699,0.03074
2954.28682,0.03192
2952.22664,0.03350
2950.16647,0.03488
2948.10630,0.03610
2946.04613,0.03779
2943.98596,0.03994
2941.92578,0.04190
2939.86561,0.04360
2937.80544,0.04544
2935.74527,0.04732
2933.68509,0.04904
2931.62492,0.05070
2929.56475,0.05244
2927.50458,0.05425
2925.44441,0.05559
2923.38423,0.05616
2921.32406,0.05665
2919.26389,0.05760
2917.20372,0.05817
2915.14355,0.05712
2913.08337,0.05475
2911.02320,0.05218
2908.96303,0.05015
2906.90286,0.04882
2904.84268,0.04756
2902.78251,0.04624
2900.72234,0.04525
2898.66217,0.04441
2896.60200,0.04368
2894.54182,0.04306
2892.48165,0.04209
2890.42148,0.04074
2888.36131,0.03954
2886.30114,0.03899
2884.24096,0.03875
2882.18079,0.03825
2880.12062,0.03764
2878.06045,0.03733
2876.00028,0.03745
2873.94010,0.03753
2871.87993,0.03749
2869.81976,0.03790
2867.75959,0.03864
2865.69941,0.03936
2863.63924,0.04031
2861.57907,0.04147
2859.51890,0.04268
2857.45873,0.04407
2855.39855,0.04567
2853.33838,0.04714
2851.27821,0.04800
2849.21804,0.04782
2847.15787,0.04616
2845.09769,0.04325
2843.03752,0.04031
2840.97735,0.03824
2838.91718,0.03680
2836.85700,0.03543
2834.79683,0.03408
2832.73666,0.03274
2830.67649,0.03151
2828.61632,0.03086
2826.55614,0.03095
2824.49597,0.03103
2822.43580,0.03051
2820.37563,0.02972
2818.31546,0.02899
2816.25528,0.02851
2814.19511,0.02815
2812.13494,0.02776
2810.07477,0.02760
2808.01460,0.02766
2805.95442,0.02766
2803.89425,0.02729
2801.83408,0.02677
2799.77391,0.02658
2797.71373,0.02643
2795.65356,0.02592
2793.59339,0.02549
2791.53322,0.02524
2789.47305,0.02484
2787.41287,0.02464
2785.35270,0.02478
2783.29253,0.02465
2781.23236,0.02417
2779.17219,0.02391
2777.11201,0.02403
2775.05184,0.02412
2772.99167,0.02391
2770.93150,0.02380
2768.87133,0.02392
2766.81115,0.02409
2764.75098,0.02406
2762.69081,0.02356
2760.63064,0.02314
2758.57046,0.02313
2756.51029,0.02310
2754.45012,0.02291
2752.38995,0.02261
2750.32978,0.02239
2748.26960,0.02243
2746.20943,0.02272
2744.14926,0.02303
2742.08909,0.02295
2740.02892,0.02246
2737.96874,0.02200
2735.90857,0.02188
2733.84840,0.02209
2731.78823,0.02225
2729.72805,0.02209
2727.66788,0.02205
2725.60771,0.02218
2723.54754,0.02209
2721.48737,0.02193
2719.42719,0.02192
2717.36702,0.02193
2715.30685,0.02180
2713.24668,0.02167
2711.18651,0.02163
2709.12633,0.02167
2707.06616,0.02179
2705.00599,0.02180
2702.94582,0.02161
2700.88565,0.02157
2698.82547,0.02184
2696.76530,0.02199
2694.70513,0.02186
2692.64496,0.02179
2690.58478,0.02168
2688.52461,0.02143
2686.46444,0.02127
2684.40427,0.02121
2682.34410,0.02129
2680.28392,0.02143
2678.22375,0.02151
2676.16358,0.02157
2674.10341,0.02130
2672.04324,0.02075
2669.98306,0.02048
2667.92289,0.02048
2665.86272,0.02063
2663.80255,0.02091
2661.74238,0.02108
2659.68220,0.02103
2657.62203,0.02097
2655.56186,0.02101
2653.50169,0.02101
2651.44151,0.02078
2649.38134,0.02037
2647.32117,0.02006
2645.26100,0.02007
2643.20083,0.02021
2641.14065,0.02009
2639.08048,0.01983
2637.02031,0.01993
2634.96014,0.02027
2632.89997,0.02045
2630.83979,0.02058
2628.77962,0.02054
2626.71945,0.02021
2624.65928,0.01969
2622.59910,0.01906
2620.53893,0.01882
2618.47876,0.01909
2616.41859,0.01940
2614.35842,0.01949
2612.29824,0.01919
2610.23807,0.01856
2608.17790,0.01811
2606.11773,0.01833
2604.05756,0.01879
2601.99738,0.01875
2599.93721,0.01833
2597.87704,0.01822
2595.81687,0.01816
2593.75670,0.01743
2591.69652,0.01667
2589.63635,0.01666
2587.57618,0.01694
2585.51601,0.01692
2583.45583,0.01656
2581.39566,0.01637
2579.33549,0.01671
2577.27532,0.01709
2575.21515,0.01718
2573.15497,0.01700
2571.09480,0.01648
2569.03463,0.01654
2566.97446,0.01721
2564.91429,0.01716
2562.85411,0.01668
2560.79394,0.01653
2558.73377,0.01656
2556.67360,0.01662
2554.61342,0.01676
2552.55325,0.01697
2550.49308,0.01668
2548.43291,0.01601
2546.37274,0.01592
2544.31256,0.01629
2542.25239,0.01646
2540.19222,0.01656
2538.13205,0.01704
2536.07188,0.01737
2534.01170,0.01710
2531.95153,0.01682
2529.89136,0.01655
2527.83119,0.01592
2525.77102,0.01566
2523.71084,0.01611
2521.65067,0.01598
2519.59050,0.01532
2517.53033,0.01534
2515.47015,0.01561
2513.40998,0.01556
2511.34981,0.01591
2509.28964,0.01646
2507.22947,0.01601
2505.16929,0.01522
2503.10912,0.01497
2501.04895,0.01496
2498.98878,0.01492
2496.92861,0.01458
2494.86843,0.01405
2492.80826,0.01384
2490.74809,0.01411
2488.68792,0.01466
2486.62775,0.01499
2484.56757,0.01476
2482.50740,0.01422
2480.44723,0.01392
2478.38706,0.01419
2476.32688,0.01445
2474.26671,0.01454
2472.20654,0.01511
2470.14637,0.01550
2468.08620,0.01468
2466.02602,0.01373
2463.96585,0.01389
2461.90568,0.01453
2459.84551,0.01501
2457.78534,0.01492
2455.72516,0.01400
2453.66499,0.01329
2451.60482,0.01355
2449.54465,0.01420
2447.48447,0.01447
2445.42430,0.01418
2443.36413,0.01395
2441.30396,0.01397
2439.24379,0.01368
2437.18361,0.01311
2435.12344,0.01283
2433.06327,0.01304
2431.00310,0.01376
2428.94293,0.01433
2426.88275,0.01411
2424.82258,0.01386
2422.76241,0.01395
2420.70224,0.01363
2418.64207,0.01283
2416.58189,0.01232
2414.52172,0.01256
2412.46155,0.01310
2410.40138,0.01323
2408.34120,0.01291
2406.28103,0.01248
2404.22086,0.01239
2402.16069,0.01255
2400.10052,0.01249
2398.04034,0.01234
2395.98017,0.01205
2393.92000,0.01149
2391.85983,0.01099
2389.79966,0.01119
2387.73948,0.01201
2385.67931,0.01273
2383.61914,0.01311
2381.55897,0.01334
2379.49880,0.01340
2377.43862,0.01328
2375.37845,0.01312
2373.31828,0.01211
2371.25811,0.00993
2369.19793,0.00759
2367.13776,0.00704
2365.07759,0.00901
2363.01742,0.00983
2360.95725,0.00690
2358.89707,0.00777
2356.83690,0.01191
2354.77673,0.01415
2352.71656,0.01393
2350.65639,0.01208
2348.59621,0.01215
2346.53604,0.01522
2344.47587,0.01363
2342.41570,0.01124
2340.35552,0.01058
2338.29535,0.00987
2336.23518,0.00914
2334.17501,0.00931
2332.11484,0.01139
2330.05466,0.01354
2327.99449,0.01393
2325.93432,0.01191
2323.87415,0.01063
2321.81398,0.01025
2319.75380,0.01028
2317.69363,0.01002
2315.63346,0.01113
2313.57329,0.01335
2311.51312,0.01469
2309.45294,0.01426
2307.39277,0.01327
2305.33260,0.01317
2303.27243,0.01346
2301.21225,0.01345
2299.15208,0.01308
2297.09191,0.01275
2295.03174,0.01265
2292.97157,0.01288
2290.91139,0.01312
2288.85122,0.01273
2286.79105,0.01189
2284.73088,0.01123
2282.67071,0.01136
2280.61053,0.01230
2278.55036,0.01295
2276.49019,0.01232
2274.43002,0.01093
2272.36984,0.00985
2270.30967,0.00938
2268.24950,0.00921
2266.18933,0.00924
2264.12916,0.00991
2262.06898,0.01061
2260.00881,0.01012
2257.94864,0.00938
2255.88847,0.01015
2253.82830,0.01171
2251.76812,0.01188
2249.70795,0.01062
2247.64778,0.01001
2245.58761,0.01037
2243.52744,0.00977
2241.46726,0.00850
2239.40709,0.00813
2237.34692,0.00788
2235.28675,0.00732
2233.22657,0.00745
2231.16640,0.00869
2229.10623,0.01029
2227.04606,0.01154
2224.98589,0.01202
2222.92571,0.01156
2220.86554,0.01067
2218.80537,0.00943
2216.74520,0.00790
2214.68503,0.00722
2212.62485,0.00813
2210.56468,0.00934
2208.50451,0.00969
2206.44434,0.00984
2204.38417,0.01087
2202.32399,0.01179
2200.26382,0.01152
2198.20365,0.01109
2196.14348,0.01098
2194.08330,0.01011
2192.02313,0.00831
2189.96296,0.00775
2187.90279,0.00926
2185.84262,0.01044
2183.78244,0.00925
2181.72227,0.00777
2179.66210,0.00760
2177.60193,0.00774
2175.54176,0.00821
2173.48158,0.00789
2171.42141,0.00660
2169.36124,0.00642
2167.30107,0.00727
2165.24089,0.00787
2163.18072,0.00855
2161.12055,0.01052
2159.06038,0.01269
2157.00021,0.01245
2154.94003,0.00999
2152.87986,0.00760
2150.81969,0.00650
2148.75952,0.00648
2146.69935,0.00763
2144.63917,0.00903
2142.57900,0.00883
2140.51883,0.00767
2138.45866,0.00695
2136.39849,0.00729
2134.33831,0.00837
2132.27814,0.00873
2130.21797,0.00857
2128.15780,0.00856
2126.09762,0.00779
2124.03745,0.00714
2121.97728,0.00771
2119.91711,0.00820
2117.85694,0.00863
2115.79676,0.00916
2113.73659,0.00867
2111.67642,0.00805
2109.61625,0.00862
2107.55608,0.00938
2105.49590,0.00898
2103.43573,0.00807
2101.37556,0.00848
2099.31539,0.00982
2097.25521,0.00950
2095.19504,0.00792
2093.13487,0.00720
2091.07470,0.00738
2089.01453,0.00762
2086.95435,0.00767
2084.89418,0.00810
2082.83401,0.00879
2080.77384,0.00918
2078.71367,0.00916
2076.65349,0.00861
2074.59332,0.00832
2072.53315,0.00922
2070.47298,0.01036
2068.41281,0.01024
2066.35263,0.00868
2064.29246,0.00698
2062.23229,0.00721
2060.17212,0.00823
2058.11194,0.00713
2056.05177,0.00593
2053.99160,0.00756
2051.93143,0.00953
2049.87126,0.00843
2047.81108,0.00558
2045.75091,0.00451
2043.69074,0.00501
2041.63057,0.00518
2039.57040,0.00604
2037.51022,0.00776
2035.45005,0.00888
2033.38988,0.00894
2031.32971,0.00667
2029.26954,0.00253
2027.20936,0.00000
2025.14919,0.00103
2023.08902,0.00526
2021.02885,0.00934
2018.96867,0.00890
2016.90850,0.00638
2014.84833,0.00563
2012.78816,0.00458
2010.72799,0.00242
2008.66781,0.00124
2006.60764,0.00214
2004.54747,0.00421
2002.48730,0.00628
2000.42713,0.00796
1998.36695,0.00809
1996.30678,0.00583
1994.24661,0.00211
1992.18644,0.00010
1990.12626,0.00256
1988.06609,0.00685
1986.00592,0.00865
1983.94575,0.00821
1981.88558,0.00708
1979.82540,0.00571
1977.76523,0.00558
1975.70506,0.00629
1973.64489,0.00527
1971.58472,0.00379
1969.52454,0.00376
1967.46437,0.00394
1965.40420,0.00434
1963.34403,0.00631
1961.28386,0.00798
1959.22368,0.00754
1957.16351,0.00636
1955.10334,0.00561
1953.04317,0.00550
1950.98299,0.00615
1948.92282,0.00679
1946.86265,0.00612
1944.80248,0.00432
1942.74231,0.00315
1940.68213,0.00285
1938.62196,0.00270
1936.56179,0.00291
1934.50162,0.00414
1932.44145,0.00603
1930.38127,0.00710
1928.32110,0.00656
1926.26093,0.00558
1924.20076,0.00533
1922.14059,0.00489
1920.08041,0.00452
1918.02024,0.00481
1915.96007,0.00447
1913.89990,0.00399
1911.83972,0.00369
1909.77955,0.00334
1907.71938,0.00301
1905.65921,0.00262
1903.59904,0.00239
1901.53886,0.00238
1899.47869,0.00228
1897.41852,0.00253
1895.35835,0.00354
1893.29818,0.00467
1891.23800,0.00599
1889.17783,0.00659
1887.11766,0.00527
1885.05749,0.00404
1882.99731,0.00404
1880.93714,0.00414
1878.87697,0.00405
1876.81680,0.00427
1874.75663,0.00437
1872.69645,0.00371
1870.63628,0.00303
1868.57611,0.00319
1866.51594,0.00354
1864.45577,0.00359
1862.39559,0.00348
1860.33542,0.00324
1858.27525,0.00298
1856.21508,0.00298
1854.15491,0.00344
1852.09473,0.00385
1850.03456,0.00339
1847.97439,0.00223
1845.91422,0.00189
1843.85404,0.00235
1841.79387,0.00200
1839.73370,0.00175
1837.67353,0.00204
1835.61336,0.00198
1833.55318,0.00173
1831.49301,0.00244
1829.43284,0.00337
1827.37267,0.00330
1825.31250,0.00294
1823.25232,0.00215
1821.19215,0.00157
1819.13198,0.00167
1817.07181,0.00175
1815.01163,0.00157
1812.95146,0.00178
1810.89129,0.00243
1808.83112,0.00263
1806.77095,0.00212
1804.71077,0.00173
1802.65060,0.00203
1800.59043,0.00225
1798.53026,0.00170
1796.47009,0.00115
1794.40991,0.00162
1792.34974,0.00234
1790.28957,0.00132
1788.22940,0.00007
1786.16923,0.00016
1784.10905,0.00053
1782.04888,0.00066
1779.98871,0.00062
1777.92854,0.00029
1775.86836,0.00041
1773.80819,0.00133
1771.74802,0.00154
1769.68785,0.00056
1767.62768,0.00000
1765.56750,-0.00008
1763.50733,0.00091
1761.44716,0.00188
1759.38699,0.00209
1757.32682,0.00288
1755.26664,0.00328
1753.20647,0.00390
1751.14630,0.00578
1749.08613,0.00749
1747.02596,0.00859
1744.96578,0.00977
1742.90561,0.01084
1740.84544,0.01133
1738.78527,0.01085
1736.72509,0.01127
1734.66492,0.01395
1732.60475,0.01489
1730.54458,0.01434
1728.48441,0.01428
1726.42423,0.01439
1724.36406,0.01455
1722.30389,0.01427
1720.24372,0.01464
1718.18355,0.01600
1716.12337,0.01587
1714.06320,0.01474
1712.00303,0.01420
1709.94286,0.01437
1707.88268,0.01494
1705.82251,0.01506
1703.76234,0.01415
1701.70217,0.01435
1699.64200,0.01445
1697.58182,0.01407
1695.52165,0.01491
1693.46148,0.01476
1691.40131,0.01517
1689.34114,0.01602
1687.28096,0.01706
1685.22079,0.02012
1683.16062,0.02210
1681.10045,0.02210
1679.04028,0.02308
1676.98010,0.02533
1674.91993,0.02704
1672.85976,0.02722
1670.79959,0.02817
1668.73941,0.02842
1666.67924,0.02702
1664.61907,0.02676
1662.55890,0.02693
1660.49873,0.02540
1658.43855,0.02370
1656.37838,0.02415
1654.31821,0.02685
1652.25804,0.02622
1650.19787,0.02335
1648.13769,0.02454
1646.07752,0.02597
1644.01735,0.02491
1641.95718,0.02433
1639.89701,0.02467
1637.83683,0.02645
1635.77666,0.02905
1633.71649,0.02892
1631.65632,0.02817
1629.59614,0.02876
1627.53597,0.02908
1625.47580,0.02922
1623.41563,0.02982
1621.35546,0.02934
1619.29528,0.02956
1617.23511,0.03127
1615.17494,0.03150
1613.11477,0.03154
1611.05460,0.03329
1608.99442,0.03548
1606.93425,0.03686
1604.87408,0.03725
1602.81391,0.03672
1600.75373,0.03534
1598.69356,0.03364
1596.63339,0.03222
1594.57322,0.03117
1592.51305,0.03016
1590.45287,0.02920
1588.39270,0.02846
1586.33253,0.02783
1584.27236,0.02702
1582.21219,0.02587
1580.15201,0.02475
1578.09184,0.02492
1576.03167,0.02511
1573.97150,0.02312
1571.91133,0.02212
1569.85115,0.02236
1567.79098,0.02100
1565.73081,0.01936
1563.67064,0.01791
1561.61046,0.01807
1559.55029,0.02000
1557.49012,0.01763
1555.42995,0.01475
1553.36978,0.01427
1551.30960,0.01451
1549.24943,0.01407
1547.18926,0.01282
1545.12909,0.01201
1543.06892,0.01174
1541.00874,0.01228
1538.94857,0.01088
1536.88840,0.00823
1534.82823,0.00871
1532.76805,0.00951
1530.70788,0.00830
1528.64771,0.00789
1526.58754,0.00801
1524.52737,0.00787
1522.46719,0.00895
1520.40702,0.00991
1518.34685,0.01074
1516.28668,0.01182
1514.22651,0.01126
1512.16633,0.00992
1510.10616,0.00911
1508.04599,0.00944
1505.98582,0.00784
1503.92565,0.00469
1501.86547,0.00405
1499.80530,0.00498
1497.74513,0.00506
1495.68496,0.00323
1493.62478,0.00132
1491.56461,0.00166
1489.50444,0.00245
1487.44427,0.00181
1485.38410,0.00105
1483.32392,0.00097
1481.26375,0.00114
1479.20358,0.00118
1477.14341,0.00194
1475.08324,0.00391
1473.02306,0.00657
1470.96289,0.00759
1468.90272,0.00804
1466.84255,0.01039
1464.78238,0.01270
1462.72220,0.01274
1460.66203,0.01325
1458.60186,0.01614
1456.54169,0.01778
1454.48151,0.01653
1452.42134,0.01637
1450.36117,0.01767
1448.30100,0.01908
1446.24083,0.01980
1444.18065,0.02031
1442.12048,0.02092
1440.06031,0.02164
1438.00014,0.02309
1435.93997,0.02363
1433.87979,0.02295
1431.81962,0.02355
1429.75945,0.02436
1427.69928,0.02409
1425.63910,0.02411
1423.57893,0.02434
1421.51876,0.02472
1419.45859,0.02568
1417.39842,0.02511
1415.33824,0.02400
1413.27807,0.02393
1411.21790,0.02380
1409.15773,0.02292
1407.09756,0.02231
1405.03738,0.02195
1402.97721,0.02089
1400.91704,0.02005
1398.85687,0.01954
1396.79670,0.01882
1394.73652,0.01825
1392.67635,0.01739
1390.61618,0.01724
1388.55601,0.01834
1386.49583,0.01906
1384.43566,0.01915
1382.37549,0.01982
1380.31532,0.02075
1378.25515,0.02139
1376.19497,0.02211
1374.13480,0.02269
1372.07463,0.02247
1370.01446,0.02222
1367.95429,0.02197
1365.89411,0.02159
1363.83394,0.02165
1361.77377,0.02138
1359.71360,0.02052
1357.65343,0.01999
1355.59325,0.01992
1353.53308,0.01998
1351.47291,0.02010
1349.41274,0.02018
1347.35256,0.02001
1345.29239,0.01961
1343.23222,0.01924
1341.17205,0.01939
1339.11188,0.01972
1337.05170,0.01977
1334.99153,0.01997
1332.93136,0.02030
1330.87119,0.02043
1328.81102,0.02034
1326.75084,0.02025
1324.69067,0.02025
1322.63050,0.02030
1320.57033,0.02054
1318.51015,0.02085
1316.44998,0.02095
1314.38981,0.02087
1312.32964,0.02051
1310.26947,0.01991
1308.20929,0.01934
1306.14912,0.01867
1304.08895,0.01786
1302.02878,0.01709
1299.96861,0.01652
1297.90843,0.01622
1295.84826,0.01613
1293.78809,0.01618
1291.72792,0.01641
1289.66775,0.01678
1287.60757,0.01707
1285.54740,0.01716
1283.48723,0.01719
1281.42706,0.01717
1279.36688,0.01715
1277.30671,0.01728
1275.24654,0.01739
1273.18637,0.01749
1271.12620,0.01788
1269.06602,0.01844
1267.00585,0.01910
1264.94568,0.01981
1262.88551,0.02049
1260.82534,0.02121
1258.76516,0.02200
1256.70499,0.02277
1254.64482,0.02330
1252.58465,0.02364
1250.52447,0.02380
1248.46430,0.02376
1246.40413,0.02392
1244.34396,0.02425
1242.28379,0.02452
1240.22361,0.02483
1238.16344,0.02500
1236.10327,0.02486
1234.04310,0.02450
1231.98293,0.02391
1229.92275,0.02314
1227.86258,0.02234
1225.80241,0.02139
1223.74224,0.02031
1221.68207,0.01918
1219.62189,0.01793
1217.56172,0.01674
1215.50155,0.01576
1213.44138,0.01469
1211.38120,0.01342
1209.32103,0.01239
1207.26086,0.01184
1205.20069,0.01101
1203.14052,0.00926
1201.08034,0.00716
1199.02017,0.00540
1196.96000,0.00425
1194.89983,0.00355
1192.83966,0.00268
1190.77948,0.00156
1188.71931,0.00074
1186.65914,0.00028
1184.59897,0.00000
1182.53880,-0.00011
1180.47862,0.00023
1178.41845,0.00103
1176.35828,0.00200
1174.29811,0.00322
1172.23793,0.00487
1170.17776,0.00675
1168.11759,0.00837
1166.05742,0.00967
1163.99725,0.01083
1161.93707,0.01160
1159.87690,0.01166
1157.81673,0.01152
1155.75656,0.01201
1153.69639,0.01306
1151.63621,0.01431
1149.57604,0.01547
1147.51587,0.01621
1145.45570,0.01677
1143.39552,0.01768
1141.33535,0.01885
1139.27518,0.01965
1137.21501,0.02004
1135.15484,0.02053
1133.09466,0.02131
1131.03449,0.02217
1128.97432,0.02302
1126.91415,0.02401
1124.85398,0.02505
1122.79380,0.02613
1120.73363,0.02746
1118.67346,0.02874
1116.61329,0.02987
1114.55312,0.03120
1112.49294,0.03259
1110.43277,0.03373
1108.37260,0.03483
1106.31243,0.03593
1104.25225,0.03685
1102.19208,0.03812
1100.13191,0.03986
1098.07174,0.04146
1096.01157,0.04285
1093.95139,0.04427
1091.89122,0.04587
1089.83105,0.04800
1087.77088,0.05037
1085.71071,0.05235
1083.65053,0.05392
1081.59036,0.05555
1079.53019,0.05753
1077.47002,0.05958
1075.40985,0.06156
1073.34967,0.06366
1071.28950,0.06603
1069.22933,0.06825
1067.16916,0.06982
1065.10898,0.07108
1063.04881,0.07253
1060.98864,0.07404
1058.92847,0.07552
1056.86830,0.07703
1054.80812,0.07842
1052.74795,0.07999
1050.68778,0.08201
1048.62761,0.08415
1046.56744,0.08641
1044.50726,0.08884
1042.44709,0.09104
1040.38692,0.09311
1038.32675,0.09504
1036.26657,0.09650
1034.20640,0.09778
1032.14623,0.09864
1030.08606,0.09849
1028.02589,0.09811
1025.96571,0.09811
1023.90554,0.09792
1021.84537,0.09726
1019.78520,0.09670
1017.72503,0.09645
1015.66485,0.09626
1013.60468,0.09611
1011.54451,0.09608
1009.48434,0.09593
1007.42417,0.09553
1005.36399,0.09514
1003.30382,0.09486
1001.24365,0.09439
999.18348,0.09333
997.12330,0.09181
995.06313,0.09035
993.00296,0.08901
990.94279,0.08760
988.88262,0.08590
986.82244,0.08391
984.76227,0.08225
982.70210,0.08129
980.64193,0.08041
978.58176,0.07884
976.52158,0.07693
974.46141,0.07534
972.40124,0.07388
970.34107,0.07236
968.28089,0.07075
966.22072,0.06865
964.16055,0.06619
962.10038,0.06390
960.04021,0.06204
957.98003,0.06106
955.91986,0.06080
953.85969,0.05982
951.79952,0.05782
949.73935,0.05608
947.67917,0.05491
945.61900,0.05383
943.55883,0.05245
941.49866,0.05032
939.43849,0.04737
937.37831,0.04407
935.31814,0.04067
933.25797,0.03773
931.19780,0.03588
929.13762,0.03433
927.07745,0.03205
925.01728,0.02961
922.95711,0.02773
920.89694,0.02587
918.83676,0.02379
916.77659,0.02222
914.71642,0.02108
912.65625,0.01952
910.59608,0.01803
908.53590,0.01747
906.47573,0.01758
904.41556,0.01761
902.35539,0.01705
900.29522,0.01607
898.23504,0.01563
896.17487,0.01598
894.11470,0.01618
892.05453,0.01590
889.99435,0.01544
887.93418,0.01490
885.87401,0.01428
883.81384,0.01348
881.75367,0.01267
879.69349,0.01183
877.63332,0.01081
875.57315,0.01010
873.51298,0.00971
871.45281,0.00930
869.39263,0.00889
867.33246,0.00879
865.27229,0.00887
863.21212,0.00852
861.15194,0.00773
859.09177,0.00686
857.03160,0.00602
854.97143,0.00552
852.91126,0.00556
850.85108,0.00598
848.79091,0.00680
846.73074,0.00708
844.67057,0.00640
842.61040,0.00606
840.55022,0.00661
838.49005,0.00654
836.42988,0.00560
834.36971,0.00546
832.30954,0.00499
830.24936,0.00342
828.18919,0.00244
826.12902,0.00213
824.06885,0.00230
822.00867,0.00293
819.94850,0.00337
817.88833,0.00369
815.82816,0.00411
813.76799,0.00423
811.70781,0.00341
809.64764,0.00196
807.58747,0.00152
805.52730,0.00187
803.46713,0.00233
801.40695,0.00333
799.34678,0.00351
797.28661,0.00233
795.22644,0.00155
793.16627,0.00108
791.10609,0.00020
789.04592,0.00000
786.98575,0.00085
784.92558,0.00143
782.86540,0.00178
780.80523,0.00267
778.74506,0.00275
776.68489,0.00245
774.62472,0.00248
772.56454,0.00200
770.50437,0.00168
768.44420,0.00143
766.38403,0.00115
764.32386,0.00207
762.26368,0.00298
760.20351,0.00292
758.14334,0.00340
756.08317,0.00414
754.02299,0.00357
751.96282,0.00192
749.90265,0.00096
747.84248,0.00077
745.78231,0.00032
743.72213,0.00000
741.66196,-0.00010
739.60179,0.00044
737.54162,0.00188
735.48145,0.00249
733.42127,0.00084
731.36110,-0.00073
729.30093,-0.00064
727.24076,-0.00012
725.18059,-0.00018
723.12041,-0.00052
721.06024,0.00031
719.00007,0.00135
716.93990,0.00202
714.87972,0.00203
712.81955,0.00195
710.75938,0.00284
708.69921,0.00392
706.63904,0.00400
704.57886,0.00459
702.51869,0.00675
700.45852,0.00905
698.39835,0.01061
696.33818,0.01062
694.27800,0.00813
692.21783,0.00426
690.15766,0.00121
688.09749,0.00000
686.03731,0.00006
683.97714,0.00129
681.91697,0.00272
679.85680,0.00194
677.79663,-0.00019
675.73645,-0.00121
673.67628,-0.00289
671.61611,-0.00521
669.55594,-0.00162
667.49577,0.00157
665.43559,-0.00439
663.37542,-0.00140
661.31525,0.00296
659.25508,0.00314
657.19491,0.00087
655.13473,-0.00168
653.07456,-0.00343
651.01439,-0.00259
648.95422,0.00000
646.89404,0.00041
644.83387,-0.00104
642.77370,-0.00291
640.71353,-0.00421
638.65336,-0.00403
636.59318,-0.00224
634.53301,-0.00115
632.47284,-0.00273
630.41267,-0.00505
628.35250,-0.00495
626.29232,-0.00166
624.23215,0.00060
622.17198,-0.00310
620.11181,-0.00846
618.05164,-0.01206
615.99146,-0.01517
613.93129,-0.01287
611.87112,-0.00814
609.81095,-0.00872
607.75077,-0.01137
605.69060,-0.01078
603.63043,-0.00533
601.57026,0.00064
599.51009,0.00000
