3996.73391,-0.00028
3994.67373,-0.00027
3992.61356,-0.00006
3990.55339,0.00009
3988.49322,0.00043
3986.43305,0.00102
3984.37287,0.00111
3982.31270,0.00074
3980.25253,0.00050
3978.19236,0.00031
3976.13219,0.00024
3974.07201,0.00044
3972.01184,0.00058
3969.95167,0.00061
3967.89150,0.00069
3965.83133,0.00077
3963.77115,0.00084
3961.71098,0.00096
3959.65081,0.00103
3957.59064,0.00077
3955.53046,0.00030
3953.47029,0.00001
3951.41012,0.00000
3949.34995,0.00019
3947.28978,0.00055
3945.22960,0.00092
3943.16943,0.00107
3941.10926,0.00108
3939.04909,0.00118
3936.98892,0.00138
3934.92874,0.00128
3932.86857,0.00071
3930.80840,0.00016
3928.74823,-0.00002
3926.68805,0.00008
3924.62788,0.00054
3922.56771,0.00123
3920.50754,0.00155
3918.44737,0.00136
3916.38719,0.00119
3914.32702,0.00144
3912.26685,0.00177
3910.20668,0.00177
3908.14651,0.00154
3906.08633,0.00141
3904.02616,0.00119
3901.96599,0.00052
3899.90582,0.00000
3897.84565,0.00014
3895.78547,0.00039
3893.72530,0.00024
3891.66513,0.00000
3889.60496,0.00035
3887.54478,0.00121
3885.48461,0.00179
3883.42444,0.00168
3881.36427,0.00138
3879.30410,0.00143
3877.24392,0.00176
3875.18375,0.00188
3873.12358,0.00156
3871.06341,0.00123
3869.00324,0.00164
3866.94306,0.00243
3864.88289,0.00248
3862.82272,0.00190
3860.76255,0.00150
3858.70237,0.00145
3856.64220,0.00147
3854.58203,0.00126
3852.52186,0.00122
3850.46169,0.00164
3848.40151,0.00174
3846.34134,0.00130
3844.28117,0.00093
3842.22100,0.00089
3840.16083,0.00082
3838.10065,0.00071
3836.04048,0.00068
3833.98031,0.00083
3831.92014,0.00137
3829.85997,0.00180
3827.79979,0.00153
3825.73962,0.00086
3823.67945,0.00035
3821.61928,0.00016
3819.55910,0.00025
3817.49893,0.00015
3815.43876,0.00000
3813.37859,0.00036
3811.31842,0.00108
3809.25824,0.00173
3807.19807,0.00209
3805.13790,0.00202
3803.07773,0.00162
3801.01756,0.00141
3798.95738,0.00171
3796.89721,0.00234
3794.83704,0.00274
3792.77687,0.00247
3790.71670,0.00186
3788.65652,0.00146
3786.59635,0.00141
3784.53618,0.00144
3782.47601,0.00144
3780.41583,0.00170
3778.35566,0.00231
3776.29549,0.00281
3774.23532,0.00264
3772.17515,0.00191
3770.11497,0.00139
3768.05480,0.00151
3765.99463,0.00179
3763.93446,0.00206
3761.87429,0.00236
3759.81411,0.00241
3757.75394,0.00208
3755.69377,0.00167
3753.63360,0.00161
3751.57342,0.00207
3749.51325,0.00248
3747.45308,0.00215
3745.39291,0.00167
3743.33274,0.00165
3741.27256,0.00168
3739.21239,0.00149
3737.15222,0.00135
3735.09205,0.00149
3733.03188,0.00185
3730.97170,0.00222
3728.91153,0.00208
3726.85136,0.00127
3724.79119,0.00060
3722.73102,0.00060
3720.67084,0.00102
3718.61067,0.00150
3716.55050,0.00144
3714.49033,0.00071
3712.43015,0.00000
3710.36998,0.00031
3708.30981,0.00157
3706.24964,0.00258
3704.18947,0.00294
3702.12929,0.00292
3700.06912,0.00278
3698.00895,0.00260
3695.94878,0.00244
3693.88861,0.00209
3691.82843,0.00114
3689.76826,0.00021
3687.70809,0.00039
3685.64792,0.00153
3683.58775,0.00270
3681.52757,0.00304
3679.46740,0.00220
3677.40723,0.00088
3675.34706,0.00036
3673.28688,0.00081
3671.22671,0.00128
3669.16654,0.00173
3667.10637,0.00206
3665.04620,0.00183
3662.98602,0.00141
3660.92585,0.00136
3658.86568,0.00164
3656.80551,0.00178
3654.74534,0.00151
3652.68516,0.00090
3650.62499,0.00027
3648.56482,0.00000
3646.50465,0.00042
3644.44447,0.00145
3642.38430,0.00240
3640.32413,0.00278
3638.26396,0.00300
3636.20379,0.00336
3634.14361,0.00343
3632.08344,0.00310
3630.02327,0.00282
3627.96310,0.00306
3625.90293,0.00352
3623.84275,0.00366
3621.78258,0.00359
3619.72241,0.00323
3617.66224,0.00284
3615.60207,0.00304
3613.54189,0.00364
3611.48172,0.00410
3609.42155,0.00395
3607.36138,0.00372
3605.30120,0.00416
3603.24103,0.00468
3601.18086,0.00493
3599.12069,0.00534
3597.06052,0.00597
3595.00034,0.00644
3592.94017,0.00651
3590.88000,0.00640
3588.81983,0.00655
3586.75966,0.00690
3584.69948,0.00718
3582.63931,0.00742
3580.57914,0.00773
3578.51897,0.00810
3576.45879,0.00859
3574.39862,0.00890
3572.33845,0.00878
3570.27828,0.00846
3568.21811,0.00822
3566.15793,0.00829
3564.09776,0.00882
3562.03759,0.00958
3559.97742,0.01039
3557.91725,0.01106
3555.85707,0.01150
3553.79690,0.01180
3551.73673,0.01209
3549.67656,0.01246
3547.61639,0.01308
3545.55621,0.01413
3543.49604,0.01509
3541.43587,0.01529
3539.37570,0.01514
3537.31552,0.01531
3535.25535,0.01559
3533.19518,0.01549
3531.13501,0.01515
3529.07484,0.01487
3527.01466,0.01484
3524.95449,0.01529
3522.89432,0.01623
3520.83415,0.01705
3518.77398,0.01745
3516.71380,0.01774
3514.65363,0.01812
3512.59346,0.01864
3510.53329,0.01933
3508.47312,0.01977
3506.41294,0.01965
3504.35277,0.01950
3502.29260,0.02006
3500.23243,0.02109
3498.17225,0.02168
3496.11208,0.02177
3494.05191,0.02201
3491.99174,0.02254
3489.93157,0.02299
3487.87139,0.02328
3485.81122,0.02350
3483.75105,0.02380
3481.69088,0.02450
3479.63071,0.02538
3477.57053,0.02578
3475.51036,0.02586
3473.45019,0.02618
3471.39002,0.02654
3469.32984,0.02659
3467.26967,0.02647
3465.20950,0.02663
3463.14933,0.02725
3461.08916,0.02790
3459.02898,0.02809
3456.96881,0.02820
3454.90864,0.02888
3452.84847,0.02973
3450.78830,0.02997
3448.72812,0.02982
3446.66795,0.03003
3444.60778,0.03072
3442.54761,0.03147
3440.48744,0.03185
3438.42726,0.03178
3436.36709,0.03158
3434.30692,0.03172
3432.24675,0.03254
3430.18657,0.03355
3428.12640,0.03397
3426.06623,0.03412
3424.00606,0.03459
3421.94589,0.03515
3419.88571,0.03547
3417.82554,0.03572
3415.76537,0.03585
3413.70520,0.03572
3411.64503,0.03566
3409.58485,0.03584
3407.52468,0.03604
3405.46451,0.03623
3403.40434,0.03654
3401.34416,0.03715
3399.28399,0.03795
3397.22382,0.03847
3395.16365,0.03852
3393.10348,0.03841
3391.04330,0.03858
3388.98313,0.03892
3386.92296,0.03911
3384.86279,0.03933
3382.80262,0.03969
3380.74244,0.03988
3378.68227,0.03985
3376.62210,0.03990
3374.56193,0.04028
3372.50176,0.04087
3370.44158,0.04124
3368.38141,0.04138
3366.32124,0.04147
3364.26107,0.04146
3362.20089,0.04177
3360.14072,0.04252
3358.08055,0.04309
3356.02038,0.04309
3353.96021,0.04302
3351.90003,0.04327
3349.83986,0.04352
3347.77969,0.04333
3345.71952,0.04298
3343.65935,0.04308
3341.59917,0.04345
3339.53900,0.04365
3337.47883,0.04379
3335.41866,0.04401
3333.35849,0.04418
3331.29831,0.04439
3329.23814,0.04459
3327.17797,0.04447
3325.11780,0.04433
3323.05762,0.04451
3320.99745,0.04495
3318.93728,0.04534
3316.87711,0.04541
3314.81694,0.04529
3312.75676,0.04516
3310.69659,0.04508
3308.63642,0.04512
3306.57625,0.04497
3304.51608,0.04455
3302.45590,0.04436
3300.39573,0.04435
3298.33556,0.04439
3296.27539,0.04471
3294.21521,0.04506
3292.15504,0.04506
3290.09487,0.04504
3288.03470,0.04516
3285.97453,0.04516
3283.91435,0.04512
3281.85418,0.04533
3279.79401,0.04550
3277.73384,0.04529
3275.67367,0.04517
3273.61349,0.04544
3271.55332,0.04584
3269.49315,0.04603
3267.43298,0.04600
3265.37281,0.04590
3263.31263,0.04565
3261.25246,0.04533
3259.19229,0.04520
3257.13212,0.04511
3255.07194,0.04501
3253.01177,0.04507
3250.95160,0.04513
3248.89143,0.04511
3246.83126,0.04496
3244.77108,0.04464
3242.71091,0.04454
3240.65074,0.04473
3238.59057,0.04492
3236.53040,0.04508
3234.47022,0.04501
3232.41005,0.04457
3230.34988,0.04422
3228.28971,0.04436
3226.22954,0.04447
3224.16936,0.04410
3222.10919,0.04367
3220.04902,0.04336
3217.98885,0.04313
3215.92867,0.04326
3213.86850,0.04358
3211.80833,0.04362
3209.74816,0.04319
3207.68799,0.04255
3205.62781,0.04243
3203.56764,0.04288
3201.50747,0.04297
3199.44730,0.04272
3197.38713,0.04264
3195.32695,0.04251
3193.26678,0.04215
3191.20661,0.04171
3189.14644,0.04145
3187.08626,0.04132
3185.02609,0.04116
3182.96592,0.04112
3180.90575,0.04116
3178.84558,0.04090
3176.78540,0.04057
3174.72523,0.04057
3172.66506,0.04033
3170.60489,0.03949
3168.54472,0.03877
3166.48454,0.03866
3164.42437,0.03871
3162.36420,0.03858
3160.30403,0.03848
3158.24386,0.03835
3156.18368,0.03801
3154.12351,0.03783
3152.06334,0.03772
3150.00317,0.03732
3147.94299,0.03694
3145.88282,0.03673
3143.82265,0.03664
3141.76248,0.03677
3139.70231,0.03678
3137.64213,0.03623
3135.58196,0.03550
3133.52179,0.03533
3131.46162,0.03569
3129.40145,0.03592
3127.34127,0.03576
3125.28110,0.03547
3123.22093,0.03523
3121.16076,0.03485
3119.10058,0.03426
3117.04041,0.03367
3114.98024,0.03333
3112.92007,0.03327
3110.85990,0.03328
3108.79972,0.03314
3106.73955,0.03297
3104.67938,0.03306
3102.61921,0.03325
3100.55904,0.03309
3098.49886,0.03228
3096.43869,0.03135
3094.37852,0.03124
3092.31835,0.03177
3090.25818,0.03196
3088.19800,0.03162
3086.13783,0.03138
3084.07766,0.03140
3082.01749,0.03116
3079.95731,0.03066
3077.89714,0.03031
3075.83697,0.03015
3073.77680,0.03010
3071.71663,0.03007
3069.65645,0.02987
3067.59628,0.02963
3065.53611,0.02950
3063.47594,0.02919
3061.41577,0.02886
3059.35559,0.02883
3057.29542,0.02892
3055.23525,0.02882
3053.17508,0.02850
3051.11491,0.02813
3049.05473,0.02782
3046.99456,0.02747
3044.93439,0.02706
3042.87422,0.02670
3040.81404,0.02644
3038.75387,0.02626
3036.69370,0.02620
3034.63353,0.02610
3032.57336,0.02594
3030.51318,0.02593
3028.45301,0.02592
3026.39284,0.02580
3024.33267,0.02558
3022.27250,0.02528
3020.21232,0.02494
3018.15215,0.02471
3016.09198,0.02476
3014.03181,0.02462
3011.97163,0.02415
3009.91146,0.02402
3007.85129,0.02424
3005.79112,0.02421
3003.73095,0.02398
3001.67077,0.02390
2999.61060,0.02383
2997.55043,0.02360
2995.49026,0.02323
2993.43009,0.02259
2991.36991,0.02212
2989.30974,0.02222
2987.24957,0.02256
2985.18940,0.02306
2983.12923,0.02374
2981.06905,0.02409
2979.00888,0.02380
2976.94871,0.02349
2974.88854,0.02361
2972.82836,0.02393
2970.76819,0.02448
2968.70802,0.02534
2966.64785,0.02627
2964.58768,0.02722
2962.52750,0.02838
2960.46733,0.02972
2958.40716,0.03098
2956.34699,0.03220
2954.28682,0.03350
2952.22664,0.03484
2950.16647,0.03606
2948.10630,0.03733
2946.04613,0.03906
2943.98596,0.04120
2941.92578,0.04340
2939.86561,0.04535
2937.80544,0.04723
2935.74527,0.04926
2933.68509,0.05132
2931.62492,0.05332
2929.56475,0.05528
2927.50458,0.05715
2925.44441,0.05856
2923.38423,0.05936
2921.32406,0.06002
2919.26389,0.06082
2917.20372,0.06114
2915.14355,0.06026
2913.08337,0.05817
2911.02320,0.05547
2908.96303,0.05298
2906.90286,0.05125
2904.84268,0.05006
2902.78251,0.04900
2900.72234,0.04789
2898.66217,0.04657
2896.60200,0.04531
2894.54182,0.04443
2892.48165,0.04369
2890.42148,0.04275
2888.36131,0.04157
2886.30114,0.04054
2884.24096,0.03993
2882.18079,0.03958
2880.12062,0.03918
2878.06045,0.03889
2876.00028,0.03902
2873.94010,0.03931
2871.87993,0.03948
2869.81976,0.03969
2867.75959,0.04013
2865.69941,0.04086
2863.63924,0.04187
2861.57907,0.04322
2859.51890,0.04480
2857.45873,0.04628
2855.39855,0.04765
2853.33838,0.04908
2851.27821,0.05012
2849.21804,0.05005
2847.15787,0.04838
2845.09769,0.04541
2843.03752,0.04237
2840.97735,0.04011
2838.91718,0.03845
2836.85700,0.03680
2834.79683,0.03523
2832.73666,0.03407
2830.67649,0.03330
2828.61632,0.03275
2826.55614,0.03242
2824.49597,0.03207
2822.43580,0.03128
2820.37563,0.03028
2818.31546,0.02972
2816.25528,0.02966
2814.19511,0.02951
2812.13494,0.02905
2810.07477,0.02866
2808.01460,0.02861
2805.95442,0.02859
2803.89425,0.02832
2801.83408,0.02804
2799.77391,0.02789
2797.71373,0.02744
2795.65356,0.02660
2793.59339,0.02613
2791.53322,0.02622
2789.47305,0.02614
2787.41287,0.02579
2785.35270,0.02559
2783.29253,0.02531
2781.23236,0.02497
2779.17219,0.02488
2777.11201,0.02473
2775.05184,0.02450
2772.99167,0.02450
2770.93150,0.02467
2768.87133,0.02482
2766.81115,0.02496
2764.75098,0.02491
2762.69081,0.02461
2760.63064,0.02449
2758.57046,0.02467
2756.51029,0.02483
2754.45012,0.02464
2752.38995,0.02399
2750.32978,0.02356
2748.26960,0.02358
2746.20943,0.02352
2744.14926,0.02347
2742.08909,0.02380
2740.02892,0.02423
2737.96874,0.02430
2735.90857,0.02406
2733.84840,0.02373
2731.78823,0.02352
2729.72805,0.02343
2727.66788,0.02330
2725.60771,0.02306
2723.54754,0.02287
2721.48737,0.02299
2719.42719,0.02332
2717.36702,0.02341
2715.30685,0.02317
2713.24668,0.02298
2711.18651,0.02296
2709.12633,0.02302
2707.06616,0.02283
2705.00599,0.02233
2702.94582,0.02212
2700.88565,0.02245
2698.82547,0.02290
2696.76530,0.02304
2694.70513,0.02302
2692.64496,0.02293
2690.58478,0.02261
2688.52461,0.02233
2686.46444,0.02235
2684.40427,0.02257
2682.34410,0.02263
2680.28392,0.02244
2678.22375,0.02238
2676.16358,0.02253
2674.10341,0.02250
2672.04324,0.02226
2669.98306,0.02201
2667.92289,0.02173
2665.86272,0.02159
2663.80255,0.02165
2661.74238,0.02164
2659.68220,0.02150
2657.62203,0.02155
2655.56186,0.02188
2653.50169,0.02214
2651.44151,0.02205
2649.38134,0.02170
2647.32117,0.02135
2645.26100,0.02118
2643.20083,0.02124
2641.14065,0.02126
2639.08048,0.02101
2637.02031,0.02093
2634.96014,0.02117
2632.89997,0.02136
2630.83979,0.02134
2628.77962,0.02100
2626.71945,0.02051
2624.65928,0.02039
2622.59910,0.02040
2620.53893,0.02021
2618.47876,0.02011
2616.41859,0.02020
2614.35842,0.02022
2612.29824,0.02005
2610.23807,0.01976
2608.17790,0.01950
2606.11773,0.01955
2604.05756,0.01983
2601.99738,0.01987
2599.93721,0.01925
2597.87704,0.01841
2595.81687,0.01814
2593.75670,0.01834
2591.69652,0.01858
2589.63635,0.01865
2587.57618,0.01856
2585.51601,0.01864
2583.45583,0.01873
2581.39566,0.01852
2579.33549,0.01836
2577.27532,0.01835
2575.21515,0.01807
2573.15497,0.01752
2571.09480,0.01706
2569.03463,0.01720
2566.97446,0.01777
2564.91429,0.01823
2562.85411,0.01837
2560.79394,0.01801
2558.73377,0.01761
2556.67360,0.01767
2554.61342,0.01796
2552.55325,0.01809
2550.49308,0.01783
2548.43291,0.01745
2546.37274,0.01740
2544.31256,0.01737
2542.25239,0.01724
2540.19222,0.01759
2538.13205,0.01837
2536.07188,0.01850
2534.01170,0.01807
2531.95153,0.01800
2529.89136,0.01786
2527.83119,0.01725
2525.77102,0.01720
2523.71084,0.01783
2521.65067,0.01795
2519.59050,0.01739
2517.53033,0.01712
2515.47015,0.01716
2513.40998,0.01683
2511.34981,0.01662
2509.28964,0.01673
2507.22947,0.01632
2505.16929,0.01567
2503.10912,0.01561
2501.04895,0.01603
2498.98878,0.01629
2496.92861,0.01591
2494.86843,0.01544
2492.80826,0.01553
2490.74809,0.01576
2488.68792,0.01580
2486.62775,0.01553
2484.56757,0.01512
2482.50740,0.01514
2480.44723,0.01533
2478.38706,0.01531
2476.32688,0.01521
2474.26671,0.01518
2472.20654,0.01542
2470.14637,0.01573
2468.08620,0.01549
2466.02602,0.01495
2463.96585,0.01471
2461.90568,0.01482
2459.84551,0.01548
2457.78534,0.01586
2455.72516,0.01489
2453.66499,0.01390
2451.60482,0.01408
2449.54465,0.01447
2447.48447,0.01446
2445.42430,0.01435
2443.36413,0.01440
2441.30396,0.01491
2439.24379,0.01554
2437.18361,0.01568
2435.12344,0.01534
2433.06327,0.01509
2431.00310,0.01540
2428.94293,0.01557
2426.88275,0.01473
2424.82258,0.01379
2422.76241,0.01373
2420.70224,0.01410
2418.64207,0.01421
2416.58189,0.01405
2414.52172,0.01389
2412.46155,0.01371
2410.40138,0.01355
2408.34120,0.01335
2406.28103,0.01325
2404.22086,0.01347
2402.16069,0.01370
2400.10052,0.01373
2398.04034,0.01397
2395.98017,0.01405
2393.92000,0.01365
2391.85983,0.01314
2389.79966,0.01310
2387.73948,0.01356
2385.67931,0.01425
2383.61914,0.01481
2381.55897,0.01481
2379.49880,0.01464
2377.43862,0.01483
2375.37845,0.01475
2373.31828,0.01355
2371.25811,0.01162
2369.19793,0.00977
2367.13776,0.00959
2365.07759,0.01210
2363.01742,0.01290
2360.95725,0.00974
2358.89707,0.00954
2356.83690,0.01262
2354.77673,0.01543
2352.71656,0.01680
2350.65639,0.01606
2348.59621,0.01551
2346.53604,0.01656
2344.47587,0.01521
2342.41570,0.01254
2340.35552,0.01055
2338.29535,0.01007
2336.23518,0.01126
2334.17501,0.01261
2332.11484,0.01380
2330.05466,0.01494
2327.99449,0.01539
2325.93432,0.01445
2323.87415,0.01410
2321.81398,0.01493
2319.75380,0.01547
2317.69363,0.01459
2315.63346,0.01411
2313.57329,0.01462
2311.51312,0.01472
2309.45294,0.01405
2307.39277,0.01374
2305.33260,0.01423
2303.27243,0.01469
2301.21225,0.01459
2299.15208,0.01404
2297.09191,0.01363
2295.03174,0.01348
2292.97157,0.01354
2290.91139,0.01362
2288.85122,0.01321
2286.79105,0.01255
2284.73088,0.01210
2282.67071,0.01204
2280.61053,0.01267
2278.55036,0.01340
2276.49019,0.01308
2274.43002,0.01201
2272.36984,0.01145
2270.30967,0.01193
2268.24950,0.01276
2266.18933,0.01306
2264.12916,0.01320
2262.06898,0.01323
2260.00881,0.01217
2257.94864,0.01059
2255.88847,0.01050
2253.82830,0.01174
2251.76812,0.01198
2249.70795,0.01111
2247.64778,0.01133
2245.58761,0.01238
2243.52744,0.01243
2241.46726,0.01144
2239.40709,0.01027
2237.34692,0.00966
2235.28675,0.01008
2233.22657,0.01085
2231.16640,0.01161
2229.10623,0.01213
2227.04606,0.01191
2224.98589,0.01136
2222.92571,0.01078
2220.86554,0.01059
2218.80537,0.01061
2216.74520,0.00999
2214.68503,0.00914
2212.62485,0.00879
2210.56468,0.00987
2208.50451,0.01205
2206.44434,0.01285
2204.38417,0.01229
2202.32399,0.01212
2200.26382,0.01231
2198.20365,0.01226
2196.14348,0.01109
2194.08330,0.00924
2192.02313,0.00887
2189.96296,0.01051
2187.90279,0.01172
2185.84262,0.01102
2183.78244,0.00997
2181.72227,0.00976
2179.66210,0.00924
2177.60193,0.00822
2175.54176,0.00860
2173.48158,0.00953
2171.42141,0.00885
2169.36124,0.00759
2167.30107,0.00760
2165.24089,0.00865
2163.18072,0.00998
2161.12055,0.01103
2159.06038,0.01152
2157.00021,0.01167
2154.94003,0.01075
2152.87986,0.00904
2150.81969,0.00811
2148.75952,0.00795
2146.69935,0.00846
2144.63917,0.00957
2142.57900,0.00874
2140.51883,0.00657
2138.45866,0.00638
2136.39849,0.00744
2134.33831,0.00818
2132.27814,0.00834
2130.21797,0.00794
2128.15780,0.00799
2126.09762,0.00865
2124.03745,0.00927
2121.97728,0.00933
2119.91711,0.00855
2117.85694,0.00850
2115.79676,0.00937
2113.73659,0.00936
2111.67642,0.00905
2109.61625,0.00919
2107.55608,0.00927
2105.49590,0.00948
2103.43573,0.00995
2101.37556,0.01089
2099.31539,0.01212
2097.25521,0.01242
2095.19504,0.01150
2093.13487,0.01003
2091.07470,0.00888
2089.01453,0.00926
2086.95435,0.01056
2084.89418,0.01126
2082.83401,0.01111
2080.77384,0.01068
2078.71367,0.01049
2076.65349,0.01064
2074.59332,0.01106
2072.53315,0.01129
2070.47298,0.01072
2068.41281,0.00940
2066.35263,0.00823
2064.29246,0.00817
2062.23229,0.00953
2060.17212,0.01049
2058.11194,0.00923
2056.05177,0.00832
2053.99160,0.00963
2051.93143,0.01044
2049.87126,0.00910
2047.81108,0.00685
2045.75091,0.00509
2043.69074,0.00481
2041.63057,0.00643
2039.57040,0.00875
2037.51022,0.00923
2035.45005,0.00770
2033.38988,0.00728
2031.32971,0.00748
2029.26954,0.00580
2027.20936,0.00426
2025.14919,0.00415
2023.08902,0.00453
2021.02885,0.00549
2018.96867,0.00632
2016.90850,0.00653
2014.84833,0.00656
2012.78816,0.00530
2010.72799,0.00215
2008.66781,0.00000
2006.60764,0.00216
2004.54747,0.00651
2002.48730,0.00847
2000.42713,0.00840
1998.36695,0.00855
1996.30678,0.00824
1994.24661,0.00612
1992.18644,0.00396
1990.12626,0.00437
1988.06609,0.00652
1986.00592,0.00873
1983.94575,0.01028
1981.88558,0.01049
1979.82540,0.00902
1977.76523,0.00564
1975.70506,0.00176
1973.64489,0.00010
1971.58472,0.00116
1969.52454,0.00361
1967.46437,0.00565
1965.40420,0.00619
1963.34403,0.00642
1961.28386,0.00723
1959.22368,0.00791
1957.16351,0.00765
1955.10334,0.00620
1953.04317,0.00501
1950.98299,0.00544
1948.92282,0.00616
1946.86265,0.00551
1944.80248,0.00410
1942.74231,0.00369
1940.68213,0.00428
1938.62196,0.00495
1936.56179,0.00579
1934.50162,0.00655
1932.44145,0.00725
1930.38127,0.00812
1928.32110,0.00831
1926.26093,0.00723
1924.20076,0.00590
1922.14059,0.00573
1920.08041,0.00627
1918.02024,0.00612
1915.96007,0.00534
1913.89990,0.00479
1911.83972,0.00462
1909.77955,0.00491
1907.71938,0.00548
1905.65921,0.00541
1903.59904,0.00469
1901.53886,0.00416
1899.47869,0.00413
1897.41852,0.00434
1895.35835,0.00432
1893.29818,0.00427
1891.23800,0.00459
1889.17783,0.00482
1887.11766,0.00453
1885.05749,0.00429
1882.99731,0.00452
1880.93714,0.00479
1878.87697,0.00479
1876.81680,0.00475
1874.75663,0.00487
1872.69645,0.00484
1870.63628,0.00422
1868.57611,0.00355
1866.51594,0.00382
1864.45577,0.00463
1862.39559,0.00512
1860.33542,0.00508
1858.27525,0.00460
1856.21508,0.00399
1854.15491,0.00359
1852.09473,0.00341
1850.03456,0.00323
1847.97439,0.00301
1845.91422,0.00269
1843.85404,0.00241
1841.79387,0.00252
1839.73370,0.00287
1837.67353,0.00326
1835.61336,0.00345
1833.55318,0.00317
1831.49301,0.00296
1829.43284,0.00330
1827.37267,0.00349
1825.31250,0.00296
1823.25232,0.00231
1821.19215,0.00216
1819.13198,0.00221
1817.07181,0.00199
1815.01163,0.00167
1812.95146,0.00173
1810.89129,0.00227
1808.83112,0.00266
1806.77095,0.00237
1804.71077,0.00188
1802.65060,0.00168
1800.59043,0.00160
1798.53026,0.00151
1796.47009,0.00145
1794.40991,0.00127
1792.34974,0.00091
1790.28957,0.00069
1788.22940,0.00071
1786.16923,0.00083
1784.10905,0.00095
1782.04888,0.00084
1779.98871,0.00065
1777.92854,0.00076
1775.86836,0.00093
1773.80819,0.00064
1771.74802,0.00007
1769.68785,0.00000
1767.62768,0.00044
1765.56750,0.00110
1763.50733,0.00168
1761.44716,0.00198
1759.38699,0.00226
1757.32682,0.00290
1755.26664,0.00383
1753.20647,0.00488
1751.14630,0.00609
1749.08613,0.00735
1747.02596,0.00862
1744.96578,0.00999
1742.90561,0.01117
1740.84544,0.01191
1738.78527,0.01244
1736.72509,0.01295
1734.66492,0.01353
1732.60475,0.01417
1730.54458,0.01452
1728.48441,0.01472
1726.42423,0.01501
1724.36406,0.01530
1722.30389,0.01531
1720.24372,0.01472
1718.18355,0.01392
1716.12337,0.01404
1714.06320,0.01481
1712.00303,0.01522
1709.94286,0.01527
1707.88268,0.01513
1705.82251,0.01480
1703.76234,0.01447
1701.70217,0.01422
1699.64200,0.01391
1697.58182,0.01377
1695.52165,0.01417
1693.46148,0.01506
1691.40131,0.01613
1689.34114,0.01720
1687.28096,0.01817
1685.22079,0.01924
1683.16062,0.02088
1681.10045,0.02292
1679.04028,0.02491
1676.98010,0.02657
1674.91993,0.02785
1672.85976,0.02860
1670.79959,0.02873
1668.73941,0.02866
1666.67924,0.02859
1664.61907,0.02823
1662.55890,0.02763
1660.49873,0.02707
1658.43855,0.02646
1656.37838,0.02546
1654.31821,0.02421
1652.25804,0.02390
1650.19787,0.02437
1648.13769,0.02446
1646.07752,0.02479
1644.01735,0.02575
1641.95718,0.02637
1639.89701,0.02630
1637.83683,0.02623
1635.77666,0.02739
1633.71649,0.02923
1631.65632,0.03003
1629.59614,0.02998
1627.53597,0.03000
1625.47580,0.03031
1623.41563,0.03061
1621.35546,0.03087
1619.29528,0.03111
1617.23511,0.03158
1615.17494,0.03257
1613.11477,0.03373
1611.05460,0.03497
1608.99442,0.03643
1606.93425,0.03782
1604.87408,0.03840
1602.81391,0.03778
1600.75373,0.03637
1598.69356,0.03480
1596.63339,0.03337
1594.57322,0.03208
1592.51305,0.03099
1590.45287,0.03010
1588.39270,0.02943
1586.33253,0.02884
1584.27236,0.02814
1582.21219,0.02724
1580.15201,0.02615
1578.09184,0.02503
1576.03167,0.02428
1573.97150,0.02412
1571.91133,0.02373
1569.85115,0.02269
1567.79098,0.02162
1565.73081,0.02088
1563.67064,0.02009
1561.61046,0.01872
1559.55029,0.01666
1557.49012,0.01532
1555.42995,0.01527
1553.36978,0.01538
1551.30960,0.01511
1549.24943,0.01449
1547.18926,0.01366
1545.12909,0.01249
1543.06892,0.01090
1541.00874,0.00937
1538.94857,0.00898
1536.88840,0.00943
1534.82823,0.00948
1532.76805,0.00906
1530.70788,0.00864
1528.64771,0.00824
1526.58754,0.00793
1524.52737,0.00779
1522.46719,0.00794
1520.40702,0.00886
1518.34685,0.01028
1516.28668,0.01138
1514.22651,0.01165
1512.16633,0.01096
1510.10616,0.00930
1508.04599,0.00712
1505.98582,0.00586
1503.92565,0.00570
1501.86547,0.00545
1499.80530,0.00463
1497.74513,0.00341
1495.68496,0.00225
1493.62478,0.00144
1491.56461,0.00082
1489.50444,0.00052
1487.44427,0.00080
1485.38410,0.00120
1483.32392,0.00127
1481.26375,0.00133
1479.20358,0.00165
1477.14341,0.00213
1475.08324,0.00287
1473.02306,0.00444
1470.96289,0.00680
1468.90272,0.00898
1466.84255,0.01087
1464.78238,0.01277
1462.72220,0.01426
1460.66203,0.01490
1458.60186,0.01528
1456.54169,0.01611
1454.48151,0.01706
1452.42134,0.01776
1450.36117,0.01842
1448.30100,0.01928
1446.24083,0.02045
1444.18065,0.02159
1442.12048,0.02251
1440.06031,0.02323
1438.00014,0.02367
1435.93997,0.02392
1433.87979,0.02436
1431.81962,0.02487
1429.75945,0.02512
1427.69928,0.02519
1425.63910,0.02532
1423.57893,0.02548
1421.51876,0.02542
1419.45859,0.02514
1417.39842,0.02499
1415.33824,0.02513
1413.27807,0.02519
1411.21790,0.02479
1409.15773,0.02404
1407.09756,0.02325
1405.03738,0.02247
1402.97721,0.02167
1400.91704,0.02079
1398.85687,0.01985
1396.79670,0.01923
1394.73652,0.01911
1392.67635,0.01913
1390.61618,0.01897
1388.55601,0.01891
1386.49583,0.01934
1384.43566,0.02014
1382.37549,0.02098
1380.31532,0.02176
1378.25515,0.02240
1376.19497,0.02270
1374.13480,0.02284
1372.07463,0.02313
1370.01446,0.02337
1367.95429,0.02329
1365.89411,0.02290
1363.83394,0.02236
1361.77377,0.02197
1359.71360,0.02167
1357.65343,0.02130
1355.59325,0.02102
1353.53308,0.02102
1351.47291,0.02115
1349.41274,0.02119
1347.35256,0.02118
1345.29239,0.02103
1343.23222,0.02064
1341.17205,0.02015
1339.11188,0.02000
1337.05170,0.02023
1334.99153,0.02047
1332.93136,0.02061
1330.87119,0.02073
1328.81102,0.02080
1326.75084,0.02091
1324.69067,0.02112
1322.63050,0.02126
1320.57033,0.02132
1318.51015,0.02145
1316.44998,0.02161
1314.38981,0.02155
1312.32964,0.02126
1310.26947,0.02076
1308.20929,0.02004
1306.14912,0.01923
1304.08895,0.01842
1302.02878,0.01769
1299.96861,0.01716
1297.90843,0.01677
1295.84826,0.01654
1293.78809,0.01660
1291.72792,0.01684
1289.66775,0.01707
1287.60757,0.01721
1285.54740,0.01741
1283.48723,0.01775
1281.42706,0.01787
1279.36688,0.01770
1277.30671,0.01770
1275.24654,0.01799
1273.18637,0.01824
1271.12620,0.01840
1269.06602,0.01891
1267.00585,0.01999
1264.94568,0.02124
1262.88551,0.02216
1260.82534,0.02269
1258.76516,0.02326
1256.70499,0.02402
1254.64482,0.02457
1252.58465,0.02479
1250.52447,0.02484
1248.46430,0.02482
1246.40413,0.02488
1244.34396,0.02520
1242.28379,0.02568
1240.22361,0.02605
1238.16344,0.02606
1236.10327,0.02574
1234.04310,0.02524
1231.98293,0.02463
1229.92275,0.02395
1227.86258,0.02317
1225.80241,0.02215
1223.74224,0.02106
1221.68207,0.01991
1219.62189,0.01854
1217.56172,0.01715
1215.50155,0.01588
1213.44138,0.01468
1211.38120,0.01360
1209.32103,0.01272
1207.26086,0.01203
1205.20069,0.01104
1203.14052,0.00939
1201.08034,0.00749
1199.02017,0.00589
1196.96000,0.00469
1194.89983,0.00373
1192.83966,0.00267
1190.77948,0.00147
1188.71931,0.00050
1186.65914,0.00000
1184.59897,-0.00015
1182.53880,-0.00016
1180.47862,0.00003
1178.41845,0.00068
1176.35828,0.00185
1174.29811,0.00355
1172.23793,0.00559
1170.17776,0.00745
1168.11759,0.00878
1166.05742,0.00987
1163.99725,0.01097
1161.93707,0.01189
1159.87690,0.01236
1157.81673,0.01263
1155.75656,0.01318
1153.69639,0.01390
1151.63621,0.01483
1149.57604,0.01602
1147.51587,0.01697
1145.45570,0.01758
1143.39552,0.01839
1141.33535,0.01957
1139.27518,0.02045
1137.21501,0.02076
1135.15484,0.02120
1133.09466,0.02205
1131.03449,0.02299
1128.97432,0.02399
1126.91415,0.02532
1124.85398,0.02678
1122.79380,0.02800
1120.73363,0.02901
1118.67346,0.03007
1116.61329,0.03129
1114.55312,0.03258
1112.49294,0.03380
1110.43277,0.03497
1108.37260,0.03627
1106.31243,0.03757
1104.25225,0.03871
1102.19208,0.03984
1100.13191,0.04123
1098.07174,0.04300
1096.01157,0.04510
1093.95139,0.04715
1091.89122,0.04894
1089.83105,0.05087
1087.77088,0.05300
1085.71071,0.05475
1083.65053,0.05620
1081.59036,0.05815
1079.53019,0.06066
1077.47002,0.06312
1075.40985,0.06507
1073.34967,0.06674
1071.28950,0.06874
1069.22933,0.07088
1067.16916,0.07255
1065.10898,0.07387
1063.04881,0.07520
1060.98864,0.07658
1058.92847,0.07816
1056.86830,0.08011
1054.80812,0.08199
1052.74795,0.08396
1050.68778,0.08641
1048.62761,0.08872
1046.56744,0.09073
1044.50726,0.09312
1042.44709,0.09582
1040.38692,0.09828
1038.32675,0.10019
1036.26657,0.10152
1034.20640,0.10249
1032.14623,0.10307
1030.08606,0.10299
1028.02589,0.10257
1025.96571,0.10228
1023.90554,0.10192
1021.84537,0.10138
1019.78520,0.10093
1017.72503,0.10072
1015.66485,0.10042
1013.60468,0.09997
1011.54451,0.09994
1009.48434,0.10020
1007.42417,0.10014
1005.36399,0.09994
1003.30382,0.09958
1001.24365,0.09884
999.18348,0.09773
997.12330,0.09614
995.06313,0.09431
993.00296,0.09258
990.94279,0.09094
988.88262,0.08930
986.82244,0.08767
984.76227,0.08611
982.70210,0.08476
980.64193,0.08340
978.58176,0.08171
976.52158,0.07991
974.46141,0.07829
972.40124,0.07699
970.34107,0.07570
968.28089,0.07408
966.22072,0.07247
964.16055,0.07094
962.10038,0.06871
960.04021,0.06602
957.98003,0.06425
955.91986,0.06324
953.85969,0.06202
951.79952,0.06063
949.73935,0.05916
947.67917,0.05755
945.61900,0.05614
943.55883,0.05487
941.49866,0.05288
939.43849,0.04987
937.37831,0.04643
935.31814,0.04293
933.25797,0.03963
931.19780,0.03699
929.13762,0.03499
927.07745,0.03301
925.01728,0.03072
922.95711,0.02872
920.89694,0.02693
918.83676,0.02456
916.77659,0.02252
914.71642,0.02153
912.65625,0.02051
910.59608,0.01951
908.53590,0.01914
906.47573,0.01869
904.41556,0.01765
902.35539,0.01642
900.29522,0.01581
898.23504,0.01602
896.17487,0.01637
894.11470,0.01655
892.05453,0.01659
889.99435,0.01651
887.93418,0.01607
885.87401,0.01514
883.81384,0.01418
881.75367,0.01313
879.69349,0.01173
877.63332,0.01042
875.57315,0.00964
873.51298,0.00914
871.45281,0.00863
869.39263,0.00806
867.33246,0.00780
865.27229,0.00808
863.21212,0.00822
861.15194,0.00768
859.09177,0.00691
857.03160,0.00651
854.97143,0.00650
852.91126,0.00632
850.85108,0.00598
848.79091,0.00640
846.73074,0.00713
844.67057,0.00692
842.61040,0.00647
840.55022,0.00684
838.49005,0.00706
836.42988,0.00678
834.36971,0.00688
832.30954,0.00640
830.24936,0.00503
828.18919,0.00399
826.12902,0.00317
824.06885,0.00255
822.00867,0.00274
819.94850,0.00322
817.88833,0.00316
815.82816,0.00266
813.76799,0.00193
811.70781,0.00133
809.64764,0.00161
807.58747,0.00212
805.52730,0.00188
803.46713,0.00193
801.40695,0.00299
799.34678,0.00338
797.28661,0.00196
795.22644,0.00043
793.16627,0.00000
791.10609,0.00016
789.04592,0.00081
786.98575,0.00191
784.92558,0.00241
782.86540,0.00198
780.80523,0.00149
778.74506,0.00145
776.68489,0.00164
774.62472,0.00087
772.56454,-0.00023
770.50437,0.00010
768.44420,0.00098
766.38403,0.00135
764.32386,0.00155
762.26368,0.00164
760.20351,0.00173
758.14334,0.00225
756.08317,0.00287
754.02299,0.00281
751.96282,0.00197
749.90265,0.00093
747.84248,0.00000
745.78231,-0.00035
743.72213,0.00009
741.66196,-0.00027
739.60179,-0.00094
737.54162,-0.00048
735.48145,-0.00007
733.42127,-0.00103
731.36110,-0.00242
729.30093,-0.00337
727.24076,-0.00378
725.18059,-0.00326
723.12041,-0.00196
721.06024,-0.00011
719.00007,0.00143
716.93990,0.00230
714.87972,0.00184
712.81955,0.00070
710.75938,0.00104
708.69921,0.00318
706.63904,0.00508
704.57886,0.00572
702.51869,0.00649
700.45852,0.00810
698.39835,0.00905
696.33818,0.00766
694.27800,0.00424
692.21783,0.00117
690.15766,0.00097
688.09749,0.00317
686.03731,0.00423
683.97714,0.00280
681.91697,0.00117
679.85680,0.00019
677.79663,-0.00064
675.73645,-0.00069
673.67628,-0.00049
671.61611,-0.00107
669.55594,0.00014
667.49577,0.00134
665.43559,-0.00098
663.37542,0.00080
661.31525,0.00366
659.25508,0.00450
657.19491,0.00226
655.13473,-0.00094
653.07456,-0.00211
651.01439,-0.00017
648.95422,0.00227
646.89404,0.00150
644.83387,0.00000
642.77370,0.00182
640.71353,0.00576
638.65336,0.00695
636.59318,0.00373
634.53301,-0.00065
632.47284,-0.00157
630.41267,0.00065
628.35250,0.00283
626.29232,0.00469
624.23215,0.00703
622.17198,0.00743
620.11181,0.00571
618.05164,0.00240
615.99146,-0.00137
613.93129,-0.00109
611.87112,0.00263
609.81095,0.00411
607.75077,0.00453
605.69060,0.00579
603.63043,0.00440
601.57026,0.00121
599.51009,0.00000
