3996.73391,0.00000
3994.67373,0.00015
3992.61356,0.00038
3990.55339,0.00041
3988.49322,0.00030
3986.43305,0.00028
3984.37287,0.00037
3982.31270,0.00045
3980.25253,0.00041
3978.19236,0.00035
3976.13219,0.00039
3974.07201,0.00046
3972.01184,0.00045
3969.95167,0.00033
3967.89150,0.00020
3965.83133,0.00017
3963.77115,0.00025
3961.71098,0.00036
3959.65081,0.00049
3957.59064,0.00054
3955.53046,0.00051
3953.47029,0.00055
3951.41012,0.00072
3949.34995,0.00082
3947.28978,0.00067
3945.22960,0.00039
3943.16943,0.00011
3941.10926,0.00000
3939.04909,0.00015
3936.98892,0.00028
3934.92874,0.00013
3932.86857,0.00001
3930.80840,0.00032
3928.74823,0.00076
3926.68805,0.00084
3924.62788,0.00059
3922.56771,0.00047
3920.50754,0.00066
3918.44737,0.00064
3916.38719,0.00024
3914.32702,0.00000
3912.26685,0.00013
3910.20668,0.00037
3908.14651,0.00050
3906.08633,0.00048
3904.02616,0.00035
3901.96599,0.00030
3899.90582,0.00038
3897.84565,0.00040
3895.78547,0.00040
3893.72530,0.00059
3891.66513,0.00084
3889.60496,0.00087
3887.54478,0.00071
3885.48461,0.00049
3883.42444,0.00027
3881.36427,0.00022
3879.30410,0.00039
3877.24392,0.00061
3875.18375,0.00080
3873.12358,0.00096
3871.06341,0.00101
3869.00324,0.00091
3866.94306,0.00079
3864.88289,0.00075
3862.82272,0.00073
3860.76255,0.00060
3858.70237,0.00057
3856.64220,0.00088
3854.58203,0.00109
3852.52186,0.00060
3850.46169,0.00003
3848.40151,0.00011
3846.34134,0.00066
3844.28117,0.00120
3842.22100,0.00136
3840.16083,0.00113
3838.10065,0.00085
3836.04048,0.00080
3833.98031,0.00088
3831.92014,0.00095
3829.85997,0.00106
3827.79979,0.00112
3825.73962,0.00095
3823.67945,0.00063
3821.61928,0.00047
3819.55910,0.00056
3817.49893,0.00075
3815.43876,0.00084
3813.37859,0.00076
3811.31842,0.00068
3809.25824,0.00068
3807.19807,0.00073
3805.13790,0.00086
3803.07773,0.00106
3801.01756,0.00117
3798.95738,0.00106
3796.89721,0.00095
3794.83704,0.00101
3792.77687,0.00108
3790.71670,0.00095
3788.65652,0.00068
3786.59635,0.00059
3784.53618,0.00079
3782.47601,0.00099
3780.41583,0.00100
3778.35566,0.00101
3776.29549,0.00108
3774.23532,0.00118
3772.17515,0.00132
3770.11497,0.00138
3768.05480,0.00124
3765.99463,0.00100
3763.93446,0.00083
3761.87429,0.00078
3759.81411,0.00073
3757.75394,0.00062
3755.69377,0.00066
3753.63360,0.00098
3751.57342,0.00147
3749.51325,0.00165
3747.45308,0.00124
3745.39291,0.00052
3743.33274,0.00000
3741.27256,0.00005
3739.21239,0.00043
3737.15222,0.00072
3735.09205,0.00099
3733.03188,0.00132
3730.97170,0.00135
3728.91153,0.00105
3726.85136,0.00076
3724.79119,0.00073
3722.73102,0.00092
3720.67084,0.00103
3718.61067,0.00101
3716.55050,0.00115
3714.49033,0.00129
3712.43015,0.00120
3710.36998,0.00116
3708.30981,0.00123
3706.24964,0.00117
3704.18947,0.00088
3702.12929,0.00061
3700.06912,0.00077
3698.00895,0.00121
3695.94878,0.00149
3693.88861,0.00142
3691.82843,0.00115
3689.76826,0.00106
3687.70809,0.00135
3685.64792,0.00155
3683.58775,0.00137
3681.52757,0.00103
3679.46740,0.00093
3677.40723,0.00116
3675.34706,0.00143
3673.28688,0.00136
3671.22671,0.00119
3669.16654,0.00141
3667.10637,0.00176
3665.04620,0.00184
3662.98602,0.00173
3660.92585,0.00160
3658.86568,0.00160
3656.80551,0.00185
3654.74534,0.00228
3652.68516,0.00250
3650.62499,0.00229
3648.56482,0.00187
3646.50465,0.00168
3644.44447,0.00192
3642.38430,0.00233
3640.32413,0.00250
3638.26396,0.00249
3636.20379,0.00267
3634.14361,0.00298
3632.08344,0.00316
3630.02327,0.00342
3627.96310,0.00391
3625.90293,0.00415
3623.84275,0.00415
3621.78258,0.00419
3619.72241,0.00423
3617.66224,0.00423
3615.60207,0.00432
3613.54189,0.00453
3611.48172,0.00461
3609.42155,0.00471
3607.36138,0.00521
3605.30120,0.00575
3603.24103,0.00595
3601.18086,0.00601
3599.12069,0.00619
3597.06052,0.00623
3595.00034,0.00606
3592.94017,0.00592
3590.88000,0.00584
3588.81983,0.00589
3586.75966,0.00645
3584.69948,0.00728
3582.63931,0.00769
3580.57914,0.00768
3578.51897,0.00773
3576.45879,0.00802
3574.39862,0.00822
3572.33845,0.00817
3570.27828,0.00816
3568.21811,0.00851
3566.15793,0.00918
3564.09776,0.00964
3562.03759,0.00964
3559.97742,0.00946
3557.91725,0.00931
3555.85707,0.00924
3553.79690,0.00938
3551.73673,0.00972
3549.67656,0.01000
3547.61639,0.01015
3545.55621,0.01033
3543.49604,0.01055
3541.43587,0.01079
3539.37570,0.01104
3537.31552,0.01129
3535.25535,0.01151
3533.19518,0.01166
3531.13501,0.01172
3529.07484,0.01182
3527.01466,0.01207
3524.95449,0.01235
3522.89432,0.01264
3520.83415,0.01300
3518.77398,0.01318
3516.71380,0.01311
3514.65363,0.01319
3512.59346,0.01360
3510.53329,0.01412
3508.47312,0.01437
3506.41294,0.01415
3504.35277,0.01378
3502.29260,0.01380
3500.23243,0.01419
3498.17225,0.01446
3496.11208,0.01451
3494.05191,0.01463
3491.99174,0.01492
3489.93157,0.01528
3487.87139,0.01552
3485.81122,0.01551
3483.75105,0.01549
3481.69088,0.01586
3479.63071,0.01635
3477.57053,0.01645
3475.51036,0.01651
3473.45019,0.01685
3471.39002,0.01709
3469.32984,0.01699
3467.26967,0.01687
3465.20950,0.01701
3463.14933,0.01736
3461.08916,0.01766
3459.02898,0.01787
3456.96881,0.01804
3454.90864,0.01817
3452.84847,0.01834
3450.78830,0.01851
3448.72812,0.01854
3446.66795,0.01851
3444.60778,0.01858
3442.54761,0.01875
3440.48744,0.01902
3438.42726,0.01933
3436.36709,0.01953
3434.30692,0.01955
3432.24675,0.01961
3430.18657,0.01988
3428.12640,0.02018
3426.06623,0.02033
3424.00606,0.02037
3421.94589,0.02048
3419.88571,0.02070
3417.82554,0.02088
3415.76537,0.02083
3413.70520,0.02063
3411.64503,0.02063
3409.58485,0.02094
3407.52468,0.02126
3405.46451,0.02136
3403.40434,0.02134
3401.34416,0.02119
3399.28399,0.02102
3397.22382,0.02116
3395.16365,0.02154
3393.10348,0.02185
3391.04330,0.02193
3388.98313,0.02202
3386.92296,0.02224
3384.86279,0.02250
3382.80262,0.02279
3380.74244,0.02291
3378.68227,0.02270
3376.62210,0.02261
3374.56193,0.02299
3372.50176,0.02329
3370.44158,0.02313
3368.38141,0.02287
3366.32124,0.02274
3364.26107,0.02275
3362.20089,0.02287
3360.14072,0.02292
3358.08055,0.02297
3356.02038,0.02319
3353.96021,0.02338
3351.90003,0.02343
3349.83986,0.02356
3347.77969,0.02379
3345.71952,0.02401
3343.65935,0.02418
3341.59917,0.02414
3339.53900,0.02378
3337.47883,0.02328
3335.41866,0.02306
3333.35849,0.02320
3331.29831,0.02353
3329.23814,0.02384
3327.17797,0.02394
3325.11780,0.02390
3323.05762,0.02399
3320.99745,0.02403
3318.93728,0.02383
3316.87711,0.02379
3314.81694,0.02399
3312.75676,0.02410
3310.69659,0.02426
3308.63642,0.02455
3306.57625,0.02464
3304.51608,0.02451
3302.45590,0.02442
3300.39573,0.02434
3298.33556,0.02423
3296.27539,0.02422
3294.21521,0.02437
3292.15504,0.02449
3290.09487,0.02441
3288.03470,0.02429
3285.97453,0.02429
3283.91435,0.02427
3281.85418,0.02421
3279.79401,0.02418
3277.73384,0.02420
3275.67367,0.02424
3273.61349,0.02432
3271.55332,0.02437
3269.49315,0.02427
3267.43298,0.02422
3265.37281,0.02431
3263.31263,0.02436
3261.25246,0.02439
3259.19229,0.02446
3257.13212,0.02443
3255.07194,0.02424
3253.01177,0.02407
3250.95160,0.02400
3248.89143,0.02401
3246.83126,0.02399
3244.77108,0.02394
3242.71091,0.02395
3240.65074,0.02406
3238.59057,0.02412
3236.53040,0.02389
3234.47022,0.02348
3232.41005,0.02316
3230.34988,0.02298
3228.28971,0.02299
3226.22954,0.02326
3224.16936,0.02359
3222.10919,0.02376
3220.04902,0.02374
3217.98885,0.02353
3215.92867,0.02314
3213.86850,0.02279
3211.80833,0.02269
3209.74816,0.02275
3207.68799,0.02261
3205.62781,0.02226
3203.56764,0.02207
3201.50747,0.02205
3199.44730,0.02201
3197.38713,0.02194
3195.32695,0.02178
3193.26678,0.02156
3191.20661,0.02144
3189.14644,0.02134
3187.08626,0.02123
3185.02609,0.02114
3182.96592,0.02096
3180.90575,0.02068
3178.84558,0.02055
3176.78540,0.02058
3174.72523,0.02052
3172.66506,0.02027
3170.60489,0.02001
3168.54472,0.01993
3166.48454,0.01994
3164.42437,0.01984
3162.36420,0.01967
3160.30403,0.01946
3158.24386,0.01915
3156.18368,0.01883
3154.12351,0.01860
3152.06334,0.01854
3150.00317,0.01842
3147.94299,0.01806
3145.88282,0.01781
3143.82265,0.01788
3141.76248,0.01794
3139.70231,0.01780
3137.64213,0.01760
3135.58196,0.01743
3133.52179,0.01729
3131.46162,0.01701
3129.40145,0.01655
3127.34127,0.01625
3125.28110,0.01623
3123.22093,0.01626
3121.16076,0.01618
3119.10058,0.01604
3117.04041,0.01580
3114.98024,0.01546
3112.92007,0.01533
3110.85990,0.01551
3108.79972,0.01552
3106.73955,0.01524
3104.67938,0.01493
3102.61921,0.01464
3100.55904,0.01436
3098.49886,0.01422
3096.43869,0.01420
3094.37852,0.01417
3092.31835,0.01415
3090.25818,0.01418
3088.19800,0.01409
3086.13783,0.01382
3084.07766,0.01346
3082.01749,0.01314
3079.95731,0.01297
3077.89714,0.01289
3075.83697,0.01277
3073.77680,0.01256
3071.71663,0.01237
3069.65645,0.01237
3067.59628,0.01248
3065.53611,0.01249
3063.47594,0.01228
3061.41577,0.01202
3059.35559,0.01182
3057.29542,0.01156
3055.23525,0.01130
3053.17508,0.01126
3051.11491,0.01129
3049.05473,0.01119
3046.99456,0.01102
3044.93439,0.01085
3042.87422,0.01073
3040.81404,0.01069
3038.75387,0.01066
3036.69370,0.01058
3034.63353,0.01051
3032.57336,0.01047
3030.51318,0.01041
3028.45301,0.01032
3026.39284,0.01015
3024.33267,0.00993
3022.27250,0.00972
3020.21232,0.00967
3018.15215,0.00973
3016.09198,0.00973
3014.03181,0.00951
3011.97163,0.00914
3009.91146,0.00894
3007.85129,0.00894
3005.79112,0.00880
3003.73095,0.00864
3001.67077,0.00872
2999.61060,0.00899
2997.55043,0.00913
2995.49026,0.00909
2993.43009,0.00910
2991.36991,0.00911
2989.30974,0.00893
2987.24957,0.00879
2985.18940,0.00893
2983.12923,0.00915
2981.06905,0.00933
2979.00888,0.00930
2976.94871,0.00902
2974.88854,0.00900
2972.82836,0.00945
2970.76819,0.00987
2968.70802,0.01003
2966.64785,0.01008
2964.58768,0.01016
2962.52750,0.01026
2960.46733,0.01046
2958.40716,0.01082
2956.34699,0.01118
2954.28682,0.01139
2952.22664,0.01152
2950.16647,0.01162
2948.10630,0.01160
2946.04613,0.01163
2943.98596,0.01190
2941.92578,0.01215
2939.86561,0.01225
2937.80544,0.01230
2935.74527,0.01239
2933.68509,0.01256
2931.62492,0.01259
2929.56475,0.01243
2927.50458,0.01233
2925.44441,0.01228
2923.38423,0.01216
2921.32406,0.01204
2919.26389,0.01199
2917.20372,0.01191
2915.14355,0.01178
2913.08337,0.01172
2911.02320,0.01183
2908.96303,0.01187
2906.90286,0.01175
2904.84268,0.01164
2902.78251,0.01146
2900.72234,0.01121
2898.66217,0.01115
2896.60200,0.01122
2894.54182,0.01116
2892.48165,0.01098
2890.42148,0.01085
2888.36131,0.01090
2886.30114,0.01091
2884.24096,0.01079
2882.18079,0.01065
2880.12062,0.01054
2878.06045,0.01059
2876.00028,0.01067
2873.94010,0.01047
2871.87993,0.01017
2869.81976,0.01001
2867.75959,0.00993
2865.69941,0.00988
2863.63924,0.00982
2861.57907,0.00971
2859.51890,0.00962
2857.45873,0.00950
2855.39855,0.00929
2853.33838,0.00928
2851.27821,0.00939
2849.21804,0.00916
2847.15787,0.00879
2845.09769,0.00876
2843.03752,0.00881
2840.97735,0.00868
2838.91718,0.00853
2836.85700,0.00841
2834.79683,0.00825
2832.73666,0.00813
2830.67649,0.00810
2828.61632,0.00800
2826.55614,0.00787
2824.49597,0.00779
2822.43580,0.00773
2820.37563,0.00771
2818.31546,0.00775
2816.25528,0.00779
2814.19511,0.00775
2812.13494,0.00761
2810.07477,0.00758
2808.01460,0.00761
2805.95442,0.00751
2803.89425,0.00746
2801.83408,0.00754
2799.77391,0.00752
2797.71373,0.00741
2795.65356,0.00735
2793.59339,0.00743
2791.53322,0.00748
2789.47305,0.00735
2787.41287,0.00717
2785.35270,0.00710
2783.29253,0.00720
2781.23236,0.00727
2779.17219,0.00721
2777.11201,0.00710
2775.05184,0.00700
2772.99167,0.00691
2770.93150,0.00673
2768.87133,0.00649
2766.81115,0.00640
2764.75098,0.00653
2762.69081,0.00673
2760.63064,0.00680
2758.57046,0.00664
2756.51029,0.00651
2754.45012,0.00659
2752.38995,0.00669
2750.32978,0.00676
2748.26960,0.00674
2746.20943,0.00655
2744.14926,0.00642
2742.08909,0.00653
2740.02892,0.00664
2737.96874,0.00658
2735.90857,0.00650
2733.84840,0.00645
2731.78823,0.00637
2729.72805,0.00632
2727.66788,0.00639
2725.60771,0.00637
2723.54754,0.00623
2721.48737,0.00618
2719.42719,0.00621
2717.36702,0.00620
2715.30685,0.00624
2713.24668,0.00631
2711.18651,0.00625
2709.12633,0.00611
2707.06616,0.00608
2705.00599,0.00618
2702.94582,0.00628
2700.88565,0.00624
2698.82547,0.00618
2696.76530,0.00621
2694.70513,0.00629
2692.64496,0.00639
2690.58478,0.00647
2688.52461,0.00645
2686.46444,0.00628
2684.40427,0.00598
2682.34410,0.00575
2680.28392,0.00576
2678.22375,0.00589
2676.16358,0.00592
2674.10341,0.00585
2672.04324,0.00583
2669.98306,0.00581
2667.92289,0.00575
2665.86272,0.00583
2663.80255,0.00605
2661.74238,0.00615
2659.68220,0.00602
2657.62203,0.00590
2655.56186,0.00587
2653.50169,0.00581
2651.44151,0.00574
2649.38134,0.00572
2647.32117,0.00571
2645.26100,0.00571
2643.20083,0.00567
2641.14065,0.00562
2639.08048,0.00554
2637.02031,0.00549
2634.96014,0.00554
2632.89997,0.00566
2630.83979,0.00584
2628.77962,0.00582
2626.71945,0.00553
2624.65928,0.00536
2622.59910,0.00547
2620.53893,0.00547
2618.47876,0.00520
2616.41859,0.00505
2614.35842,0.00519
2612.29824,0.00534
2610.23807,0.00526
2608.17790,0.00501
2606.11773,0.00486
2604.05756,0.00499
2601.99738,0.00523
2599.93721,0.00527
2597.87704,0.00512
2595.81687,0.00495
2593.75670,0.00495
2591.69652,0.00497
2589.63635,0.00477
2587.57618,0.00468
2585.51601,0.00494
2583.45583,0.00529
2581.39566,0.00536
2579.33549,0.00507
2577.27532,0.00482
2575.21515,0.00476
2573.15497,0.00462
2571.09480,0.00448
2569.03463,0.00454
2566.97446,0.00464
2564.91429,0.00454
2562.85411,0.00438
2560.79394,0.00445
2558.73377,0.00451
2556.67360,0.00447
2554.61342,0.00467
2552.55325,0.00488
2550.49308,0.00482
2548.43291,0.00468
2546.37274,0.00457
2544.31256,0.00451
2542.25239,0.00449
2540.19222,0.00427
2538.13205,0.00404
2536.07188,0.00422
2534.01170,0.00452
2531.95153,0.00446
2529.89136,0.00399
2527.83119,0.00382
2525.77102,0.00429
2523.71084,0.00457
2521.65067,0.00441
2519.59050,0.00428
2517.53033,0.00433
2515.47015,0.00450
2513.40998,0.00461
2511.34981,0.00453
2509.28964,0.00431
2507.22947,0.00397
2505.16929,0.00370
2503.10912,0.00367
2501.04895,0.00365
2498.98878,0.00357
2496.92861,0.00378
2494.86843,0.00424
2492.80826,0.00456
2490.74809,0.00446
2488.68792,0.00409
2486.62775,0.00386
2484.56757,0.00387
2482.50740,0.00397
2480.44723,0.00415
2478.38706,0.00429
2476.32688,0.00429
2474.26671,0.00418
2472.20654,0.00413
2470.14637,0.00424
2468.08620,0.00436
2466.02602,0.00440
2463.96585,0.00443
2461.90568,0.00441
2459.84551,0.00435
2457.78534,0.00430
2455.72516,0.00429
2453.66499,0.00437
2451.60482,0.00451
2449.54465,0.00461
2447.48447,0.00442
2445.42430,0.00398
2443.36413,0.00378
2441.30396,0.00405
2439.24379,0.00439
2437.18361,0.00441
2435.12344,0.00428
2433.06327,0.00411
2431.00310,0.00400
2428.94293,0.00411
2426.88275,0.00422
2424.82258,0.00415
2422.76241,0.00402
2420.70224,0.00400
2418.64207,0.00409
2416.58189,0.00415
2414.52172,0.00418
2412.46155,0.00421
2410.40138,0.00412
2408.34120,0.00389
2406.28103,0.00380
2404.22086,0.00393
2402.16069,0.00417
2400.10052,0.00428
2398.04034,0.00408
2395.98017,0.00399
2393.92000,0.00410
2391.85983,0.00413
2389.79966,0.00398
2387.73948,0.00384
2385.67931,0.00388
2383.61914,0.00397
2381.55897,0.00383
2379.49880,0.00352
2377.43862,0.00314
2375.37845,0.00263
2373.31828,0.00214
2371.25811,0.00161
2369.19793,0.00106
2367.13776,0.00124
2365.07759,0.00204
2363.01742,0.00185
2360.95725,0.00133
2358.89707,0.00067
2356.83690,0.00039
2354.77673,0.00065
2352.71656,0.00156
2350.65639,0.00369
2348.59621,0.00515
2346.53604,0.00401
2344.47587,0.00353
2342.41570,0.00381
2340.35552,0.00420
2338.29535,0.00381
2336.23518,0.00246
2334.17501,0.00166
2332.11484,0.00195
2330.05466,0.00289
2327.99449,0.00385
2325.93432,0.00470
2323.87415,0.00462
2321.81398,0.00418
2319.75380,0.00363
2317.69363,0.00355
2315.63346,0.00352
2313.57329,0.00354
2311.51312,0.00378
2309.45294,0.00395
2307.39277,0.00406
2305.33260,0.00435
2303.27243,0.00466
2301.21225,0.00464
2299.15208,0.00457
2297.09191,0.00468
2295.03174,0.00482
2292.97157,0.00491
2290.91139,0.00489
2288.85122,0.00480
2286.79105,0.00487
2284.73088,0.00502
2282.67071,0.00511
2280.61053,0.00510
2278.55036,0.00490
2276.49019,0.00455
2274.43002,0.00426
2272.36984,0.00408
2270.30967,0.00395
2268.24950,0.00361
2266.18933,0.00302
2264.12916,0.00285
2262.06898,0.00347
2260.00881,0.00428
2257.94864,0.00486
2255.88847,0.00499
2253.82830,0.00475
2251.76812,0.00456
2249.70795,0.00450
2247.64778,0.00440
2245.58761,0.00418
2243.52744,0.00386
2241.46726,0.00374
2239.40709,0.00384
2237.34692,0.00420
2235.28675,0.00489
2233.22657,0.00518
2231.16640,0.00482
2229.10623,0.00485
2227.04606,0.00505
2224.98589,0.00438
2222.92571,0.00377
2220.86554,0.00392
2218.80537,0.00401
2216.74520,0.00395
2214.68503,0.00420
2212.62485,0.00439
2210.56468,0.00421
2208.50451,0.00423
2206.44434,0.00470
2204.38417,0.00493
2202.32399,0.00468
2200.26382,0.00437
2198.20365,0.00394
2196.14348,0.00355
2194.08330,0.00352
2192.02313,0.00351
2189.96296,0.00330
2187.90279,0.00331
2185.84262,0.00368
2183.78244,0.00385
2181.72227,0.00349
2179.66210,0.00288
2177.60193,0.00276
2175.54176,0.00305
2173.48158,0.00317
2171.42141,0.00357
2169.36124,0.00374
2167.30107,0.00288
2165.24089,0.00226
2163.18072,0.00290
2161.12055,0.00295
2159.06038,0.00110
2157.00021,0.00000
2154.94003,0.00089
2152.87986,0.00210
2150.81969,0.00297
2148.75952,0.00311
2146.69935,0.00217
2144.63917,0.00152
2142.57900,0.00225
2140.51883,0.00350
2138.45866,0.00369
2136.39849,0.00267
2134.33831,0.00183
2132.27814,0.00191
2130.21797,0.00194
2128.15780,0.00187
2126.09762,0.00256
2124.03745,0.00331
2121.97728,0.00368
2119.91711,0.00412
2117.85694,0.00393
2115.79676,0.00313
2113.73659,0.00304
2111.67642,0.00344
2109.61625,0.00358
2107.55608,0.00352
2105.49590,0.00321
2103.43573,0.00306
2101.37556,0.00315
2099.31539,0.00296
2097.25521,0.00285
2095.19504,0.00328
2093.13487,0.00393
2091.07470,0.00429
2089.01453,0.00438
2086.95435,0.00444
2084.89418,0.00427
2082.83401,0.00384
2080.77384,0.00355
2078.71367,0.00335
2076.65349,0.00302
2074.59332,0.00299
2072.53315,0.00326
2070.47298,0.00310
2068.41281,0.00278
2066.35263,0.00285
2064.29246,0.00297
2062.23229,0.00299
2060.17212,0.00333
2058.11194,0.00384
2056.05177,0.00409
2053.99160,0.00441
2051.93143,0.00455
2049.87126,0.00402
2047.81108,0.00379
2045.75091,0.00433
2043.69074,0.00434
2041.63057,0.00313
2039.57040,0.00145
2037.51022,0.00063
2035.45005,0.00153
2033.38988,0.00321
2031.32971,0.00405
2029.26954,0.00407
2027.20936,0.00355
2025.14919,0.00262
2023.08902,0.00221
2021.02885,0.00260
2018.96867,0.00281
2016.90850,0.00218
2014.84833,0.00154
2012.78816,0.00129
2010.72799,0.00069
2008.66781,0.00000
2006.60764,0.00014
2004.54747,0.00107
2002.48730,0.00205
2000.42713,0.00247
1998.36695,0.00213
1996.30678,0.00193
1994.24661,0.00254
1992.18644,0.00297
1990.12626,0.00277
1988.06609,0.00298
1986.00592,0.00395
1983.94575,0.00448
1981.88558,0.00339
1979.82540,0.00125
1977.76523,0.00000
1975.70506,0.00068
1973.64489,0.00184
1971.58472,0.00192
1969.52454,0.00165
1967.46437,0.00165
1965.40420,0.00132
1963.34403,0.00080
1961.28386,0.00034
1959.22368,0.00011
1957.16351,0.00048
1955.10334,0.00104
1953.04317,0.00123
1950.98299,0.00127
1948.92282,0.00164
1946.86265,0.00186
1944.80248,0.00118
1942.74231,0.00028
1940.68213,0.00035
1938.62196,0.00114
1936.56179,0.00175
1934.50162,0.00193
1932.44145,0.00198
1930.38127,0.00186
1928.32110,0.00134
1926.26093,0.00099
1924.20076,0.00145
1922.14059,0.00207
1920.08041,0.00211
1918.02024,0.00195
1915.96007,0.00190
1913.89990,0.00169
1911.83972,0.00149
1909.77955,0.00173
1907.71938,0.00211
1905.65921,0.00191
1903.59904,0.00134
1901.53886,0.00105
1899.47869,0.00104
1897.41852,0.00110
1895.35835,0.00117
1893.29818,0.00119
1891.23800,0.00138
1889.17783,0.00164
1887.11766,0.00150
1885.05749,0.00116
1882.99731,0.00125
1880.93714,0.00170
1878.87697,0.00194
1876.81680,0.00179
1874.75663,0.00144
1872.69645,0.00109
1870.63628,0.00106
1868.57611,0.00151
1866.51594,0.00197
1864.45577,0.00192
1862.39559,0.00152
1860.33542,0.00119
1858.27525,0.00126
1856.21508,0.00153
1854.15491,0.00158
1852.09473,0.00141
1850.03456,0.00111
1847.97439,0.00071
1845.91422,0.00051
1843.85404,0.00077
1841.79387,0.00108
1839.73370,0.00104
1837.67353,0.00084
1835.61336,0.00078
1833.55318,0.00087
1831.49301,0.00095
1829.43284,0.00101
1827.37267,0.00113
1825.31250,0.00112
1823.25232,0.00092
1821.19215,0.00074
1819.13198,0.00071
1817.07181,0.00074
1815.01163,0.00076
1812.95146,0.00073
1810.89129,0.00073
1808.83112,0.00082
1806.77095,0.00090
1804.71077,0.00096
1802.65060,0.00099
1800.59043,0.00098
1798.53026,0.00096
1796.47009,0.00100
1794.40991,0.00109
1792.34974,0.00111
1790.28957,0.00108
1788.22940,0.00101
1786.16923,0.00085
1784.10905,0.00073
1782.04888,0.00089
1779.98871,0.00117
1777.92854,0.00114
1775.86836,0.00083
1773.80819,0.00069
1771.74802,0.00100
1769.68785,0.00150
1767.62768,0.00182
1765.56750,0.00185
1763.50733,0.00174
1761.44716,0.00176
1759.38699,0.00202
1757.32682,0.00245
1755.26664,0.00282
1753.20647,0.00306
1751.14630,0.00340
1749.08613,0.00387
1747.02596,0.00417
1744.96578,0.00436
1742.90561,0.00460
1740.84544,0.00486
1738.78527,0.00503
1736.72509,0.00513
1734.66492,0.00533
1732.60475,0.00558
1730.54458,0.00556
1728.48441,0.00540
1726.42423,0.00534
1724.36406,0.00533
1722.30389,0.00518
1720.24372,0.00489
1718.18355,0.00466
1716.12337,0.00457
1714.06320,0.00442
1712.00303,0.00407
1709.94286,0.00367
1707.88268,0.00338
1705.82251,0.00328
1703.76234,0.00323
1701.70217,0.00315
1699.64200,0.00317
1697.58182,0.00328
1695.52165,0.00331
1693.46148,0.00333
1691.40131,0.00340
1689.34114,0.00352
1687.28096,0.00368
1685.22079,0.00409
1683.16062,0.00472
1681.10045,0.00509
1679.04028,0.00520
1676.98010,0.00531
1674.91993,0.00553
1672.85976,0.00582
1670.79959,0.00625
1668.73941,0.00696
1666.67924,0.00762
1664.61907,0.00802
1662.55890,0.00845
1660.49873,0.00894
1658.43855,0.00920
1656.37838,0.00920
1654.31821,0.00928
1652.25804,0.00978
1650.19787,0.01020
1648.13769,0.01048
1646.07752,0.01100
1644.01735,0.01137
1641.95718,0.01130
1639.89701,0.01122
1637.83683,0.01148
1635.77666,0.01191
1633.71649,0.01213
1631.65632,0.01214
1629.59614,0.01211
1627.53597,0.01203
1625.47580,0.01191
1623.41563,0.01187
1621.35546,0.01188
1619.29528,0.01189
1617.23511,0.01203
1615.17494,0.01219
1613.11477,0.01206
1611.05460,0.01176
1608.99442,0.01148
1606.93425,0.01115
1604.87408,0.01071
1602.81391,0.01024
1600.75373,0.00975
1598.69356,0.00921
1596.63339,0.00854
1594.57322,0.00783
1592.51305,0.00713
1590.45287,0.00647
1588.39270,0.00589
1586.33253,0.00543
1584.27236,0.00504
1582.21219,0.00469
1580.15201,0.00430
1578.09184,0.00393
1576.03167,0.00371
1573.97150,0.00355
1571.91133,0.00332
1569.85115,0.00308
1567.79098,0.00282
1565.73081,0.00253
1563.67064,0.00218
1561.61046,0.00177
1559.55029,0.00165
1557.49012,0.00205
1555.42995,0.00215
1553.36978,0.00186
1551.30960,0.00154
1549.24943,0.00125
1547.18926,0.00097
1545.12909,0.00077
1543.06892,0.00085
1541.00874,0.00120
1538.94857,0.00141
1536.88840,0.00124
1534.82823,0.00091
1532.76805,0.00056
1530.70788,0.00025
1528.64771,0.00010
1526.58754,0.00015
1524.52737,0.00029
1522.46719,0.00048
1520.40702,0.00072
1518.34685,0.00083
1516.28668,0.00081
1514.22651,0.00070
1512.16633,0.00052
1510.10616,0.00035
1508.04599,0.00035
1505.98582,0.00060
1503.92565,0.00077
1501.86547,0.00069
1499.80530,0.00056
1497.74513,0.00058
1495.68496,0.00063
1493.62478,0.00054
1491.56461,0.00052
1489.50444,0.00073
1487.44427,0.00101
1485.38410,0.00119
1483.32392,0.00131
1481.26375,0.00148
1479.20358,0.00173
1477.14341,0.00206
1475.08324,0.00258
1473.02306,0.00328
1470.96289,0.00375
1468.90272,0.00377
1466.84255,0.00375
1464.78238,0.00398
1462.72220,0.00430
1460.66203,0.00462
1458.60186,0.00515
1456.54169,0.00574
1454.48151,0.00592
1452.42134,0.00582
1450.36117,0.00581
1448.30100,0.00607
1446.24083,0.00650
1444.18065,0.00674
1442.12048,0.00672
1440.06031,0.00668
1438.00014,0.00691
1435.93997,0.00743
1433.87979,0.00784
1431.81962,0.00801
1429.75945,0.00819
1427.69928,0.00844
1425.63910,0.00871
1423.57893,0.00898
1421.51876,0.00918
1419.45859,0.00932
1417.39842,0.00947
1415.33824,0.00952
1413.27807,0.00950
1411.21790,0.00944
1409.15773,0.00931
1407.09756,0.00912
1405.03738,0.00893
1402.97721,0.00869
1400.91704,0.00836
1398.85687,0.00802
1396.79670,0.00781
1394.73652,0.00776
1392.67635,0.00778
1390.61618,0.00779
1388.55601,0.00780
1386.49583,0.00783
1384.43566,0.00783
1382.37549,0.00783
1380.31532,0.00795
1378.25515,0.00820
1376.19497,0.00849
1374.13480,0.00877
1372.07463,0.00898
1370.01446,0.00905
1367.95429,0.00896
1365.89411,0.00874
1363.83394,0.00851
1361.77377,0.00835
1359.71360,0.00824
1357.65343,0.00818
1355.59325,0.00815
1353.53308,0.00807
1351.47291,0.00791
1349.41274,0.00775
1347.35256,0.00768
1345.29239,0.00761
1343.23222,0.00741
1341.17205,0.00723
1339.11188,0.00720
1337.05170,0.00724
1334.99153,0.00724
1332.93136,0.00725
1330.87119,0.00734
1328.81102,0.00741
1326.75084,0.00741
1324.69067,0.00740
1322.63050,0.00744
1320.57033,0.00752
1318.51015,0.00763
1316.44998,0.00769
1314.38981,0.00764
1312.32964,0.00755
1310.26947,0.00752
1308.20929,0.00748
1306.14912,0.00730
1304.08895,0.00707
1302.02878,0.00693
1299.96861,0.00682
1297.90843,0.00668
1295.84826,0.00651
1293.78809,0.00635
1291.72792,0.00629
1289.66775,0.00633
1287.60757,0.00638
1285.54740,0.00636
1283.48723,0.00630
1281.42706,0.00619
1279.36688,0.00605
1277.30671,0.00605
1275.24654,0.00629
1273.18637,0.00662
1271.12620,0.00685
1269.06602,0.00698
1267.00585,0.00717
1264.94568,0.00748
1262.88551,0.00790
1260.82534,0.00835
1258.76516,0.00873
1256.70499,0.00899
1254.64482,0.00913
1252.58465,0.00931
1250.52447,0.00951
1248.46430,0.00950
1246.40413,0.00945
1244.34396,0.00955
1242.28379,0.00952
1240.22361,0.00923
1238.16344,0.00901
1236.10327,0.00892
1234.04310,0.00874
1231.98293,0.00843
1229.92275,0.00795
1227.86258,0.00745
1225.80241,0.00718
1223.74224,0.00699
1221.68207,0.00662
1219.62189,0.00608
1217.56172,0.00562
1215.50155,0.00538
1213.44138,0.00516
1211.38120,0.00476
1209.32103,0.00422
1207.26086,0.00366
1205.20069,0.00311
1203.14052,0.00262
1201.08034,0.00208
1199.02017,0.00145
1196.96000,0.00095
1194.89983,0.00049
1192.83966,0.00010
1190.77948,0.00000
1188.71931,0.00000
1186.65914,0.00006
1184.59897,0.00015
1182.53880,0.00031
1180.47862,0.00057
1178.41845,0.00096
1176.35828,0.00153
1174.29811,0.00219
1172.23793,0.00289
1170.17776,0.00361
1168.11759,0.00434
1166.05742,0.00506
1163.99725,0.00570
1161.93707,0.00635
1159.87690,0.00695
1157.81673,0.00735
1155.75656,0.00779
1153.69639,0.00843
1151.63621,0.00910
1149.57604,0.00963
1147.51587,0.00996
1145.45570,0.01009
1143.39552,0.01023
1141.33535,0.01049
1139.27518,0.01075
1137.21501,0.01097
1135.15484,0.01123
1133.09466,0.01158
1131.03449,0.01199
1128.97432,0.01251
1126.91415,0.01314
1124.85398,0.01370
1122.79380,0.01408
1120.73363,0.01444
1118.67346,0.01484
1116.61329,0.01528
1114.55312,0.01582
1112.49294,0.01632
1110.43277,0.01674
1108.37260,0.01737
1106.31243,0.01819
1104.25225,0.01892
1102.19208,0.01963
1100.13191,0.02037
1098.07174,0.02115
1096.01157,0.02199
1093.95139,0.02290
1091.89122,0.02377
1089.83105,0.02450
1087.77088,0.02513
1085.71071,0.02575
1083.65053,0.02645
1081.59036,0.02718
1079.53019,0.02788
1077.47002,0.02860
1075.40985,0.02933
1073.34967,0.03004
1071.28950,0.03072
1069.22933,0.03124
1067.16916,0.03150
1065.10898,0.03172
1063.04881,0.03201
1060.98864,0.03235
1058.92847,0.03276
1056.86830,0.03323
1054.80812,0.03361
1052.74795,0.03396
1050.68778,0.03444
1048.62761,0.03495
1046.56744,0.03540
1044.50726,0.03589
1042.44709,0.03659
1040.38692,0.03740
1038.32675,0.03797
1036.26657,0.03820
1034.20640,0.03816
1032.14623,0.03802
1030.08606,0.03808
1028.02589,0.03832
1025.96571,0.03847
1023.90554,0.03845
1021.84537,0.03833
1019.78520,0.03818
1017.72503,0.03818
1015.66485,0.03833
1013.60468,0.03851
1011.54451,0.03862
1009.48434,0.03856
1007.42417,0.03834
1005.36399,0.03795
1003.30382,0.03745
1001.24365,0.03700
999.18348,0.03658
997.12330,0.03606
995.06313,0.03542
993.00296,0.03478
990.94279,0.03416
988.88262,0.03361
986.82244,0.03323
984.76227,0.03299
982.70210,0.03268
980.64193,0.03235
978.58176,0.03209
976.52158,0.03170
974.46141,0.03117
972.40124,0.03074
970.34107,0.03035
968.28089,0.02985
966.22072,0.02941
964.16055,0.02910
962.10038,0.02876
960.04021,0.02822
957.98003,0.02745
955.91986,0.02673
953.85969,0.02611
951.79952,0.02541
949.73935,0.02468
947.67917,0.02390
945.61900,0.02289
943.55883,0.02175
941.49866,0.02052
939.43849,0.01907
937.37831,0.01735
935.31814,0.01563
933.25797,0.01431
931.19780,0.01321
929.13762,0.01195
927.07745,0.01064
925.01728,0.00958
922.95711,0.00888
920.89694,0.00845
918.83676,0.00802
916.77659,0.00732
914.71642,0.00650
912.65625,0.00588
910.59608,0.00542
908.53590,0.00501
906.47573,0.00471
904.41556,0.00461
902.35539,0.00474
900.29522,0.00486
898.23504,0.00501
896.17487,0.00535
894.11470,0.00545
892.05453,0.00504
889.99435,0.00454
887.93418,0.00433
885.87401,0.00434
883.81384,0.00413
881.75367,0.00367
879.69349,0.00323
877.63332,0.00286
875.57315,0.00277
873.51298,0.00292
871.45281,0.00292
869.39263,0.00266
867.33246,0.00241
865.27229,0.00233
863.21212,0.00238
861.15194,0.00240
859.09177,0.00220
857.03160,0.00198
854.97143,0.00206
852.91126,0.00236
850.85108,0.00241
848.79091,0.00204
846.73074,0.00168
844.67057,0.00165
842.61040,0.00166
840.55022,0.00145
838.49005,0.00104
836.42988,0.00073
834.36971,0.00065
832.30954,0.00057
830.24936,0.00026
828.18919,0.00000
826.12902,0.00010
824.06885,0.00038
822.00867,0.00051
819.94850,0.00055
817.88833,0.00063
815.82816,0.00069
813.76799,0.00074
811.70781,0.00103
809.64764,0.00143
807.58747,0.00164
805.52730,0.00171
803.46713,0.00164
801.40695,0.00138
799.34678,0.00102
797.28661,0.00071
795.22644,0.00058
793.16627,0.00058
791.10609,0.00062
789.04592,0.00059
786.98575,0.00037
784.92558,0.00018
782.86540,0.00034
780.80523,0.00053
778.74506,0.00032
776.68489,-0.00003
774.62472,-0.00007
772.56454,0.00025
770.50437,0.00049
768.44420,0.00049
766.38403,0.00070
764.32386,0.00090
762.26368,0.00066
760.20351,0.00037
758.14334,0.00013
756.08317,-0.00006
754.02299,-0.00009
751.96282,0.00000
749.90265,0.00017
747.84248,0.00011
745.78231,-0.00007
743.72213,0.00005
741.66196,0.00026
739.60179,0.00016
737.54162,-0.00018
735.48145,-0.00066
733.42127,-0.00113
731.36110,-0.00114
729.30093,-0.00035
727.24076,0.00068
725.18059,0.00113
723.12041,0.00098
721.06024,0.00036
719.00007,0.00011
716.93990,0.00031
714.87972,0.00101
712.81955,0.00194
710.75938,0.00256
708.69921,0.00275
706.63904,0.00272
704.57886,0.00272
702.51869,0.00278
700.45852,0.00279
698.39835,0.00260
696.33818,0.00225
694.27800,0.00191
692.21783,0.00154
690.15766,0.00116
688.09749,0.00109
686.03731,0.00141
683.97714,0.00189
681.91697,0.00212
679.85680,0.00197
677.79663,0.00216
675.73645,0.00299
673.67628,0.00383
671.61611,0.00414
669.55594,0.00235
667.49577,0.00116
665.43559,0.00412
663.37542,0.00311
661.31525,0.00171
659.25508,0.00171
657.19491,0.00234
655.13473,0.00293
653.07456,0.00314
651.01439,0.00300
648.95422,0.00295
646.89404,0.00334
644.83387,0.00418
642.77370,0.00553
640.71353,0.00597
638.65336,0.00496
636.59318,0.00394
634.53301,0.00335
632.47284,0.00275
630.41267,0.00200
628.35250,0.00093
626.29232,0.00000
624.23215,0.00028
622.17198,0.00128
620.11181,0.00157
618.05164,0.00194
615.99146,0.00292
613.93129,0.00406
611.87112,0.00402
609.81095,0.00229
607.75077,0.00147
605.69060,0.00178
603.63043,0.00102
601.57026,0.00013
599.51009,0.00000
