3996.73391,0.00003
3994.67373,0.00014
3992.61356,0.00007
3990.55339,-0.00002
3988.49322,-0.00001
3986.43305,0.00006
3984.37287,0.00018
3982.31270,0.00024
3980.25253,0.00018
3978.19236,0.00018
3976.13219,0.00026
3974.07201,0.00029
3972.01184,0.00016
3969.95167,-0.00001
3967.89150,0.00009
3965.83133,0.00039
3963.77115,0.00052
3961.71098,0.00039
3959.65081,0.00012
3957.59064,0.00000
3955.53046,0.00020
3953.47029,0.00049
3951.41012,0.00079
3949.34995,0.00103
3947.28978,0.00097
3945.22960,0.00066
3943.16943,0.00052
3941.10926,0.00050
3939.04909,0.00044
3936.98892,0.00047
3934.92874,0.00061
3932.86857,0.00060
3930.80840,0.00029
3928.74823,0.00000
3926.68805,0.00011
3924.62788,0.00056
3922.56771,0.00097
3920.50754,0.00112
3918.44737,0.00096
3916.38719,0.00071
3914.32702,0.00061
3912.26685,0.00069
3910.20668,0.00090
3908.14651,0.00110
3906.08633,0.00112
3904.02616,0.00094
3901.96599,0.00071
3899.90582,0.00072
3897.84565,0.00100
3895.78547,0.00116
3893.72530,0.00099
3891.66513,0.00076
3889.60496,0.00074
3887.54478,0.00082
3885.48461,0.00084
3883.42444,0.00073
3881.36427,0.00077
3879.30410,0.00107
3877.24392,0.00126
3875.18375,0.00130
3873.12358,0.00136
3871.06341,0.00137
3869.00324,0.00119
3866.94306,0.00088
3864.88289,0.00076
3862.82272,0.00086
3860.76255,0.00082
3858.70237,0.00061
3856.64220,0.00051
3854.58203,0.00057
3852.52186,0.00055
3850.46169,0.00044
3848.40151,0.00041
3846.34134,0.00049
3844.28117,0.00068
3842.22100,0.00086
3840.16083,0.00089
3838.10065,0.00098
3836.04048,0.00128
3833.98031,0.00155
3831.92014,0.00158
3829.85997,0.00123
3827.79979,0.00078
3825.73962,0.00066
3823.67945,0.00089
3821.61928,0.00118
3819.55910,0.00136
3817.49893,0.00139
3815.43876,0.00108
3813.37859,0.00048
3811.31842,0.00007
3809.25824,0.00003
3807.19807,0.00032
3805.13790,0.00065
3803.07773,0.00068
3801.01756,0.00065
3798.95738,0.00070
3796.89721,0.00073
3794.83704,0.00079
3792.77687,0.00083
3790.71670,0.00081
3788.65652,0.00079
3786.59635,0.00084
3784.53618,0.00087
3782.47601,0.00089
3780.41583,0.00113
3778.35566,0.00144
3776.29549,0.00138
3774.23532,0.00105
3772.17515,0.00085
3770.11497,0.00091
3768.05480,0.00097
3765.99463,0.00084
3763.93446,0.00066
3761.87429,0.00052
3759.81411,0.00054
3757.75394,0.00075
3755.69377,0.00086
3753.63360,0.00061
3751.57342,0.00023
3749.51325,0.00020
3747.45308,0.00056
3745.39291,0.00113
3743.33274,0.00145
3741.27256,0.00125
3739.21239,0.00085
3737.15222,0.00051
3735.09205,0.00045
3733.03188,0.00057
3730.97170,0.00055
3728.91153,0.00057
3726.85136,0.00084
3724.79119,0.00106
3722.73102,0.00102
3720.67084,0.00105
3718.61067,0.00125
3716.55050,0.00138
3714.49033,0.00135
3712.43015,0.00120
3710.36998,0.00112
3708.30981,0.00103
3706.24964,0.00069
3704.18947,0.00026
3702.12929,0.00010
3700.06912,0.00027
3698.00895,0.00056
3695.94878,0.00075
3693.88861,0.00071
3691.82843,0.00059
3689.76826,0.00081
3687.70809,0.00119
3685.64792,0.00132
3683.58775,0.00128
3681.52757,0.00118
3679.46740,0.00100
3677.40723,0.00108
3675.34706,0.00169
3673.28688,0.00206
3671.22671,0.00181
3669.16654,0.00170
3667.10637,0.00197
3665.04620,0.00219
3662.98602,0.00232
3660.92585,0.00233
3658.86568,0.00223
3656.80551,0.00226
3654.74534,0.00242
3652.68516,0.00246
3650.62499,0.00259
3648.56482,0.00295
3646.50465,0.00317
3644.44447,0.00307
3642.38430,0.00288
3640.32413,0.00293
3638.26396,0.00323
3636.20379,0.00354
3634.14361,0.00384
3632.08344,0.00421
3630.02327,0.00453
3627.96310,0.00469
3625.90293,0.00462
3623.84275,0.00460
3621.78258,0.00488
3619.72241,0.00542
3617.66224,0.00586
3615.60207,0.00604
3613.54189,0.00608
3611.48172,0.00592
3609.42155,0.00568
3607.36138,0.00560
3605.30120,0.00575
3603.24103,0.00614
3601.18086,0.00649
3599.12069,0.00648
3597.06052,0.00661
3595.00034,0.00746
3592.94017,0.00858
3590.88000,0.00910
3588.81983,0.00890
3586.75966,0.00854
3584.69948,0.00868
3582.63931,0.00916
3580.57914,0.00952
3578.51897,0.00975
3576.45879,0.01005
3574.39862,0.01032
3572.33845,0.01058
3570.27828,0.01093
3568.21811,0.01113
3566.15793,0.01106
3564.09776,0.01114
3562.03759,0.01173
3559.97742,0.01244
3557.91725,0.01268
3555.85707,0.01240
3553.79690,0.01210
3551.73673,0.01225
3549.67656,0.01285
3547.61639,0.01352
3545.55621,0.01385
3543.49604,0.01387
3541.43587,0.01398
3539.37570,0.01431
3537.31552,0.01481
3535.25535,0.01528
3533.19518,0.01543
3531.13501,0.01539
3529.07484,0.01552
3527.01466,0.01578
3524.95449,0.01595
3522.89432,0.01602
3520.83415,0.01610
3518.77398,0.01634
3516.71380,0.01671
3514.65363,0.01702
3512.59346,0.01724
3510.53329,0.01757
3508.47312,0.01803
3506.41294,0.01833
3504.35277,0.01848
3502.29260,0.01859
3500.23243,0.01856
3498.17225,0.01863
3496.11208,0.01894
3494.05191,0.01907
3491.99174,0.01901
3489.93157,0.01918
3487.87139,0.01962
3485.81122,0.01999
3483.75105,0.02014
3481.69088,0.02020
3479.63071,0.02038
3477.57053,0.02076
3475.51036,0.02119
3473.45019,0.02149
3471.39002,0.02169
3469.32984,0.02183
3467.26967,0.02190
3465.20950,0.02201
3463.14933,0.02237
3461.08916,0.02279
3459.02898,0.02292
3456.96881,0.02270
3454.90864,0.02251
3452.84847,0.02273
3450.78830,0.02321
3448.72812,0.02350
3446.66795,0.02358
3444.60778,0.02371
3442.54761,0.02375
3440.48744,0.02384
3438.42726,0.02417
3436.36709,0.02440
3434.30692,0.02444
3432.24675,0.02459
3430.18657,0.02478
3428.12640,0.02483
3426.06623,0.02496
3424.00606,0.02537
3421.94589,0.02573
3419.88571,0.02579
3417.82554,0.02589
3415.76537,0.02631
3413.70520,0.02673
3411.64503,0.02681
3409.58485,0.02660
3407.52468,0.02652
3405.46451,0.02676
3403.40434,0.02706
3401.34416,0.02729
3399.28399,0.02755
3397.22382,0.02763
3395.16365,0.02742
3393.10348,0.02716
3391.04330,0.02722
3388.98313,0.02768
3386.92296,0.02810
3384.86279,0.02817
3382.80262,0.02813
3380.74244,0.02819
3378.68227,0.02833
3376.62210,0.02846
3374.56193,0.02859
3372.50176,0.02865
3370.44158,0.02857
3368.38141,0.02858
3366.32124,0.02883
3364.26107,0.02909
3362.20089,0.02915
3360.14072,0.02909
3358.08055,0.02912
3356.02038,0.02929
3353.96021,0.02948
3351.90003,0.02957
3349.83986,0.02958
3347.77969,0.02955
3345.71952,0.02960
3343.65935,0.02986
3341.59917,0.02999
3339.53900,0.02972
3337.47883,0.02937
3335.41866,0.02932
3333.35849,0.02948
3331.29831,0.02957
3329.23814,0.02955
3327.17797,0.02967
3325.11780,0.02988
3323.05762,0.03008
3320.99745,0.03023
3318.93728,0.03010
3316.87711,0.02962
3314.81694,0.02935
3312.75676,0.02950
3310.69659,0.02957
3308.63642,0.02950
3306.57625,0.02963
3304.51608,0.02971
3302.45590,0.02942
3300.39573,0.02913
3298.33556,0.02937
3296.27539,0.02992
3294.21521,0.03020
3292.15504,0.03016
3290.09487,0.03012
3288.03470,0.03015
3285.97453,0.03009
3283.91435,0.03000
3281.85418,0.03000
3279.79401,0.03007
3277.73384,0.03016
3275.67367,0.03027
3273.61349,0.03032
3271.55332,0.03019
3269.49315,0.03009
3267.43298,0.03024
3265.37281,0.03035
3263.31263,0.03018
3261.25246,0.02986
3259.19229,0.02954
3257.13212,0.02942
3255.07194,0.02966
3253.01177,0.03001
3250.95160,0.03018
3248.89143,0.03020
3246.83126,0.03002
3244.77108,0.02969
3242.71091,0.02954
3240.65074,0.02954
3238.59057,0.02942
3236.53040,0.02934
3234.47022,0.02935
3232.41005,0.02924
3230.34988,0.02908
3228.28971,0.02900
3226.22954,0.02881
3224.16936,0.02849
3222.10919,0.02826
3220.04902,0.02836
3217.98885,0.02877
3215.92867,0.02894
3213.86850,0.02872
3211.80833,0.02844
3209.74816,0.02826
3207.68799,0.02804
3205.62781,0.02775
3203.56764,0.02757
3201.50747,0.02751
3199.44730,0.02741
3197.38713,0.02723
3195.32695,0.02710
3193.26678,0.02701
3191.20661,0.02681
3189.14644,0.02659
3187.08626,0.02643
3185.02609,0.02620
3182.96592,0.02595
3180.90575,0.02573
3178.84558,0.02557
3176.78540,0.02553
3174.72523,0.02550
3172.66506,0.02546
3170.60489,0.02532
3168.54472,0.02504
3166.48454,0.02477
3164.42437,0.02450
3162.36420,0.02425
3160.30403,0.02421
3158.24386,0.02417
3156.18368,0.02395
3154.12351,0.02363
3152.06334,0.02327
3150.00317,0.02305
3147.94299,0.02291
3145.88282,0.02270
3143.82265,0.02257
3141.76248,0.02256
3139.70231,0.02245
3137.64213,0.02214
3135.58196,0.02183
3133.52179,0.02161
3131.46162,0.02136
3129.40145,0.02117
3127.34127,0.02120
3125.28110,0.02126
3123.22093,0.02112
3121.16076,0.02086
3119.10058,0.02061
3117.04041,0.02032
3114.98024,0.02001
3112.92007,0.01978
3110.85990,0.01964
3108.79972,0.01943
3106.73955,0.01910
3104.67938,0.01886
3102.61921,0.01881
3100.55904,0.01877
3098.49886,0.01860
3096.43869,0.01833
3094.37852,0.01805
3092.31835,0.01790
3090.25818,0.01777
3088.19800,0.01760
3086.13783,0.01744
3084.07766,0.01723
3082.01749,0.01705
3079.95731,0.01697
3077.89714,0.01688
3075.83697,0.01666
3073.77680,0.01641
3071.71663,0.01629
3069.65645,0.01618
3067.59628,0.01594
3065.53611,0.01570
3063.47594,0.01553
3061.41577,0.01528
3059.35559,0.01506
3057.29542,0.01500
3055.23525,0.01490
3053.17508,0.01473
3051.11491,0.01465
3049.05473,0.01453
3046.99456,0.01431
3044.93439,0.01414
3042.87422,0.01410
3040.81404,0.01403
3038.75387,0.01375
3036.69370,0.01348
3034.63353,0.01340
3032.57336,0.01328
3030.51318,0.01293
3028.45301,0.01255
3026.39284,0.01235
3024.33267,0.01233
3022.27250,0.01240
3020.21232,0.01245
3018.15215,0.01238
3016.09198,0.01224
3014.03181,0.01213
3011.97163,0.01213
3009.91146,0.01214
3007.85129,0.01205
3005.79112,0.01193
3003.73095,0.01171
3001.67077,0.01148
2999.61060,0.01137
2997.55043,0.01141
2995.49026,0.01156
2993.43009,0.01170
2991.36991,0.01169
2989.30974,0.01156
2987.24957,0.01138
2985.18940,0.01133
2983.12923,0.01141
2981.06905,0.01158
2979.00888,0.01185
2976.94871,0.01198
2974.88854,0.01194
2972.82836,0.01199
2970.76819,0.01220
2968.70802,0.01249
2966.64785,0.01269
2964.58768,0.01274
2962.52750,0.01282
2960.46733,0.01307
2958.40716,0.01336
2956.34699,0.01363
2954.28682,0.01389
2952.22664,0.01413
2950.16647,0.01442
2948.10630,0.01472
2946.04613,0.01491
2943.98596,0.01503
2941.92578,0.01520
2939.86561,0.01538
2937.80544,0.01555
2935.74527,0.01572
2933.68509,0.01581
2931.62492,0.01568
2929.56475,0.01535
2927.50458,0.01512
2925.44441,0.01505
2923.38423,0.01509
2921.32406,0.01523
2919.26389,0.01534
2917.20372,0.01531
2915.14355,0.01509
2913.08337,0.01472
2911.02320,0.01435
2908.96303,0.01422
2906.90286,0.01433
2904.84268,0.01441
2902.78251,0.01431
2900.72234,0.01423
2898.66217,0.01420
2896.60200,0.01404
2894.54182,0.01382
2892.48165,0.01372
2890.42148,0.01380
2888.36131,0.01394
2886.30114,0.01395
2884.24096,0.01379
2882.18079,0.01370
2880.12062,0.01373
2878.06045,0.01366
2876.00028,0.01342
2873.94010,0.01311
2871.87993,0.01291
2869.81976,0.01289
2867.75959,0.01275
2865.69941,0.01246
2863.63924,0.01225
2861.57907,0.01208
2859.51890,0.01180
2857.45873,0.01161
2855.39855,0.01162
2853.33838,0.01151
2851.27821,0.01122
2849.21804,0.01092
2847.15787,0.01072
2845.09769,0.01066
2843.03752,0.01064
2840.97735,0.01061
2838.91718,0.01059
2836.85700,0.01049
2834.79683,0.01029
2832.73666,0.01010
2830.67649,0.01001
2828.61632,0.00999
2826.55614,0.00995
2824.49597,0.00993
2822.43580,0.01000
2820.37563,0.00992
2818.31546,0.00960
2816.25528,0.00932
2814.19511,0.00921
2812.13494,0.00926
2810.07477,0.00932
2808.01460,0.00924
2805.95442,0.00915
2803.89425,0.00909
2801.83408,0.00896
2799.77391,0.00884
2797.71373,0.00882
2795.65356,0.00891
2793.59339,0.00906
2791.53322,0.00919
2789.47305,0.00925
2787.41287,0.00908
2785.35270,0.00867
2783.29253,0.00833
2781.23236,0.00834
2779.17219,0.00855
2777.11201,0.00858
2775.05184,0.00844
2772.99167,0.00838
2770.93150,0.00839
2768.87133,0.00831
2766.81115,0.00817
2764.75098,0.00807
2762.69081,0.00800
2760.63064,0.00798
2758.57046,0.00799
2756.51029,0.00798
2754.45012,0.00804
2752.38995,0.00815
2750.32978,0.00808
2748.26960,0.00789
2746.20943,0.00784
2744.14926,0.00795
2742.08909,0.00802
2740.02892,0.00786
2737.96874,0.00760
2735.90857,0.00746
2733.84840,0.00739
2731.78823,0.00732
2729.72805,0.00740
2727.66788,0.00754
2725.60771,0.00749
2723.54754,0.00731
2721.48737,0.00722
2719.42719,0.00731
2717.36702,0.00747
2715.30685,0.00753
2713.24668,0.00756
2711.18651,0.00757
2709.12633,0.00749
2707.06616,0.00742
2705.00599,0.00743
2702.94582,0.00739
2700.88565,0.00727
2698.82547,0.00716
2696.76530,0.00713
2694.70513,0.00711
2692.64496,0.00700
2690.58478,0.00693
2688.52461,0.00684
2686.46444,0.00672
2684.40427,0.00671
2682.34410,0.00688
2680.28392,0.00701
2678.22375,0.00695
2676.16358,0.00681
2674.10341,0.00680
2672.04324,0.00682
2669.98306,0.00673
2667.92289,0.00663
2665.86272,0.00661
2663.80255,0.00666
2661.74238,0.00668
2659.68220,0.00664
2657.62203,0.00666
2655.56186,0.00682
2653.50169,0.00689
2651.44151,0.00674
2649.38134,0.00663
2647.32117,0.00663
2645.26100,0.00653
2643.20083,0.00633
2641.14065,0.00624
2639.08048,0.00626
2637.02031,0.00618
2634.96014,0.00608
2632.89997,0.00603
2630.83979,0.00582
2628.77962,0.00555
2626.71945,0.00545
2624.65928,0.00544
2622.59910,0.00539
2620.53893,0.00533
2618.47876,0.00543
2616.41859,0.00563
2614.35842,0.00570
2612.29824,0.00561
2610.23807,0.00557
2608.17790,0.00556
2606.11773,0.00541
2604.05756,0.00523
2601.99738,0.00523
2599.93721,0.00531
2597.87704,0.00531
2595.81687,0.00511
2593.75670,0.00486
2591.69652,0.00496
2589.63635,0.00521
2587.57618,0.00508
2585.51601,0.00465
2583.45583,0.00437
2581.39566,0.00435
2579.33549,0.00443
2577.27532,0.00455
2575.21515,0.00473
2573.15497,0.00486
2571.09480,0.00475
2569.03463,0.00452
2566.97446,0.00464
2564.91429,0.00502
2562.85411,0.00510
2560.79394,0.00491
2558.73377,0.00483
2556.67360,0.00478
2554.61342,0.00477
2552.55325,0.00511
2550.49308,0.00538
2548.43291,0.00506
2546.37274,0.00455
2544.31256,0.00427
2542.25239,0.00436
2540.19222,0.00464
2538.13205,0.00462
2536.07188,0.00434
2534.01170,0.00423
2531.95153,0.00431
2529.89136,0.00449
2527.83119,0.00465
2525.77102,0.00458
2523.71084,0.00448
2521.65067,0.00452
2519.59050,0.00456
2517.53033,0.00463
2515.47015,0.00472
2513.40998,0.00449
2511.34981,0.00395
2509.28964,0.00382
2507.22947,0.00411
2505.16929,0.00422
2503.10912,0.00418
2501.04895,0.00424
2498.98878,0.00426
2496.92861,0.00429
2494.86843,0.00440
2492.80826,0.00439
2490.74809,0.00434
2488.68792,0.00436
2486.62775,0.00427
2484.56757,0.00402
2482.50740,0.00394
2480.44723,0.00405
2478.38706,0.00399
2476.32688,0.00389
2474.26671,0.00376
2472.20654,0.00366
2470.14637,0.00386
2468.08620,0.00407
2466.02602,0.00404
2463.96585,0.00391
2461.90568,0.00377
2459.84551,0.00368
2457.78534,0.00345
2455.72516,0.00318
2453.66499,0.00322
2451.60482,0.00347
2449.54465,0.00362
2447.48447,0.00374
2445.42430,0.00399
2443.36413,0.00410
2441.30396,0.00392
2439.24379,0.00388
2437.18361,0.00403
2435.12344,0.00399
2433.06327,0.00387
2431.00310,0.00382
2428.94293,0.00376
2426.88275,0.00374
2424.82258,0.00374
2422.76241,0.00375
2420.70224,0.00373
2418.64207,0.00370
2416.58189,0.00376
2414.52172,0.00391
2412.46155,0.00400
2410.40138,0.00396
2408.34120,0.00386
2406.28103,0.00367
2404.22086,0.00339
2402.16069,0.00328
2400.10052,0.00353
2398.04034,0.00362
2395.98017,0.00350
2393.92000,0.00336
2391.85983,0.00333
2389.79966,0.00339
2387.73948,0.00344
2385.67931,0.00342
2383.61914,0.00346
2381.55897,0.00364
2379.49880,0.00375
2377.43862,0.00361
2375.37845,0.00337
2373.31828,0.00315
2371.25811,0.00313
2369.19793,0.00373
2367.13776,0.00477
2365.07759,0.00541
2363.01742,0.00521
2360.95725,0.00465
2358.89707,0.00427
2356.83690,0.00386
2354.77673,0.00329
2352.71656,0.00265
2350.65639,0.00228
2348.59621,0.00231
2346.53604,0.00264
2344.47587,0.00334
2342.41570,0.00411
2340.35552,0.00410
2338.29535,0.00335
2336.23518,0.00251
2334.17501,0.00212
2332.11484,0.00266
2330.05466,0.00365
2327.99449,0.00399
2325.93432,0.00384
2323.87415,0.00400
2321.81398,0.00451
2319.75380,0.00477
2317.69363,0.00424
2315.63346,0.00329
2313.57329,0.00290
2311.51312,0.00334
2309.45294,0.00391
2307.39277,0.00410
2305.33260,0.00406
2303.27243,0.00405
2301.21225,0.00402
2299.15208,0.00387
2297.09191,0.00366
2295.03174,0.00358
2292.97157,0.00374
2290.91139,0.00420
2288.85122,0.00473
2286.79105,0.00491
2284.73088,0.00479
2282.67071,0.00457
2280.61053,0.00431
2278.55036,0.00391
2276.49019,0.00351
2274.43002,0.00344
2272.36984,0.00361
2270.30967,0.00376
2268.24950,0.00393
2266.18933,0.00398
2264.12916,0.00369
2262.06898,0.00307
2260.00881,0.00258
2257.94864,0.00290
2255.88847,0.00365
2253.82830,0.00381
2251.76812,0.00347
2249.70795,0.00338
2247.64778,0.00369
2245.58761,0.00380
2243.52744,0.00332
2241.46726,0.00257
2239.40709,0.00225
2237.34692,0.00222
2235.28675,0.00193
2233.22657,0.00209
2231.16640,0.00323
2229.10623,0.00439
2227.04606,0.00443
2224.98589,0.00344
2222.92571,0.00290
2220.86554,0.00311
2218.80537,0.00357
2216.74520,0.00421
2214.68503,0.00424
2212.62485,0.00355
2210.56468,0.00297
2208.50451,0.00268
2206.44434,0.00235
2204.38417,0.00200
2202.32399,0.00229
2200.26382,0.00326
2198.20365,0.00413
2196.14348,0.00413
2194.08330,0.00331
2192.02313,0.00251
2189.96296,0.00204
2187.90279,0.00204
2185.84262,0.00269
2183.78244,0.00309
2181.72227,0.00320
2179.66210,0.00369
2177.60193,0.00367
2175.54176,0.00311
2173.48158,0.00256
2171.42141,0.00209
2169.36124,0.00230
2167.30107,0.00309
2165.24089,0.00379
2163.18072,0.00379
2161.12055,0.00246
2159.06038,0.00118
2157.00021,0.00142
2154.94003,0.00211
2152.87986,0.00237
2150.81969,0.00209
2148.75952,0.00198
2146.69935,0.00230
2144.63917,0.00226
2142.57900,0.00226
2140.51883,0.00269
2138.45866,0.00268
2136.39849,0.00179
2134.33831,0.00088
2132.27814,0.00079
2130.21797,0.00145
2128.15780,0.00246
2126.09762,0.00337
2124.03745,0.00359
2121.97728,0.00310
2119.91711,0.00271
2117.85694,0.00269
2115.79676,0.00268
2113.73659,0.00255
2111.67642,0.00254
2109.61625,0.00311
2107.55608,0.00372
2105.49590,0.00370
2103.43573,0.00374
2101.37556,0.00398
2099.31539,0.00353
2097.25521,0.00285
2095.19504,0.00301
2093.13487,0.00366
2091.07470,0.00391
2089.01453,0.00369
2086.95435,0.00366
2084.89418,0.00422
2082.83401,0.00456
2080.77384,0.00389
2078.71367,0.00296
2076.65349,0.00283
2074.59332,0.00307
2072.53315,0.00321
2070.47298,0.00323
2068.41281,0.00260
2066.35263,0.00160
2064.29246,0.00132
2062.23229,0.00185
2060.17212,0.00274
2058.11194,0.00340
2056.05177,0.00309
2053.99160,0.00244
2051.93143,0.00264
2049.87126,0.00346
2047.81108,0.00392
2045.75091,0.00361
2043.69074,0.00287
2041.63057,0.00230
2039.57040,0.00252
2037.51022,0.00295
2035.45005,0.00278
2033.38988,0.00242
2031.32971,0.00218
2029.26954,0.00172
2027.20936,0.00088
2025.14919,0.00034
2023.08902,0.00033
2021.02885,0.00039
2018.96867,0.00062
2016.90850,0.00145
2014.84833,0.00263
2012.78816,0.00320
2010.72799,0.00273
2008.66781,0.00154
2006.60764,0.00046
2004.54747,0.00000
2002.48730,0.00038
2000.42713,0.00168
1998.36695,0.00265
1996.30678,0.00225
1994.24661,0.00143
1992.18644,0.00159
1990.12626,0.00255
1988.06609,0.00328
1986.00592,0.00281
1983.94575,0.00148
1981.88558,0.00102
1979.82540,0.00143
1977.76523,0.00101
1975.70506,0.00024
1973.64489,0.00069
1971.58472,0.00155
1969.52454,0.00137
1967.46437,0.00052
1965.40420,0.00014
1963.34403,0.00015
1961.28386,0.00035
1959.22368,0.00087
1957.16351,0.00123
1955.10334,0.00109
1953.04317,0.00094
1950.98299,0.00134
1948.92282,0.00158
1946.86265,0.00095
1944.80248,0.00059
1942.74231,0.00123
1940.68213,0.00179
1938.62196,0.00145
1936.56179,0.00079
1934.50162,0.00049
1932.44145,0.00054
1930.38127,0.00067
1928.32110,0.00080
1926.26093,0.00088
1924.20076,0.00098
1922.14059,0.00110
1920.08041,0.00119
1918.02024,0.00138
1915.96007,0.00165
1913.89990,0.00177
1911.83972,0.00186
1909.77955,0.00199
1907.71938,0.00204
1905.65921,0.00191
1903.59904,0.00159
1901.53886,0.00117
1899.47869,0.00092
1897.41852,0.00094
1895.35835,0.00120
1893.29818,0.00144
1891.23800,0.00139
1889.17783,0.00108
1887.11766,0.00087
1885.05749,0.00103
1882.99731,0.00137
1880.93714,0.00156
1878.87697,0.00171
1876.81680,0.00180
1874.75663,0.00156
1872.69645,0.00121
1870.63628,0.00108
1868.57611,0.00115
1866.51594,0.00130
1864.45577,0.00147
1862.39559,0.00159
1860.33542,0.00155
1858.27525,0.00137
1856.21508,0.00111
1854.15491,0.00085
1852.09473,0.00077
1850.03456,0.00089
1847.97439,0.00106
1845.91422,0.00104
1843.85404,0.00088
1841.79387,0.00083
1839.73370,0.00092
1837.67353,0.00109
1835.61336,0.00125
1833.55318,0.00109
1831.49301,0.00060
1829.43284,0.00031
1827.37267,0.00048
1825.31250,0.00073
1823.25232,0.00076
1821.19215,0.00050
1819.13198,0.00013
1817.07181,0.00000
1815.01163,0.00022
1812.95146,0.00052
1810.89129,0.00072
1808.83112,0.00073
1806.77095,0.00062
1804.71077,0.00063
1802.65060,0.00082
1800.59043,0.00101
1798.53026,0.00111
1796.47009,0.00104
1794.40991,0.00073
1792.34974,0.00041
1790.28957,0.00043
1788.22940,0.00072
1786.16923,0.00087
1784.10905,0.00075
1782.04888,0.00052
1779.98871,0.00033
1777.92854,0.00016
1775.86836,0.00008
1773.80819,0.00020
1771.74802,0.00057
1769.68785,0.00094
1767.62768,0.00111
1765.56750,0.00122
1763.50733,0.00136
1761.44716,0.00152
1759.38699,0.00185
1757.32682,0.00236
1755.26664,0.00284
1753.20647,0.00312
1751.14630,0.00343
1749.08613,0.00401
1747.02596,0.00463
1744.96578,0.00497
1742.90561,0.00504
1740.84544,0.00507
1738.78527,0.00523
1736.72509,0.00548
1734.66492,0.00561
1732.60475,0.00556
1730.54458,0.00547
1728.48441,0.00539
1726.42423,0.00536
1724.36406,0.00536
1722.30389,0.00532
1720.24372,0.00525
1718.18355,0.00517
1716.12337,0.00493
1714.06320,0.00458
1712.00303,0.00429
1709.94286,0.00410
1707.88268,0.00404
1705.82251,0.00400
1703.76234,0.00391
1701.70217,0.00379
1699.64200,0.00364
1697.58182,0.00348
1695.52165,0.00343
1693.46148,0.00348
1691.40131,0.00365
1689.34114,0.00392
1687.28096,0.00427
1685.22079,0.00471
1683.16062,0.00519
1681.10045,0.00556
1679.04028,0.00583
1676.98010,0.00619
1674.91993,0.00671
1672.85976,0.00717
1670.79959,0.00745
1668.73941,0.00780
1666.67924,0.00826
1664.61907,0.00873
1662.55890,0.00927
1660.49873,0.00985
1658.43855,0.01033
1656.37838,0.01073
1654.31821,0.01115
1652.25804,0.01153
1650.19787,0.01176
1648.13769,0.01197
1646.07752,0.01219
1644.01735,0.01231
1641.95718,0.01242
1639.89701,0.01262
1637.83683,0.01290
1635.77666,0.01316
1633.71649,0.01325
1631.65632,0.01319
1629.59614,0.01321
1627.53597,0.01329
1625.47580,0.01327
1623.41563,0.01320
1621.35546,0.01316
1619.29528,0.01313
1617.23511,0.01314
1615.17494,0.01326
1613.11477,0.01335
1611.05460,0.01333
1608.99442,0.01315
1606.93425,0.01272
1604.87408,0.01212
1602.81391,0.01163
1600.75373,0.01121
1598.69356,0.01065
1596.63339,0.00993
1594.57322,0.00921
1592.51305,0.00859
1590.45287,0.00805
1588.39270,0.00752
1586.33253,0.00696
1584.27236,0.00643
1582.21219,0.00592
1580.15201,0.00541
1578.09184,0.00489
1576.03167,0.00439
1573.97150,0.00399
1571.91133,0.00360
1569.85115,0.00316
1567.79098,0.00286
1565.73081,0.00272
1563.67064,0.00254
1561.61046,0.00222
1559.55029,0.00192
1557.49012,0.00192
1555.42995,0.00195
1553.36978,0.00180
1551.30960,0.00157
1549.24943,0.00148
1547.18926,0.00148
1545.12909,0.00129
1543.06892,0.00091
1541.00874,0.00075
1538.94857,0.00100
1536.88840,0.00109
1534.82823,0.00095
1532.76805,0.00094
1530.70788,0.00107
1528.64771,0.00108
1526.58754,0.00092
1524.52737,0.00077
1522.46719,0.00081
1520.40702,0.00095
1518.34685,0.00103
1516.28668,0.00099
1514.22651,0.00093
1512.16633,0.00100
1510.10616,0.00125
1508.04599,0.00154
1505.98582,0.00153
1503.92565,0.00124
1501.86547,0.00097
1499.80530,0.00084
1497.74513,0.00086
1495.68496,0.00093
1493.62478,0.00091
1491.56461,0.00090
1489.50444,0.00114
1487.44427,0.00154
1485.38410,0.00178
1483.32392,0.00187
1481.26375,0.00197
1479.20358,0.00209
1477.14341,0.00231
1475.08324,0.00273
1473.02306,0.00335
1470.96289,0.00401
1468.90272,0.00451
1466.84255,0.00491
1464.78238,0.00526
1462.72220,0.00546
1460.66203,0.00559
1458.60186,0.00590
1456.54169,0.00642
1454.48151,0.00680
1452.42134,0.00697
1450.36117,0.00710
1448.30100,0.00722
1446.24083,0.00726
1444.18065,0.00732
1442.12048,0.00751
1440.06031,0.00783
1438.00014,0.00830
1435.93997,0.00882
1433.87979,0.00909
1431.81962,0.00918
1429.75945,0.00933
1427.69928,0.00961
1425.63910,0.00993
1423.57893,0.01029
1421.51876,0.01066
1419.45859,0.01087
1417.39842,0.01083
1415.33824,0.01080
1413.27807,0.01095
1411.21790,0.01105
1409.15773,0.01086
1407.09756,0.01048
1405.03738,0.01019
1402.97721,0.01007
1400.91704,0.00993
1398.85687,0.00968
1396.79670,0.00938
1394.73652,0.00913
1392.67635,0.00898
1390.61618,0.00894
1388.55601,0.00902
1386.49583,0.00926
1384.43566,0.00959
1382.37549,0.00988
1380.31532,0.01004
1378.25515,0.01012
1376.19497,0.01023
1374.13480,0.01042
1372.07463,0.01058
1370.01446,0.01061
1367.95429,0.01055
1365.89411,0.01043
1363.83394,0.01024
1361.77377,0.01006
1359.71360,0.00996
1357.65343,0.00991
1355.59325,0.00984
1353.53308,0.00973
1351.47291,0.00960
1349.41274,0.00946
1347.35256,0.00931
1345.29239,0.00910
1343.23222,0.00890
1341.17205,0.00878
1339.11188,0.00869
1337.05170,0.00866
1334.99153,0.00876
1332.93136,0.00889
1330.87119,0.00891
1328.81102,0.00886
1326.75084,0.00883
1324.69067,0.00888
1322.63050,0.00894
1320.57033,0.00903
1318.51015,0.00914
1316.44998,0.00916
1314.38981,0.00912
1312.32964,0.00908
1310.26947,0.00897
1308.20929,0.00872
1306.14912,0.00835
1304.08895,0.00807
1302.02878,0.00800
1299.96861,0.00796
1297.90843,0.00781
1295.84826,0.00767
1293.78809,0.00760
1291.72792,0.00753
1289.66775,0.00750
1287.60757,0.00757
1285.54740,0.00758
1283.48723,0.00745
1281.42706,0.00734
1279.36688,0.00733
1277.30671,0.00738
1275.24654,0.00748
1273.18637,0.00766
1271.12620,0.00789
1269.06602,0.00818
1267.00585,0.00859
1264.94568,0.00902
1262.88551,0.00937
1260.82534,0.00971
1258.76516,0.01004
1256.70499,0.01035
1254.64482,0.01069
1252.58465,0.01096
1250.52447,0.01113
1248.46430,0.01123
1246.40413,0.01128
1244.34396,0.01120
1242.28379,0.01098
1240.22361,0.01073
1238.16344,0.01050
1236.10327,0.01032
1234.04310,0.01011
1231.98293,0.00973
1229.92275,0.00922
1227.86258,0.00871
1225.80241,0.00833
1223.74224,0.00813
1221.68207,0.00784
1219.62189,0.00730
1217.56172,0.00669
1215.50155,0.00619
1213.44138,0.00574
1211.38120,0.00525
1209.32103,0.00471
1207.26086,0.00414
1205.20069,0.00359
1203.14052,0.00298
1201.08034,0.00227
1199.02017,0.00164
1196.96000,0.00122
1194.89983,0.00083
1192.83966,0.00040
1190.77948,0.00015
1188.71931,0.00006
1186.65914,0.00000
1184.59897,0.00004
1182.53880,0.00030
1180.47862,0.00073
1178.41845,0.00116
1176.35828,0.00167
1174.29811,0.00240
1172.23793,0.00317
1170.17776,0.00389
1168.11759,0.00468
1166.05742,0.00550
1163.99725,0.00621
1161.93707,0.00683
1159.87690,0.00759
1157.81673,0.00848
1155.75656,0.00935
1153.69639,0.01003
1151.63621,0.01059
1149.57604,0.01117
1147.51587,0.01159
1145.45570,0.01178
1143.39552,0.01193
1141.33535,0.01206
1139.27518,0.01226
1137.21501,0.01255
1135.15484,0.01297
1133.09466,0.01352
1131.03449,0.01402
1128.97432,0.01449
1126.91415,0.01511
1124.85398,0.01583
1122.79380,0.01660
1120.73363,0.01729
1118.67346,0.01781
1116.61329,0.01832
1114.55312,0.01899
1112.49294,0.01971
1110.43277,0.02025
1108.37260,0.02065
1106.31243,0.02118
1104.25225,0.02197
1102.19208,0.02295
1100.13191,0.02408
1098.07174,0.02527
1096.01157,0.02643
1093.95139,0.02752
1091.89122,0.02849
1089.83105,0.02940
1087.77088,0.03021
1085.71071,0.03082
1083.65053,0.03144
1081.59036,0.03224
1079.53019,0.03320
1077.47002,0.03428
1075.40985,0.03539
1073.34967,0.03644
1071.28950,0.03719
1069.22933,0.03764
1067.16916,0.03811
1065.10898,0.03860
1063.04881,0.03898
1060.98864,0.03931
1058.92847,0.03957
1056.86830,0.03983
1054.80812,0.04025
1052.74795,0.04082
1050.68778,0.04142
1048.62761,0.04196
1046.56744,0.04254
1044.50726,0.04327
1042.44709,0.04408
1040.38692,0.04479
1038.32675,0.04534
1036.26657,0.04570
1034.20640,0.04577
1032.14623,0.04570
1030.08606,0.04567
1028.02589,0.04575
1025.96571,0.04597
1023.90554,0.04613
1021.84537,0.04602
1019.78520,0.04573
1017.72503,0.04562
1015.66485,0.04571
1013.60468,0.04581
1011.54451,0.04574
1009.48434,0.04542
1007.42417,0.04500
1005.36399,0.04466
1003.30382,0.04441
1001.24365,0.04403
999.18348,0.04341
997.12330,0.04272
995.06313,0.04202
993.00296,0.04130
990.94279,0.04067
988.88262,0.04029
986.82244,0.03991
984.76227,0.03945
982.70210,0.03905
980.64193,0.03854
978.58176,0.03785
976.52158,0.03726
974.46141,0.03679
972.40124,0.03625
970.34107,0.03567
968.28089,0.03504
966.22072,0.03430
964.16055,0.03355
962.10038,0.03274
960.04021,0.03189
957.98003,0.03122
955.91986,0.03063
953.85969,0.02993
951.79952,0.02914
949.73935,0.02828
947.67917,0.02729
945.61900,0.02615
943.55883,0.02467
941.49866,0.02283
939.43849,0.02107
937.37831,0.01943
935.31814,0.01774
933.25797,0.01613
931.19780,0.01480
929.13762,0.01366
927.07745,0.01251
925.01728,0.01148
922.95711,0.01052
920.89694,0.00958
918.83676,0.00871
916.77659,0.00788
914.71642,0.00718
912.65625,0.00669
910.59608,0.00632
908.53590,0.00599
906.47573,0.00575
904.41556,0.00561
902.35539,0.00558
900.29522,0.00579
898.23504,0.00601
896.17487,0.00596
894.11470,0.00585
892.05453,0.00573
889.99435,0.00538
887.93418,0.00489
885.87401,0.00457
883.81384,0.00422
881.75367,0.00381
879.69349,0.00375
877.63332,0.00391
875.57315,0.00382
873.51298,0.00362
871.45281,0.00354
869.39263,0.00345
867.33246,0.00331
865.27229,0.00309
863.21212,0.00272
861.15194,0.00247
859.09177,0.00241
857.03160,0.00237
854.97143,0.00244
852.91126,0.00260
850.85108,0.00262
848.79091,0.00244
846.73074,0.00237
844.67057,0.00232
842.61040,0.00188
840.55022,0.00123
838.49005,0.00103
836.42988,0.00123
834.36971,0.00107
832.30954,0.00045
830.24936,0.00000
828.18919,0.00001
826.12902,0.00034
824.06885,0.00068
822.00867,0.00079
819.94850,0.00071
817.88833,0.00081
815.82816,0.00117
813.76799,0.00139
811.70781,0.00119
809.64764,0.00103
807.58747,0.00129
805.52730,0.00159
803.46713,0.00160
801.40695,0.00160
799.34678,0.00153
797.28661,0.00099
795.22644,0.00040
793.16627,0.00046
791.10609,0.00072
789.04592,0.00061
786.98575,0.00050
784.92558,0.00060
782.86540,0.00074
780.80523,0.00081
778.74506,0.00072
776.68489,0.00078
774.62472,0.00100
772.56454,0.00104
770.50437,0.00108
768.44420,0.00146
766.38403,0.00210
764.32386,0.00252
762.26368,0.00223
760.20351,0.00172
758.14334,0.00170
756.08317,0.00176
754.02299,0.00153
751.96282,0.00124
749.90265,0.00101
747.84248,0.00122
745.78231,0.00179
743.72213,0.00176
741.66196,0.00104
739.60179,0.00029
737.54162,0.00000
735.48145,0.00045
733.42127,0.00124
731.36110,0.00148
729.30093,0.00139
727.24076,0.00140
725.18059,0.00118
723.12041,0.00104
721.06024,0.00127
719.00007,0.00158
716.93990,0.00179
714.87972,0.00197
712.81955,0.00206
710.75938,0.00211
708.69921,0.00213
706.63904,0.00210
704.57886,0.00226
702.51869,0.00266
700.45852,0.00300
698.39835,0.00303
696.33818,0.00285
694.27800,0.00253
692.21783,0.00207
690.15766,0.00191
688.09749,0.00201
686.03731,0.00167
683.97714,0.00127
681.91697,0.00161
679.85680,0.00194
677.79663,0.00170
675.73645,0.00132
673.67628,0.00080
671.61611,0.00032
669.55594,0.00053
667.49577,0.00105
665.43559,0.00083
663.37542,0.00032
661.31525,0.00025
659.25508,0.00051
657.19491,0.00038
655.13473,0.00033
653.07456,0.00099
651.01439,0.00135
648.95422,0.00099
646.89404,0.00088
644.83387,0.00101
642.77370,0.00069
640.71353,0.00025
638.65336,0.00054
636.59318,0.00147
634.53301,0.00192
632.47284,0.00156
630.41267,0.00148
628.35250,0.00250
626.29232,0.00409
624.23215,0.00484
622.17198,0.00432
620.11181,0.00318
618.05164,0.00275
615.99146,0.00251
613.93129,0.00194
611.87112,0.00193
609.81095,0.00164
607.75077,0.00151
605.69060,0.00242
603.63043,0.00222
601.57026,0.00061
599.51009,0.00000
