3996.73391	0.00057
3994.67373	0.00067
3992.61356	0.00068
3990.55339	0.00058
3988.49322	0.00044
3986.43305	0.00038
3984.37287	0.00039
3982.31270	0.00041
3980.25253	0.00041
3978.19236	0.00035
3976.13219	0.00026
3974.07201	0.00021
3972.01184	0.00030
3969.95167	0.00051
3967.89150	0.00071
3965.83133	0.00077
3963.77115	0.00061
3961.71098	0.00032
3959.65081	0.00007
3957.59064	0.00000
3955.53046	0.00008
3953.47029	0.00020
3951.41012	0.00034
3949.34995	0.00055
3947.28978	0.00076
3945.22960	0.00080
3943.16943	0.00065
3941.10926	0.00051
3939.04909	0.00054
3936.98892	0.00068
3934.92874	0.00071
3932.86857	0.00060
3930.80840	0.00052
3928.74823	0.00057
3926.68805	0.00071
3924.62788	0.00083
3922.56771	0.00086
3920.50754	0.00082
3918.44737	0.00076
3916.38719	0.00075
3914.32702	0.00080
3912.26685	0.00084
3910.20668	0.00079
3908.14651	0.00071
3906.08633	0.00070
3904.02616	0.00075
3901.96599	0.00082
3899.90582	0.00091
3897.84565	0.00102
3895.78547	0.00109
3893.72530	0.00110
3891.66513	0.00101
3889.60496	0.00085
3887.54478	0.00072
3885.48461	0.00065
3883.42444	0.00063
3881.36427	0.00063
3879.30410	0.00067
3877.24392	0.00075
3875.18375	0.00082
3873.12358	0.00083
3871.06341	0.00077
3869.00324	0.00069
3866.94306	0.00066
3864.88289	0.00071
3862.82272	0.00082
3860.76255	0.00087
3858.70237	0.00087
3856.64220	0.00092
3854.58203	0.00105
3852.52186	0.00118
3850.46169	0.00117
3848.40151	0.00101
3846.34134	0.00086
3844.28117	0.00079
3842.22100	0.00078
3840.16083	0.00069
3838.10065	0.00049
3836.04048	0.00026
3833.98031	0.00013
3831.92014	0.00015
3829.85997	0.00029
3827.79979	0.00046
3825.73962	0.00062
3823.67945	0.00076
3821.61928	0.00082
3819.55910	0.00072
3817.49893	0.00051
3815.43876	0.00034
3813.37859	0.00027
3811.31842	0.00024
3809.25824	0.00019
3807.19807	0.00018
3805.13790	0.00025
3803.07773	0.00041
3801.01756	0.00061
3798.95738	0.00070
3796.89721	0.00064
3794.83704	0.00052
3792.77687	0.00045
3790.71670	0.00047
3788.65652	0.00053
3786.59635	0.00058
3784.53618	0.00056
3782.47601	0.00051
3780.41583	0.00053
3778.35566	0.00068
3776.29549	0.00089
3774.23532	0.00112
3772.17515	0.00133
3770.11497	0.00141
3768.05480	0.00130
3765.99463	0.00105
3763.93446	0.00079
3761.87429	0.00059
3759.81411	0.00047
3757.75394	0.00046
3755.69377	0.00061
3753.63360	0.00091
3751.57342	0.00129
3749.51325	0.00163
3747.45308	0.00189
3745.39291	0.00202
3743.33274	0.00194
3741.27256	0.00173
3739.21239	0.00153
3737.15222	0.00139
3735.09205	0.00128
3733.03188	0.00111
3730.97170	0.00079
3728.91153	0.00044
3726.85136	0.00023
3724.79119	0.00028
3722.73102	0.00053
3720.67084	0.00086
3718.61067	0.00115
3716.55050	0.00137
3714.49033	0.00156
3712.43015	0.00173
3710.36998	0.00182
3708.30981	0.00174
3706.24964	0.00152
3704.18947	0.00127
3702.12929	0.00107
3700.06912	0.00093
3698.00895	0.00085
3695.94878	0.00084
3693.88861	0.00086
3691.82843	0.00081
3689.76826	0.00066
3687.70809	0.00042
3685.64792	0.00021
3683.58775	0.00023
3681.52757	0.00052
3679.46740	0.00091
3677.40723	0.00116
3675.34706	0.00114
3673.28688	0.00101
3671.22671	0.00094
3669.16654	0.00095
3667.10637	0.00095
3665.04620	0.00094
3662.98602	0.00095
3660.92585	0.00095
3658.86568	0.00091
3656.80551	0.00088
3654.74534	0.00089
3652.68516	0.00098
3650.62499	0.00116
3648.56482	0.00146
3646.50465	0.00175
3644.44447	0.00195
3642.38430	0.00207
3640.32413	0.00217
3638.26396	0.00231
3636.20379	0.00253
3634.14361	0.00281
3632.08344	0.00314
3630.02327	0.00345
3627.96310	0.00373
3625.90293	0.00398
3623.84275	0.00424
3621.78258	0.00455
3619.72241	0.00481
3617.66224	0.00495
3615.60207	0.00494
3613.54189	0.00491
3611.48172	0.00495
3609.42155	0.00515
3607.36138	0.00553
3605.30120	0.00601
3603.24103	0.00645
3601.18086	0.00670
3599.12069	0.00672
3597.06052	0.00663
3595.00034	0.00659
3592.94017	0.00668
3590.88000	0.00692
3588.81983	0.00725
3586.75966	0.00756
3584.69948	0.00777
3582.63931	0.00793
3580.57914	0.00813
3578.51897	0.00842
3576.45879	0.00873
3574.39862	0.00898
3572.33845	0.00912
3570.27828	0.00923
3568.21811	0.00944
3566.15793	0.00983
3564.09776	0.01036
3562.03759	0.01090
3559.97742	0.01140
3557.91725	0.01185
3555.85707	0.01227
3553.79690	0.01266
3551.73673	0.01298
3549.67656	0.01321
3547.61639	0.01343
3545.55621	0.01369
3543.49604	0.01400
3541.43587	0.01436
3539.37570	0.01476
3537.31552	0.01515
3535.25535	0.01550
3533.19518	0.01582
3531.13501	0.01613
3529.07484	0.01644
3527.01466	0.01675
3524.95449	0.01707
3522.89432	0.01741
3520.83415	0.01777
3518.77398	0.01815
3516.71380	0.01857
3514.65363	0.01900
3512.59346	0.01935
3510.53329	0.01960
3508.47312	0.01981
3506.41294	0.02008
3504.35277	0.02045
3502.29260	0.02092
3500.23243	0.02148
3498.17225	0.02204
3496.11208	0.02254
3494.05191	0.02299
3491.99174	0.02335
3489.93157	0.02362
3487.87139	0.02384
3485.81122	0.02400
3483.75105	0.02410
3481.69088	0.02416
3479.63071	0.02429
3477.57053	0.02456
3475.51036	0.02501
3473.45019	0.02562
3471.39002	0.02636
3469.32984	0.02708
3467.26967	0.02764
3465.20950	0.02797
3463.14933	0.02815
3461.08916	0.02827
3459.02898	0.02838
3456.96881	0.02856
3454.90864	0.02881
3452.84847	0.02912
3450.78830	0.02945
3448.72812	0.02977
3446.66795	0.03006
3444.60778	0.03036
3442.54761	0.03066
3440.48744	0.03097
3438.42726	0.03127
3436.36709	0.03157
3434.30692	0.03189
3432.24675	0.03224
3430.18657	0.03259
3428.12640	0.03289
3426.06623	0.03318
3424.00606	0.03349
3421.94589	0.03379
3419.88571	0.03405
3417.82554	0.03428
3415.76537	0.03451
3413.70520	0.03479
3411.64503	0.03512
3409.58485	0.03546
3407.52468	0.03581
3405.46451	0.03616
3403.40434	0.03653
3401.34416	0.03687
3399.28399	0.03715
3397.22382	0.03730
3395.16365	0.03736
3393.10348	0.03732
3391.04330	0.03726
3388.98313	0.03729
3386.92296	0.03744
3384.86279	0.03765
3382.80262	0.03787
3380.74244	0.03811
3378.68227	0.03839
3376.62210	0.03867
3374.56193	0.03891
3372.50176	0.03913
3370.44158	0.03939
3368.38141	0.03971
3366.32124	0.04003
3364.26107	0.04019
3362.20089	0.04013
3360.14072	0.03997
3358.08055	0.03987
3356.02038	0.03993
3353.96021	0.04013
3351.90003	0.04039
3349.83986	0.04062
3347.77969	0.04076
3345.71952	0.04085
3343.65935	0.04101
3341.59917	0.04121
3339.53900	0.04129
3337.47883	0.04118
3335.41866	0.04098
3333.35849	0.04085
3331.29831	0.04086
3329.23814	0.04097
3327.17797	0.04115
3325.11780	0.04137
3323.05762	0.04158
3320.99745	0.04174
3318.93728	0.04184
3316.87711	0.04187
3314.81694	0.04188
3312.75676	0.04188
3310.69659	0.04193
3308.63642	0.04204
3306.57625	0.04216
3304.51608	0.04228
3302.45590	0.04238
3300.39573	0.04243
3298.33556	0.04238
3296.27539	0.04229
3294.21521	0.04222
3292.15504	0.04215
3290.09487	0.04202
3288.03470	0.04184
3285.97453	0.04172
3283.91435	0.04176
3281.85418	0.04194
3279.79401	0.04212
3277.73384	0.04219
3275.67367	0.04215
3273.61349	0.04203
3271.55332	0.04184
3269.49315	0.04162
3267.43298	0.04143
3265.37281	0.04129
3263.31263	0.04115
3261.25246	0.04096
3259.19229	0.04075
3257.13212	0.04060
3255.07194	0.04059
3253.01177	0.04072
3250.95160	0.04093
3248.89143	0.04114
3246.83126	0.04126
3244.77108	0.04121
3242.71091	0.04100
3240.65074	0.04069
3238.59057	0.04038
3236.53040	0.04011
3234.47022	0.03986
3232.41005	0.03964
3230.34988	0.03947
3228.28971	0.03940
3226.22954	0.03945
3224.16936	0.03953
3222.10919	0.03949
3220.04902	0.03931
3217.98885	0.03908
3215.92867	0.03892
3213.86850	0.03883
3211.80833	0.03874
3209.74816	0.03859
3207.68799	0.03840
3205.62781	0.03824
3203.56764	0.03813
3201.50747	0.03800
3199.44730	0.03781
3197.38713	0.03756
3195.32695	0.03727
3193.26678	0.03698
3191.20661	0.03672
3189.14644	0.03647
3187.08626	0.03623
3185.02609	0.03603
3182.96592	0.03591
3180.90575	0.03581
3178.84558	0.03563
3176.78540	0.03536
3174.72523	0.03506
3172.66506	0.03476
3170.60489	0.03452
3168.54472	0.03433
3166.48454	0.03418
3164.42437	0.03404
3162.36420	0.03387
3160.30403	0.03361
3158.24386	0.03324
3156.18368	0.03284
3154.12351	0.03250
3152.06334	0.03229
3150.00317	0.03216
3147.94299	0.03199
3145.88282	0.03178
3143.82265	0.03162
3141.76248	0.03152
3139.70231	0.03136
3137.64213	0.03105
3135.58196	0.03065
3133.52179	0.03030
3131.46162	0.03006
3129.40145	0.02994
3127.34127	0.02986
3125.28110	0.02970
3123.22093	0.02944
3121.16076	0.02915
3119.10058	0.02893
3117.04041	0.02875
3114.98024	0.02855
3112.92007	0.02826
3110.85990	0.02791
3108.79972	0.02757
3106.73955	0.02728
3104.67938	0.02704
3102.61921	0.02683
3100.55904	0.02663
3098.49886	0.02644
3096.43869	0.02629
3094.37852	0.02615
3092.31835	0.02597
3090.25818	0.02571
3088.19800	0.02542
3086.13783	0.02512
3084.07766	0.02486
3082.01749	0.02465
3079.95731	0.02449
3077.89714	0.02431
3075.83697	0.02403
3073.77680	0.02366
3071.71663	0.02332
3069.65645	0.02306
3067.59628	0.02284
3065.53611	0.02264
3063.47594	0.02249
3061.41577	0.02241
3059.35559	0.02232
3057.29542	0.02214
3055.23525	0.02187
3053.17508	0.02159
3051.11491	0.02137
3049.05473	0.02125
3046.99456	0.02121
3044.93439	0.02117
3042.87422	0.02104
3040.81404	0.02079
3038.75387	0.02048
3036.69370	0.02019
3034.63353	0.01996
3032.57336	0.01978
3030.51318	0.01966
3028.45301	0.01961
3026.39284	0.01964
3024.33267	0.01970
3022.27250	0.01970
3020.21232	0.01960
3018.15215	0.01946
3016.09198	0.01935
3014.03181	0.01931
3011.97163	0.01935
3009.91146	0.01943
3007.85129	0.01946
3005.79112	0.01938
3003.73095	0.01925
3001.67077	0.01913
2999.61060	0.01899
2997.55043	0.01876
2995.49026	0.01851
2993.43009	0.01831
2991.36991	0.01823
2989.30974	0.01825
2987.24957	0.01828
2985.18940	0.01836
2983.12923	0.01859
2981.06905	0.01898
2979.00888	0.01951
2976.94871	0.02006
2974.88854	0.02058
2972.82836	0.02115
2970.76819	0.02183
2968.70802	0.02273
2966.64785	0.02391
2964.58768	0.02518
2962.52750	0.02633
2960.46733	0.02746
2958.40716	0.02873
2956.34699	0.03010
2954.28682	0.03147
2952.22664	0.03285
2950.16647	0.03423
2948.10630	0.03566
2946.04613	0.03719
2943.98596	0.03891
2941.92578	0.04082
2939.86561	0.04282
2937.80544	0.04485
2935.74527	0.04687
2933.68509	0.04881
2931.62492	0.05067
2929.56475	0.05236
2927.50458	0.05372
2925.44441	0.05479
2923.38423	0.05570
2921.32406	0.05638
2919.26389	0.05652
2917.20372	0.05581
2915.14355	0.05415
2913.08337	0.05183
2911.02320	0.04936
2908.96303	0.04720
2906.90286	0.04550
2904.84268	0.04412
2902.78251	0.04274
2900.72234	0.04132
2898.66217	0.04005
2896.60200	0.03902
2894.54182	0.03809
2892.48165	0.03714
2890.42148	0.03619
2888.36131	0.03531
2886.30114	0.03452
2884.24096	0.03384
2882.18079	0.03331
2880.12062	0.03299
2878.06045	0.03295
2876.00028	0.03311
2873.94010	0.03333
2871.87993	0.03357
2869.81976	0.03388
2867.75959	0.03434
2865.69941	0.03511
2863.63924	0.03620
2861.57907	0.03751
2859.51890	0.03901
2857.45873	0.04062
2855.39855	0.04215
2853.33838	0.04332
2851.27821	0.04371
2849.21804	0.04275
2847.15787	0.04034
2845.09769	0.03716
2843.03752	0.03414
2840.97735	0.03169
2838.91718	0.02966
2836.85700	0.02798
2834.79683	0.02674
2832.73666	0.02592
2830.67649	0.02531
2828.61632	0.02475
2826.55614	0.02418
2824.49597	0.02361
2822.43580	0.02307
2820.37563	0.02258
2818.31546	0.02212
2816.25528	0.02169
2814.19511	0.02131
2812.13494	0.02098
2810.07477	0.02069
2808.01460	0.02045
2805.95442	0.02026
2803.89425	0.02002
2801.83408	0.01971
2799.77391	0.01946
2797.71373	0.01930
2795.65356	0.01911
2793.59339	0.01893
2791.53322	0.01882
2789.47305	0.01864
2787.41287	0.01829
2785.35270	0.01787
2783.29253	0.01756
2781.23236	0.01745
2779.17219	0.01745
2777.11201	0.01740
2775.05184	0.01732
2772.99167	0.01734
2770.93150	0.01741
2768.87133	0.01727
2766.81115	0.01701
2764.75098	0.01689
2762.69081	0.01688
2760.63064	0.01682
2758.57046	0.01669
2756.51029	0.01658
2754.45012	0.01655
2752.38995	0.01667
2750.32978	0.01681
2748.26960	0.01676
2746.20943	0.01651
2744.14926	0.01620
2742.08909	0.01602
2740.02892	0.01606
2737.96874	0.01623
2735.90857	0.01632
2733.84840	0.01624
2731.78823	0.01611
2729.72805	0.01606
2727.66788	0.01602
2725.60771	0.01592
2723.54754	0.01582
2721.48737	0.01571
2719.42719	0.01566
2717.36702	0.01572
2715.30685	0.01577
2713.24668	0.01570
2711.18651	0.01558
2709.12633	0.01552
2707.06616	0.01553
2705.00599	0.01556
2702.94582	0.01557
2700.88565	0.01552
2698.82547	0.01541
2696.76530	0.01524
2694.70513	0.01507
2692.64496	0.01496
2690.58478	0.01494
2688.52461	0.01495
2686.46444	0.01501
2684.40427	0.01513
2682.34410	0.01521
2680.28392	0.01515
2678.22375	0.01503
2676.16358	0.01491
2674.10341	0.01477
2672.04324	0.01460
2669.98306	0.01450
2667.92289	0.01452
2665.86272	0.01462
2663.80255	0.01466
2661.74238	0.01458
2659.68220	0.01447
2657.62203	0.01434
2655.56186	0.01419
2653.50169	0.01416
2651.44151	0.01420
2649.38134	0.01413
2647.32117	0.01400
2645.26100	0.01395
2643.20083	0.01399
2641.14065	0.01401
2639.08048	0.01392
2637.02031	0.01379
2634.96014	0.01375
2632.89997	0.01370
2630.83979	0.01352
2628.77962	0.01339
2626.71945	0.01338
2624.65928	0.01337
2622.59910	0.01337
2620.53893	0.01342
2618.47876	0.01343
2616.41859	0.01331
2614.35842	0.01315
2612.29824	0.01298
2610.23807	0.01284
2608.17790	0.01283
2606.11773	0.01289
2604.05756	0.01276
2601.99738	0.01241
2599.93721	0.01212
2597.87704	0.01206
2595.81687	0.01201
2593.75670	0.01180
2591.69652	0.01164
2589.63635	0.01164
2587.57618	0.01162
2585.51601	0.01143
2583.45583	0.01119
2581.39566	0.01110
2579.33549	0.01114
2577.27532	0.01116
2575.21515	0.01112
2573.15497	0.01114
2571.09480	0.01116
2569.03463	0.01094
2566.97446	0.01052
2564.91429	0.01035
2562.85411	0.01061
2560.79394	0.01090
2558.73377	0.01091
2556.67360	0.01076
2554.61342	0.01067
2552.55325	0.01058
2550.49308	0.01036
2548.43291	0.01014
2546.37274	0.01016
2544.31256	0.01035
2542.25239	0.01044
2540.19222	0.01032
2538.13205	0.01004
2536.07188	0.00979
2534.01170	0.00973
2531.95153	0.00985
2529.89136	0.01005
2527.83119	0.01022
2525.77102	0.01026
2523.71084	0.01007
2521.65067	0.00966
2519.59050	0.00936
2517.53033	0.00954
2515.47015	0.01002
2513.40998	0.01013
2511.34981	0.00967
2509.28964	0.00909
2507.22947	0.00884
2505.16929	0.00898
2503.10912	0.00935
2501.04895	0.00966
2498.98878	0.00970
2496.92861	0.00952
2494.86843	0.00940
2492.80826	0.00943
2490.74809	0.00953
2488.68792	0.00957
2486.62775	0.00952
2484.56757	0.00946
2482.50740	0.00946
2480.44723	0.00941
2478.38706	0.00913
2476.32688	0.00872
2474.26671	0.00844
2472.20654	0.00845
2470.14637	0.00866
2468.08620	0.00878
2466.02602	0.00863
2463.96585	0.00841
2461.90568	0.00842
2459.84551	0.00861
2457.78534	0.00884
2455.72516	0.00908
2453.66499	0.00925
2451.60482	0.00933
2449.54465	0.00927
2447.48447	0.00908
2445.42430	0.00891
2443.36413	0.00886
2441.30396	0.00888
2439.24379	0.00886
2437.18361	0.00880
2435.12344	0.00875
2433.06327	0.00864
2431.00310	0.00845
2428.94293	0.00822
2426.88275	0.00815
2424.82258	0.00829
2422.76241	0.00841
2420.70224	0.00834
2418.64207	0.00821
2416.58189	0.00829
2414.52172	0.00856
2412.46155	0.00868
2410.40138	0.00857
2408.34120	0.00840
2406.28103	0.00822
2404.22086	0.00810
2402.16069	0.00811
2400.10052	0.00815
2398.04034	0.00803
2395.98017	0.00777
2393.92000	0.00748
2391.85983	0.00729
2389.79966	0.00726
2387.73948	0.00738
2385.67931	0.00753
2383.61914	0.00764
2381.55897	0.00764
2379.49880	0.00757
2377.43862	0.00750
2375.37845	0.00751
2373.31828	0.00748
2371.25811	0.00724
2369.19793	0.00674
2367.13776	0.00613
2365.07759	0.00569
2363.01742	0.00573
2360.95725	0.00633
2358.89707	0.00720
2356.83690	0.00792
2354.77673	0.00831
2352.71656	0.00839
2350.65639	0.00820
2348.59621	0.00772
2346.53604	0.00709
2344.47587	0.00671
2342.41570	0.00680
2340.35552	0.00721
2338.29535	0.00757
2336.23518	0.00765
2334.17501	0.00756
2332.11484	0.00758
2330.05466	0.00787
2327.99449	0.00832
2325.93432	0.00864
2323.87415	0.00866
2321.81398	0.00843
2319.75380	0.00814
2317.69363	0.00787
2315.63346	0.00760
2313.57329	0.00734
2311.51312	0.00713
2309.45294	0.00703
2307.39277	0.00703
2305.33260	0.00707
2303.27243	0.00709
2301.21225	0.00710
2299.15208	0.00713
2297.09191	0.00720
2295.03174	0.00733
2292.97157	0.00757
2290.91139	0.00786
2288.85122	0.00817
2286.79105	0.00842
2284.73088	0.00849
2282.67071	0.00834
2280.61053	0.00808
2278.55036	0.00787
2276.49019	0.00775
2274.43002	0.00763
2272.36984	0.00742
2270.30967	0.00713
2268.24950	0.00684
2266.18933	0.00662
2264.12916	0.00634
2262.06898	0.00597
2260.00881	0.00570
2257.94864	0.00567
2255.88847	0.00586
2253.82830	0.00607
2251.76812	0.00615
2249.70795	0.00607
2247.64778	0.00602
2245.58761	0.00627
2243.52744	0.00649
2241.46726	0.00654
2239.40709	0.00663
2237.34692	0.00680
2235.28675	0.00687
2233.22657	0.00662
2231.16640	0.00622
2229.10623	0.00614
2227.04606	0.00635
2224.98589	0.00629
2222.92571	0.00582
2220.86554	0.00544
2218.80537	0.00565
2216.74520	0.00619
2214.68503	0.00640
2212.62485	0.00610
2210.56468	0.00568
2208.50451	0.00542
2206.44434	0.00516
2204.38417	0.00458
2202.32399	0.00388
2200.26382	0.00374
2198.20365	0.00446
2196.14348	0.00539
2194.08330	0.00583
2192.02313	0.00590
2189.96296	0.00612
2187.90279	0.00654
2185.84262	0.00686
2183.78244	0.00707
2181.72227	0.00725
2179.66210	0.00702
2177.60193	0.00625
2175.54176	0.00550
2173.48158	0.00518
2171.42141	0.00514
2169.36124	0.00511
2167.30107	0.00505
2165.24089	0.00516
2163.18072	0.00514
2161.12055	0.00435
2159.06038	0.00300
2157.00021	0.00188
2154.94003	0.00141
2152.87986	0.00159
2150.81969	0.00194
2148.75952	0.00195
2146.69935	0.00172
2144.63917	0.00181
2142.57900	0.00259
2140.51883	0.00378
2138.45866	0.00463
2136.39849	0.00471
2134.33831	0.00437
2132.27814	0.00408
2130.21797	0.00392
2128.15780	0.00390
2126.09762	0.00413
2124.03745	0.00452
2121.97728	0.00498
2119.91711	0.00541
2117.85694	0.00567
2115.79676	0.00575
2113.73659	0.00583
2111.67642	0.00599
2109.61625	0.00610
2107.55608	0.00611
2105.49590	0.00602
2103.43573	0.00576
2101.37556	0.00543
2099.31539	0.00528
2097.25521	0.00532
2095.19504	0.00540
2093.13487	0.00538
2091.07470	0.00520
2089.01453	0.00497
2086.95435	0.00479
2084.89418	0.00474
2082.83401	0.00484
2080.77384	0.00505
2078.71367	0.00529
2076.65349	0.00553
2074.59332	0.00576
2072.53315	0.00600
2070.47298	0.00627
2068.41281	0.00648
2066.35263	0.00640
2064.29246	0.00588
2062.23229	0.00516
2060.17212	0.00466
2058.11194	0.00452
2056.05177	0.00461
2053.99160	0.00478
2051.93143	0.00503
2049.87126	0.00547
2047.81108	0.00612
2045.75091	0.00670
2043.69074	0.00677
2041.63057	0.00619
2039.57040	0.00523
2037.51022	0.00416
2035.45005	0.00321
2033.38988	0.00257
2031.32971	0.00241
2029.26954	0.00274
2027.20936	0.00328
2025.14919	0.00363
2023.08902	0.00365
2021.02885	0.00343
2018.96867	0.00328
2016.90850	0.00337
2014.84833	0.00362
2012.78816	0.00369
2010.72799	0.00335
2008.66781	0.00271
2006.60764	0.00218
2004.54747	0.00218
2002.48730	0.00268
2000.42713	0.00324
1998.36695	0.00354
1996.30678	0.00368
1994.24661	0.00388
1992.18644	0.00418
1990.12626	0.00435
1988.06609	0.00422
1986.00592	0.00392
1983.94575	0.00361
1981.88558	0.00332
1979.82540	0.00312
1977.76523	0.00306
1975.70506	0.00297
1973.64489	0.00258
1971.58472	0.00197
1969.52454	0.00156
1967.46437	0.00157
1965.40420	0.00191
1963.34403	0.00232
1961.28386	0.00258
1959.22368	0.00269
1957.16351	0.00285
1955.10334	0.00319
1953.04317	0.00354
1950.98299	0.00363
1948.92282	0.00336
1946.86265	0.00283
1944.80248	0.00218
1942.74231	0.00158
1940.68213	0.00129
1938.62196	0.00156
1936.56179	0.00236
1934.50162	0.00324
1932.44145	0.00373
1930.38127	0.00369
1928.32110	0.00337
1926.26093	0.00312
1924.20076	0.00316
1922.14059	0.00344
1920.08041	0.00378
1918.02024	0.00389
1915.96007	0.00370
1913.89990	0.00336
1911.83972	0.00311
1909.77955	0.00300
1907.71938	0.00291
1905.65921	0.00279
1903.59904	0.00266
1901.53886	0.00259
1899.47869	0.00261
1897.41852	0.00271
1895.35835	0.00283
1893.29818	0.00293
1891.23800	0.00303
1889.17783	0.00315
1887.11766	0.00331
1885.05749	0.00346
1882.99731	0.00350
1880.93714	0.00336
1878.87697	0.00310
1876.81680	0.00285
1874.75663	0.00274
1872.69645	0.00270
1870.63628	0.00258
1868.57611	0.00231
1866.51594	0.00200
1864.45577	0.00182
1862.39559	0.00184
1860.33542	0.00204
1858.27525	0.00228
1856.21508	0.00239
1854.15491	0.00233
1852.09473	0.00219
1850.03456	0.00209
1847.97439	0.00207
1845.91422	0.00210
1843.85404	0.00219
1841.79387	0.00237
1839.73370	0.00258
1837.67353	0.00273
1835.61336	0.00276
1833.55318	0.00271
1831.49301	0.00260
1829.43284	0.00247
1827.37267	0.00235
1825.31250	0.00223
1823.25232	0.00209
1821.19215	0.00191
1819.13198	0.00175
1817.07181	0.00168
1815.01163	0.00170
1812.95146	0.00180
1810.89129	0.00193
1808.83112	0.00203
1806.77095	0.00209
1804.71077	0.00210
1802.65060	0.00209
1800.59043	0.00206
1798.53026	0.00201
1796.47009	0.00194
1794.40991	0.00185
1792.34974	0.00172
1790.28957	0.00160
1788.22940	0.00154
1786.16923	0.00156
1784.10905	0.00163
1782.04888	0.00171
1779.98871	0.00171
1777.92854	0.00169
1775.86836	0.00170
1773.80819	0.00181
1771.74802	0.00202
1769.68785	0.00230
1767.62768	0.00264
1765.56750	0.00309
1763.50733	0.00369
1761.44716	0.00450
1759.38699	0.00557
1757.32682	0.00689
1755.26664	0.00836
1753.20647	0.00993
1751.14630	0.01156
1749.08613	0.01316
1747.02596	0.01456
1744.96578	0.01563
1742.90561	0.01636
1740.84544	0.01678
1738.78527	0.01695
1736.72509	0.01691
1734.66492	0.01668
1732.60475	0.01635
1730.54458	0.01603
1728.48441	0.01583
1726.42423	0.01577
1724.36406	0.01581
1722.30389	0.01582
1720.24372	0.01577
1718.18355	0.01568
1716.12337	0.01563
1714.06320	0.01566
1712.00303	0.01573
1709.94286	0.01575
1707.88268	0.01563
1705.82251	0.01538
1703.76234	0.01508
1701.70217	0.01484
1699.64200	0.01479
1697.58182	0.01500
1695.52165	0.01543
1693.46148	0.01603
1691.40131	0.01677
1689.34114	0.01767
1687.28096	0.01878
1685.22079	0.02020
1683.16062	0.02194
1681.10045	0.02375
1679.04028	0.02535
1676.98010	0.02660
1674.91993	0.02744
1672.85976	0.02785
1670.79959	0.02785
1668.73941	0.02750
1666.67924	0.02695
1664.61907	0.02634
1662.55890	0.02574
1660.49873	0.02521
1658.43855	0.02478
1656.37838	0.02445
1654.31821	0.02419
1652.25804	0.02398
1650.19787	0.02383
1648.13769	0.02374
1646.07752	0.02368
1644.01735	0.02372
1641.95718	0.02394
1639.89701	0.02437
1637.83683	0.02496
1635.77666	0.02559
1633.71649	0.02613
1631.65632	0.02656
1629.59614	0.02693
1627.53597	0.02727
1625.47580	0.02756
1623.41563	0.02779
1621.35546	0.02799
1619.29528	0.02820
1617.23511	0.02851
1615.17494	0.02900
1613.11477	0.02974
1611.05460	0.03072
1608.99442	0.03177
1606.93425	0.03255
1604.87408	0.03279
1602.81391	0.03236
1600.75373	0.03140
1598.69356	0.03018
1596.63339	0.02892
1594.57322	0.02779
1592.51305	0.02684
1590.45287	0.02602
1588.39270	0.02520
1586.33253	0.02435
1584.27236	0.02350
1582.21219	0.02272
1580.15201	0.02202
1578.09184	0.02141
1576.03167	0.02087
1573.97150	0.02038
1571.91133	0.01989
1569.85115	0.01930
1567.79098	0.01858
1565.73081	0.01782
1563.67064	0.01708
1561.61046	0.01635
1559.55029	0.01551
1557.49012	0.01456
1555.42995	0.01363
1553.36978	0.01282
1551.30960	0.01212
1549.24943	0.01152
1547.18926	0.01101
1545.12909	0.01058
1543.06892	0.01013
1541.00874	0.00954
1538.94857	0.00885
1536.88840	0.00820
1534.82823	0.00764
1532.76805	0.00716
1530.70788	0.00679
1528.64771	0.00662
1526.58754	0.00669
1524.52737	0.00706
1522.46719	0.00778
1520.40702	0.00878
1518.34685	0.00986
1516.28668	0.01073
1514.22651	0.01110
1512.16633	0.01087
1510.10616	0.01006
1508.04599	0.00877
1505.98582	0.00728
1503.92565	0.00600
1501.86547	0.00508
1499.80530	0.00443
1497.74513	0.00391
1495.68496	0.00345
1493.62478	0.00304
1491.56461	0.00266
1489.50444	0.00232
1487.44427	0.00205
1485.38410	0.00194
1483.32392	0.00205
1481.26375	0.00241
1479.20358	0.00304
1477.14341	0.00399
1475.08324	0.00531
1473.02306	0.00700
1470.96289	0.00891
1468.90272	0.01083
1466.84255	0.01257
1464.78238	0.01403
1462.72220	0.01518
1460.66203	0.01612
1458.60186	0.01699
1456.54169	0.01777
1454.48151	0.01839
1452.42134	0.01886
1450.36117	0.01935
1448.30100	0.01995
1446.24083	0.02068
1444.18065	0.02145
1442.12048	0.02217
1440.06031	0.02280
1438.00014	0.02336
1435.93997	0.02384
1433.87979	0.02418
1431.81962	0.02434
1429.75945	0.02436
1427.69928	0.02436
1425.63910	0.02444
1423.57893	0.02463
1421.51876	0.02489
1419.45859	0.02514
1417.39842	0.02523
1415.33824	0.02512
1413.27807	0.02480
1411.21790	0.02434
1409.15773	0.02381
1407.09756	0.02326
1405.03738	0.02266
1402.97721	0.02198
1400.91704	0.02125
1398.85687	0.02053
1396.79670	0.01988
1394.73652	0.01936
1392.67635	0.01907
1390.61618	0.01905
1388.55601	0.01930
1386.49583	0.01975
1384.43566	0.02031
1382.37549	0.02090
1380.31532	0.02147
1378.25515	0.02199
1376.19497	0.02243
1374.13480	0.02273
1372.07463	0.02287
1370.01446	0.02287
1367.95429	0.02276
1365.89411	0.02255
1363.83394	0.02221
1361.77377	0.02176
1359.71360	0.02132
1357.65343	0.02100
1355.59325	0.02083
1353.53308	0.02078
1351.47291	0.02074
1349.41274	0.02066
1347.35256	0.02051
1345.29239	0.02032
1343.23222	0.02014
1341.17205	0.02002
1339.11188	0.01995
1337.05170	0.01993
1334.99153	0.01992
1332.93136	0.01992
1330.87119	0.01993
1328.81102	0.01998
1326.75084	0.02009
1324.69067	0.02024
1322.63050	0.02036
1320.57033	0.02039
1318.51015	0.02029
1316.44998	0.02008
1314.38981	0.01982
1312.32964	0.01955
1310.26947	0.01927
1308.20929	0.01892
1306.14912	0.01847
1304.08895	0.01792
1302.02878	0.01735
1299.96861	0.01687
1297.90843	0.01656
1295.84826	0.01639
1293.78809	0.01637
1291.72792	0.01647
1289.66775	0.01667
1287.60757	0.01694
1285.54740	0.01721
1283.48723	0.01747
1281.42706	0.01766
1279.36688	0.01781
1277.30671	0.01795
1275.24654	0.01813
1273.18637	0.01835
1271.12620	0.01864
1269.06602	0.01906
1267.00585	0.01965
1264.94568	0.02038
1262.88551	0.02115
1260.82534	0.02187
1258.76516	0.02249
1256.70499	0.02301
1254.64482	0.02345
1252.58465	0.02386
1250.52447	0.02424
1248.46430	0.02455
1246.40413	0.02477
1244.34396	0.02488
1242.28379	0.02488
1240.22361	0.02481
1238.16344	0.02466
1236.10327	0.02439
1234.04310	0.02396
1231.98293	0.02336
1229.92275	0.02263
1227.86258	0.02180
1225.80241	0.02085
1223.74224	0.01976
1221.68207	0.01855
1219.62189	0.01733
1217.56172	0.01620
1215.50155	0.01518
1213.44138	0.01424
1211.38120	0.01331
1209.32103	0.01232
1207.26086	0.01125
1205.20069	0.01009
1203.14052	0.00885
1201.08034	0.00755
1199.02017	0.00626
1196.96000	0.00502
1194.89983	0.00386
1192.83966	0.00294
1190.77948	0.00245
1188.71931	0.00228
1186.65914	0.00217
1184.59897	0.00211
1182.53880	0.00234
1180.47862	0.00289
1178.41845	0.00369
1176.35828	0.00482
1174.29811	0.00644
1172.23793	0.00848
1170.17776	0.01052
1168.11759	0.01211
1166.05742	0.01308
1163.99725	0.01363
1161.93707	0.01414
1159.87690	0.01475
1157.81673	0.01543
1155.75656	0.01615
1153.69639	0.01688
1151.63621	0.01765
1149.57604	0.01853
1147.51587	0.01949
1145.45570	0.02044
1143.39552	0.02126
1141.33535	0.02192
1139.27518	0.02249
1137.21501	0.02299
1135.15484	0.02344
1133.09466	0.02393
1131.03449	0.02460
1128.97432	0.02544
1126.91415	0.02637
1124.85398	0.02733
1122.79380	0.02834
1120.73363	0.02940
1118.67346	0.03052
1116.61329	0.03166
1114.55312	0.03274
1112.49294	0.03370
1110.43277	0.03463
1108.37260	0.03561
1106.31243	0.03663
1104.25225	0.03770
1102.19208	0.03895
1100.13191	0.04041
1098.07174	0.04200
1096.01157	0.04362
1093.95139	0.04521
1091.89122	0.04680
1089.83105	0.04839
1087.77088	0.04991
1085.71071	0.05145
1083.65053	0.05312
1081.59036	0.05480
1079.53019	0.05641
1077.47002	0.05808
1075.40985	0.05994
1073.34967	0.06182
1071.28950	0.06357
1069.22933	0.06507
1067.16916	0.06627
1065.10898	0.06727
1063.04881	0.06825
1060.98864	0.06932
1058.92847	0.07056
1056.86830	0.07192
1054.80812	0.07322
1052.74795	0.07454
1050.68778	0.07618
1048.62761	0.07821
1046.56744	0.08037
1044.50726	0.08243
1042.44709	0.08426
1040.38692	0.08585
1038.32675	0.08723
1036.26657	0.08844
1034.20640	0.08935
1032.14623	0.08980
1030.08606	0.08981
1028.02589	0.08961
1025.96571	0.08937
1023.90554	0.08904
1021.84537	0.08861
1019.78520	0.08814
1017.72503	0.08778
1015.66485	0.08765
1013.60468	0.08774
1011.54451	0.08792
1009.48434	0.08815
1007.42417	0.08828
1005.36399	0.08812
1003.30382	0.08759
1001.24365	0.08678
999.18348	0.08575
997.12330	0.08452
995.06313	0.08319
993.00296	0.08186
990.94279	0.08055
988.88262	0.07923
986.82244	0.07790
984.76227	0.07666
982.70210	0.07554
980.64193	0.07445
978.58176	0.07334
976.52158	0.07209
974.46141	0.07065
972.40124	0.06911
970.34107	0.06763
968.28089	0.06623
966.22072	0.06483
964.16055	0.06333
962.10038	0.06171
960.04021	0.06021
957.98003	0.05899
955.91986	0.05790
953.85969	0.05670
951.79952	0.05531
949.73935	0.05394
947.67917	0.05269
945.61900	0.05143
943.55883	0.04980
941.49866	0.04765
939.43849	0.04511
937.37831	0.04232
935.31814	0.03947
933.25797	0.03681
931.19780	0.03441
929.13762	0.03224
927.07745	0.03034
925.01728	0.02866
922.95711	0.02703
920.89694	0.02545
918.83676	0.02400
916.77659	0.02255
914.71642	0.02097
912.65625	0.01936
910.59608	0.01788
908.53590	0.01672
906.47573	0.01601
904.41556	0.01566
902.35539	0.01546
900.29522	0.01538
898.23504	0.01542
896.17487	0.01561
894.11470	0.01595
892.05453	0.01615
889.99435	0.01585
887.93418	0.01514
885.87401	0.01438
883.81384	0.01375
881.75367	0.01301
879.69349	0.01197
877.63332	0.01092
875.57315	0.01014
873.51298	0.00958
871.45281	0.00914
869.39263	0.00883
867.33246	0.00857
865.27229	0.00823
863.21212	0.00783
861.15194	0.00756
859.09177	0.00761
857.03160	0.00787
854.97143	0.00809
852.91126	0.00820
850.85108	0.00819
848.79091	0.00805
846.73074	0.00784
844.67057	0.00773
842.61040	0.00767
840.55022	0.00757
838.49005	0.00744
836.42988	0.00727
834.36971	0.00687
832.30954	0.00633
830.24936	0.00593
828.18919	0.00569
826.12902	0.00542
824.06885	0.00513
822.00867	0.00497
819.94850	0.00490
817.88833	0.00475
815.82816	0.00459
813.76799	0.00458
811.70781	0.00455
809.64764	0.00437
807.58747	0.00429
805.52730	0.00440
803.46713	0.00447
801.40695	0.00439
799.34678	0.00420
797.28661	0.00389
795.22644	0.00341
793.16627	0.00284
791.10609	0.00248
789.04592	0.00246
786.98575	0.00282
784.92558	0.00319
782.86540	0.00329
780.80523	0.00321
778.74506	0.00308
776.68489	0.00291
774.62472	0.00284
772.56454	0.00297
770.50437	0.00308
768.44420	0.00296
766.38403	0.00258
764.32386	0.00213
762.26368	0.00200
760.20351	0.00242
758.14334	0.00300
756.08317	0.00317
754.02299	0.00284
751.96282	0.00251
749.90265	0.00227
747.84248	0.00199
745.78231	0.00151
743.72213	0.00099
741.66196	0.00054
739.60179	0.00015
737.54162	0.00000
735.48145	0.00013
733.42127	0.00036
731.36110	0.00049
729.30093	0.00064
727.24076	0.00099
725.18059	0.00155
723.12041	0.00205
721.06024	0.00235
719.00007	0.00245
716.93990	0.00246
714.87972	0.00261
712.81955	0.00298
710.75938	0.00345
708.69921	0.00386
706.63904	0.00420
704.57886	0.00452
702.51869	0.00481
700.45852	0.00503
698.39835	0.00514
696.33818	0.00520
694.27800	0.00522
692.21783	0.00507
690.15766	0.00465
688.09749	0.00404
686.03731	0.00334
683.97714	0.00266
681.91697	0.00215
679.85680	0.00196
677.79663	0.00194
675.73645	0.00185
673.67628	0.00160
671.61611	0.00122
669.55594	0.00081
667.49577	0.00064
665.43559	0.00078
663.37542	0.00100
661.31525	0.00120
659.25508	0.00140
657.19491	0.00160
655.13473	0.00170
653.07456	0.00154
651.01439	0.00116
648.95422	0.00090
646.89404	0.00095
644.83387	0.00145
642.77370	0.00209
640.71353	0.00242
638.65336	0.00235
636.59318	0.00209
634.53301	0.00185
632.47284	0.00172
630.41267	0.00176
628.35250	0.00197
626.29232	0.00213
624.23215	0.00186
622.17198	0.00130
620.11181	0.00079
618.05164	0.00048
615.99146	0.00051
613.93129	0.00084
611.87112	0.00123
609.81095	0.00158
607.75077	0.00168
605.69060	0.00133
603.63043	0.00094
601.57026	0.00063
599.51009	0.00000
