3996.73391	0.00044
3994.67373	0.00055
3992.61356	0.00062
3990.55339	0.00058
3988.49322	0.00046
3986.43305	0.00033
3984.37287	0.00025
3982.31270	0.00020
3980.25253	0.00015
3978.19236	0.00009
3976.13219	0.00002
3974.07201	0.00000
3972.01184	0.00008
3969.95167	0.00028
3967.89150	0.00052
3965.83133	0.00066
3963.77115	0.00062
3961.71098	0.00040
3959.65081	0.00016
3957.59064	0.00004
3955.53046	0.00010
3953.47029	0.00022
3951.41012	0.00034
3949.34995	0.00047
3947.28978	0.00065
3945.22960	0.00079
3943.16943	0.00084
3941.10926	0.00083
3939.04909	0.00081
3936.98892	0.00075
3934.92874	0.00058
3932.86857	0.00037
3930.80840	0.00032
3928.74823	0.00052
3926.68805	0.00087
3924.62788	0.00115
3922.56771	0.00122
3920.50754	0.00102
3918.44737	0.00067
3916.38719	0.00033
3914.32702	0.00012
3912.26685	0.00006
3910.20668	0.00011
3908.14651	0.00028
3906.08633	0.00054
3904.02616	0.00080
3901.96599	0.00098
3899.90582	0.00109
3897.84565	0.00117
3895.78547	0.00125
3893.72530	0.00131
3891.66513	0.00129
3889.60496	0.00120
3887.54478	0.00104
3885.48461	0.00080
3883.42444	0.00053
3881.36427	0.00037
3879.30410	0.00037
3877.24392	0.00049
3875.18375	0.00060
3873.12358	0.00056
3871.06341	0.00038
3869.00324	0.00024
3866.94306	0.00030
3864.88289	0.00054
3862.82272	0.00082
3860.76255	0.00106
3858.70237	0.00129
3856.64220	0.00155
3854.58203	0.00177
3852.52186	0.00180
3850.46169	0.00155
3848.40151	0.00120
3846.34134	0.00095
3844.28117	0.00087
3842.22100	0.00086
3840.16083	0.00086
3838.10065	0.00088
3836.04048	0.00096
3833.98031	0.00105
3831.92014	0.00108
3829.85997	0.00105
3827.79979	0.00100
3825.73962	0.00099
3823.67945	0.00100
3821.61928	0.00096
3819.55910	0.00080
3817.49893	0.00061
3815.43876	0.00047
3813.37859	0.00040
3811.31842	0.00034
3809.25824	0.00028
3807.19807	0.00024
3805.13790	0.00024
3803.07773	0.00024
3801.01756	0.00030
3798.95738	0.00042
3796.89721	0.00054
3794.83704	0.00064
3792.77687	0.00072
3790.71670	0.00078
3788.65652	0.00077
3786.59635	0.00075
3784.53618	0.00079
3782.47601	0.00093
3780.41583	0.00111
3778.35566	0.00127
3776.29549	0.00133
3774.23532	0.00128
3772.17515	0.00109
3770.11497	0.00077
3768.05480	0.00044
3765.99463	0.00025
3763.93446	0.00029
3761.87429	0.00049
3759.81411	0.00068
3757.75394	0.00078
3755.69377	0.00088
3753.63360	0.00103
3751.57342	0.00118
3749.51325	0.00126
3747.45308	0.00127
3745.39291	0.00120
3743.33274	0.00103
3741.27256	0.00084
3739.21239	0.00073
3737.15222	0.00069
3735.09205	0.00062
3733.03188	0.00051
3730.97170	0.00037
3728.91153	0.00021
3726.85136	0.00011
3724.79119	0.00015
3722.73102	0.00036
3720.67084	0.00063
3718.61067	0.00084
3716.55050	0.00094
3714.49033	0.00095
3712.43015	0.00090
3710.36998	0.00085
3708.30981	0.00085
3706.24964	0.00090
3704.18947	0.00097
3702.12929	0.00100
3700.06912	0.00096
3698.00895	0.00088
3695.94878	0.00081
3693.88861	0.00077
3691.82843	0.00070
3689.76826	0.00057
3687.70809	0.00037
3685.64792	0.00021
3683.58775	0.00023
3681.52757	0.00043
3679.46740	0.00074
3677.40723	0.00105
3675.34706	0.00126
3673.28688	0.00133
3671.22671	0.00128
3669.16654	0.00112
3667.10637	0.00090
3665.04620	0.00074
3662.98602	0.00069
3660.92585	0.00076
3658.86568	0.00091
3656.80551	0.00111
3654.74534	0.00132
3652.68516	0.00155
3650.62499	0.00175
3648.56482	0.00191
3646.50465	0.00206
3644.44447	0.00224
3642.38430	0.00243
3640.32413	0.00256
3638.26396	0.00257
3636.20379	0.00253
3634.14361	0.00255
3632.08344	0.00273
3630.02327	0.00300
3627.96310	0.00324
3625.90293	0.00345
3623.84275	0.00367
3621.78258	0.00394
3619.72241	0.00425
3617.66224	0.00457
3615.60207	0.00494
3613.54189	0.00531
3611.48172	0.00555
3609.42155	0.00564
3607.36138	0.00563
3605.30120	0.00566
3603.24103	0.00582
3601.18086	0.00612
3599.12069	0.00647
3597.06052	0.00683
3595.00034	0.00712
3592.94017	0.00733
3590.88000	0.00756
3588.81983	0.00789
3586.75966	0.00828
3584.69948	0.00864
3582.63931	0.00889
3580.57914	0.00908
3578.51897	0.00933
3576.45879	0.00971
3574.39862	0.01017
3572.33845	0.01062
3570.27828	0.01099
3568.21811	0.01130
3566.15793	0.01164
3564.09776	0.01205
3562.03759	0.01251
3559.97742	0.01293
3557.91725	0.01332
3555.85707	0.01378
3553.79690	0.01431
3551.73673	0.01482
3549.67656	0.01519
3547.61639	0.01544
3545.55621	0.01562
3543.49604	0.01585
3541.43587	0.01622
3539.37570	0.01673
3537.31552	0.01728
3535.25535	0.01778
3533.19518	0.01815
3531.13501	0.01840
3529.07484	0.01862
3527.01466	0.01888
3524.95449	0.01922
3522.89432	0.01969
3520.83415	0.02031
3518.77398	0.02097
3516.71380	0.02158
3514.65363	0.02202
3512.59346	0.02226
3510.53329	0.02237
3508.47312	0.02256
3506.41294	0.02297
3504.35277	0.02359
3502.29260	0.02429
3500.23243	0.02498
3498.17225	0.02558
3496.11208	0.02609
3494.05191	0.02654
3491.99174	0.02696
3489.93157	0.02734
3487.87139	0.02767
3485.81122	0.02794
3483.75105	0.02820
3481.69088	0.02851
3479.63071	0.02884
3477.57053	0.02917
3475.51036	0.02957
3473.45019	0.03009
3471.39002	0.03071
3469.32984	0.03132
3467.26967	0.03180
3465.20950	0.03217
3463.14933	0.03246
3461.08916	0.03274
3459.02898	0.03304
3456.96881	0.03343
3454.90864	0.03387
3452.84847	0.03425
3450.78830	0.03449
3448.72812	0.03465
3446.66795	0.03488
3444.60778	0.03525
3442.54761	0.03571
3440.48744	0.03619
3438.42726	0.03663
3436.36709	0.03706
3434.30692	0.03752
3432.24675	0.03801
3430.18657	0.03846
3428.12640	0.03883
3426.06623	0.03921
3424.00606	0.03966
3421.94589	0.04013
3419.88571	0.04048
3417.82554	0.04072
3415.76537	0.04092
3413.70520	0.04114
3411.64503	0.04141
3409.58485	0.04175
3407.52468	0.04209
3405.46451	0.04241
3403.40434	0.04270
3401.34416	0.04299
3399.28399	0.04334
3397.22382	0.04371
3395.16365	0.04401
3393.10348	0.04418
3391.04330	0.04425
3388.98313	0.04437
3386.92296	0.04461
3384.86279	0.04491
3382.80262	0.04519
3380.74244	0.04539
3378.68227	0.04555
3376.62210	0.04571
3374.56193	0.04593
3372.50176	0.04622
3370.44158	0.04660
3368.38141	0.04705
3366.32124	0.04749
3364.26107	0.04776
3362.20089	0.04780
3360.14072	0.04773
3358.08055	0.04768
3356.02038	0.04773
3353.96021	0.04791
3351.90003	0.04820
3349.83986	0.04851
3347.77969	0.04871
3345.71952	0.04881
3343.65935	0.04887
3341.59917	0.04896
3339.53900	0.04901
3337.47883	0.04901
3335.41866	0.04899
3333.35849	0.04903
3331.29831	0.04914
3329.23814	0.04929
3327.17797	0.04943
3325.11780	0.04949
3323.05762	0.04948
3320.99745	0.04944
3318.93728	0.04944
3316.87711	0.04951
3314.81694	0.04961
3312.75676	0.04971
3310.69659	0.04981
3308.63642	0.04989
3306.57625	0.04991
3304.51608	0.04989
3302.45590	0.04988
3300.39573	0.04995
3298.33556	0.05007
3296.27539	0.05015
3294.21521	0.05014
3292.15504	0.05009
3290.09487	0.05009
3288.03470	0.05016
3285.97453	0.05027
3283.91435	0.05037
3281.85418	0.05041
3279.79401	0.05038
3277.73384	0.05034
3275.67367	0.05030
3273.61349	0.05022
3271.55332	0.05008
3269.49315	0.04993
3267.43298	0.04976
3265.37281	0.04956
3263.31263	0.04932
3261.25246	0.04912
3259.19229	0.04902
3257.13212	0.04904
3255.07194	0.04908
3253.01177	0.04907
3250.95160	0.04908
3248.89143	0.04919
3246.83126	0.04935
3244.77108	0.04938
3242.71091	0.04920
3240.65074	0.04883
3238.59057	0.04842
3236.53040	0.04810
3234.47022	0.04795
3232.41005	0.04793
3230.34988	0.04800
3228.28971	0.04813
3226.22954	0.04828
3224.16936	0.04831
3222.10919	0.04806
3220.04902	0.04755
3217.98885	0.04696
3215.92867	0.04651
3213.86850	0.04632
3211.80833	0.04633
3209.74816	0.04637
3207.68799	0.04633
3205.62781	0.04619
3203.56764	0.04598
3201.50747	0.04571
3199.44730	0.04537
3197.38713	0.04501
3195.32695	0.04472
3193.26678	0.04453
3191.20661	0.04440
3189.14644	0.04425
3187.08626	0.04403
3185.02609	0.04372
3182.96592	0.04336
3180.90575	0.04303
3178.84558	0.04274
3176.78540	0.04247
3174.72523	0.04221
3172.66506	0.04195
3170.60489	0.04173
3168.54472	0.04157
3166.48454	0.04143
3164.42437	0.04124
3162.36420	0.04095
3160.30403	0.04059
3158.24386	0.04020
3156.18368	0.03985
3154.12351	0.03954
3152.06334	0.03923
3150.00317	0.03889
3147.94299	0.03852
3145.88282	0.03817
3143.82265	0.03787
3141.76248	0.03761
3139.70231	0.03732
3137.64213	0.03700
3135.58196	0.03668
3133.52179	0.03642
3131.46162	0.03621
3129.40145	0.03608
3127.34127	0.03599
3125.28110	0.03586
3123.22093	0.03569
3121.16076	0.03551
3119.10058	0.03533
3117.04041	0.03511
3114.98024	0.03481
3112.92007	0.03443
3110.85990	0.03402
3108.79972	0.03362
3106.73955	0.03326
3104.67938	0.03297
3102.61921	0.03270
3100.55904	0.03241
3098.49886	0.03210
3096.43869	0.03181
3094.37852	0.03154
3092.31835	0.03128
3090.25818	0.03102
3088.19800	0.03079
3086.13783	0.03059
3084.07766	0.03037
3082.01749	0.03007
3079.95731	0.02970
3077.89714	0.02932
3075.83697	0.02900
3073.77680	0.02875
3071.71663	0.02857
3069.65645	0.02838
3067.59628	0.02811
3065.53611	0.02775
3063.47594	0.02739
3061.41577	0.02711
3059.35559	0.02691
3057.29542	0.02671
3055.23525	0.02646
3053.17508	0.02616
3051.11491	0.02589
3049.05473	0.02568
3046.99456	0.02553
3044.93439	0.02543
3042.87422	0.02528
3040.81404	0.02505
3038.75387	0.02478
3036.69370	0.02452
3034.63353	0.02430
3032.57336	0.02411
3030.51318	0.02398
3028.45301	0.02389
3026.39284	0.02380
3024.33267	0.02366
3022.27250	0.02349
3020.21232	0.02332
3018.15215	0.02320
3016.09198	0.02314
3014.03181	0.02311
3011.97163	0.02308
3009.91146	0.02304
3007.85129	0.02297
3005.79112	0.02285
3003.73095	0.02265
3001.67077	0.02242
2999.61060	0.02220
2997.55043	0.02202
2995.49026	0.02185
2993.43009	0.02167
2991.36991	0.02150
2989.30974	0.02137
2987.24957	0.02128
2985.18940	0.02130
2983.12923	0.02145
2981.06905	0.02174
2979.00888	0.02222
2976.94871	0.02293
2974.88854	0.02377
2972.82836	0.02464
2970.76819	0.02549
2968.70802	0.02638
2966.64785	0.02751
2964.58768	0.02894
2962.52750	0.03048
2960.46733	0.03204
2958.40716	0.03356
2956.34699	0.03503
2954.28682	0.03653
2952.22664	0.03819
2950.16647	0.04000
2948.10630	0.04192
2946.04613	0.04389
2943.98596	0.04594
2941.92578	0.04809
2939.86561	0.05038
2937.80544	0.05286
2935.74527	0.05539
2933.68509	0.05767
2931.62492	0.05963
2929.56475	0.06140
2927.50458	0.06304
2925.44441	0.06451
2923.38423	0.06567
2921.32406	0.06631
2919.26389	0.06616
2917.20372	0.06506
2915.14355	0.06311
2913.08337	0.06074
2911.02320	0.05827
2908.96303	0.05585
2906.90286	0.05367
2904.84268	0.05181
2902.78251	0.05023
2900.72234	0.04876
2898.66217	0.04734
2896.60200	0.04603
2894.54182	0.04483
2892.48165	0.04365
2890.42148	0.04245
2888.36131	0.04136
2886.30114	0.04059
2884.24096	0.04016
2882.18079	0.03977
2880.12062	0.03931
2878.06045	0.03897
2876.00028	0.03899
2873.94010	0.03939
2871.87993	0.03997
2869.81976	0.04053
2867.75959	0.04114
2865.69941	0.04197
2863.63924	0.04310
2861.57907	0.04454
2859.51890	0.04623
2857.45873	0.04798
2855.39855	0.04959
2853.33838	0.05079
2851.27821	0.05109
2849.21804	0.05002
2847.15787	0.04752
2845.09769	0.04418
2843.03752	0.04081
2840.97735	0.03787
2838.91718	0.03542
2836.85700	0.03352
2834.79683	0.03222
2832.73666	0.03134
2830.67649	0.03060
2828.61632	0.02983
2826.55614	0.02897
2824.49597	0.02811
2822.43580	0.02740
2820.37563	0.02689
2818.31546	0.02644
2816.25528	0.02603
2814.19511	0.02570
2812.13494	0.02532
2810.07477	0.02487
2808.01460	0.02449
2805.95442	0.02424
2803.89425	0.02396
2801.83408	0.02361
2799.77391	0.02335
2797.71373	0.02319
2795.65356	0.02297
2793.59339	0.02272
2791.53322	0.02256
2789.47305	0.02234
2787.41287	0.02186
2785.35270	0.02125
2783.29253	0.02080
2781.23236	0.02061
2779.17219	0.02064
2777.11201	0.02074
2775.05184	0.02073
2772.99167	0.02067
2770.93150	0.02061
2768.87133	0.02047
2766.81115	0.02020
2764.75098	0.01994
2762.69081	0.01973
2760.63064	0.01955
2758.57046	0.01943
2756.51029	0.01941
2754.45012	0.01951
2752.38995	0.01964
2750.32978	0.01966
2748.26960	0.01954
2746.20943	0.01942
2744.14926	0.01937
2742.08909	0.01926
2740.02892	0.01909
2737.96874	0.01903
2735.90857	0.01913
2733.84840	0.01920
2731.78823	0.01915
2729.72805	0.01904
2727.66788	0.01885
2725.60771	0.01855
2723.54754	0.01828
2721.48737	0.01819
2719.42719	0.01828
2717.36702	0.01838
2715.30685	0.01834
2713.24668	0.01823
2711.18651	0.01817
2709.12633	0.01818
2707.06616	0.01818
2705.00599	0.01815
2702.94582	0.01816
2700.88565	0.01819
2698.82547	0.01817
2696.76530	0.01800
2694.70513	0.01774
2692.64496	0.01752
2690.58478	0.01744
2688.52461	0.01744
2686.46444	0.01748
2684.40427	0.01754
2682.34410	0.01758
2680.28392	0.01755
2678.22375	0.01747
2676.16358	0.01743
2674.10341	0.01742
2672.04324	0.01735
2669.98306	0.01721
2667.92289	0.01715
2665.86272	0.01725
2663.80255	0.01733
2661.74238	0.01722
2659.68220	0.01699
2657.62203	0.01683
2655.56186	0.01676
2653.50169	0.01672
2651.44151	0.01666
2649.38134	0.01652
2647.32117	0.01641
2645.26100	0.01641
2643.20083	0.01646
2641.14065	0.01641
2639.08048	0.01621
2637.02031	0.01589
2634.96014	0.01560
2632.89997	0.01545
2630.83979	0.01549
2628.77962	0.01568
2626.71945	0.01573
2624.65928	0.01541
2622.59910	0.01499
2620.53893	0.01488
2618.47876	0.01499
2616.41859	0.01494
2614.35842	0.01468
2612.29824	0.01444
2610.23807	0.01432
2608.17790	0.01431
2606.11773	0.01431
2604.05756	0.01427
2601.99738	0.01416
2599.93721	0.01407
2597.87704	0.01403
2595.81687	0.01393
2593.75670	0.01378
2591.69652	0.01380
2589.63635	0.01391
2587.57618	0.01379
2585.51601	0.01345
2583.45583	0.01314
2581.39566	0.01306
2579.33549	0.01312
2577.27532	0.01306
2575.21515	0.01291
2573.15497	0.01290
2571.09480	0.01291
2569.03463	0.01261
2566.97446	0.01205
2564.91429	0.01171
2562.85411	0.01188
2560.79394	0.01218
2558.73377	0.01215
2556.67360	0.01190
2554.61342	0.01180
2552.55325	0.01182
2550.49308	0.01178
2548.43291	0.01168
2546.37274	0.01173
2544.31256	0.01202
2542.25239	0.01230
2540.19222	0.01232
2538.13205	0.01216
2536.07188	0.01208
2534.01170	0.01212
2531.95153	0.01205
2529.89136	0.01177
2527.83119	0.01156
2525.77102	0.01149
2523.71084	0.01135
2521.65067	0.01107
2519.59050	0.01092
2517.53033	0.01114
2515.47015	0.01150
2513.40998	0.01162
2511.34981	0.01135
2509.28964	0.01087
2507.22947	0.01057
2505.16929	0.01060
2503.10912	0.01072
2501.04895	0.01068
2498.98878	0.01049
2496.92861	0.01035
2494.86843	0.01034
2492.80826	0.01037
2490.74809	0.01036
2488.68792	0.01038
2486.62775	0.01037
2484.56757	0.01021
2482.50740	0.01002
2480.44723	0.00993
2478.38706	0.00992
2476.32688	0.01000
2474.26671	0.01016
2472.20654	0.01023
2470.14637	0.01002
2468.08620	0.00959
2466.02602	0.00926
2463.96585	0.00921
2461.90568	0.00941
2459.84551	0.00977
2457.78534	0.01017
2455.72516	0.01037
2453.66499	0.01023
2451.60482	0.00992
2449.54465	0.00971
2447.48447	0.00967
2445.42430	0.00957
2443.36413	0.00928
2441.30396	0.00893
2439.24379	0.00879
2437.18361	0.00896
2435.12344	0.00929
2433.06327	0.00952
2431.00310	0.00955
2428.94293	0.00932
2426.88275	0.00889
2424.82258	0.00850
2422.76241	0.00835
2420.70224	0.00847
2418.64207	0.00873
2416.58189	0.00900
2414.52172	0.00912
2412.46155	0.00901
2410.40138	0.00882
2408.34120	0.00875
2406.28103	0.00874
2404.22086	0.00865
2402.16069	0.00852
2400.10052	0.00837
2398.04034	0.00818
2395.98017	0.00799
2393.92000	0.00785
2391.85983	0.00779
2389.79966	0.00787
2387.73948	0.00811
2385.67931	0.00845
2383.61914	0.00876
2381.55897	0.00894
2379.49880	0.00899
2377.43862	0.00896
2375.37845	0.00891
2373.31828	0.00878
2371.25811	0.00850
2369.19793	0.00801
2367.13776	0.00740
2365.07759	0.00694
2363.01742	0.00691
2360.95725	0.00744
2358.89707	0.00842
2356.83690	0.00944
2354.77673	0.01007
2352.71656	0.01007
2350.65639	0.00956
2348.59621	0.00890
2346.53604	0.00838
2344.47587	0.00812
2342.41570	0.00806
2340.35552	0.00811
2338.29535	0.00817
2336.23518	0.00823
2334.17501	0.00835
2332.11484	0.00857
2330.05466	0.00884
2327.99449	0.00912
2325.93432	0.00939
2323.87415	0.00956
2321.81398	0.00953
2319.75380	0.00926
2317.69363	0.00885
2315.63346	0.00847
2313.57329	0.00827
2311.51312	0.00822
2309.45294	0.00819
2307.39277	0.00812
2305.33260	0.00804
2303.27243	0.00795
2301.21225	0.00792
2299.15208	0.00802
2297.09191	0.00821
2295.03174	0.00837
2292.97157	0.00842
2290.91139	0.00837
2288.85122	0.00829
2286.79105	0.00827
2284.73088	0.00829
2282.67071	0.00824
2280.61053	0.00813
2278.55036	0.00801
2276.49019	0.00789
2274.43002	0.00770
2272.36984	0.00742
2270.30967	0.00713
2268.24950	0.00692
2266.18933	0.00677
2264.12916	0.00661
2262.06898	0.00640
2260.00881	0.00618
2257.94864	0.00593
2255.88847	0.00563
2253.82830	0.00533
2251.76812	0.00514
2249.70795	0.00521
2247.64778	0.00565
2245.58761	0.00629
2243.52744	0.00669
2241.46726	0.00680
2239.40709	0.00689
2237.34692	0.00690
2235.28675	0.00648
2233.22657	0.00578
2231.16640	0.00536
2229.10623	0.00527
2227.04606	0.00517
2224.98589	0.00503
2222.92571	0.00501
2220.86554	0.00537
2218.80537	0.00617
2216.74520	0.00689
2214.68503	0.00700
2212.62485	0.00664
2210.56468	0.00624
2208.50451	0.00599
2206.44434	0.00553
2204.38417	0.00444
2202.32399	0.00332
2200.26382	0.00326
2198.20365	0.00398
2196.14348	0.00416
2194.08330	0.00372
2192.02313	0.00375
2189.96296	0.00470
2187.90279	0.00611
2185.84262	0.00722
2183.78244	0.00757
2181.72227	0.00709
2179.66210	0.00594
2177.60193	0.00454
2175.54176	0.00356
2173.48158	0.00343
2171.42141	0.00372
2169.36124	0.00374
2167.30107	0.00369
2165.24089	0.00423
2163.18072	0.00490
2161.12055	0.00465
2159.06038	0.00355
2157.00021	0.00258
2154.94003	0.00217
2152.87986	0.00229
2150.81969	0.00299
2148.75952	0.00359
2146.69935	0.00325
2144.63917	0.00239
2142.57900	0.00202
2140.51883	0.00219
2138.45866	0.00260
2136.39849	0.00319
2134.33831	0.00373
2132.27814	0.00413
2130.21797	0.00454
2128.15780	0.00494
2126.09762	0.00500
2124.03745	0.00462
2121.97728	0.00443
2119.91711	0.00484
2117.85694	0.00541
2115.79676	0.00567
2113.73659	0.00580
2111.67642	0.00600
2109.61625	0.00597
2107.55608	0.00573
2105.49590	0.00568
2103.43573	0.00575
2101.37556	0.00564
2099.31539	0.00554
2097.25521	0.00552
2095.19504	0.00547
2093.13487	0.00530
2091.07470	0.00498
2089.01453	0.00454
2086.95435	0.00414
2084.89418	0.00397
2082.83401	0.00402
2080.77384	0.00413
2078.71367	0.00418
2076.65349	0.00422
2074.59332	0.00435
2072.53315	0.00460
2070.47298	0.00482
2068.41281	0.00485
2066.35263	0.00462
2064.29246	0.00424
2062.23229	0.00400
2060.17212	0.00410
2058.11194	0.00446
2056.05177	0.00486
2053.99160	0.00514
2051.93143	0.00526
2049.87126	0.00528
2047.81108	0.00529
2045.75091	0.00526
2043.69074	0.00498
2041.63057	0.00435
2039.57040	0.00340
2037.51022	0.00222
2035.45005	0.00114
2033.38988	0.00057
2031.32971	0.00068
2029.26954	0.00116
2027.20936	0.00165
2025.14919	0.00207
2023.08902	0.00251
2021.02885	0.00280
2018.96867	0.00270
2016.90850	0.00223
2014.84833	0.00165
2012.78816	0.00118
2010.72799	0.00084
2008.66781	0.00064
2006.60764	0.00086
2004.54747	0.00163
2002.48730	0.00263
2000.42713	0.00336
1998.36695	0.00363
1996.30678	0.00352
1994.24661	0.00322
1992.18644	0.00296
1990.12626	0.00281
1988.06609	0.00269
1986.00592	0.00260
1983.94575	0.00256
1981.88558	0.00244
1979.82540	0.00208
1977.76523	0.00162
1975.70506	0.00133
1973.64489	0.00132
1971.58472	0.00146
1969.52454	0.00158
1967.46437	0.00155
1965.40420	0.00140
1963.34403	0.00129
1961.28386	0.00133
1959.22368	0.00144
1957.16351	0.00154
1955.10334	0.00163
1953.04317	0.00177
1950.98299	0.00192
1948.92282	0.00200
1946.86265	0.00191
1944.80248	0.00154
1942.74231	0.00099
1940.68213	0.00060
1938.62196	0.00079
1936.56179	0.00157
1934.50162	0.00247
1932.44145	0.00295
1930.38127	0.00288
1928.32110	0.00249
1926.26093	0.00210
1924.20076	0.00193
1922.14059	0.00199
1920.08041	0.00216
1918.02024	0.00221
1915.96007	0.00207
1913.89990	0.00188
1911.83972	0.00185
1909.77955	0.00199
1907.71938	0.00219
1905.65921	0.00231
1903.59904	0.00232
1901.53886	0.00228
1899.47869	0.00222
1897.41852	0.00212
1895.35835	0.00198
1893.29818	0.00184
1891.23800	0.00181
1889.17783	0.00193
1887.11766	0.00214
1885.05749	0.00230
1882.99731	0.00233
1880.93714	0.00220
1878.87697	0.00202
1876.81680	0.00190
1874.75663	0.00192
1872.69645	0.00198
1870.63628	0.00190
1868.57611	0.00161
1866.51594	0.00125
1864.45577	0.00104
1862.39559	0.00108
1860.33542	0.00127
1858.27525	0.00145
1856.21508	0.00150
1854.15491	0.00146
1852.09473	0.00140
1850.03456	0.00139
1847.97439	0.00141
1845.91422	0.00139
1843.85404	0.00138
1841.79387	0.00148
1839.73370	0.00165
1837.67353	0.00181
1835.61336	0.00188
1833.55318	0.00183
1831.49301	0.00166
1829.43284	0.00139
1827.37267	0.00113
1825.31250	0.00094
1823.25232	0.00078
1821.19215	0.00067
1819.13198	0.00063
1817.07181	0.00070
1815.01163	0.00085
1812.95146	0.00104
1810.89129	0.00119
1808.83112	0.00123
1806.77095	0.00117
1804.71077	0.00107
1802.65060	0.00101
1800.59043	0.00104
1798.53026	0.00109
1796.47009	0.00111
1794.40991	0.00105
1792.34974	0.00091
1790.28957	0.00075
1788.22940	0.00063
1786.16923	0.00061
1784.10905	0.00063
1782.04888	0.00064
1779.98871	0.00056
1777.92854	0.00047
1775.86836	0.00044
1773.80819	0.00052
1771.74802	0.00072
1769.68785	0.00100
1767.62768	0.00140
1765.56750	0.00194
1763.50733	0.00264
1761.44716	0.00350
1759.38699	0.00458
1757.32682	0.00590
1755.26664	0.00743
1753.20647	0.00913
1751.14630	0.01093
1749.08613	0.01270
1747.02596	0.01423
1744.96578	0.01540
1742.90561	0.01621
1740.84544	0.01671
1738.78527	0.01697
1736.72509	0.01705
1734.66492	0.01698
1732.60475	0.01678
1730.54458	0.01653
1728.48441	0.01635
1726.42423	0.01631
1724.36406	0.01642
1722.30389	0.01658
1720.24372	0.01673
1718.18355	0.01684
1716.12337	0.01696
1714.06320	0.01710
1712.00303	0.01723
1709.94286	0.01724
1707.88268	0.01706
1705.82251	0.01673
1703.76234	0.01636
1701.70217	0.01607
1699.64200	0.01602
1697.58182	0.01631
1695.52165	0.01693
1693.46148	0.01779
1691.40131	0.01886
1689.34114	0.02016
1687.28096	0.02173
1685.22079	0.02358
1683.16062	0.02565
1681.10045	0.02767
1679.04028	0.02945
1676.98010	0.03090
1674.91993	0.03196
1672.85976	0.03256
1670.79959	0.03263
1668.73941	0.03222
1666.67924	0.03148
1664.61907	0.03061
1662.55890	0.02972
1660.49873	0.02892
1658.43855	0.02828
1656.37838	0.02781
1654.31821	0.02749
1652.25804	0.02729
1650.19787	0.02719
1648.13769	0.02717
1646.07752	0.02721
1644.01735	0.02735
1641.95718	0.02762
1639.89701	0.02807
1637.83683	0.02870
1635.77666	0.02943
1633.71649	0.03013
1631.65632	0.03069
1629.59614	0.03111
1627.53597	0.03145
1625.47580	0.03174
1623.41563	0.03200
1621.35546	0.03222
1619.29528	0.03244
1617.23511	0.03279
1615.17494	0.03339
1613.11477	0.03432
1611.05460	0.03556
1608.99442	0.03690
1606.93425	0.03798
1604.87408	0.03843
1602.81391	0.03806
1600.75373	0.03697
1598.69356	0.03548
1596.63339	0.03392
1594.57322	0.03252
1592.51305	0.03136
1590.45287	0.03035
1588.39270	0.02940
1586.33253	0.02849
1584.27236	0.02760
1582.21219	0.02675
1580.15201	0.02591
1578.09184	0.02510
1576.03167	0.02437
1573.97150	0.02375
1571.91133	0.02316
1569.85115	0.02251
1567.79098	0.02175
1565.73081	0.02092
1563.67064	0.02004
1561.61046	0.01910
1559.55029	0.01805
1557.49012	0.01691
1555.42995	0.01585
1553.36978	0.01492
1551.30960	0.01412
1549.24943	0.01339
1547.18926	0.01270
1545.12909	0.01201
1543.06892	0.01124
1541.00874	0.01035
1538.94857	0.00945
1536.88840	0.00870
1534.82823	0.00814
1532.76805	0.00770
1530.70788	0.00733
1528.64771	0.00703
1526.58754	0.00689
1524.52737	0.00710
1522.46719	0.00786
1520.40702	0.00909
1518.34685	0.01047
1516.28668	0.01156
1514.22651	0.01198
1512.16633	0.01157
1510.10616	0.01044
1508.04599	0.00888
1505.98582	0.00728
1503.92565	0.00602
1501.86547	0.00512
1499.80530	0.00440
1497.74513	0.00372
1495.68496	0.00306
1493.62478	0.00249
1491.56461	0.00204
1489.50444	0.00169
1487.44427	0.00144
1485.38410	0.00133
1483.32392	0.00142
1481.26375	0.00174
1479.20358	0.00232
1477.14341	0.00328
1475.08324	0.00473
1473.02306	0.00668
1470.96289	0.00894
1468.90272	0.01118
1466.84255	0.01322
1464.78238	0.01493
1462.72220	0.01626
1460.66203	0.01727
1458.60186	0.01818
1456.54169	0.01912
1454.48151	0.02002
1452.42134	0.02083
1450.36117	0.02163
1448.30100	0.02248
1446.24083	0.02338
1444.18065	0.02427
1442.12048	0.02512
1440.06031	0.02591
1438.00014	0.02663
1435.93997	0.02724
1433.87979	0.02770
1431.81962	0.02796
1429.75945	0.02809
1427.69928	0.02815
1425.63910	0.02825
1423.57893	0.02843
1421.51876	0.02863
1419.45859	0.02878
1417.39842	0.02883
1415.33824	0.02875
1413.27807	0.02852
1411.21790	0.02808
1409.15773	0.02746
1407.09756	0.02669
1405.03738	0.02583
1402.97721	0.02493
1400.91704	0.02404
1398.85687	0.02319
1396.79670	0.02245
1394.73652	0.02188
1392.67635	0.02156
1390.61618	0.02152
1388.55601	0.02176
1386.49583	0.02221
1384.43566	0.02279
1382.37549	0.02342
1380.31532	0.02409
1378.25515	0.02477
1376.19497	0.02538
1374.13480	0.02581
1372.07463	0.02601
1370.01446	0.02602
1367.95429	0.02584
1365.89411	0.02550
1363.83394	0.02502
1361.77377	0.02449
1359.71360	0.02405
1357.65343	0.02375
1355.59325	0.02357
1353.53308	0.02347
1351.47291	0.02341
1349.41274	0.02337
1347.35256	0.02330
1345.29239	0.02317
1343.23222	0.02303
1341.17205	0.02294
1339.11188	0.02290
1337.05170	0.02287
1334.99153	0.02282
1332.93136	0.02280
1330.87119	0.02281
1328.81102	0.02287
1326.75084	0.02294
1324.69067	0.02299
1322.63050	0.02301
1320.57033	0.02301
1318.51015	0.02296
1316.44998	0.02282
1314.38981	0.02255
1312.32964	0.02217
1310.26947	0.02175
1308.20929	0.02130
1306.14912	0.02078
1304.08895	0.02015
1302.02878	0.01948
1299.96861	0.01891
1297.90843	0.01854
1295.84826	0.01839
1293.78809	0.01839
1291.72792	0.01853
1289.66775	0.01875
1287.60757	0.01900
1285.54740	0.01925
1283.48723	0.01952
1281.42706	0.01978
1279.36688	0.02001
1277.30671	0.02018
1275.24654	0.02033
1273.18637	0.02053
1271.12620	0.02085
1269.06602	0.02138
1267.00585	0.02214
1264.94568	0.02304
1262.88551	0.02398
1260.82534	0.02483
1258.76516	0.02556
1256.70499	0.02619
1254.64482	0.02677
1252.58465	0.02730
1250.52447	0.02774
1248.46430	0.02805
1246.40413	0.02823
1244.34396	0.02830
1242.28379	0.02828
1240.22361	0.02820
1238.16344	0.02806
1236.10327	0.02782
1234.04310	0.02741
1231.98293	0.02678
1229.92275	0.02592
1227.86258	0.02486
1225.80241	0.02364
1223.74224	0.02230
1221.68207	0.02088
1219.62189	0.01946
1217.56172	0.01810
1215.50155	0.01684
1213.44138	0.01568
1211.38120	0.01454
1209.32103	0.01336
1207.26086	0.01207
1205.20069	0.01066
1203.14052	0.00916
1201.08034	0.00760
1199.02017	0.00604
1196.96000	0.00452
1194.89983	0.00310
1192.83966	0.00198
1190.77948	0.00129
1188.71931	0.00096
1186.65914	0.00081
1184.59897	0.00068
1182.53880	0.00076
1180.47862	0.00122
1178.41845	0.00209
1176.35828	0.00342
1174.29811	0.00528
1172.23793	0.00759
1170.17776	0.00998
1168.11759	0.01191
1166.05742	0.01316
1163.99725	0.01396
1161.93707	0.01460
1159.87690	0.01515
1157.81673	0.01560
1155.75656	0.01609
1153.69639	0.01676
1151.63621	0.01773
1149.57604	0.01896
1147.51587	0.02032
1145.45570	0.02159
1143.39552	0.02266
1141.33535	0.02353
1139.27518	0.02421
1137.21501	0.02481
1135.15484	0.02541
1133.09466	0.02614
1131.03449	0.02706
1128.97432	0.02812
1126.91415	0.02926
1124.85398	0.03047
1122.79380	0.03173
1120.73363	0.03302
1118.67346	0.03424
1116.61329	0.03534
1114.55312	0.03639
1112.49294	0.03744
1110.43277	0.03847
1108.37260	0.03946
1106.31243	0.04048
1104.25225	0.04164
1102.19208	0.04311
1100.13191	0.04493
1098.07174	0.04706
1096.01157	0.04930
1093.95139	0.05142
1091.89122	0.05334
1089.83105	0.05520
1087.77088	0.05704
1085.71071	0.05884
1083.65053	0.06063
1081.59036	0.06250
1079.53019	0.06454
1077.47002	0.06682
1075.40985	0.06922
1073.34967	0.07146
1071.28950	0.07344
1069.22933	0.07524
1067.16916	0.07686
1065.10898	0.07821
1063.04881	0.07940
1060.98864	0.08053
1058.92847	0.08171
1056.86830	0.08318
1054.80812	0.08500
1052.74795	0.08707
1050.68778	0.08937
1048.62761	0.09192
1046.56744	0.09459
1044.50726	0.09717
1042.44709	0.09948
1040.38692	0.10152
1038.32675	0.10338
1036.26657	0.10502
1034.20640	0.10625
1032.14623	0.10700
1030.08606	0.10728
1028.02589	0.10715
1025.96571	0.10668
1023.90554	0.10607
1021.84537	0.10542
1019.78520	0.10475
1017.72503	0.10424
1015.66485	0.10418
1013.60468	0.10453
1011.54451	0.10498
1009.48434	0.10527
1007.42417	0.10527
1005.36399	0.10490
1003.30382	0.10417
1001.24365	0.10329
999.18348	0.10233
997.12330	0.10111
995.06313	0.09962
993.00296	0.09795
990.94279	0.09615
988.88262	0.09439
986.82244	0.09281
984.76227	0.09144
982.70210	0.09017
980.64193	0.08884
978.58176	0.08735
976.52158	0.08571
974.46141	0.08394
972.40124	0.08209
970.34107	0.08028
968.28089	0.07867
966.22072	0.07719
964.16055	0.07560
962.10038	0.07373
960.04021	0.07169
957.98003	0.06984
955.91986	0.06835
953.85969	0.06704
951.79952	0.06566
949.73935	0.06422
947.67917	0.06279
945.61900	0.06125
943.55883	0.05932
941.49866	0.05680
939.43849	0.05375
937.37831	0.05038
935.31814	0.04693
933.25797	0.04353
931.19780	0.04033
929.13762	0.03746
927.07745	0.03496
925.01728	0.03275
922.95711	0.03073
920.89694	0.02893
918.83676	0.02734
916.77659	0.02581
914.71642	0.02422
912.65625	0.02259
910.59608	0.02101
908.53590	0.01962
906.47573	0.01849
904.41556	0.01762
902.35539	0.01699
900.29522	0.01659
898.23504	0.01643
896.17487	0.01663
894.11470	0.01713
892.05453	0.01746
889.99435	0.01726
887.93418	0.01667
885.87401	0.01594
883.81384	0.01504
881.75367	0.01387
879.69349	0.01257
877.63332	0.01141
875.57315	0.01050
873.51298	0.00974
871.45281	0.00922
869.39263	0.00900
867.33246	0.00881
865.27229	0.00843
863.21212	0.00800
861.15194	0.00771
859.09177	0.00772
857.03160	0.00798
854.97143	0.00817
852.91126	0.00801
850.85108	0.00767
848.79091	0.00742
846.73074	0.00727
844.67057	0.00714
842.61040	0.00702
840.55022	0.00687
838.49005	0.00669
836.42988	0.00652
834.36971	0.00626
832.30954	0.00579
830.24936	0.00517
828.18919	0.00446
826.12902	0.00382
824.06885	0.00346
822.00867	0.00349
819.94850	0.00375
817.88833	0.00394
815.82816	0.00393
813.76799	0.00394
811.70781	0.00391
809.64764	0.00374
807.58747	0.00359
805.52730	0.00358
803.46713	0.00354
801.40695	0.00349
799.34678	0.00349
797.28661	0.00330
795.22644	0.00260
793.16627	0.00158
791.10609	0.00092
789.04592	0.00087
786.98575	0.00125
784.92558	0.00162
782.86540	0.00177
780.80523	0.00169
778.74506	0.00147
776.68489	0.00134
774.62472	0.00167
772.56454	0.00228
770.50437	0.00249
768.44420	0.00212
766.38403	0.00168
764.32386	0.00165
762.26368	0.00202
760.20351	0.00256
758.14334	0.00299
756.08317	0.00299
754.02299	0.00251
751.96282	0.00196
749.90265	0.00161
747.84248	0.00125
745.78231	0.00093
743.72213	0.00068
741.66196	0.00083
739.60179	0.00078
737.54162	0.00043
735.48145	0.00035
733.42127	0.00056
731.36110	0.00056
729.30093	0.00034
727.24076	0.00043
725.18059	0.00104
723.12041	0.00184
721.06024	0.00249
719.00007	0.00286
716.93990	0.00295
714.87972	0.00295
712.81955	0.00306
710.75938	0.00339
708.69921	0.00393
706.63904	0.00449
704.57886	0.00493
702.51869	0.00518
700.45852	0.00528
698.39835	0.00527
696.33818	0.00515
694.27800	0.00495
692.21783	0.00469
690.15766	0.00438
688.09749	0.00408
686.03731	0.00389
683.97714	0.00377
681.91697	0.00359
679.85680	0.00330
677.79663	0.00288
675.73645	0.00238
673.67628	0.00183
671.61611	0.00133
669.55594	0.00101
667.49577	0.00084
665.43559	0.00056
663.37542	0.00021
661.31525	0.00009
659.25508	0.00033
657.19491	0.00087
655.13473	0.00148
653.07456	0.00190
651.01439	0.00210
648.95422	0.00234
646.89404	0.00278
644.83387	0.00322
642.77370	0.00338
640.71353	0.00315
638.65336	0.00265
636.59318	0.00211
634.53301	0.00154
632.47284	0.00083
630.41267	0.00014
628.35250	0.00009
626.29232	0.00086
624.23215	0.00129
622.17198	0.00086
620.11181	0.00082
618.05164	0.00212
615.99146	0.00357
613.93129	0.00401
611.87112	0.00413
609.81095	0.00481
607.75077	0.00518
605.69060	0.00380
603.63043	0.00136
601.57026	0.00000
599.51009	0.00000
