3996.73391	0.00031
3994.67373	0.00037
3992.61356	0.00038
3990.55339	0.00030
3988.49322	0.00016
3986.43305	0.00004
3984.37287	0.00000
3982.31270	0.00008
3980.25253	0.00026
3978.19236	0.00047
3976.13219	0.00060
3974.07201	0.00063
3972.01184	0.00059
3969.95167	0.00057
3967.89150	0.00062
3965.83133	0.00067
3963.77115	0.00061
3961.71098	0.00042
3959.65081	0.00021
3957.59064	0.00016
3955.53046	0.00026
3953.47029	0.00038
3951.41012	0.00041
3949.34995	0.00041
3947.28978	0.00047
3945.22960	0.00060
3943.16943	0.00076
3941.10926	0.00088
3939.04909	0.00099
3936.98892	0.00111
3934.92874	0.00117
3932.86857	0.00110
3930.80840	0.00096
3928.74823	0.00090
3926.68805	0.00096
3924.62788	0.00101
3922.56771	0.00089
3920.50754	0.00058
3918.44737	0.00023
3916.38719	0.00003
3914.32702	0.00008
3912.26685	0.00033
3910.20668	0.00068
3908.14651	0.00105
3906.08633	0.00141
3904.02616	0.00166
3901.96599	0.00176
3899.90582	0.00170
3897.84565	0.00157
3895.78547	0.00145
3893.72530	0.00139
3891.66513	0.00130
3889.60496	0.00117
3887.54478	0.00105
3885.48461	0.00093
3883.42444	0.00075
3881.36427	0.00057
3879.30410	0.00049
3877.24392	0.00057
3875.18375	0.00078
3873.12358	0.00094
3871.06341	0.00100
3869.00324	0.00101
3866.94306	0.00107
3864.88289	0.00122
3862.82272	0.00136
3860.76255	0.00144
3858.70237	0.00150
3856.64220	0.00160
3854.58203	0.00165
3852.52186	0.00150
3850.46169	0.00120
3848.40151	0.00094
3846.34134	0.00089
3844.28117	0.00105
3842.22100	0.00124
3840.16083	0.00128
3838.10065	0.00111
3836.04048	0.00083
3833.98031	0.00066
3831.92014	0.00066
3829.85997	0.00074
3827.79979	0.00086
3825.73962	0.00106
3823.67945	0.00132
3821.61928	0.00149
3819.55910	0.00142
3817.49893	0.00114
3815.43876	0.00079
3813.37859	0.00050
3811.31842	0.00041
3809.25824	0.00053
3807.19807	0.00074
3805.13790	0.00087
3803.07773	0.00087
3801.01756	0.00075
3798.95738	0.00058
3796.89721	0.00046
3794.83704	0.00043
3792.77687	0.00049
3790.71670	0.00059
3788.65652	0.00067
3786.59635	0.00069
3784.53618	0.00066
3782.47601	0.00061
3780.41583	0.00062
3778.35566	0.00072
3776.29549	0.00091
3774.23532	0.00114
3772.17515	0.00132
3770.11497	0.00131
3768.05480	0.00107
3765.99463	0.00078
3763.93446	0.00064
3761.87429	0.00076
3759.81411	0.00102
3757.75394	0.00127
3755.69377	0.00143
3753.63360	0.00150
3751.57342	0.00144
3749.51325	0.00127
3747.45308	0.00119
3745.39291	0.00126
3743.33274	0.00137
3741.27256	0.00151
3739.21239	0.00178
3737.15222	0.00206
3735.09205	0.00206
3733.03188	0.00168
3730.97170	0.00124
3728.91153	0.00104
3726.85136	0.00112
3724.79119	0.00131
3722.73102	0.00137
3720.67084	0.00122
3718.61067	0.00102
3716.55050	0.00093
3714.49033	0.00098
3712.43015	0.00100
3710.36998	0.00084
3708.30981	0.00057
3706.24964	0.00039
3704.18947	0.00043
3702.12929	0.00052
3700.06912	0.00045
3698.00895	0.00028
3695.94878	0.00023
3693.88861	0.00041
3691.82843	0.00070
3689.76826	0.00081
3687.70809	0.00060
3685.64792	0.00027
3683.58775	0.00013
3681.52757	0.00031
3679.46740	0.00077
3677.40723	0.00125
3675.34706	0.00148
3673.28688	0.00133
3671.22671	0.00094
3669.16654	0.00053
3667.10637	0.00026
3665.04620	0.00017
3662.98602	0.00021
3660.92585	0.00033
3658.86568	0.00052
3656.80551	0.00077
3654.74534	0.00112
3652.68516	0.00157
3650.62499	0.00196
3648.56482	0.00216
3646.50465	0.00221
3644.44447	0.00219
3642.38430	0.00217
3640.32413	0.00224
3638.26396	0.00249
3636.20379	0.00289
3634.14361	0.00337
3632.08344	0.00375
3630.02327	0.00384
3627.96310	0.00362
3625.90293	0.00337
3623.84275	0.00338
3621.78258	0.00367
3619.72241	0.00404
3617.66224	0.00429
3615.60207	0.00440
3613.54189	0.00439
3611.48172	0.00426
3609.42155	0.00414
3607.36138	0.00418
3605.30120	0.00442
3603.24103	0.00484
3601.18086	0.00525
3599.12069	0.00555
3597.06052	0.00579
3595.00034	0.00605
3592.94017	0.00635
3590.88000	0.00672
3588.81983	0.00718
3586.75966	0.00761
3584.69948	0.00784
3582.63931	0.00787
3580.57914	0.00790
3578.51897	0.00808
3576.45879	0.00839
3574.39862	0.00873
3572.33845	0.00903
3570.27828	0.00938
3568.21811	0.00986
3566.15793	0.01041
3564.09776	0.01091
3562.03759	0.01129
3559.97742	0.01160
3557.91725	0.01192
3555.85707	0.01228
3553.79690	0.01269
3551.73673	0.01311
3549.67656	0.01351
3547.61639	0.01388
3545.55621	0.01421
3543.49604	0.01444
3541.43587	0.01463
3539.37570	0.01488
3537.31552	0.01527
3535.25535	0.01577
3533.19518	0.01631
3531.13501	0.01683
3529.07484	0.01729
3527.01466	0.01765
3524.95449	0.01785
3522.89432	0.01794
3520.83415	0.01806
3518.77398	0.01832
3516.71380	0.01874
3514.65363	0.01925
3512.59346	0.01971
3510.53329	0.02005
3508.47312	0.02032
3506.41294	0.02070
3504.35277	0.02122
3502.29260	0.02177
3500.23243	0.02225
3498.17225	0.02275
3496.11208	0.02331
3494.05191	0.02383
3491.99174	0.02421
3489.93157	0.02447
3487.87139	0.02475
3485.81122	0.02509
3483.75105	0.02545
3481.69088	0.02577
3479.63071	0.02605
3477.57053	0.02633
3475.51036	0.02665
3473.45019	0.02700
3471.39002	0.02746
3469.32984	0.02803
3467.26967	0.02861
3465.20950	0.02905
3463.14933	0.02931
3461.08916	0.02951
3459.02898	0.02977
3456.96881	0.03017
3454.90864	0.03069
3452.84847	0.03127
3450.78830	0.03184
3448.72812	0.03233
3446.66795	0.03268
3444.60778	0.03288
3442.54761	0.03299
3440.48744	0.03310
3438.42726	0.03324
3436.36709	0.03344
3434.30692	0.03374
3432.24675	0.03417
3430.18657	0.03472
3428.12640	0.03532
3426.06623	0.03589
3424.00606	0.03635
3421.94589	0.03666
3419.88571	0.03680
3417.82554	0.03689
3415.76537	0.03709
3413.70520	0.03747
3411.64503	0.03799
3409.58485	0.03853
3407.52468	0.03903
3405.46451	0.03943
3403.40434	0.03971
3401.34416	0.03983
3399.28399	0.03982
3397.22382	0.03979
3395.16365	0.03986
3393.10348	0.04004
3391.04330	0.04021
3388.98313	0.04033
3386.92296	0.04047
3384.86279	0.04069
3382.80262	0.04098
3380.74244	0.04133
3378.68227	0.04167
3376.62210	0.04193
3374.56193	0.04208
3372.50176	0.04224
3370.44158	0.04252
3368.38141	0.04294
3366.32124	0.04339
3364.26107	0.04368
3362.20089	0.04374
3360.14072	0.04364
3358.08055	0.04356
3356.02038	0.04363
3353.96021	0.04386
3351.90003	0.04421
3349.83986	0.04454
3347.77969	0.04472
3345.71952	0.04477
3343.65935	0.04480
3341.59917	0.04490
3339.53900	0.04507
3337.47883	0.04518
3335.41866	0.04514
3333.35849	0.04501
3331.29831	0.04490
3329.23814	0.04488
3327.17797	0.04499
3325.11780	0.04515
3323.05762	0.04527
3320.99745	0.04534
3318.93728	0.04545
3316.87711	0.04561
3314.81694	0.04576
3312.75676	0.04584
3310.69659	0.04586
3308.63642	0.04589
3306.57625	0.04595
3304.51608	0.04599
3302.45590	0.04598
3300.39573	0.04600
3298.33556	0.04610
3296.27539	0.04627
3294.21521	0.04639
3292.15504	0.04641
3290.09487	0.04631
3288.03470	0.04618
3285.97453	0.04608
3283.91435	0.04602
3281.85418	0.04605
3279.79401	0.04616
3277.73384	0.04629
3275.67367	0.04629
3273.61349	0.04612
3271.55332	0.04586
3269.49315	0.04565
3267.43298	0.04550
3265.37281	0.04533
3263.31263	0.04513
3261.25246	0.04495
3259.19229	0.04487
3257.13212	0.04489
3255.07194	0.04496
3253.01177	0.04500
3250.95160	0.04498
3248.89143	0.04495
3246.83126	0.04494
3244.77108	0.04494
3242.71091	0.04488
3240.65074	0.04467
3238.59057	0.04436
3236.53040	0.04412
3234.47022	0.04405
3232.41005	0.04405
3230.34988	0.04400
3228.28971	0.04384
3226.22954	0.04363
3224.16936	0.04341
3222.10919	0.04320
3220.04902	0.04299
3217.98885	0.04281
3215.92867	0.04265
3213.86850	0.04254
3211.80833	0.04251
3209.74816	0.04252
3207.68799	0.04252
3205.62781	0.04247
3203.56764	0.04236
3201.50747	0.04211
3199.44730	0.04173
3197.38713	0.04131
3195.32695	0.04096
3193.26678	0.04070
3191.20661	0.04052
3189.14644	0.04033
3187.08626	0.04010
3185.02609	0.03983
3182.96592	0.03962
3180.90575	0.03947
3178.84558	0.03928
3176.78540	0.03899
3174.72523	0.03862
3172.66506	0.03823
3170.60489	0.03788
3168.54472	0.03764
3166.48454	0.03757
3164.42437	0.03762
3162.36420	0.03761
3160.30403	0.03741
3158.24386	0.03703
3156.18368	0.03659
3154.12351	0.03618
3152.06334	0.03582
3150.00317	0.03550
3147.94299	0.03522
3145.88282	0.03500
3143.82265	0.03484
3141.76248	0.03471
3139.70231	0.03455
3137.64213	0.03435
3135.58196	0.03408
3133.52179	0.03376
3131.46162	0.03341
3129.40145	0.03309
3127.34127	0.03281
3125.28110	0.03257
3123.22093	0.03236
3121.16076	0.03218
3119.10058	0.03201
3117.04041	0.03178
3114.98024	0.03147
3112.92007	0.03110
3110.85990	0.03073
3108.79972	0.03044
3106.73955	0.03030
3104.67938	0.03026
3102.61921	0.03016
3100.55904	0.02990
3098.49886	0.02953
3096.43869	0.02918
3094.37852	0.02889
3092.31835	0.02864
3090.25818	0.02842
3088.19800	0.02824
3086.13783	0.02809
3084.07766	0.02791
3082.01749	0.02768
3079.95731	0.02740
3077.89714	0.02708
3075.83697	0.02677
3073.77680	0.02651
3071.71663	0.02632
3069.65645	0.02614
3067.59628	0.02592
3065.53611	0.02565
3063.47594	0.02538
3061.41577	0.02515
3059.35559	0.02492
3057.29542	0.02463
3055.23525	0.02430
3053.17508	0.02396
3051.11491	0.02368
3049.05473	0.02349
3046.99456	0.02341
3044.93439	0.02337
3042.87422	0.02330
3040.81404	0.02312
3038.75387	0.02286
3036.69370	0.02257
3034.63353	0.02232
3032.57336	0.02215
3030.51318	0.02209
3028.45301	0.02206
3026.39284	0.02195
3024.33267	0.02170
3022.27250	0.02144
3020.21232	0.02128
3018.15215	0.02123
3016.09198	0.02124
3014.03181	0.02124
3011.97163	0.02116
3009.91146	0.02100
3007.85129	0.02077
3005.79112	0.02049
3003.73095	0.02027
3001.67077	0.02017
2999.61060	0.02013
2997.55043	0.02002
2995.49026	0.01980
2993.43009	0.01957
2991.36991	0.01943
2989.30974	0.01946
2987.24957	0.01962
2985.18940	0.01982
2983.12923	0.02003
2981.06905	0.02031
2979.00888	0.02073
2976.94871	0.02128
2974.88854	0.02195
2972.82836	0.02274
2970.76819	0.02357
2968.70802	0.02447
2966.64785	0.02555
2964.58768	0.02674
2962.52750	0.02792
2960.46733	0.02919
2958.40716	0.03069
2956.34699	0.03232
2954.28682	0.03389
2952.22664	0.03541
2950.16647	0.03693
2948.10630	0.03852
2946.04613	0.04036
2943.98596	0.04255
2941.92578	0.04485
2939.86561	0.04705
2937.80544	0.04925
2935.74527	0.05155
2933.68509	0.05378
2931.62492	0.05579
2929.56475	0.05762
2927.50458	0.05930
2925.44441	0.06078
2923.38423	0.06202
2921.32406	0.06292
2919.26389	0.06311
2917.20372	0.06228
2915.14355	0.06050
2913.08337	0.05805
2911.02320	0.05531
2908.96303	0.05275
2906.90286	0.05070
2904.84268	0.04907
2902.78251	0.04754
2900.72234	0.04600
2898.66217	0.04460
2896.60200	0.04343
2894.54182	0.04230
2892.48165	0.04110
2890.42148	0.03997
2888.36131	0.03903
2886.30114	0.03829
2884.24096	0.03780
2882.18079	0.03748
2880.12062	0.03724
2878.06045	0.03703
2876.00028	0.03692
2873.94010	0.03699
2871.87993	0.03726
2869.81976	0.03769
2867.75959	0.03825
2865.69941	0.03902
2863.63924	0.04011
2861.57907	0.04149
2859.51890	0.04314
2857.45873	0.04498
2855.39855	0.04683
2853.33838	0.04829
2851.27821	0.04883
2849.21804	0.04791
2847.15787	0.04546
2845.09769	0.04219
2843.03752	0.03894
2840.97735	0.03609
2838.91718	0.03374
2836.85700	0.03193
2834.79683	0.03056
2832.73666	0.02950
2830.67649	0.02870
2828.61632	0.02800
2826.55614	0.02726
2824.49597	0.02652
2822.43580	0.02585
2820.37563	0.02528
2818.31546	0.02478
2816.25528	0.02437
2814.19511	0.02405
2812.13494	0.02373
2810.07477	0.02331
2808.01460	0.02287
2805.95442	0.02256
2803.89425	0.02227
2801.83408	0.02194
2799.77391	0.02168
2797.71373	0.02157
2795.65356	0.02145
2793.59339	0.02121
2791.53322	0.02095
2789.47305	0.02074
2787.41287	0.02057
2785.35270	0.02038
2783.29253	0.02015
2781.23236	0.01992
2779.17219	0.01971
2777.11201	0.01952
2775.05184	0.01941
2772.99167	0.01944
2770.93150	0.01947
2768.87133	0.01929
2766.81115	0.01896
2764.75098	0.01877
2762.69081	0.01874
2760.63064	0.01870
2758.57046	0.01851
2756.51029	0.01824
2754.45012	0.01810
2752.38995	0.01822
2750.32978	0.01842
2748.26960	0.01846
2746.20943	0.01837
2744.14926	0.01821
2742.08909	0.01805
2740.02892	0.01799
2737.96874	0.01805
2735.90857	0.01812
2733.84840	0.01809
2731.78823	0.01794
2729.72805	0.01772
2727.66788	0.01750
2725.60771	0.01740
2723.54754	0.01743
2721.48737	0.01745
2719.42719	0.01739
2717.36702	0.01731
2715.30685	0.01727
2713.24668	0.01728
2711.18651	0.01733
2709.12633	0.01731
2707.06616	0.01717
2705.00599	0.01703
2702.94582	0.01701
2700.88565	0.01709
2698.82547	0.01709
2696.76530	0.01691
2694.70513	0.01659
2692.64496	0.01633
2690.58478	0.01631
2688.52461	0.01647
2686.46444	0.01662
2684.40427	0.01666
2682.34410	0.01662
2680.28392	0.01653
2678.22375	0.01644
2676.16358	0.01634
2674.10341	0.01619
2672.04324	0.01605
2669.98306	0.01600
2667.92289	0.01608
2665.86272	0.01619
2663.80255	0.01615
2661.74238	0.01593
2659.68220	0.01575
2657.62203	0.01568
2655.56186	0.01559
2653.50169	0.01546
2651.44151	0.01538
2649.38134	0.01534
2647.32117	0.01531
2645.26100	0.01541
2643.20083	0.01558
2641.14065	0.01560
2639.08048	0.01544
2637.02031	0.01520
2634.96014	0.01496
2632.89997	0.01471
2630.83979	0.01458
2628.77962	0.01470
2626.71945	0.01486
2624.65928	0.01474
2622.59910	0.01442
2620.53893	0.01422
2618.47876	0.01420
2616.41859	0.01416
2614.35842	0.01400
2612.29824	0.01377
2610.23807	0.01364
2608.17790	0.01372
2606.11773	0.01388
2604.05756	0.01382
2601.99738	0.01346
2599.93721	0.01312
2597.87704	0.01298
2595.81687	0.01288
2593.75670	0.01281
2591.69652	0.01290
2589.63635	0.01301
2587.57618	0.01292
2585.51601	0.01274
2583.45583	0.01261
2581.39566	0.01249
2579.33549	0.01230
2577.27532	0.01202
2575.21515	0.01178
2573.15497	0.01169
2571.09480	0.01176
2569.03463	0.01186
2566.97446	0.01187
2564.91429	0.01191
2562.85411	0.01208
2560.79394	0.01220
2558.73377	0.01210
2556.67360	0.01187
2554.61342	0.01165
2552.55325	0.01144
2550.49308	0.01117
2548.43291	0.01104
2546.37274	0.01126
2544.31256	0.01165
2542.25239	0.01180
2540.19222	0.01159
2538.13205	0.01124
2536.07188	0.01099
2534.01170	0.01094
2531.95153	0.01104
2529.89136	0.01122
2527.83119	0.01131
2525.77102	0.01124
2523.71084	0.01106
2521.65067	0.01077
2519.59050	0.01040
2517.53033	0.01014
2515.47015	0.01011
2513.40998	0.01017
2511.34981	0.01013
2509.28964	0.01000
2507.22947	0.00995
2505.16929	0.01007
2503.10912	0.01027
2501.04895	0.01030
2498.98878	0.01006
2496.92861	0.00981
2494.86843	0.00975
2492.80826	0.00980
2490.74809	0.00986
2488.68792	0.00982
2486.62775	0.00959
2484.56757	0.00932
2482.50740	0.00922
2480.44723	0.00924
2478.38706	0.00927
2476.32688	0.00943
2474.26671	0.00972
2472.20654	0.00987
2470.14637	0.00983
2468.08620	0.00965
2466.02602	0.00929
2463.96585	0.00885
2461.90568	0.00862
2459.84551	0.00869
2457.78534	0.00894
2455.72516	0.00913
2453.66499	0.00918
2451.60482	0.00919
2449.54465	0.00919
2447.48447	0.00912
2445.42430	0.00895
2443.36413	0.00871
2441.30396	0.00851
2439.24379	0.00858
2437.18361	0.00889
2435.12344	0.00912
2433.06327	0.00911
2431.00310	0.00898
2428.94293	0.00874
2426.88275	0.00840
2424.82258	0.00813
2422.76241	0.00802
2420.70224	0.00796
2418.64207	0.00786
2416.58189	0.00784
2414.52172	0.00811
2412.46155	0.00846
2410.40138	0.00859
2408.34120	0.00849
2406.28103	0.00837
2404.22086	0.00836
2402.16069	0.00842
2400.10052	0.00836
2398.04034	0.00813
2395.98017	0.00781
2393.92000	0.00754
2391.85983	0.00738
2389.79966	0.00737
2387.73948	0.00749
2385.67931	0.00767
2383.61914	0.00783
2381.55897	0.00792
2379.49880	0.00789
2377.43862	0.00777
2375.37845	0.00762
2373.31828	0.00741
2371.25811	0.00716
2369.19793	0.00696
2367.13776	0.00685
2365.07759	0.00674
2363.01742	0.00666
2360.95725	0.00682
2358.89707	0.00724
2356.83690	0.00767
2354.77673	0.00794
2352.71656	0.00801
2350.65639	0.00785
2348.59621	0.00759
2346.53604	0.00747
2344.47587	0.00774
2342.41570	0.00830
2340.35552	0.00884
2338.29535	0.00912
2336.23518	0.00915
2334.17501	0.00906
2332.11484	0.00895
2330.05466	0.00891
2327.99449	0.00899
2325.93432	0.00913
2323.87415	0.00916
2321.81398	0.00897
2319.75380	0.00864
2317.69363	0.00829
2315.63346	0.00796
2313.57329	0.00766
2311.51312	0.00747
2309.45294	0.00743
2307.39277	0.00749
2305.33260	0.00758
2303.27243	0.00763
2301.21225	0.00768
2299.15208	0.00775
2297.09191	0.00781
2295.03174	0.00784
2292.97157	0.00782
2290.91139	0.00777
2288.85122	0.00778
2286.79105	0.00795
2284.73088	0.00817
2282.67071	0.00831
2280.61053	0.00834
2278.55036	0.00837
2276.49019	0.00834
2274.43002	0.00803
2272.36984	0.00739
2270.30967	0.00662
2268.24950	0.00603
2266.18933	0.00578
2264.12916	0.00572
2262.06898	0.00572
2260.00881	0.00574
2257.94864	0.00578
2255.88847	0.00577
2253.82830	0.00572
2251.76812	0.00574
2249.70795	0.00590
2247.64778	0.00614
2245.58761	0.00629
2243.52744	0.00636
2241.46726	0.00642
2239.40709	0.00649
2237.34692	0.00663
2235.28675	0.00676
2233.22657	0.00648
2231.16640	0.00570
2229.10623	0.00505
2227.04606	0.00494
2224.98589	0.00505
2222.92571	0.00502
2220.86554	0.00512
2218.80537	0.00588
2216.74520	0.00692
2214.68503	0.00730
2212.62485	0.00677
2210.56468	0.00575
2208.50451	0.00472
2206.44434	0.00396
2204.38417	0.00345
2202.32399	0.00318
2200.26382	0.00329
2198.20365	0.00367
2196.14348	0.00402
2194.08330	0.00428
2192.02313	0.00465
2189.96296	0.00529
2187.90279	0.00595
2185.84262	0.00618
2183.78244	0.00615
2181.72227	0.00628
2179.66210	0.00611
2177.60193	0.00522
2175.54176	0.00430
2173.48158	0.00435
2171.42141	0.00543
2169.36124	0.00612
2167.30107	0.00527
2165.24089	0.00399
2163.18072	0.00363
2161.12055	0.00363
2159.06038	0.00299
2157.00021	0.00194
2154.94003	0.00129
2152.87986	0.00135
2150.81969	0.00179
2148.75952	0.00229
2146.69935	0.00275
2144.63917	0.00302
2142.57900	0.00307
2140.51883	0.00316
2138.45866	0.00347
2136.39849	0.00386
2134.33831	0.00395
2132.27814	0.00382
2130.21797	0.00381
2128.15780	0.00395
2126.09762	0.00422
2124.03745	0.00462
2121.97728	0.00501
2119.91711	0.00525
2117.85694	0.00522
2115.79676	0.00513
2113.73659	0.00519
2111.67642	0.00528
2109.61625	0.00522
2107.55608	0.00514
2105.49590	0.00538
2103.43573	0.00579
2101.37556	0.00574
2099.31539	0.00524
2097.25521	0.00465
2095.19504	0.00416
2093.13487	0.00384
2091.07470	0.00375
2089.01453	0.00384
2086.95435	0.00402
2084.89418	0.00426
2082.83401	0.00458
2080.77384	0.00488
2078.71367	0.00504
2076.65349	0.00499
2074.59332	0.00483
2072.53315	0.00467
2070.47298	0.00458
2068.41281	0.00446
2066.35263	0.00422
2064.29246	0.00391
2062.23229	0.00372
2060.17212	0.00375
2058.11194	0.00388
2056.05177	0.00394
2053.99160	0.00389
2051.93143	0.00381
2049.87126	0.00381
2047.81108	0.00401
2045.75091	0.00436
2043.69074	0.00459
2041.63057	0.00437
2039.57040	0.00356
2037.51022	0.00235
2035.45005	0.00129
2033.38988	0.00082
2031.32971	0.00089
2029.26954	0.00118
2027.20936	0.00148
2025.14919	0.00183
2023.08902	0.00220
2021.02885	0.00248
2018.96867	0.00255
2016.90850	0.00246
2014.84833	0.00240
2012.78816	0.00239
2010.72799	0.00228
2008.66781	0.00207
2006.60764	0.00197
2004.54747	0.00215
2002.48730	0.00252
2000.42713	0.00285
1998.36695	0.00299
1996.30678	0.00296
1994.24661	0.00288
1992.18644	0.00284
1990.12626	0.00288
1988.06609	0.00297
1986.00592	0.00304
1983.94575	0.00300
1981.88558	0.00276
1979.82540	0.00242
1977.76523	0.00217
1975.70506	0.00198
1973.64489	0.00158
1971.58472	0.00106
1969.52454	0.00086
1967.46437	0.00105
1965.40420	0.00132
1963.34403	0.00143
1961.28386	0.00143
1959.22368	0.00147
1957.16351	0.00155
1955.10334	0.00171
1953.04317	0.00199
1950.98299	0.00225
1948.92282	0.00216
1946.86265	0.00168
1944.80248	0.00111
1942.74231	0.00082
1940.68213	0.00092
1938.62196	0.00132
1936.56179	0.00189
1934.50162	0.00240
1932.44145	0.00268
1930.38127	0.00266
1928.32110	0.00251
1926.26093	0.00250
1924.20076	0.00269
1922.14059	0.00292
1920.08041	0.00293
1918.02024	0.00270
1915.96007	0.00237
1913.89990	0.00210
1911.83972	0.00202
1909.77955	0.00209
1907.71938	0.00222
1905.65921	0.00232
1903.59904	0.00242
1901.53886	0.00251
1899.47869	0.00259
1897.41852	0.00261
1895.35835	0.00250
1893.29818	0.00230
1891.23800	0.00219
1889.17783	0.00226
1887.11766	0.00243
1885.05749	0.00260
1882.99731	0.00265
1880.93714	0.00254
1878.87697	0.00229
1876.81680	0.00205
1874.75663	0.00189
1872.69645	0.00180
1870.63628	0.00170
1868.57611	0.00154
1866.51594	0.00139
1864.45577	0.00136
1862.39559	0.00148
1860.33542	0.00167
1858.27525	0.00181
1856.21508	0.00178
1854.15491	0.00161
1852.09473	0.00141
1850.03456	0.00128
1847.97439	0.00121
1845.91422	0.00121
1843.85404	0.00133
1841.79387	0.00157
1839.73370	0.00186
1837.67353	0.00207
1835.61336	0.00219
1833.55318	0.00222
1831.49301	0.00214
1829.43284	0.00193
1827.37267	0.00165
1825.31250	0.00139
1823.25232	0.00117
1821.19215	0.00100
1819.13198	0.00091
1817.07181	0.00091
1815.01163	0.00102
1812.95146	0.00119
1810.89129	0.00135
1808.83112	0.00145
1806.77095	0.00148
1804.71077	0.00146
1802.65060	0.00143
1800.59043	0.00139
1798.53026	0.00133
1796.47009	0.00128
1794.40991	0.00123
1792.34974	0.00115
1790.28957	0.00102
1788.22940	0.00090
1786.16923	0.00085
1784.10905	0.00087
1782.04888	0.00092
1779.98871	0.00089
1777.92854	0.00081
1775.86836	0.00071
1773.80819	0.00072
1771.74802	0.00085
1769.68785	0.00108
1767.62768	0.00141
1765.56750	0.00187
1763.50733	0.00252
1761.44716	0.00339
1759.38699	0.00448
1757.32682	0.00579
1755.26664	0.00730
1753.20647	0.00899
1751.14630	0.01078
1749.08613	0.01244
1747.02596	0.01376
1744.96578	0.01471
1742.90561	0.01537
1740.84544	0.01587
1738.78527	0.01629
1736.72509	0.01666
1734.66492	0.01690
1732.60475	0.01688
1730.54458	0.01659
1728.48441	0.01623
1726.42423	0.01602
1724.36406	0.01603
1722.30389	0.01624
1720.24372	0.01660
1718.18355	0.01700
1716.12337	0.01725
1714.06320	0.01728
1712.00303	0.01715
1709.94286	0.01693
1707.88268	0.01669
1705.82251	0.01647
1703.76234	0.01632
1701.70217	0.01630
1699.64200	0.01639
1697.58182	0.01656
1695.52165	0.01681
1693.46148	0.01724
1691.40131	0.01798
1689.34114	0.01916
1687.28096	0.02076
1685.22079	0.02274
1683.16062	0.02488
1681.10045	0.02683
1679.04028	0.02847
1676.98010	0.02977
1674.91993	0.03072
1672.85976	0.03124
1670.79959	0.03131
1668.73941	0.03092
1666.67924	0.03017
1664.61907	0.02930
1662.55890	0.02850
1660.49873	0.02784
1658.43855	0.02735
1656.37838	0.02709
1654.31821	0.02706
1652.25804	0.02710
1650.19787	0.02705
1648.13769	0.02696
1646.07752	0.02686
1644.01735	0.02677
1641.95718	0.02682
1639.89701	0.02717
1637.83683	0.02784
1635.77666	0.02866
1633.71649	0.02937
1631.65632	0.02988
1629.59614	0.03029
1627.53597	0.03069
1625.47580	0.03105
1623.41563	0.03132
1621.35546	0.03152
1619.29528	0.03173
1617.23511	0.03209
1615.17494	0.03268
1613.11477	0.03354
1611.05460	0.03470
1608.99442	0.03596
1606.93425	0.03690
1604.87408	0.03715
1602.81391	0.03660
1600.75373	0.03543
1598.69356	0.03396
1596.63339	0.03247
1594.57322	0.03115
1592.51305	0.03004
1590.45287	0.02911
1588.39270	0.02823
1586.33253	0.02735
1584.27236	0.02645
1582.21219	0.02560
1580.15201	0.02487
1578.09184	0.02429
1576.03167	0.02376
1573.97150	0.02321
1571.91133	0.02261
1569.85115	0.02194
1567.79098	0.02114
1565.73081	0.02028
1563.67064	0.01947
1561.61046	0.01878
1559.55029	0.01808
1557.49012	0.01715
1555.42995	0.01605
1553.36978	0.01497
1551.30960	0.01407
1549.24943	0.01338
1547.18926	0.01292
1545.12909	0.01263
1543.06892	0.01236
1541.00874	0.01186
1538.94857	0.01097
1536.88840	0.00988
1534.82823	0.00895
1532.76805	0.00830
1530.70788	0.00790
1528.64771	0.00772
1526.58754	0.00781
1524.52737	0.00823
1522.46719	0.00909
1520.40702	0.01029
1518.34685	0.01153
1516.28668	0.01246
1514.22651	0.01278
1512.16633	0.01244
1510.10616	0.01153
1508.04599	0.01013
1505.98582	0.00838
1503.92565	0.00671
1501.86547	0.00546
1499.80530	0.00463
1497.74513	0.00398
1495.68496	0.00333
1493.62478	0.00270
1491.56461	0.00220
1489.50444	0.00181
1487.44427	0.00147
1485.38410	0.00123
1483.32392	0.00122
1481.26375	0.00155
1479.20358	0.00226
1477.14341	0.00344
1475.08324	0.00512
1473.02306	0.00715
1470.96289	0.00926
1468.90272	0.01126
1466.84255	0.01311
1464.78238	0.01475
1462.72220	0.01606
1460.66203	0.01713
1458.60186	0.01816
1456.54169	0.01916
1454.48151	0.01995
1452.42134	0.02053
1450.36117	0.02111
1448.30100	0.02180
1446.24083	0.02256
1444.18065	0.02334
1442.12048	0.02414
1440.06031	0.02498
1438.00014	0.02580
1435.93997	0.02645
1433.87979	0.02681
1431.81962	0.02693
1429.75945	0.02696
1427.69928	0.02696
1425.63910	0.02702
1423.57893	0.02720
1421.51876	0.02750
1419.45859	0.02784
1417.39842	0.02801
1415.33824	0.02788
1413.27807	0.02751
1411.21790	0.02698
1409.15773	0.02634
1407.09756	0.02562
1405.03738	0.02483
1402.97721	0.02402
1400.91704	0.02327
1398.85687	0.02261
1396.79670	0.02201
1394.73652	0.02145
1392.67635	0.02099
1390.61618	0.02076
1388.55601	0.02088
1386.49583	0.02130
1384.43566	0.02193
1382.37549	0.02266
1380.31532	0.02342
1378.25515	0.02413
1376.19497	0.02472
1374.13480	0.02510
1372.07463	0.02522
1370.01446	0.02512
1367.95429	0.02489
1365.89411	0.02458
1363.83394	0.02421
1361.77377	0.02378
1359.71360	0.02335
1357.65343	0.02303
1355.59325	0.02285
1353.53308	0.02278
1351.47291	0.02272
1349.41274	0.02262
1347.35256	0.02246
1345.29239	0.02230
1343.23222	0.02220
1341.17205	0.02221
1339.11188	0.02228
1337.05170	0.02229
1334.99153	0.02221
1332.93136	0.02211
1330.87119	0.02205
1328.81102	0.02205
1326.75084	0.02210
1324.69067	0.02217
1322.63050	0.02225
1320.57033	0.02228
1318.51015	0.02222
1316.44998	0.02206
1314.38981	0.02179
1312.32964	0.02144
1310.26947	0.02103
1308.20929	0.02055
1306.14912	0.02000
1304.08895	0.01939
1302.02878	0.01877
1299.96861	0.01824
1297.90843	0.01790
1295.84826	0.01780
1293.78809	0.01786
1291.72792	0.01802
1289.66775	0.01821
1287.60757	0.01841
1285.54740	0.01864
1283.48723	0.01889
1281.42706	0.01911
1279.36688	0.01927
1277.30671	0.01942
1275.24654	0.01962
1273.18637	0.01988
1271.12620	0.02022
1269.06602	0.02068
1267.00585	0.02131
1264.94568	0.02211
1262.88551	0.02296
1260.82534	0.02375
1258.76516	0.02443
1256.70499	0.02504
1254.64482	0.02559
1252.58465	0.02610
1250.52447	0.02654
1248.46430	0.02692
1246.40413	0.02721
1244.34396	0.02739
1242.28379	0.02747
1240.22361	0.02745
1238.16344	0.02731
1236.10327	0.02701
1234.04310	0.02650
1231.98293	0.02579
1229.92275	0.02492
1227.86258	0.02393
1225.80241	0.02283
1223.74224	0.02163
1221.68207	0.02035
1219.62189	0.01905
1217.56172	0.01777
1215.50155	0.01655
1213.44138	0.01538
1211.38120	0.01422
1209.32103	0.01303
1207.26086	0.01179
1205.20069	0.01047
1203.14052	0.00906
1201.08034	0.00757
1199.02017	0.00606
1196.96000	0.00464
1194.89983	0.00334
1192.83966	0.00226
1190.77948	0.00153
1188.71931	0.00117
1186.65914	0.00099
1184.59897	0.00092
1182.53880	0.00096
1180.47862	0.00130
1178.41845	0.00220
1176.35828	0.00371
1174.29811	0.00575
1172.23793	0.00810
1170.17776	0.01035
1168.11759	0.01212
1166.05742	0.01327
1163.99725	0.01395
1161.93707	0.01444
1159.87690	0.01494
1157.81673	0.01554
1155.75656	0.01622
1153.69639	0.01692
1151.63621	0.01773
1149.57604	0.01879
1147.51587	0.02008
1145.45570	0.02135
1143.39552	0.02242
1141.33535	0.02334
1139.27518	0.02412
1137.21501	0.02470
1135.15484	0.02514
1133.09466	0.02569
1131.03449	0.02648
1128.97432	0.02750
1126.91415	0.02871
1124.85398	0.02997
1122.79380	0.03114
1120.73363	0.03230
1118.67346	0.03358
1116.61329	0.03494
1114.55312	0.03621
1112.49294	0.03731
1110.43277	0.03834
1108.37260	0.03942
1106.31243	0.04053
1104.25225	0.04166
1102.19208	0.04302
1100.13191	0.04478
1098.07174	0.04681
1096.01157	0.04889
1093.95139	0.05090
1091.89122	0.05286
1089.83105	0.05473
1087.77088	0.05650
1085.71071	0.05830
1083.65053	0.06026
1081.59036	0.06229
1079.53019	0.06428
1077.47002	0.06636
1075.40985	0.06858
1073.34967	0.07078
1071.28950	0.07288
1069.22933	0.07475
1067.16916	0.07625
1065.10898	0.07743
1063.04881	0.07847
1060.98864	0.07952
1058.92847	0.08077
1056.86830	0.08233
1054.80812	0.08410
1052.74795	0.08598
1050.68778	0.08806
1048.62761	0.09049
1046.56744	0.09319
1044.50726	0.09584
1042.44709	0.09821
1040.38692	0.10026
1038.32675	0.10198
1036.26657	0.10331
1034.20640	0.10420
1032.14623	0.10460
1030.08606	0.10461
1028.02589	0.10446
1025.96571	0.10426
1023.90554	0.10403
1021.84537	0.10366
1019.78520	0.10317
1017.72503	0.10278
1015.66485	0.10263
1013.60468	0.10268
1011.54451	0.10278
1009.48434	0.10290
1007.42417	0.10299
1005.36399	0.10283
1003.30382	0.10225
1001.24365	0.10134
999.18348	0.10030
997.12330	0.09916
995.06313	0.09778
993.00296	0.09608
990.94279	0.09425
988.88262	0.09251
986.82244	0.09092
984.76227	0.08938
982.70210	0.08784
980.64193	0.08632
978.58176	0.08489
976.52158	0.08350
974.46141	0.08199
972.40124	0.08032
970.34107	0.07864
968.28089	0.07701
966.22072	0.07538
964.16055	0.07361
962.10038	0.07164
960.04021	0.06962
957.98003	0.06780
955.91986	0.06625
953.85969	0.06481
951.79952	0.06337
949.73935	0.06198
947.67917	0.06063
945.61900	0.05916
943.55883	0.05733
941.49866	0.05498
939.43849	0.05208
937.37831	0.04874
935.31814	0.04520
933.25797	0.04182
931.19780	0.03887
929.13762	0.03634
927.07745	0.03405
925.01728	0.03194
922.95711	0.03007
920.89694	0.02839
918.83676	0.02676
916.77659	0.02510
914.71642	0.02335
912.65625	0.02163
910.59608	0.02012
908.53590	0.01887
906.47573	0.01793
904.41556	0.01729
902.35539	0.01686
900.29522	0.01664
898.23504	0.01666
896.17487	0.01682
894.11470	0.01706
892.05453	0.01720
889.99435	0.01705
887.93418	0.01657
885.87401	0.01586
883.81384	0.01503
881.75367	0.01399
879.69349	0.01274
877.63332	0.01157
875.57315	0.01068
873.51298	0.00999
871.45281	0.00948
869.39263	0.00924
867.33246	0.00922
865.27229	0.00920
863.21212	0.00900
861.15194	0.00855
859.09177	0.00798
857.03160	0.00752
854.97143	0.00732
852.91126	0.00737
850.85108	0.00757
848.79091	0.00770
846.73074	0.00763
844.67057	0.00744
842.61040	0.00725
840.55022	0.00709
838.49005	0.00706
836.42988	0.00707
834.36971	0.00688
832.30954	0.00634
830.24936	0.00559
828.18919	0.00485
826.12902	0.00434
824.06885	0.00419
822.00867	0.00421
819.94850	0.00401
817.88833	0.00358
815.82816	0.00333
813.76799	0.00341
811.70781	0.00346
809.64764	0.00330
807.58747	0.00320
805.52730	0.00319
803.46713	0.00306
801.40695	0.00289
799.34678	0.00274
797.28661	0.00251
795.22644	0.00212
793.16627	0.00167
791.10609	0.00134
789.04592	0.00130
786.98575	0.00160
784.92558	0.00191
782.86540	0.00202
780.80523	0.00208
778.74506	0.00222
776.68489	0.00239
774.62472	0.00249
772.56454	0.00242
770.50437	0.00215
768.44420	0.00168
766.38403	0.00116
764.32386	0.00089
762.26368	0.00115
760.20351	0.00182
758.14334	0.00247
756.08317	0.00269
754.02299	0.00242
751.96282	0.00200
749.90265	0.00165
747.84248	0.00135
745.78231	0.00089
743.72213	0.00081
741.66196	0.00084
739.60179	0.00060
737.54162	0.00034
735.48145	0.00049
733.42127	0.00093
731.36110	0.00120
729.30093	0.00122
727.24076	0.00127
725.18059	0.00147
723.12041	0.00165
721.06024	0.00171
719.00007	0.00173
716.93990	0.00181
714.87972	0.00199
712.81955	0.00228
710.75938	0.00268
708.69921	0.00324
706.63904	0.00392
704.57886	0.00459
702.51869	0.00508
700.45852	0.00524
698.39835	0.00504
696.33818	0.00464
694.27800	0.00431
692.21783	0.00413
690.15766	0.00399
688.09749	0.00382
686.03731	0.00358
683.97714	0.00322
681.91697	0.00280
679.85680	0.00249
677.79663	0.00230
675.73645	0.00206
673.67628	0.00159
671.61611	0.00095
669.55594	0.00045
667.49577	0.00046
665.43559	0.00083
663.37542	0.00105
661.31525	0.00104
659.25508	0.00095
657.19491	0.00087
655.13473	0.00081
653.07456	0.00083
651.01439	0.00103
648.95422	0.00140
646.89404	0.00181
644.83387	0.00220
642.77370	0.00246
640.71353	0.00256
638.65336	0.00255
636.59318	0.00253
634.53301	0.00247
632.47284	0.00232
630.41267	0.00220
628.35250	0.00228
626.29232	0.00260
624.23215	0.00284
622.17198	0.00309
620.11181	0.00367
618.05164	0.00450
615.99146	0.00492
613.93129	0.00437
611.87112	0.00306
609.81095	0.00196
607.75077	0.00132
605.69060	0.00061
603.63043	0.00020
601.57026	0.00000
599.51009	0.00000
