3996.73391,0.00000
3994.67373,0.00035
3992.61356,0.00072
3990.55339,0.00105
3988.49322,0.00129
3986.43305,0.00149
3984.37287,0.00163
3982.31270,0.00158
3980.25253,0.00129
3978.19236,0.00090
3976.13219,0.00064
3974.07201,0.00064
3972.01184,0.00083
3969.95167,0.00105
3967.89150,0.00120
3965.83133,0.00130
3963.77115,0.00144
3961.71098,0.00167
3959.65081,0.00190
3957.59064,0.00202
3955.53046,0.00193
3953.47029,0.00172
3951.41012,0.00159
3949.34995,0.00161
3947.28978,0.00167
3945.22960,0.00168
3943.16943,0.00159
3941.10926,0.00141
3939.04909,0.00122
3936.98892,0.00112
3934.92874,0.00109
3932.86857,0.00106
3930.80840,0.00097
3928.74823,0.00088
3926.68805,0.00085
3924.62788,0.00095
3922.56771,0.00120
3920.50754,0.00151
3918.44737,0.00166
3916.38719,0.00159
3914.32702,0.00146
3912.26685,0.00148
3910.20668,0.00171
3908.14651,0.00204
3906.08633,0.00232
3904.02616,0.00255
3901.96599,0.00273
3899.90582,0.00283
3897.84565,0.00276
3895.78547,0.00259
3893.72530,0.00243
3891.66513,0.00238
3889.60496,0.00241
3887.54478,0.00246
3885.48461,0.00242
3883.42444,0.00227
3881.36427,0.00211
3879.30410,0.00197
3877.24392,0.00182
3875.18375,0.00174
3873.12358,0.00183
3871.06341,0.00208
3869.00324,0.00239
3866.94306,0.00268
3864.88289,0.00290
3862.82272,0.00292
3860.76255,0.00276
3858.70237,0.00262
3856.64220,0.00264
3854.58203,0.00270
3852.52186,0.00259
3850.46169,0.00235
3848.40151,0.00220
3846.34134,0.00232
3844.28117,0.00270
3842.22100,0.00321
3840.16083,0.00359
3838.10065,0.00360
3836.04048,0.00326
3833.98031,0.00277
3831.92014,0.00231
3829.85997,0.00204
3827.79979,0.00206
3825.73962,0.00231
3823.67945,0.00267
3821.61928,0.00306
3819.55910,0.00328
3817.49893,0.00318
3815.43876,0.00285
3813.37859,0.00249
3811.31842,0.00221
3809.25824,0.00200
3807.19807,0.00190
3805.13790,0.00208
3803.07773,0.00257
3801.01756,0.00302
3798.95738,0.00309
3796.89721,0.00276
3794.83704,0.00215
3792.77687,0.00142
3790.71670,0.00081
3788.65652,0.00056
3786.59635,0.00070
3784.53618,0.00107
3782.47601,0.00153
3780.41583,0.00196
3778.35566,0.00225
3776.29549,0.00241
3774.23532,0.00256
3772.17515,0.00268
3770.11497,0.00259
3768.05480,0.00227
3765.99463,0.00200
3763.93446,0.00209
3761.87429,0.00246
3759.81411,0.00279
3757.75394,0.00277
3755.69377,0.00253
3753.63360,0.00241
3751.57342,0.00251
3749.51325,0.00257
3747.45308,0.00239
3745.39291,0.00197
3743.33274,0.00152
3741.27256,0.00149
3739.21239,0.00208
3737.15222,0.00306
3735.09205,0.00379
3733.03188,0.00378
3730.97170,0.00322
3728.91153,0.00277
3726.85136,0.00278
3724.79119,0.00298
3722.73102,0.00293
3720.67084,0.00254
3718.61067,0.00214
3716.55050,0.00200
3714.49033,0.00217
3712.43015,0.00246
3710.36998,0.00264
3708.30981,0.00249
3706.24964,0.00206
3704.18947,0.00163
3702.12929,0.00138
3700.06912,0.00123
3698.00895,0.00108
3695.94878,0.00097
3693.88861,0.00103
3691.82843,0.00131
3689.76826,0.00162
3687.70809,0.00173
3685.64792,0.00176
3683.58775,0.00205
3681.52757,0.00274
3679.46740,0.00358
3677.40723,0.00410
3675.34706,0.00394
3673.28688,0.00315
3671.22671,0.00228
3669.16654,0.00171
3667.10637,0.00145
3665.04620,0.00140
3662.98602,0.00156
3660.92585,0.00193
3658.86568,0.00248
3656.80551,0.00312
3654.74534,0.00368
3652.68516,0.00409
3650.62499,0.00435
3648.56482,0.00433
3646.50465,0.00395
3644.44447,0.00335
3642.38430,0.00285
3640.32413,0.00265
3638.26396,0.00274
3636.20379,0.00295
3634.14361,0.00319
3632.08344,0.00344
3630.02327,0.00378
3627.96310,0.00415
3625.90293,0.00441
3623.84275,0.00463
3621.78258,0.00499
3619.72241,0.00546
3617.66224,0.00578
3615.60207,0.00585
3613.54189,0.00577
3611.48172,0.00576
3609.42155,0.00592
3607.36138,0.00608
3605.30120,0.00606
3603.24103,0.00597
3601.18086,0.00598
3599.12069,0.00615
3597.06052,0.00649
3595.00034,0.00686
3592.94017,0.00712
3590.88000,0.00727
3588.81983,0.00746
3586.75966,0.00773
3584.69948,0.00796
3582.63931,0.00809
3580.57914,0.00830
3578.51897,0.00864
3576.45879,0.00898
3574.39862,0.00920
3572.33845,0.00935
3570.27828,0.00961
3568.21811,0.01006
3566.15793,0.01059
3564.09776,0.01090
3562.03759,0.01090
3559.97742,0.01076
3557.91725,0.01068
3555.85707,0.01071
3553.79690,0.01079
3551.73673,0.01088
3549.67656,0.01098
3547.61639,0.01110
3545.55621,0.01120
3543.49604,0.01129
3541.43587,0.01145
3539.37570,0.01170
3537.31552,0.01197
3535.25535,0.01225
3533.19518,0.01261
3531.13501,0.01308
3529.07484,0.01356
3527.01466,0.01390
3524.95449,0.01400
3522.89432,0.01385
3520.83415,0.01356
3518.77398,0.01335
3516.71380,0.01339
3514.65363,0.01361
3512.59346,0.01382
3510.53329,0.01393
3508.47312,0.01401
3506.41294,0.01418
3504.35277,0.01450
3502.29260,0.01490
3500.23243,0.01526
3498.17225,0.01553
3496.11208,0.01566
3494.05191,0.01566
3491.99174,0.01560
3489.93157,0.01563
3487.87139,0.01588
3485.81122,0.01632
3483.75105,0.01674
3481.69088,0.01700
3479.63071,0.01709
3477.57053,0.01709
3475.51036,0.01718
3473.45019,0.01743
3471.39002,0.01779
3469.32984,0.01812
3467.26967,0.01835
3465.20950,0.01840
3463.14933,0.01825
3461.08916,0.01802
3459.02898,0.01791
3456.96881,0.01807
3454.90864,0.01847
3452.84847,0.01900
3450.78830,0.01958
3448.72812,0.02011
3446.66795,0.02046
3444.60778,0.02054
3442.54761,0.02042
3440.48744,0.02025
3438.42726,0.02018
3436.36709,0.02027
3434.30692,0.02054
3432.24675,0.02100
3430.18657,0.02153
3428.12640,0.02187
3426.06623,0.02187
3424.00606,0.02168
3421.94589,0.02149
3419.88571,0.02136
3417.82554,0.02125
3415.76537,0.02112
3413.70520,0.02100
3411.64503,0.02105
3409.58485,0.02136
3407.52468,0.02175
3405.46451,0.02201
3403.40434,0.02213
3401.34416,0.02229
3399.28399,0.02257
3397.22382,0.02289
3395.16365,0.02315
3393.10348,0.02328
3391.04330,0.02327
3388.98313,0.02320
3386.92296,0.02318
3384.86279,0.02332
3382.80262,0.02361
3380.74244,0.02396
3378.68227,0.02426
3376.62210,0.02442
3374.56193,0.02446
3372.50176,0.02451
3370.44158,0.02460
3368.38141,0.02461
3366.32124,0.02445
3364.26107,0.02427
3362.20089,0.02421
3360.14072,0.02429
3358.08055,0.02445
3356.02038,0.02465
3353.96021,0.02485
3351.90003,0.02504
3349.83986,0.02519
3347.77969,0.02518
3345.71952,0.02500
3343.65935,0.02481
3341.59917,0.02480
3339.53900,0.02502
3337.47883,0.02536
3335.41866,0.02565
3333.35849,0.02581
3331.29831,0.02583
3329.23814,0.02571
3327.17797,0.02546
3325.11780,0.02512
3323.05762,0.02486
3320.99745,0.02484
3318.93728,0.02500
3316.87711,0.02518
3314.81694,0.02521
3312.75676,0.02513
3310.69659,0.02513
3308.63642,0.02524
3306.57625,0.02534
3304.51608,0.02538
3302.45590,0.02543
3300.39573,0.02557
3298.33556,0.02578
3296.27539,0.02596
3294.21521,0.02601
3292.15504,0.02596
3290.09487,0.02592
3288.03470,0.02590
3285.97453,0.02579
3283.91435,0.02553
3281.85418,0.02526
3279.79401,0.02515
3277.73384,0.02524
3275.67367,0.02542
3273.61349,0.02554
3271.55332,0.02551
3269.49315,0.02534
3267.43298,0.02514
3265.37281,0.02510
3263.31263,0.02528
3261.25246,0.02553
3259.19229,0.02571
3257.13212,0.02579
3255.07194,0.02575
3253.01177,0.02559
3250.95160,0.02532
3248.89143,0.02499
3246.83126,0.02469
3244.77108,0.02456
3242.71091,0.02472
3240.65074,0.02505
3238.59057,0.02539
3236.53040,0.02567
3234.47022,0.02579
3232.41005,0.02565
3230.34988,0.02520
3228.28971,0.02458
3226.22954,0.02398
3224.16936,0.02352
3222.10919,0.02328
3220.04902,0.02328
3217.98885,0.02347
3215.92867,0.02368
3213.86850,0.02374
3211.80833,0.02360
3209.74816,0.02327
3207.68799,0.02292
3205.62781,0.02271
3203.56764,0.02271
3201.50747,0.02287
3199.44730,0.02301
3197.38713,0.02299
3195.32695,0.02283
3193.26678,0.02263
3191.20661,0.02247
3189.14644,0.02242
3187.08626,0.02244
3185.02609,0.02241
3182.96592,0.02221
3180.90575,0.02182
3178.84558,0.02139
3176.78540,0.02105
3174.72523,0.02085
3172.66506,0.02074
3170.60489,0.02069
3168.54472,0.02065
3166.48454,0.02058
3164.42437,0.02045
3162.36420,0.02024
3160.30403,0.01992
3158.24386,0.01954
3156.18368,0.01923
3154.12351,0.01901
3152.06334,0.01883
3150.00317,0.01864
3147.94299,0.01848
3145.88282,0.01835
3143.82265,0.01828
3141.76248,0.01827
3139.70231,0.01828
3137.64213,0.01821
3135.58196,0.01795
3133.52179,0.01757
3131.46162,0.01725
3129.40145,0.01706
3127.34127,0.01697
3125.28110,0.01687
3123.22093,0.01669
3121.16076,0.01646
3119.10058,0.01625
3117.04041,0.01609
3114.98024,0.01600
3112.92007,0.01599
3110.85990,0.01600
3108.79972,0.01592
3106.73955,0.01567
3104.67938,0.01528
3102.61921,0.01486
3100.55904,0.01455
3098.49886,0.01439
3096.43869,0.01435
3094.37852,0.01437
3092.31835,0.01434
3090.25818,0.01426
3088.19800,0.01419
3086.13783,0.01417
3084.07766,0.01411
3082.01749,0.01391
3079.95731,0.01362
3077.89714,0.01333
3075.83697,0.01310
3073.77680,0.01293
3071.71663,0.01284
3069.65645,0.01278
3067.59628,0.01269
3065.53611,0.01252
3063.47594,0.01236
3061.41577,0.01228
3059.35559,0.01227
3057.29542,0.01221
3055.23525,0.01205
3053.17508,0.01185
3051.11491,0.01170
3049.05473,0.01159
3046.99456,0.01149
3044.93439,0.01137
3042.87422,0.01126
3040.81404,0.01116
3038.75387,0.01105
3036.69370,0.01093
3034.63353,0.01077
3032.57336,0.01058
3030.51318,0.01037
3028.45301,0.01015
3026.39284,0.00996
3024.33267,0.00986
3022.27250,0.00987
3020.21232,0.00991
3018.15215,0.00989
3016.09198,0.00986
3014.03181,0.00983
3011.97163,0.00976
3009.91146,0.00963
3007.85129,0.00948
3005.79112,0.00945
3003.73095,0.00950
3001.67077,0.00947
2999.61060,0.00916
2997.55043,0.00863
2995.49026,0.00844
2993.43009,0.00864
2991.36991,0.00890
2989.30974,0.00912
2987.24957,0.00927
2985.18940,0.00929
2983.12923,0.00944
2981.06905,0.00984
2979.00888,0.01012
2976.94871,0.01007
2974.88854,0.00995
2972.82836,0.00989
2970.76819,0.00988
2968.70802,0.01003
2966.64785,0.01024
2964.58768,0.01033
2962.52750,0.01030
2960.46733,0.01042
2958.40716,0.01075
2956.34699,0.01112
2954.28682,0.01147
2952.22664,0.01190
2950.16647,0.01238
2948.10630,0.01280
2946.04613,0.01306
2943.98596,0.01309
2941.92578,0.01303
2939.86561,0.01301
2937.80544,0.01306
2935.74527,0.01311
2933.68509,0.01309
2931.62492,0.01305
2929.56475,0.01313
2927.50458,0.01335
2925.44441,0.01350
2923.38423,0.01339
2921.32406,0.01320
2919.26389,0.01310
2917.20372,0.01302
2915.14355,0.01297
2913.08337,0.01300
2911.02320,0.01295
2908.96303,0.01270
2906.90286,0.01241
2904.84268,0.01224
2902.78251,0.01217
2900.72234,0.01211
2898.66217,0.01205
2896.60200,0.01203
2894.54182,0.01205
2892.48165,0.01201
2890.42148,0.01193
2888.36131,0.01189
2886.30114,0.01193
2884.24096,0.01192
2882.18079,0.01178
2880.12062,0.01162
2878.06045,0.01158
2876.00028,0.01162
2873.94010,0.01165
2871.87993,0.01162
2869.81976,0.01150
2867.75959,0.01114
2865.69941,0.01057
2863.63924,0.01005
2861.57907,0.00971
2859.51890,0.00948
2857.45873,0.00944
2855.39855,0.00963
2853.33838,0.00975
2851.27821,0.00959
2849.21804,0.00932
2847.15787,0.00932
2845.09769,0.00956
2843.03752,0.00971
2840.97735,0.00952
2838.91718,0.00906
2836.85700,0.00860
2834.79683,0.00837
2832.73666,0.00832
2830.67649,0.00834
2828.61632,0.00837
2826.55614,0.00840
2824.49597,0.00839
2822.43580,0.00821
2820.37563,0.00796
2818.31546,0.00781
2816.25528,0.00777
2814.19511,0.00780
2812.13494,0.00787
2810.07477,0.00795
2808.01460,0.00797
2805.95442,0.00788
2803.89425,0.00773
2801.83408,0.00777
2799.77391,0.00802
2797.71373,0.00819
2795.65356,0.00814
2793.59339,0.00796
2791.53322,0.00785
2789.47305,0.00786
2787.41287,0.00784
2785.35270,0.00774
2783.29253,0.00764
2781.23236,0.00752
2779.17219,0.00733
2777.11201,0.00721
2775.05184,0.00726
2772.99167,0.00734
2770.93150,0.00726
2768.87133,0.00711
2766.81115,0.00706
2764.75098,0.00713
2762.69081,0.00720
2760.63064,0.00719
2758.57046,0.00715
2756.51029,0.00710
2754.45012,0.00703
2752.38995,0.00701
2750.32978,0.00705
2748.26960,0.00698
2746.20943,0.00683
2744.14926,0.00678
2742.08909,0.00680
2740.02892,0.00678
2737.96874,0.00672
2735.90857,0.00668
2733.84840,0.00667
2731.78823,0.00667
2729.72805,0.00670
2727.66788,0.00684
2725.60771,0.00697
2723.54754,0.00700
2721.48737,0.00704
2719.42719,0.00701
2717.36702,0.00689
2715.30685,0.00679
2713.24668,0.00667
2711.18651,0.00646
2709.12633,0.00631
2707.06616,0.00634
2705.00599,0.00637
2702.94582,0.00628
2700.88565,0.00631
2698.82547,0.00650
2696.76530,0.00659
2694.70513,0.00658
2692.64496,0.00664
2690.58478,0.00674
2688.52461,0.00668
2686.46444,0.00646
2684.40427,0.00632
2682.34410,0.00636
2680.28392,0.00642
2678.22375,0.00644
2676.16358,0.00651
2674.10341,0.00660
2672.04324,0.00656
2669.98306,0.00637
2667.92289,0.00617
2665.86272,0.00606
2663.80255,0.00594
2661.74238,0.00576
2659.68220,0.00566
2657.62203,0.00576
2655.56186,0.00598
2653.50169,0.00614
2651.44151,0.00623
2649.38134,0.00628
2647.32117,0.00625
2645.26100,0.00609
2643.20083,0.00592
2641.14065,0.00592
2639.08048,0.00599
2637.02031,0.00596
2634.96014,0.00588
2632.89997,0.00578
2630.83979,0.00552
2628.77962,0.00518
2626.71945,0.00518
2624.65928,0.00559
2622.59910,0.00594
2620.53893,0.00595
2618.47876,0.00588
2616.41859,0.00594
2614.35842,0.00602
2612.29824,0.00592
2610.23807,0.00568
2608.17790,0.00549
2606.11773,0.00523
2604.05756,0.00493
2601.99738,0.00494
2599.93721,0.00511
2597.87704,0.00492
2595.81687,0.00466
2593.75670,0.00473
2591.69652,0.00494
2589.63635,0.00499
2587.57618,0.00486
2585.51601,0.00474
2583.45583,0.00473
2581.39566,0.00479
2579.33549,0.00478
2577.27532,0.00453
2575.21515,0.00415
2573.15497,0.00399
2571.09480,0.00416
2569.03463,0.00451
2566.97446,0.00472
2564.91429,0.00464
2562.85411,0.00446
2560.79394,0.00446
2558.73377,0.00444
2556.67360,0.00418
2554.61342,0.00397
2552.55325,0.00425
2550.49308,0.00481
2548.43291,0.00504
2546.37274,0.00488
2544.31256,0.00473
2542.25239,0.00461
2540.19222,0.00445
2538.13205,0.00443
2536.07188,0.00467
2534.01170,0.00489
2531.95153,0.00486
2529.89136,0.00474
2527.83119,0.00460
2525.77102,0.00430
2523.71084,0.00392
2521.65067,0.00385
2519.59050,0.00420
2517.53033,0.00459
2515.47015,0.00482
2513.40998,0.00490
2511.34981,0.00466
2509.28964,0.00418
2507.22947,0.00393
2505.16929,0.00390
2503.10912,0.00382
2501.04895,0.00368
2498.98878,0.00364
2496.92861,0.00391
2494.86843,0.00457
2492.80826,0.00513
2490.74809,0.00514
2488.68792,0.00484
2486.62775,0.00464
2484.56757,0.00454
2482.50740,0.00442
2480.44723,0.00417
2478.38706,0.00388
2476.32688,0.00392
2474.26671,0.00430
2472.20654,0.00449
2470.14637,0.00430
2468.08620,0.00423
2466.02602,0.00455
2463.96585,0.00485
2461.90568,0.00470
2459.84551,0.00413
2457.78534,0.00357
2455.72516,0.00350
2453.66499,0.00393
2451.60482,0.00434
2449.54465,0.00436
2447.48447,0.00419
2445.42430,0.00398
2443.36413,0.00372
2441.30396,0.00368
2439.24379,0.00402
2437.18361,0.00447
2435.12344,0.00468
2433.06327,0.00450
2431.00310,0.00415
2428.94293,0.00408
2426.88275,0.00442
2424.82258,0.00472
2422.76241,0.00455
2420.70224,0.00405
2418.64207,0.00359
2416.58189,0.00342
2414.52172,0.00357
2412.46155,0.00383
2410.40138,0.00383
2408.34120,0.00349
2406.28103,0.00316
2404.22086,0.00320
2402.16069,0.00359
2400.10052,0.00402
2398.04034,0.00421
2395.98017,0.00420
2393.92000,0.00409
2391.85983,0.00400
2389.79966,0.00399
2387.73948,0.00404
2385.67931,0.00404
2383.61914,0.00394
2381.55897,0.00385
2379.49880,0.00386
2377.43862,0.00402
2375.37845,0.00438
2373.31828,0.00497
2371.25811,0.00557
2369.19793,0.00569
2367.13776,0.00495
2365.07759,0.00347
2363.01742,0.00213
2360.95725,0.00206
2358.89707,0.00318
2356.83690,0.00412
2354.77673,0.00416
2352.71656,0.00384
2350.65639,0.00379
2348.59621,0.00424
2346.53604,0.00506
2344.47587,0.00581
2342.41570,0.00617
2340.35552,0.00628
2338.29535,0.00627
2336.23518,0.00594
2334.17501,0.00530
2332.11484,0.00486
2330.05466,0.00499
2327.99449,0.00553
2325.93432,0.00598
2323.87415,0.00608
2321.81398,0.00592
2319.75380,0.00571
2317.69363,0.00558
2315.63346,0.00560
2313.57329,0.00565
2311.51312,0.00548
2309.45294,0.00499
2307.39277,0.00437
2305.33260,0.00398
2303.27243,0.00408
2301.21225,0.00462
2299.15208,0.00523
2297.09191,0.00556
2295.03174,0.00552
2292.97157,0.00513
2290.91139,0.00448
2288.85122,0.00382
2286.79105,0.00344
2284.73088,0.00354
2282.67071,0.00397
2280.61053,0.00439
2278.55036,0.00451
2276.49019,0.00438
2274.43002,0.00421
2272.36984,0.00421
2270.30967,0.00447
2268.24950,0.00489
2266.18933,0.00528
2264.12916,0.00557
2262.06898,0.00574
2260.00881,0.00577
2257.94864,0.00556
2255.88847,0.00507
2253.82830,0.00452
2251.76812,0.00423
2249.70795,0.00428
2247.64778,0.00454
2245.58761,0.00473
2243.52744,0.00456
2241.46726,0.00392
2239.40709,0.00330
2237.34692,0.00317
2235.28675,0.00342
2233.22657,0.00381
2231.16640,0.00426
2229.10623,0.00437
2227.04606,0.00385
2224.98589,0.00335
2222.92571,0.00341
2220.86554,0.00345
2218.80537,0.00319
2216.74520,0.00321
2214.68503,0.00373
2212.62485,0.00423
2210.56468,0.00426
2208.50451,0.00417
2206.44434,0.00426
2204.38417,0.00422
2202.32399,0.00426
2200.26382,0.00496
2198.20365,0.00586
2196.14348,0.00575
2194.08330,0.00413
2192.02313,0.00216
2189.96296,0.00165
2187.90279,0.00281
2185.84262,0.00408
2183.78244,0.00442
2181.72227,0.00441
2179.66210,0.00506
2177.60193,0.00593
2175.54176,0.00567
2173.48158,0.00409
2171.42141,0.00282
2169.36124,0.00375
2167.30107,0.00647
2165.24089,0.00819
2163.18072,0.00685
2161.12055,0.00346
2159.06038,0.00067
2157.00021,0.00000
2154.94003,0.00120
2152.87986,0.00265
2150.81969,0.00264
2148.75952,0.00132
2146.69935,0.00034
2144.63917,0.00091
2142.57900,0.00252
2140.51883,0.00337
2138.45866,0.00247
2136.39849,0.00103
2134.33831,0.00078
2132.27814,0.00165
2130.21797,0.00236
2128.15780,0.00248
2126.09762,0.00258
2124.03745,0.00339
2121.97728,0.00469
2119.91711,0.00541
2117.85694,0.00508
2115.79676,0.00406
2113.73659,0.00307
2111.67642,0.00272
2109.61625,0.00293
2107.55608,0.00309
2105.49590,0.00308
2103.43573,0.00315
2101.37556,0.00327
2099.31539,0.00325
2097.25521,0.00318
2095.19504,0.00320
2093.13487,0.00327
2091.07470,0.00317
2089.01453,0.00283
2086.95435,0.00244
2084.89418,0.00224
2082.83401,0.00226
2080.77384,0.00245
2078.71367,0.00274
2076.65349,0.00298
2074.59332,0.00309
2072.53315,0.00320
2070.47298,0.00352
2068.41281,0.00403
2066.35263,0.00452
2064.29246,0.00486
2062.23229,0.00509
2060.17212,0.00521
2058.11194,0.00515
2056.05177,0.00482
2053.99160,0.00426
2051.93143,0.00359
2049.87126,0.00302
2047.81108,0.00282
2045.75091,0.00310
2043.69074,0.00350
2041.63057,0.00352
2039.57040,0.00305
2037.51022,0.00242
2035.45005,0.00199
2033.38988,0.00187
2031.32971,0.00193
2029.26954,0.00202
2027.20936,0.00222
2025.14919,0.00274
2023.08902,0.00360
2021.02885,0.00447
2018.96867,0.00481
2016.90850,0.00444
2014.84833,0.00363
2012.78816,0.00277
2010.72799,0.00207
2008.66781,0.00154
2006.60764,0.00110
2004.54747,0.00080
2002.48730,0.00088
2000.42713,0.00144
1998.36695,0.00233
1996.30678,0.00308
1994.24661,0.00329
1992.18644,0.00299
1990.12626,0.00257
1988.06609,0.00233
1986.00592,0.00226
1983.94575,0.00205
1981.88558,0.00140
1979.82540,0.00056
1977.76523,0.00028
1975.70506,0.00085
1973.64489,0.00172
1971.58472,0.00229
1969.52454,0.00248
1967.46437,0.00242
1965.40420,0.00200
1963.34403,0.00124
1961.28386,0.00048
1959.22368,0.00006
1957.16351,0.00000
1955.10334,0.00014
1953.04317,0.00038
1950.98299,0.00055
1948.92282,0.00053
1946.86265,0.00046
1944.80248,0.00050
1942.74231,0.00067
1940.68213,0.00096
1938.62196,0.00135
1936.56179,0.00176
1934.50162,0.00201
1932.44145,0.00196
1930.38127,0.00169
1928.32110,0.00155
1926.26093,0.00179
1924.20076,0.00225
1922.14059,0.00253
1920.08041,0.00245
1918.02024,0.00216
1915.96007,0.00187
1913.89990,0.00177
1911.83972,0.00185
1909.77955,0.00194
1907.71938,0.00200
1905.65921,0.00209
1903.59904,0.00227
1901.53886,0.00249
1899.47869,0.00262
1897.41852,0.00253
1895.35835,0.00223
1893.29818,0.00182
1891.23800,0.00144
1889.17783,0.00113
1887.11766,0.00096
1885.05749,0.00105
1882.99731,0.00139
1880.93714,0.00178
1878.87697,0.00210
1876.81680,0.00233
1874.75663,0.00250
1872.69645,0.00258
1870.63628,0.00258
1868.57611,0.00252
1866.51594,0.00242
1864.45577,0.00234
1862.39559,0.00239
1860.33542,0.00259
1858.27525,0.00286
1856.21508,0.00300
1854.15491,0.00287
1852.09473,0.00247
1850.03456,0.00198
1847.97439,0.00159
1845.91422,0.00147
1843.85404,0.00163
1841.79387,0.00194
1839.73370,0.00226
1837.67353,0.00250
1835.61336,0.00263
1833.55318,0.00268
1831.49301,0.00273
1829.43284,0.00268
1827.37267,0.00245
1825.31250,0.00214
1823.25232,0.00193
1821.19215,0.00180
1819.13198,0.00172
1817.07181,0.00167
1815.01163,0.00168
1812.95146,0.00178
1810.89129,0.00189
1808.83112,0.00193
1806.77095,0.00194
1804.71077,0.00200
1802.65060,0.00206
1800.59043,0.00203
1798.53026,0.00197
1796.47009,0.00207
1794.40991,0.00240
1792.34974,0.00273
1790.28957,0.00280
1788.22940,0.00253
1786.16923,0.00213
1784.10905,0.00186
1782.04888,0.00185
1779.98871,0.00206
1777.92854,0.00240
1775.86836,0.00274
1773.80819,0.00297
1771.74802,0.00295
1769.68785,0.00268
1767.62768,0.00238
1765.56750,0.00227
1763.50733,0.00237
1761.44716,0.00253
1759.38699,0.00262
1757.32682,0.00268
1755.26664,0.00288
1753.20647,0.00340
1751.14630,0.00420
1749.08613,0.00503
1747.02596,0.00569
1744.96578,0.00616
1742.90561,0.00650
1740.84544,0.00677
1738.78527,0.00710
1736.72509,0.00751
1734.66492,0.00788
1732.60475,0.00788
1730.54458,0.00743
1728.48441,0.00675
1726.42423,0.00618
1724.36406,0.00588
1722.30389,0.00590
1720.24372,0.00616
1718.18355,0.00641
1716.12337,0.00630
1714.06320,0.00576
1712.00303,0.00512
1709.94286,0.00477
1707.88268,0.00481
1705.82251,0.00505
1703.76234,0.00523
1701.70217,0.00529
1699.64200,0.00525
1697.58182,0.00505
1695.52165,0.00459
1693.46148,0.00399
1691.40131,0.00358
1689.34114,0.00358
1687.28096,0.00399
1685.22079,0.00457
1683.16062,0.00499
1681.10045,0.00509
1679.04028,0.00505
1676.98010,0.00518
1674.91993,0.00559
1672.85976,0.00624
1670.79959,0.00689
1668.73941,0.00730
1666.67924,0.00744
1664.61907,0.00753
1662.55890,0.00771
1660.49873,0.00799
1658.43855,0.00850
1656.37838,0.00938
1654.31821,0.01049
1652.25804,0.01132
1650.19787,0.01162
1648.13769,0.01158
1646.07752,0.01131
1644.01735,0.01088
1641.95718,0.01063
1639.89701,0.01080
1637.83683,0.01128
1635.77666,0.01165
1633.71649,0.01161
1631.65632,0.01133
1629.59614,0.01114
1627.53597,0.01116
1625.47580,0.01132
1623.41563,0.01149
1621.35546,0.01160
1619.29528,0.01170
1617.23511,0.01183
1615.17494,0.01183
1613.11477,0.01166
1611.05460,0.01140
1608.99442,0.01110
1606.93425,0.01075
1604.87408,0.01031
1602.81391,0.00975
1600.75373,0.00908
1598.69356,0.00835
1596.63339,0.00765
1594.57322,0.00704
1592.51305,0.00649
1590.45287,0.00599
1588.39270,0.00556
1586.33253,0.00524
1584.27236,0.00497
1582.21219,0.00473
1580.15201,0.00452
1578.09184,0.00429
1576.03167,0.00397
1573.97150,0.00353
1571.91133,0.00310
1569.85115,0.00281
1567.79098,0.00268
1565.73081,0.00277
1563.67064,0.00318
1561.61046,0.00385
1559.55029,0.00446
1557.49012,0.00446
1555.42995,0.00388
1553.36978,0.00312
1551.30960,0.00252
1549.24943,0.00224
1547.18926,0.00238
1545.12909,0.00296
1543.06892,0.00370
1541.00874,0.00411
1538.94857,0.00381
1536.88840,0.00295
1534.82823,0.00209
1532.76805,0.00151
1530.70788,0.00129
1528.64771,0.00143
1526.58754,0.00182
1524.52737,0.00227
1522.46719,0.00260
1520.40702,0.00268
1518.34685,0.00253
1516.28668,0.00228
1514.22651,0.00211
1512.16633,0.00216
1510.10616,0.00243
1508.04599,0.00261
1505.98582,0.00241
1503.92565,0.00192
1501.86547,0.00151
1499.80530,0.00137
1497.74513,0.00144
1495.68496,0.00159
1493.62478,0.00180
1491.56461,0.00213
1489.50444,0.00240
1487.44427,0.00240
1485.38410,0.00219
1483.32392,0.00203
1481.26375,0.00210
1479.20358,0.00242
1477.14341,0.00297
1475.08324,0.00360
1473.02306,0.00410
1470.96289,0.00431
1468.90272,0.00436
1466.84255,0.00443
1464.78238,0.00460
1462.72220,0.00485
1460.66203,0.00528
1458.60186,0.00585
1456.54169,0.00626
1454.48151,0.00627
1452.42134,0.00607
1450.36117,0.00591
1448.30100,0.00593
1446.24083,0.00602
1444.18065,0.00613
1442.12048,0.00633
1440.06031,0.00673
1438.00014,0.00731
1435.93997,0.00786
1433.87979,0.00822
1431.81962,0.00841
1429.75945,0.00854
1427.69928,0.00872
1425.63910,0.00899
1423.57893,0.00935
1421.51876,0.00973
1419.45859,0.01005
1417.39842,0.01012
1415.33824,0.00990
1413.27807,0.00958
1411.21790,0.00937
1409.15773,0.00937
1407.09756,0.00952
1405.03738,0.00964
1402.97721,0.00959
1400.91704,0.00942
1398.85687,0.00921
1396.79670,0.00899
1394.73652,0.00873
1392.67635,0.00843
1390.61618,0.00819
1388.55601,0.00811
1386.49583,0.00815
1384.43566,0.00823
1382.37549,0.00837
1380.31532,0.00858
1378.25515,0.00885
1376.19497,0.00907
1374.13480,0.00916
1372.07463,0.00912
1370.01446,0.00908
1367.95429,0.00909
1365.89411,0.00914
1363.83394,0.00913
1361.77377,0.00896
1359.71360,0.00865
1357.65343,0.00836
1355.59325,0.00817
1353.53308,0.00806
1351.47291,0.00797
1349.41274,0.00788
1347.35256,0.00781
1345.29239,0.00777
1343.23222,0.00778
1341.17205,0.00781
1339.11188,0.00774
1337.05170,0.00754
1334.99153,0.00731
1332.93136,0.00716
1330.87119,0.00712
1328.81102,0.00717
1326.75084,0.00725
1324.69067,0.00733
1322.63050,0.00738
1320.57033,0.00735
1318.51015,0.00730
1316.44998,0.00733
1314.38981,0.00748
1312.32964,0.00760
1310.26947,0.00755
1308.20929,0.00734
1306.14912,0.00708
1304.08895,0.00686
1302.02878,0.00671
1299.96861,0.00661
1297.90843,0.00650
1295.84826,0.00633
1293.78809,0.00615
1291.72792,0.00601
1289.66775,0.00598
1287.60757,0.00604
1285.54740,0.00612
1283.48723,0.00612
1281.42706,0.00604
1279.36688,0.00593
1277.30671,0.00587
1275.24654,0.00592
1273.18637,0.00613
1271.12620,0.00640
1269.06602,0.00667
1267.00585,0.00695
1264.94568,0.00729
1262.88551,0.00770
1260.82534,0.00813
1258.76516,0.00849
1256.70499,0.00874
1254.64482,0.00893
1252.58465,0.00905
1250.52447,0.00906
1248.46430,0.00897
1246.40413,0.00879
1244.34396,0.00861
1242.28379,0.00848
1240.22361,0.00838
1238.16344,0.00826
1236.10327,0.00811
1234.04310,0.00790
1231.98293,0.00762
1229.92275,0.00728
1227.86258,0.00695
1225.80241,0.00665
1223.74224,0.00638
1221.68207,0.00614
1219.62189,0.00592
1217.56172,0.00567
1215.50155,0.00536
1213.44138,0.00498
1211.38120,0.00457
1209.32103,0.00413
1207.26086,0.00363
1205.20069,0.00300
1203.14052,0.00229
1201.08034,0.00161
1199.02017,0.00106
1196.96000,0.00070
1194.89983,0.00051
1192.83966,0.00039
1190.77948,0.00023
1188.71931,0.00005
1186.65914,0.00000
1184.59897,0.00008
1182.53880,0.00030
1180.47862,0.00073
1178.41845,0.00130
1176.35828,0.00177
1174.29811,0.00221
1172.23793,0.00281
1170.17776,0.00345
1168.11759,0.00407
1166.05742,0.00482
1163.99725,0.00562
1161.93707,0.00630
1159.87690,0.00685
1157.81673,0.00734
1155.75656,0.00777
1153.69639,0.00813
1151.63621,0.00844
1149.57604,0.00881
1147.51587,0.00926
1145.45570,0.00963
1143.39552,0.00987
1141.33535,0.01001
1139.27518,0.00999
1137.21501,0.00988
1135.15484,0.00991
1133.09466,0.01019
1131.03449,0.01065
1128.97432,0.01128
1126.91415,0.01199
1124.85398,0.01265
1122.79380,0.01315
1120.73363,0.01352
1118.67346,0.01393
1116.61329,0.01448
1114.55312,0.01499
1112.49294,0.01535
1110.43277,0.01577
1108.37260,0.01632
1106.31243,0.01688
1104.25225,0.01749
1102.19208,0.01822
1100.13191,0.01894
1098.07174,0.01965
1096.01157,0.02055
1093.95139,0.02162
1091.89122,0.02257
1089.83105,0.02319
1087.77088,0.02347
1085.71071,0.02364
1083.65053,0.02404
1081.59036,0.02477
1079.53019,0.02558
1077.47002,0.02628
1075.40985,0.02699
1073.34967,0.02778
1071.28950,0.02846
1069.22933,0.02883
1067.16916,0.02902
1065.10898,0.02929
1063.04881,0.02975
1060.98864,0.03030
1058.92847,0.03078
1056.86830,0.03113
1054.80812,0.03134
1052.74795,0.03148
1050.68778,0.03165
1048.62761,0.03198
1046.56744,0.03254
1044.50726,0.03325
1042.44709,0.03384
1040.38692,0.03425
1038.32675,0.03468
1036.26657,0.03514
1034.20640,0.03550
1032.14623,0.03571
1030.08606,0.03577
1028.02589,0.03567
1025.96571,0.03553
1023.90554,0.03546
1021.84537,0.03555
1019.78520,0.03573
1017.72503,0.03585
1015.66485,0.03593
1013.60468,0.03598
1011.54451,0.03589
1009.48434,0.03570
1007.42417,0.03546
1005.36399,0.03510
1003.30382,0.03462
1001.24365,0.03423
999.18348,0.03398
997.12330,0.03373
995.06313,0.03343
993.00296,0.03297
990.94279,0.03235
988.88262,0.03189
986.82244,0.03181
984.76227,0.03189
982.70210,0.03180
980.64193,0.03148
978.58176,0.03100
976.52158,0.03042
974.46141,0.02983
972.40124,0.02928
970.34107,0.02886
968.28089,0.02858
966.22072,0.02831
964.16055,0.02799
962.10038,0.02762
960.04021,0.02722
957.98003,0.02687
955.91986,0.02648
953.85969,0.02591
951.79952,0.02533
949.73935,0.02497
947.67917,0.02478
945.61900,0.02442
943.55883,0.02363
941.49866,0.02243
939.43849,0.02104
937.37831,0.01962
935.31814,0.01817
933.25797,0.01680
931.19780,0.01565
929.13762,0.01456
927.07745,0.01332
925.01728,0.01218
922.95711,0.01141
920.89694,0.01086
918.83676,0.01035
916.77659,0.00988
914.71642,0.00949
912.65625,0.00919
910.59608,0.00885
908.53590,0.00828
906.47573,0.00772
904.41556,0.00744
902.35539,0.00727
900.29522,0.00699
898.23504,0.00662
896.17487,0.00637
894.11470,0.00639
892.05453,0.00657
889.99435,0.00667
887.93418,0.00649
885.87401,0.00598
883.81384,0.00550
881.75367,0.00547
879.69349,0.00554
877.63332,0.00519
875.57315,0.00463
873.51298,0.00432
871.45281,0.00425
869.39263,0.00403
867.33246,0.00365
865.27229,0.00343
863.21212,0.00337
861.15194,0.00324
859.09177,0.00299
857.03160,0.00290
854.97143,0.00314
852.91126,0.00338
850.85108,0.00335
848.79091,0.00309
846.73074,0.00251
844.67057,0.00166
842.61040,0.00097
840.55022,0.00084
838.49005,0.00131
836.42988,0.00191
834.36971,0.00196
832.30954,0.00152
830.24936,0.00151
828.18919,0.00208
826.12902,0.00241
824.06885,0.00203
822.00867,0.00149
819.94850,0.00150
817.88833,0.00190
815.82816,0.00221
813.76799,0.00237
811.70781,0.00244
809.64764,0.00246
807.58747,0.00239
805.52730,0.00232
803.46713,0.00250
801.40695,0.00271
799.34678,0.00229
797.28661,0.00124
795.22644,0.00029
793.16627,0.00000
791.10609,0.00039
789.04592,0.00113
786.98575,0.00163
784.92558,0.00160
782.86540,0.00149
780.80523,0.00169
778.74506,0.00194
776.68489,0.00178
774.62472,0.00130
772.56454,0.00100
770.50437,0.00105
768.44420,0.00125
766.38403,0.00168
764.32386,0.00240
762.26368,0.00287
760.20351,0.00265
758.14334,0.00200
756.08317,0.00143
754.02299,0.00134
751.96282,0.00174
749.90265,0.00217
747.84248,0.00216
745.78231,0.00197
743.72213,0.00189
741.66196,0.00173
739.60179,0.00136
737.54162,0.00108
735.48145,0.00086
733.42127,0.00036
731.36110,0.00000
729.30093,0.00033
727.24076,0.00115
725.18059,0.00178
723.12041,0.00201
721.06024,0.00193
719.00007,0.00172
716.93990,0.00168
714.87972,0.00198
712.81955,0.00257
710.75938,0.00336
708.69921,0.00430
706.63904,0.00530
704.57886,0.00607
702.51869,0.00622
700.45852,0.00577
698.39835,0.00508
696.33818,0.00454
694.27800,0.00418
692.21783,0.00393
690.15766,0.00390
688.09749,0.00419
686.03731,0.00456
683.97714,0.00457
681.91697,0.00411
679.85680,0.00342
677.79663,0.00281
675.73645,0.00263
673.67628,0.00296
671.61611,0.00350
669.55594,0.00385
667.49577,0.00405
665.43559,0.00420
663.37542,0.00416
661.31525,0.00375
659.25508,0.00298
657.19491,0.00215
655.13473,0.00183
653.07456,0.00232
651.01439,0.00325
648.95422,0.00405
646.89404,0.00455
644.83387,0.00470
642.77370,0.00455
640.71353,0.00440
638.65336,0.00448
636.59318,0.00473
634.53301,0.00474
632.47284,0.00409
630.41267,0.00301
628.35250,0.00245
626.29232,0.00355
624.23215,0.00569
622.17198,0.00660
620.11181,0.00576
618.05164,0.00395
615.99146,0.00197
613.93129,0.00153
611.87112,0.00253
609.81095,0.00242
607.75077,0.00087
605.69060,0.00000
603.63043,0.00007
601.57026,0.00026
599.51009,0.00000
