3996.73391,-0.00218
3994.67373,-0.00192
3992.61356,-0.00166
3990.55339,-0.00141
3988.49322,-0.00122
3986.43305,-0.00109
3984.37287,-0.00100
3982.31270,-0.00094
3980.25253,-0.00093
3978.19236,-0.00096
3976.13219,-0.00103
3974.07201,-0.00109
3972.01184,-0.00107
3969.95167,-0.00084
3967.89150,-0.00048
3965.83133,-0.00019
3963.77115,-0.00013
3961.71098,-0.00025
3959.65081,-0.00036
3957.59064,-0.00034
3955.53046,-0.00025
3953.47029,-0.00017
3951.41012,-0.00011
3949.34995,-0.00006
3947.28978,0.00000
3945.22960,0.00007
3943.16943,0.00015
3941.10926,0.00024
3939.04909,0.00034
3936.98892,0.00053
3934.92874,0.00081
3932.86857,0.00108
3930.80840,0.00117
3928.74823,0.00094
3926.68805,0.00051
3924.62788,0.00012
3922.56771,0.00000
3920.50754,0.00007
3918.44737,0.00034
3916.38719,0.00076
3914.32702,0.00121
3912.26685,0.00154
3910.20668,0.00160
3908.14651,0.00139
3906.08633,0.00100
3904.02616,0.00058
3901.96599,0.00039
3899.90582,0.00057
3897.84565,0.00107
3895.78547,0.00155
3893.72530,0.00178
3891.66513,0.00176
3889.60496,0.00164
3887.54478,0.00152
3885.48461,0.00145
3883.42444,0.00148
3881.36427,0.00159
3879.30410,0.00172
3877.24392,0.00170
3875.18375,0.00149
3873.12358,0.00124
3871.06341,0.00117
3869.00324,0.00135
3866.94306,0.00167
3864.88289,0.00192
3862.82272,0.00195
3860.76255,0.00165
3858.70237,0.00103
3856.64220,0.00033
3854.58203,0.00000
3852.52186,0.00026
3850.46169,0.00087
3848.40151,0.00145
3846.34134,0.00176
3844.28117,0.00174
3842.22100,0.00145
3840.16083,0.00110
3838.10065,0.00094
3836.04048,0.00110
3833.98031,0.00146
3831.92014,0.00179
3829.85997,0.00201
3827.79979,0.00215
3825.73962,0.00224
3823.67945,0.00222
3821.61928,0.00213
3819.55910,0.00210
3817.49893,0.00216
3815.43876,0.00228
3813.37859,0.00235
3811.31842,0.00227
3809.25824,0.00201
3807.19807,0.00164
3805.13790,0.00128
3803.07773,0.00109
3801.01756,0.00117
3798.95738,0.00153
3796.89721,0.00203
3794.83704,0.00246
3792.77687,0.00272
3790.71670,0.00281
3788.65652,0.00285
3786.59635,0.00291
3784.53618,0.00292
3782.47601,0.00278
3780.41583,0.00252
3778.35566,0.00225
3776.29549,0.00205
3774.23532,0.00198
3772.17515,0.00210
3770.11497,0.00235
3768.05480,0.00257
3765.99463,0.00260
3763.93446,0.00246
3761.87429,0.00223
3759.81411,0.00202
3757.75394,0.00186
3755.69377,0.00173
3753.63360,0.00168
3751.57342,0.00169
3749.51325,0.00165
3747.45308,0.00141
3745.39291,0.00101
3743.33274,0.00064
3741.27256,0.00051
3739.21239,0.00070
3737.15222,0.00117
3735.09205,0.00183
3733.03188,0.00252
3730.97170,0.00308
3728.91153,0.00332
3726.85136,0.00315
3724.79119,0.00271
3722.73102,0.00228
3720.67084,0.00206
3718.61067,0.00204
3716.55050,0.00205
3714.49033,0.00202
3712.43015,0.00206
3710.36998,0.00238
3708.30981,0.00292
3706.24964,0.00334
3704.18947,0.00341
3702.12929,0.00317
3700.06912,0.00286
3698.00895,0.00266
3695.94878,0.00253
3693.88861,0.00243
3691.82843,0.00241
3689.76826,0.00256
3687.70809,0.00286
3685.64792,0.00315
3683.58775,0.00329
3681.52757,0.00328
3679.46740,0.00313
3677.40723,0.00287
3675.34706,0.00262
3673.28688,0.00252
3671.22671,0.00253
3669.16654,0.00257
3667.10637,0.00266
3665.04620,0.00281
3662.98602,0.00302
3660.92585,0.00324
3658.86568,0.00340
3656.80551,0.00343
3654.74534,0.00340
3652.68516,0.00341
3650.62499,0.00354
3648.56482,0.00381
3646.50465,0.00418
3644.44447,0.00458
3642.38430,0.00498
3640.32413,0.00536
3638.26396,0.00567
3636.20379,0.00588
3634.14361,0.00601
3632.08344,0.00606
3630.02327,0.00603
3627.96310,0.00605
3625.90293,0.00626
3623.84275,0.00657
3621.78258,0.00682
3619.72241,0.00703
3617.66224,0.00733
3615.60207,0.00772
3613.54189,0.00815
3611.48172,0.00870
3609.42155,0.00936
3607.36138,0.00997
3605.30120,0.01032
3603.24103,0.01039
3601.18086,0.01041
3599.12069,0.01061
3597.06052,0.01102
3595.00034,0.01154
3592.94017,0.01207
3590.88000,0.01257
3588.81983,0.01304
3586.75966,0.01355
3584.69948,0.01404
3582.63931,0.01440
3580.57914,0.01468
3578.51897,0.01497
3576.45879,0.01526
3574.39862,0.01552
3572.33845,0.01577
3570.27828,0.01605
3568.21811,0.01635
3566.15793,0.01667
3564.09776,0.01702
3562.03759,0.01740
3559.97742,0.01778
3557.91725,0.01817
3555.85707,0.01857
3553.79690,0.01897
3551.73673,0.01937
3549.67656,0.01977
3547.61639,0.02012
3545.55621,0.02039
3543.49604,0.02064
3541.43587,0.02089
3539.37570,0.02113
3537.31552,0.02138
3535.25535,0.02166
3533.19518,0.02200
3531.13501,0.02238
3529.07484,0.02280
3527.01466,0.02327
3524.95449,0.02374
3522.89432,0.02423
3520.83415,0.02475
3518.77398,0.02528
3516.71380,0.02576
3514.65363,0.02610
3512.59346,0.02629
3510.53329,0.02638
3508.47312,0.02652
3506.41294,0.02681
3504.35277,0.02721
3502.29260,0.02759
3500.23243,0.02789
3498.17225,0.02813
3496.11208,0.02841
3494.05191,0.02887
3491.99174,0.02950
3489.93157,0.03021
3487.87139,0.03086
3485.81122,0.03133
3483.75105,0.03163
3481.69088,0.03183
3479.63071,0.03200
3477.57053,0.03213
3475.51036,0.03222
3473.45019,0.03232
3471.39002,0.03258
3469.32984,0.03304
3467.26967,0.03354
3465.20950,0.03392
3463.14933,0.03413
3461.08916,0.03427
3459.02898,0.03447
3456.96881,0.03480
3454.90864,0.03520
3452.84847,0.03560
3450.78830,0.03592
3448.72812,0.03614
3446.66795,0.03625
3444.60778,0.03631
3442.54761,0.03639
3440.48744,0.03654
3438.42726,0.03675
3436.36709,0.03700
3434.30692,0.03734
3432.24675,0.03782
3430.18657,0.03845
3428.12640,0.03914
3426.06623,0.03975
3424.00606,0.04013
3421.94589,0.04029
3419.88571,0.04030
3417.82554,0.04030
3415.76537,0.04037
3413.70520,0.04055
3411.64503,0.04083
3409.58485,0.04114
3407.52468,0.04142
3405.46451,0.04167
3403.40434,0.04188
3401.34416,0.04205
3399.28399,0.04222
3397.22382,0.04237
3395.16365,0.04248
3393.10348,0.04258
3391.04330,0.04262
3388.98313,0.04257
3386.92296,0.04248
3384.86279,0.04251
3382.80262,0.04276
3380.74244,0.04312
3378.68227,0.04348
3376.62210,0.04382
3374.56193,0.04419
3372.50176,0.04460
3370.44158,0.04496
3368.38141,0.04511
3366.32124,0.04508
3364.26107,0.04498
3362.20089,0.04494
3360.14072,0.04496
3358.08055,0.04503
3356.02038,0.04511
3353.96021,0.04514
3351.90003,0.04512
3349.83986,0.04508
3347.77969,0.04508
3345.71952,0.04513
3343.65935,0.04522
3341.59917,0.04533
3339.53900,0.04539
3337.47883,0.04541
3335.41866,0.04546
3333.35849,0.04552
3331.29831,0.04555
3329.23814,0.04550
3327.17797,0.04544
3325.11780,0.04543
3323.05762,0.04543
3320.99745,0.04540
3318.93728,0.04542
3316.87711,0.04555
3314.81694,0.04578
3312.75676,0.04599
3310.69659,0.04611
3308.63642,0.04614
3306.57625,0.04614
3304.51608,0.04613
3302.45590,0.04610
3300.39573,0.04608
3298.33556,0.04608
3296.27539,0.04610
3294.21521,0.04611
3292.15504,0.04614
3290.09487,0.04624
3288.03470,0.04637
3285.97453,0.04644
3283.91435,0.04637
3281.85418,0.04623
3279.79401,0.04613
3277.73384,0.04609
3275.67367,0.04605
3273.61349,0.04596
3271.55332,0.04584
3269.49315,0.04576
3267.43298,0.04577
3265.37281,0.04583
3263.31263,0.04584
3261.25246,0.04572
3259.19229,0.04554
3257.13212,0.04543
3255.07194,0.04541
3253.01177,0.04533
3250.95160,0.04510
3248.89143,0.04480
3246.83126,0.04457
3244.77108,0.04450
3242.71091,0.04454
3240.65074,0.04454
3238.59057,0.04446
3236.53040,0.04432
3234.47022,0.04416
3232.41005,0.04395
3230.34988,0.04369
3228.28971,0.04345
3226.22954,0.04332
3224.16936,0.04336
3222.10919,0.04350
3220.04902,0.04362
3217.98885,0.04362
3215.92867,0.04343
3213.86850,0.04310
3211.80833,0.04271
3209.74816,0.04231
3207.68799,0.04195
3205.62781,0.04168
3203.56764,0.04154
3201.50747,0.04152
3199.44730,0.04153
3197.38713,0.04146
3195.32695,0.04119
3193.26678,0.04075
3191.20661,0.04020
3189.14644,0.03960
3187.08626,0.03905
3185.02609,0.03867
3182.96592,0.03857
3180.90575,0.03870
3178.84558,0.03887
3176.78540,0.03891
3174.72523,0.03876
3172.66506,0.03846
3170.60489,0.03809
3168.54472,0.03774
3166.48454,0.03751
3164.42437,0.03734
3162.36420,0.03711
3160.30403,0.03677
3158.24386,0.03644
3156.18368,0.03622
3154.12351,0.03612
3152.06334,0.03599
3150.00317,0.03577
3147.94299,0.03551
3145.88282,0.03524
3143.82265,0.03498
3141.76248,0.03470
3139.70231,0.03441
3137.64213,0.03415
3135.58196,0.03393
3133.52179,0.03373
3131.46162,0.03349
3129.40145,0.03318
3127.34127,0.03283
3125.28110,0.03250
3123.22093,0.03227
3121.16076,0.03216
3119.10058,0.03206
3117.04041,0.03184
3114.98024,0.03148
3112.92007,0.03107
3110.85990,0.03068
3108.79972,0.03034
3106.73955,0.03014
3104.67938,0.03006
3102.61921,0.02994
3100.55904,0.02965
3098.49886,0.02928
3096.43869,0.02903
3094.37852,0.02899
3092.31835,0.02902
3090.25818,0.02898
3088.19800,0.02883
3086.13783,0.02860
3084.07766,0.02831
3082.01749,0.02797
3079.95731,0.02763
3077.89714,0.02734
3075.83697,0.02711
3073.77680,0.02691
3071.71663,0.02668
3069.65645,0.02640
3067.59628,0.02609
3065.53611,0.02579
3063.47594,0.02554
3061.41577,0.02538
3059.35559,0.02530
3057.29542,0.02522
3055.23525,0.02512
3053.17508,0.02498
3051.11491,0.02476
3049.05473,0.02447
3046.99456,0.02420
3044.93439,0.02397
3042.87422,0.02373
3040.81404,0.02348
3038.75387,0.02325
3036.69370,0.02307
3034.63353,0.02292
3032.57336,0.02276
3030.51318,0.02253
3028.45301,0.02230
3026.39284,0.02213
3024.33267,0.02201
3022.27250,0.02186
3020.21232,0.02165
3018.15215,0.02140
3016.09198,0.02122
3014.03181,0.02114
3011.97163,0.02114
3009.91146,0.02115
3007.85129,0.02115
3005.79112,0.02114
3003.73095,0.02111
3001.67077,0.02108
2999.61060,0.02105
2997.55043,0.02100
2995.49026,0.02085
2993.43009,0.02068
2991.36991,0.02052
2989.30974,0.02028
2987.24957,0.02009
2985.18940,0.02024
2983.12923,0.02079
2981.06905,0.02137
2979.00888,0.02174
2976.94871,0.02204
2974.88854,0.02231
2972.82836,0.02239
2970.76819,0.02224
2968.70802,0.02203
2966.64785,0.02192
2964.58768,0.02195
2962.52750,0.02215
2960.46733,0.02257
2958.40716,0.02302
2956.34699,0.02321
2954.28682,0.02321
2952.22664,0.02331
2950.16647,0.02362
2948.10630,0.02401
2946.04613,0.02447
2943.98596,0.02495
2941.92578,0.02535
2939.86561,0.02572
2937.80544,0.02607
2935.74527,0.02628
2933.68509,0.02629
2931.62492,0.02621
2929.56475,0.02615
2927.50458,0.02607
2925.44441,0.02597
2923.38423,0.02592
2921.32406,0.02584
2919.26389,0.02563
2917.20372,0.02540
2915.14355,0.02529
2913.08337,0.02518
2911.02320,0.02495
2908.96303,0.02463
2906.90286,0.02438
2904.84268,0.02430
2902.78251,0.02435
2900.72234,0.02434
2898.66217,0.02428
2896.60200,0.02430
2894.54182,0.02434
2892.48165,0.02419
2890.42148,0.02391
2888.36131,0.02371
2886.30114,0.02361
2884.24096,0.02349
2882.18079,0.02343
2880.12062,0.02354
2878.06045,0.02362
2876.00028,0.02342
2873.94010,0.02304
2871.87993,0.02263
2869.81976,0.02230
2867.75959,0.02213
2865.69941,0.02215
2863.63924,0.02215
2861.57907,0.02193
2859.51890,0.02159
2857.45873,0.02129
2855.39855,0.02101
2853.33838,0.02066
2851.27821,0.02032
2849.21804,0.02017
2847.15787,0.02016
2845.09769,0.01999
2843.03752,0.01959
2840.97735,0.01917
2838.91718,0.01886
2836.85700,0.01868
2834.79683,0.01863
2832.73666,0.01860
2830.67649,0.01852
2828.61632,0.01847
2826.55614,0.01849
2824.49597,0.01844
2822.43580,0.01817
2820.37563,0.01784
2818.31546,0.01769
2816.25528,0.01765
2814.19511,0.01751
2812.13494,0.01736
2810.07477,0.01740
2808.01460,0.01748
2805.95442,0.01736
2803.89425,0.01716
2801.83408,0.01709
2799.77391,0.01709
2797.71373,0.01702
2795.65356,0.01678
2793.59339,0.01650
2791.53322,0.01645
2789.47305,0.01654
2787.41287,0.01642
2785.35270,0.01611
2783.29253,0.01595
2781.23236,0.01601
2779.17219,0.01606
2777.11201,0.01601
2775.05184,0.01591
2772.99167,0.01579
2770.93150,0.01572
2768.87133,0.01572
2766.81115,0.01571
2764.75098,0.01573
2762.69081,0.01584
2760.63064,0.01594
2758.57046,0.01586
2756.51029,0.01564
2754.45012,0.01538
2752.38995,0.01508
2750.32978,0.01478
2748.26960,0.01467
2746.20943,0.01482
2744.14926,0.01506
2742.08909,0.01511
2740.02892,0.01495
2737.96874,0.01472
2735.90857,0.01454
2733.84840,0.01448
2731.78823,0.01450
2729.72805,0.01460
2727.66788,0.01480
2725.60771,0.01494
2723.54754,0.01490
2721.48737,0.01484
2719.42719,0.01486
2717.36702,0.01485
2715.30685,0.01466
2713.24668,0.01433
2711.18651,0.01401
2709.12633,0.01384
2707.06616,0.01381
2705.00599,0.01385
2702.94582,0.01387
2700.88565,0.01382
2698.82547,0.01372
2696.76530,0.01366
2694.70513,0.01365
2692.64496,0.01365
2690.58478,0.01363
2688.52461,0.01361
2686.46444,0.01357
2684.40427,0.01347
2682.34410,0.01333
2680.28392,0.01320
2678.22375,0.01313
2676.16358,0.01313
2674.10341,0.01315
2672.04324,0.01307
2669.98306,0.01287
2667.92289,0.01266
2665.86272,0.01259
2663.80255,0.01259
2661.74238,0.01251
2659.68220,0.01235
2657.62203,0.01222
2655.56186,0.01212
2653.50169,0.01199
2651.44151,0.01187
2649.38134,0.01185
2647.32117,0.01183
2645.26100,0.01173
2643.20083,0.01167
2641.14065,0.01164
2639.08048,0.01155
2637.02031,0.01138
2634.96014,0.01116
2632.89997,0.01106
2630.83979,0.01118
2628.77962,0.01133
2626.71945,0.01125
2624.65928,0.01094
2622.59910,0.01057
2620.53893,0.01026
2618.47876,0.01006
2616.41859,0.01015
2614.35842,0.01051
2612.29824,0.01082
2610.23807,0.01078
2608.17790,0.01039
2606.11773,0.00993
2604.05756,0.00973
2601.99738,0.00973
2599.93721,0.00965
2597.87704,0.00951
2595.81687,0.00951
2593.75670,0.00953
2591.69652,0.00949
2589.63635,0.00950
2587.57618,0.00951
2585.51601,0.00935
2583.45583,0.00915
2581.39566,0.00909
2579.33549,0.00912
2577.27532,0.00919
2575.21515,0.00938
2573.15497,0.00964
2571.09480,0.00964
2569.03463,0.00927
2566.97446,0.00890
2564.91429,0.00881
2562.85411,0.00874
2560.79394,0.00844
2558.73377,0.00809
2556.67360,0.00798
2554.61342,0.00816
2552.55325,0.00837
2550.49308,0.00845
2548.43291,0.00848
2546.37274,0.00849
2544.31256,0.00849
2542.25239,0.00856
2540.19222,0.00869
2538.13205,0.00883
2536.07188,0.00887
2534.01170,0.00861
2531.95153,0.00811
2529.89136,0.00770
2527.83119,0.00754
2525.77102,0.00759
2523.71084,0.00779
2521.65067,0.00800
2519.59050,0.00819
2517.53033,0.00846
2515.47015,0.00879
2513.40998,0.00892
2511.34981,0.00876
2509.28964,0.00846
2507.22947,0.00833
2505.16929,0.00846
2503.10912,0.00858
2501.04895,0.00862
2498.98878,0.00863
2496.92861,0.00845
2494.86843,0.00807
2492.80826,0.00769
2490.74809,0.00741
2488.68792,0.00746
2486.62775,0.00800
2484.56757,0.00876
2482.50740,0.00928
2480.44723,0.00934
2478.38706,0.00902
2476.32688,0.00868
2474.26671,0.00861
2472.20654,0.00874
2470.14637,0.00878
2468.08620,0.00866
2466.02602,0.00845
2463.96585,0.00812
2461.90568,0.00777
2459.84551,0.00764
2457.78534,0.00771
2455.72516,0.00783
2453.66499,0.00784
2451.60482,0.00783
2449.54465,0.00793
2447.48447,0.00802
2445.42430,0.00805
2443.36413,0.00795
2441.30396,0.00767
2439.24379,0.00750
2437.18361,0.00764
2435.12344,0.00779
2433.06327,0.00774
2431.00310,0.00759
2428.94293,0.00754
2426.88275,0.00762
2424.82258,0.00771
2422.76241,0.00776
2420.70224,0.00786
2418.64207,0.00788
2416.58189,0.00764
2414.52172,0.00735
2412.46155,0.00734
2410.40138,0.00752
2408.34120,0.00751
2406.28103,0.00734
2404.22086,0.00730
2402.16069,0.00743
2400.10052,0.00750
2398.04034,0.00737
2395.98017,0.00720
2393.92000,0.00717
2391.85983,0.00729
2389.79966,0.00739
2387.73948,0.00737
2385.67931,0.00726
2383.61914,0.00721
2381.55897,0.00736
2379.49880,0.00772
2377.43862,0.00819
2375.37845,0.00855
2373.31828,0.00860
2371.25811,0.00823
2369.19793,0.00753
2367.13776,0.00689
2365.07759,0.00684
2363.01742,0.00739
2360.95725,0.00775
2358.89707,0.00735
2356.83690,0.00668
2354.77673,0.00658
2352.71656,0.00716
2350.65639,0.00803
2348.59621,0.00857
2346.53604,0.00856
2344.47587,0.00837
2342.41570,0.00832
2340.35552,0.00841
2338.29535,0.00831
2336.23518,0.00777
2334.17501,0.00712
2332.11484,0.00698
2330.05466,0.00757
2327.99449,0.00854
2325.93432,0.00934
2323.87415,0.00945
2321.81398,0.00874
2319.75380,0.00762
2317.69363,0.00671
2315.63346,0.00636
2313.57329,0.00652
2311.51312,0.00686
2309.45294,0.00705
2307.39277,0.00700
2305.33260,0.00683
2303.27243,0.00669
2301.21225,0.00668
2299.15208,0.00684
2297.09191,0.00712
2295.03174,0.00742
2292.97157,0.00766
2290.91139,0.00774
2288.85122,0.00770
2286.79105,0.00759
2284.73088,0.00746
2282.67071,0.00727
2280.61053,0.00696
2278.55036,0.00660
2276.49019,0.00636
2274.43002,0.00635
2272.36984,0.00645
2270.30967,0.00644
2268.24950,0.00626
2266.18933,0.00604
2264.12916,0.00600
2262.06898,0.00620
2260.00881,0.00650
2257.94864,0.00663
2255.88847,0.00645
2253.82830,0.00611
2251.76812,0.00588
2249.70795,0.00589
2247.64778,0.00599
2245.58761,0.00562
2243.52744,0.00498
2241.46726,0.00481
2239.40709,0.00533
2237.34692,0.00606
2235.28675,0.00615
2233.22657,0.00551
2231.16640,0.00490
2229.10623,0.00466
2227.04606,0.00468
2224.98589,0.00499
2222.92571,0.00565
2220.86554,0.00622
2218.80537,0.00592
2216.74520,0.00484
2214.68503,0.00392
2212.62485,0.00357
2210.56468,0.00369
2208.50451,0.00422
2206.44434,0.00486
2204.38417,0.00489
2202.32399,0.00412
2200.26382,0.00323
2198.20365,0.00270
2196.14348,0.00232
2194.08330,0.00219
2192.02313,0.00269
2189.96296,0.00334
2187.90279,0.00329
2185.84262,0.00250
2183.78244,0.00190
2181.72227,0.00255
2179.66210,0.00404
2177.60193,0.00466
2175.54176,0.00403
2173.48158,0.00341
2171.42141,0.00335
2169.36124,0.00348
2167.30107,0.00399
2165.24089,0.00493
2163.18072,0.00497
2161.12055,0.00318
2159.06038,0.00121
2157.00021,0.00088
2154.94003,0.00142
2152.87986,0.00133
2150.81969,0.00055
2148.75952,0.00000
2146.69935,0.00046
2144.63917,0.00156
2142.57900,0.00200
2140.51883,0.00118
2138.45866,0.00019
2136.39849,0.00044
2134.33831,0.00168
2132.27814,0.00276
2130.21797,0.00330
2128.15780,0.00354
2126.09762,0.00372
2124.03745,0.00388
2121.97728,0.00381
2119.91711,0.00334
2117.85694,0.00276
2115.79676,0.00253
2113.73659,0.00273
2111.67642,0.00326
2109.61625,0.00387
2107.55608,0.00420
2105.49590,0.00402
2103.43573,0.00354
2101.37556,0.00325
2099.31539,0.00328
2097.25521,0.00339
2095.19504,0.00337
2093.13487,0.00324
2091.07470,0.00317
2089.01453,0.00328
2086.95435,0.00354
2084.89418,0.00373
2082.83401,0.00375
2080.77384,0.00378
2078.71367,0.00391
2076.65349,0.00404
2074.59332,0.00408
2072.53315,0.00412
2070.47298,0.00422
2068.41281,0.00436
2066.35263,0.00442
2064.29246,0.00425
2062.23229,0.00395
2060.17212,0.00381
2058.11194,0.00397
2056.05177,0.00431
2053.99160,0.00458
2051.93143,0.00455
2049.87126,0.00408
2047.81108,0.00333
2045.75091,0.00257
2043.69074,0.00197
2041.63057,0.00172
2039.57040,0.00201
2037.51022,0.00263
2035.45005,0.00284
2033.38988,0.00206
2031.32971,0.00076
2029.26954,0.00011
2027.20936,0.00064
2025.14919,0.00172
2023.08902,0.00233
2021.02885,0.00220
2018.96867,0.00187
2016.90850,0.00184
2014.84833,0.00207
2012.78816,0.00236
2010.72799,0.00268
2008.66781,0.00297
2006.60764,0.00309
2004.54747,0.00303
2002.48730,0.00292
2000.42713,0.00284
1998.36695,0.00261
1996.30678,0.00209
1994.24661,0.00148
1992.18644,0.00118
1990.12626,0.00140
1988.06609,0.00184
1986.00592,0.00205
1983.94575,0.00181
1981.88558,0.00116
1979.82540,0.00040
1977.76523,0.00000
1975.70506,0.00012
1973.64489,0.00056
1971.58472,0.00106
1969.52454,0.00146
1967.46437,0.00163
1965.40420,0.00159
1963.34403,0.00139
1961.28386,0.00102
1959.22368,0.00053
1957.16351,0.00028
1955.10334,0.00057
1953.04317,0.00131
1950.98299,0.00209
1948.92282,0.00255
1946.86265,0.00253
1944.80248,0.00215
1942.74231,0.00177
1940.68213,0.00175
1938.62196,0.00213
1936.56179,0.00261
1934.50162,0.00276
1932.44145,0.00239
1930.38127,0.00177
1928.32110,0.00138
1926.26093,0.00147
1924.20076,0.00186
1922.14059,0.00215
1920.08041,0.00216
1918.02024,0.00197
1915.96007,0.00179
1913.89990,0.00168
1911.83972,0.00169
1909.77955,0.00184
1907.71938,0.00219
1905.65921,0.00271
1903.59904,0.00323
1901.53886,0.00348
1899.47869,0.00331
1897.41852,0.00277
1895.35835,0.00211
1893.29818,0.00158
1891.23800,0.00125
1889.17783,0.00107
1887.11766,0.00100
1885.05749,0.00101
1882.99731,0.00106
1880.93714,0.00117
1878.87697,0.00131
1876.81680,0.00148
1874.75663,0.00164
1872.69645,0.00173
1870.63628,0.00172
1868.57611,0.00165
1866.51594,0.00167
1864.45577,0.00181
1862.39559,0.00194
1860.33542,0.00196
1858.27525,0.00196
1856.21508,0.00198
1854.15491,0.00194
1852.09473,0.00169
1850.03456,0.00133
1847.97439,0.00111
1845.91422,0.00114
1843.85404,0.00131
1841.79387,0.00141
1839.73370,0.00136
1837.67353,0.00121
1835.61336,0.00112
1833.55318,0.00118
1831.49301,0.00140
1829.43284,0.00167
1827.37267,0.00185
1825.31250,0.00186
1823.25232,0.00171
1821.19215,0.00150
1819.13198,0.00132
1817.07181,0.00128
1815.01163,0.00138
1812.95146,0.00153
1810.89129,0.00164
1808.83112,0.00166
1806.77095,0.00161
1804.71077,0.00152
1802.65060,0.00145
1800.59043,0.00144
1798.53026,0.00147
1796.47009,0.00147
1794.40991,0.00141
1792.34974,0.00139
1790.28957,0.00149
1788.22940,0.00166
1786.16923,0.00176
1784.10905,0.00175
1782.04888,0.00168
1779.98871,0.00161
1777.92854,0.00158
1775.86836,0.00153
1773.80819,0.00142
1771.74802,0.00133
1769.68785,0.00138
1767.62768,0.00162
1765.56750,0.00201
1763.50733,0.00244
1761.44716,0.00286
1759.38699,0.00327
1757.32682,0.00372
1755.26664,0.00415
1753.20647,0.00448
1751.14630,0.00472
1749.08613,0.00506
1747.02596,0.00557
1744.96578,0.00618
1742.90561,0.00674
1740.84544,0.00713
1738.78527,0.00723
1736.72509,0.00705
1734.66492,0.00681
1732.60475,0.00681
1730.54458,0.00712
1728.48441,0.00755
1726.42423,0.00789
1724.36406,0.00802
1722.30389,0.00791
1720.24372,0.00761
1718.18355,0.00719
1716.12337,0.00682
1714.06320,0.00660
1712.00303,0.00644
1709.94286,0.00621
1707.88268,0.00583
1705.82251,0.00536
1703.76234,0.00489
1701.70217,0.00445
1699.64200,0.00415
1697.58182,0.00410
1695.52165,0.00433
1693.46148,0.00467
1691.40131,0.00491
1689.34114,0.00497
1687.28096,0.00497
1685.22079,0.00514
1683.16062,0.00563
1681.10045,0.00637
1679.04028,0.00717
1676.98010,0.00784
1674.91993,0.00829
1672.85976,0.00857
1670.79959,0.00884
1668.73941,0.00929
1666.67924,0.00996
1664.61907,0.01076
1662.55890,0.01161
1660.49873,0.01244
1658.43855,0.01306
1656.37838,0.01332
1654.31821,0.01322
1652.25804,0.01296
1650.19787,0.01280
1648.13769,0.01286
1646.07752,0.01319
1644.01735,0.01376
1641.95718,0.01434
1639.89701,0.01469
1637.83683,0.01476
1635.77666,0.01473
1633.71649,0.01484
1631.65632,0.01514
1629.59614,0.01543
1627.53597,0.01561
1625.47580,0.01567
1623.41563,0.01569
1621.35546,0.01572
1619.29528,0.01575
1617.23511,0.01579
1615.17494,0.01592
1613.11477,0.01607
1611.05460,0.01607
1608.99442,0.01583
1606.93425,0.01543
1604.87408,0.01492
1602.81391,0.01431
1600.75373,0.01360
1598.69356,0.01278
1596.63339,0.01189
1594.57322,0.01104
1592.51305,0.01027
1590.45287,0.00959
1588.39270,0.00894
1586.33253,0.00828
1584.27236,0.00759
1582.21219,0.00687
1580.15201,0.00618
1578.09184,0.00556
1576.03167,0.00508
1573.97150,0.00479
1571.91133,0.00456
1569.85115,0.00426
1567.79098,0.00389
1565.73081,0.00349
1563.67064,0.00308
1561.61046,0.00263
1559.55029,0.00217
1557.49012,0.00197
1555.42995,0.00215
1553.36978,0.00249
1551.30960,0.00266
1549.24943,0.00253
1547.18926,0.00209
1545.12909,0.00148
1543.06892,0.00098
1541.00874,0.00087
1538.94857,0.00114
1536.88840,0.00151
1534.82823,0.00169
1532.76805,0.00163
1530.70788,0.00140
1528.64771,0.00099
1526.58754,0.00050
1524.52737,0.00013
1522.46719,0.00000
1520.40702,0.00005
1518.34685,0.00020
1516.28668,0.00039
1514.22651,0.00054
1512.16633,0.00048
1510.10616,0.00022
1508.04599,-0.00001
1505.98582,0.00012
1503.92565,0.00056
1501.86547,0.00102
1499.80530,0.00129
1497.74513,0.00136
1495.68496,0.00134
1493.62478,0.00132
1491.56461,0.00135
1489.50444,0.00149
1487.44427,0.00182
1485.38410,0.00230
1483.32392,0.00285
1481.26375,0.00336
1479.20358,0.00375
1477.14341,0.00401
1475.08324,0.00422
1473.02306,0.00453
1470.96289,0.00506
1468.90272,0.00575
1466.84255,0.00645
1464.78238,0.00705
1462.72220,0.00750
1460.66203,0.00778
1458.60186,0.00793
1456.54169,0.00815
1454.48151,0.00853
1452.42134,0.00894
1450.36117,0.00929
1448.30100,0.00960
1446.24083,0.00991
1444.18065,0.01019
1442.12048,0.01037
1440.06031,0.01045
1438.00014,0.01051
1435.93997,0.01065
1433.87979,0.01087
1431.81962,0.01111
1429.75945,0.01140
1427.69928,0.01178
1425.63910,0.01225
1423.57893,0.01267
1421.51876,0.01295
1419.45859,0.01307
1417.39842,0.01315
1415.33824,0.01328
1413.27807,0.01343
1411.21790,0.01350
1409.15773,0.01345
1407.09756,0.01329
1405.03738,0.01303
1402.97721,0.01270
1400.91704,0.01234
1398.85687,0.01196
1396.79670,0.01166
1394.73652,0.01151
1392.67635,0.01150
1390.61618,0.01152
1388.55601,0.01156
1386.49583,0.01166
1384.43566,0.01187
1382.37549,0.01214
1380.31532,0.01238
1378.25515,0.01258
1376.19497,0.01275
1374.13480,0.01289
1372.07463,0.01298
1370.01446,0.01301
1367.95429,0.01295
1365.89411,0.01276
1363.83394,0.01248
1361.77377,0.01220
1359.71360,0.01196
1357.65343,0.01172
1355.59325,0.01145
1353.53308,0.01117
1351.47291,0.01090
1349.41274,0.01068
1347.35256,0.01053
1345.29239,0.01043
1343.23222,0.01032
1341.17205,0.01020
1339.11188,0.01010
1337.05170,0.01008
1334.99153,0.01010
1332.93136,0.01015
1330.87119,0.01020
1328.81102,0.01029
1326.75084,0.01041
1324.69067,0.01051
1322.63050,0.01054
1320.57033,0.01050
1318.51015,0.01040
1316.44998,0.01029
1314.38981,0.01021
1312.32964,0.01017
1310.26947,0.01016
1308.20929,0.01010
1306.14912,0.00999
1304.08895,0.00980
1302.02878,0.00953
1299.96861,0.00922
1297.90843,0.00896
1295.84826,0.00881
1293.78809,0.00876
1291.72792,0.00873
1289.66775,0.00868
1287.60757,0.00865
1285.54740,0.00865
1283.48723,0.00866
1281.42706,0.00868
1279.36688,0.00871
1277.30671,0.00877
1275.24654,0.00890
1273.18637,0.00913
1271.12620,0.00944
1269.06602,0.00981
1267.00585,0.01022
1264.94568,0.01063
1262.88551,0.01101
1260.82534,0.01135
1258.76516,0.01167
1256.70499,0.01202
1254.64482,0.01236
1252.58465,0.01262
1250.52447,0.01274
1248.46430,0.01274
1246.40413,0.01264
1244.34396,0.01251
1242.28379,0.01233
1240.22361,0.01207
1238.16344,0.01174
1236.10327,0.01137
1234.04310,0.01095
1231.98293,0.01046
1229.92275,0.00992
1227.86258,0.00934
1225.80241,0.00876
1223.74224,0.00819
1221.68207,0.00764
1219.62189,0.00710
1217.56172,0.00655
1215.50155,0.00598
1213.44138,0.00535
1211.38120,0.00470
1209.32103,0.00412
1207.26086,0.00363
1205.20069,0.00312
1203.14052,0.00250
1201.08034,0.00176
1199.02017,0.00102
1196.96000,0.00043
1194.89983,0.00016
1192.83966,0.00008
1190.77948,0.00000
1188.71931,-0.00006
1186.65914,0.00008
1184.59897,0.00045
1182.53880,0.00101
1180.47862,0.00177
1178.41845,0.00267
1176.35828,0.00368
1174.29811,0.00482
1172.23793,0.00603
1170.17776,0.00723
1168.11759,0.00849
1166.05742,0.00983
1163.99725,0.01113
1161.93707,0.01237
1159.87690,0.01364
1157.81673,0.01488
1155.75656,0.01587
1153.69639,0.01659
1151.63621,0.01736
1149.57604,0.01837
1147.51587,0.01946
1145.45570,0.02035
1143.39552,0.02094
1141.33535,0.02132
1139.27518,0.02173
1137.21501,0.02237
1135.15484,0.02331
1133.09466,0.02438
1131.03449,0.02542
1128.97432,0.02645
1126.91415,0.02750
1124.85398,0.02865
1122.79380,0.02996
1120.73363,0.03129
1118.67346,0.03248
1116.61329,0.03363
1114.55312,0.03485
1112.49294,0.03608
1110.43277,0.03724
1108.37260,0.03840
1106.31243,0.03963
1104.25225,0.04099
1102.19208,0.04250
1100.13191,0.04418
1098.07174,0.04597
1096.01157,0.04773
1093.95139,0.04937
1091.89122,0.05092
1089.83105,0.05225
1087.77088,0.05334
1085.71071,0.05453
1083.65053,0.05607
1081.59036,0.05778
1079.53019,0.05932
1077.47002,0.06052
1075.40985,0.06148
1073.34967,0.06238
1071.28950,0.06339
1069.22933,0.06446
1067.16916,0.06533
1065.10898,0.06584
1063.04881,0.06616
1060.98864,0.06662
1058.92847,0.06734
1056.86830,0.06816
1054.80812,0.06889
1052.74795,0.06951
1050.68778,0.07017
1048.62761,0.07097
1046.56744,0.07182
1044.50726,0.07248
1042.44709,0.07286
1040.38692,0.07309
1038.32675,0.07337
1036.26657,0.07365
1034.20640,0.07366
1032.14623,0.07328
1030.08606,0.07248
1028.02589,0.07143
1025.96571,0.07050
1023.90554,0.06991
1021.84537,0.06945
1019.78520,0.06886
1017.72503,0.06814
1015.66485,0.06739
1013.60468,0.06661
1011.54451,0.06585
1009.48434,0.06509
1007.42417,0.06406
1005.36399,0.06276
1003.30382,0.06150
1001.24365,0.06046
999.18348,0.05956
997.12330,0.05861
995.06313,0.05745
993.00296,0.05636
990.94279,0.05557
988.88262,0.05484
986.82244,0.05399
984.76227,0.05319
982.70210,0.05253
980.64193,0.05191
978.58176,0.05126
976.52158,0.05042
974.46141,0.04919
972.40124,0.04769
970.34107,0.04628
968.28089,0.04504
966.22072,0.04379
964.16055,0.04239
962.10038,0.04091
960.04021,0.03948
957.98003,0.03820
955.91986,0.03704
953.85969,0.03595
951.79952,0.03495
949.73935,0.03382
947.67917,0.03240
945.61900,0.03088
943.55883,0.02946
941.49866,0.02788
939.43849,0.02593
937.37831,0.02383
935.31814,0.02184
933.25797,0.02000
931.19780,0.01834
929.13762,0.01690
927.07745,0.01564
925.01728,0.01452
922.95711,0.01351
920.89694,0.01247
918.83676,0.01136
916.77659,0.01047
914.71642,0.00995
912.65625,0.00959
910.59608,0.00914
908.53590,0.00859
906.47573,0.00802
904.41556,0.00753
902.35539,0.00737
900.29522,0.00756
898.23504,0.00777
896.17487,0.00778
894.11470,0.00775
892.05453,0.00794
889.99435,0.00830
887.93418,0.00861
885.87401,0.00878
883.81384,0.00870
881.75367,0.00836
879.69349,0.00811
877.63332,0.00809
875.57315,0.00815
873.51298,0.00817
871.45281,0.00805
869.39263,0.00775
867.33246,0.00746
865.27229,0.00724
863.21212,0.00704
861.15194,0.00697
859.09177,0.00705
857.03160,0.00697
854.97143,0.00653
852.91126,0.00589
850.85108,0.00537
848.79091,0.00501
846.73074,0.00471
844.67057,0.00444
842.61040,0.00403
840.55022,0.00330
838.49005,0.00239
836.42988,0.00161
834.36971,0.00121
832.30954,0.00116
830.24936,0.00129
828.18919,0.00152
826.12902,0.00183
824.06885,0.00201
822.00867,0.00186
819.94850,0.00165
817.88833,0.00180
815.82816,0.00236
813.76799,0.00300
811.70781,0.00333
809.64764,0.00326
807.58747,0.00287
805.52730,0.00225
803.46713,0.00180
801.40695,0.00189
799.34678,0.00219
797.28661,0.00199
795.22644,0.00129
793.16627,0.00068
791.10609,0.00040
789.04592,0.00037
786.98575,0.00054
784.92558,0.00068
782.86540,0.00062
780.80523,0.00051
778.74506,0.00049
776.68489,0.00057
774.62472,0.00067
772.56454,0.00089
770.50437,0.00150
768.44420,0.00229
766.38403,0.00244
764.32386,0.00195
762.26368,0.00171
760.20351,0.00195
758.14334,0.00217
756.08317,0.00227
754.02299,0.00233
751.96282,0.00227
749.90265,0.00200
747.84248,0.00161
745.78231,0.00130
743.72213,0.00120
741.66196,0.00107
739.60179,0.00057
737.54162,0.00000
735.48145,-0.00011
733.42127,0.00057
731.36110,0.00167
729.30093,0.00265
727.24076,0.00267
725.18059,0.00169
723.12041,0.00078
721.06024,0.00043
719.00007,0.00062
716.93990,0.00108
714.87972,0.00153
712.81955,0.00196
710.75938,0.00248
708.69921,0.00301
706.63904,0.00335
704.57886,0.00345
702.51869,0.00334
700.45852,0.00308
698.39835,0.00278
696.33818,0.00260
694.27800,0.00264
692.21783,0.00295
690.15766,0.00349
688.09749,0.00397
686.03731,0.00396
683.97714,0.00351
681.91697,0.00309
679.85680,0.00300
677.79663,0.00316
675.73645,0.00347
673.67628,0.00391
671.61611,0.00429
669.55594,0.00431
667.49577,0.00403
665.43559,0.00371
663.37542,0.00332
661.31525,0.00287
659.25508,0.00243
657.19491,0.00230
655.13473,0.00273
653.07456,0.00364
651.01439,0.00449
648.95422,0.00472
646.89404,0.00429
644.83387,0.00353
642.77370,0.00271
640.71353,0.00195
638.65336,0.00153
636.59318,0.00188
634.53301,0.00319
632.47284,0.00506
630.41267,0.00659
628.35250,0.00675
626.29232,0.00518
624.23215,0.00313
622.17198,0.00185
620.11181,0.00175
618.05164,0.00302
615.99146,0.00580
613.93129,0.00870
611.87112,0.00899
609.81095,0.00640
607.75077,0.00431
605.69060,0.00417
603.63043,0.00380
601.57026,0.00216
599.51009,0.00000
