3996.73391,0.00054
3994.67373,0.00084
3992.61356,0.00080
3990.55339,0.00027
3988.49322,-0.00005
3986.43305,0.00025
3984.37287,0.00048
3982.31270,0.00030
3980.25253,0.00027
3978.19236,0.00054
3976.13219,0.00080
3974.07201,0.00083
3972.01184,0.00081
3969.95167,0.00068
3967.89150,0.00026
3965.83133,0.00000
3963.77115,0.00030
3961.71098,0.00064
3959.65081,0.00055
3957.59064,0.00049
3955.53046,0.00074
3953.47029,0.00090
3951.41012,0.00077
3949.34995,0.00066
3947.28978,0.00083
3945.22960,0.00115
3943.16943,0.00117
3941.10926,0.00075
3939.04909,0.00023
3936.98892,0.00003
3934.92874,0.00031
3932.86857,0.00098
3930.80840,0.00161
3928.74823,0.00170
3926.68805,0.00146
3924.62788,0.00120
3922.56771,0.00099
3920.50754,0.00108
3918.44737,0.00161
3916.38719,0.00232
3914.32702,0.00263
3912.26685,0.00221
3910.20668,0.00143
3908.14651,0.00102
3906.08633,0.00109
3904.02616,0.00106
3901.96599,0.00109
3899.90582,0.00152
3897.84565,0.00174
3895.78547,0.00152
3893.72530,0.00094
3891.66513,0.00025
3889.60496,0.00032
3887.54478,0.00105
3885.48461,0.00144
3883.42444,0.00136
3881.36427,0.00127
3879.30410,0.00101
3877.24392,0.00063
3875.18375,0.00047
3873.12358,0.00044
3871.06341,0.00041
3869.00324,0.00057
3866.94306,0.00105
3864.88289,0.00165
3862.82272,0.00211
3860.76255,0.00224
3858.70237,0.00217
3856.64220,0.00200
3854.58203,0.00153
3852.52186,0.00086
3850.46169,0.00061
3848.40151,0.00070
3846.34134,0.00092
3844.28117,0.00120
3842.22100,0.00141
3840.16083,0.00157
3838.10065,0.00184
3836.04048,0.00200
3833.98031,0.00181
3831.92014,0.00156
3829.85997,0.00131
3827.79979,0.00091
3825.73962,0.00066
3823.67945,0.00072
3821.61928,0.00070
3819.55910,0.00066
3817.49893,0.00090
3815.43876,0.00113
3813.37859,0.00119
3811.31842,0.00118
3809.25824,0.00121
3807.19807,0.00141
3805.13790,0.00173
3803.07773,0.00184
3801.01756,0.00155
3798.95738,0.00108
3796.89721,0.00098
3794.83704,0.00131
3792.77687,0.00153
3790.71670,0.00148
3788.65652,0.00148
3786.59635,0.00161
3784.53618,0.00150
3782.47601,0.00112
3780.41583,0.00102
3778.35566,0.00130
3776.29549,0.00142
3774.23532,0.00125
3772.17515,0.00105
3770.11497,0.00097
3768.05480,0.00122
3765.99463,0.00185
3763.93446,0.00223
3761.87429,0.00202
3759.81411,0.00159
3757.75394,0.00141
3755.69377,0.00164
3753.63360,0.00193
3751.57342,0.00198
3749.51325,0.00203
3747.45308,0.00254
3745.39291,0.00336
3743.33274,0.00377
3741.27256,0.00334
3739.21239,0.00236
3737.15222,0.00102
3735.09205,0.00000
3733.03188,0.00040
3730.97170,0.00155
3728.91153,0.00219
3726.85136,0.00211
3724.79119,0.00143
3722.73102,0.00077
3720.67084,0.00090
3718.61067,0.00145
3716.55050,0.00191
3714.49033,0.00218
3712.43015,0.00237
3710.36998,0.00245
3708.30981,0.00212
3706.24964,0.00176
3704.18947,0.00166
3702.12929,0.00162
3700.06912,0.00149
3698.00895,0.00157
3695.94878,0.00214
3693.88861,0.00265
3691.82843,0.00263
3689.76826,0.00228
3687.70809,0.00167
3685.64792,0.00102
3683.58775,0.00087
3681.52757,0.00106
3679.46740,0.00122
3677.40723,0.00144
3675.34706,0.00160
3673.28688,0.00112
3671.22671,0.00059
3669.16654,0.00073
3667.10637,0.00107
3665.04620,0.00122
3662.98602,0.00143
3660.92585,0.00155
3658.86568,0.00134
3656.80551,0.00121
3654.74534,0.00156
3652.68516,0.00207
3650.62499,0.00256
3648.56482,0.00283
3646.50465,0.00235
3644.44447,0.00178
3642.38430,0.00180
3640.32413,0.00210
3638.26396,0.00233
3636.20379,0.00255
3634.14361,0.00264
3632.08344,0.00235
3630.02327,0.00200
3627.96310,0.00232
3625.90293,0.00297
3623.84275,0.00312
3621.78258,0.00275
3619.72241,0.00242
3617.66224,0.00234
3615.60207,0.00210
3613.54189,0.00191
3611.48172,0.00216
3609.42155,0.00246
3607.36138,0.00244
3605.30120,0.00265
3603.24103,0.00339
3601.18086,0.00399
3599.12069,0.00413
3597.06052,0.00430
3595.00034,0.00489
3592.94017,0.00561
3590.88000,0.00582
3588.81983,0.00541
3586.75966,0.00522
3584.69948,0.00582
3582.63931,0.00642
3580.57914,0.00641
3578.51897,0.00637
3576.45879,0.00677
3574.39862,0.00698
3572.33845,0.00679
3570.27828,0.00692
3568.21811,0.00722
3566.15793,0.00704
3564.09776,0.00679
3562.03759,0.00674
3559.97742,0.00685
3557.91725,0.00742
3555.85707,0.00864
3553.79690,0.00998
3551.73673,0.01065
3549.67656,0.01073
3547.61639,0.01077
3545.55621,0.01101
3543.49604,0.01155
3541.43587,0.01209
3539.37570,0.01242
3537.31552,0.01261
3535.25535,0.01268
3533.19518,0.01256
3531.13501,0.01246
3529.07484,0.01279
3527.01466,0.01346
3524.95449,0.01393
3522.89432,0.01410
3520.83415,0.01450
3518.77398,0.01512
3516.71380,0.01541
3514.65363,0.01543
3512.59346,0.01567
3510.53329,0.01628
3508.47312,0.01679
3506.41294,0.01686
3504.35277,0.01693
3502.29260,0.01710
3500.23243,0.01683
3498.17225,0.01641
3496.11208,0.01683
3494.05191,0.01806
3491.99174,0.01888
3489.93157,0.01902
3487.87139,0.01927
3485.81122,0.01981
3483.75105,0.02025
3481.69088,0.02072
3479.63071,0.02127
3477.57053,0.02145
3475.51036,0.02135
3473.45019,0.02176
3471.39002,0.02252
3469.32984,0.02270
3467.26967,0.02244
3465.20950,0.02244
3463.14933,0.02270
3461.08916,0.02302
3459.02898,0.02356
3456.96881,0.02430
3454.90864,0.02506
3452.84847,0.02565
3450.78830,0.02593
3448.72812,0.02580
3446.66795,0.02542
3444.60778,0.02527
3442.54761,0.02545
3440.48744,0.02567
3438.42726,0.02586
3436.36709,0.02621
3434.30692,0.02667
3432.24675,0.02710
3430.18657,0.02749
3428.12640,0.02805
3426.06623,0.02875
3424.00606,0.02903
3421.94589,0.02887
3419.88571,0.02874
3417.82554,0.02849
3415.76537,0.02842
3413.70520,0.02916
3411.64503,0.03010
3409.58485,0.03053
3407.52468,0.03061
3405.46451,0.03077
3403.40434,0.03105
3401.34416,0.03112
3399.28399,0.03088
3397.22382,0.03110
3395.16365,0.03222
3393.10348,0.03336
3391.04330,0.03352
3388.98313,0.03311
3386.92296,0.03304
3384.86279,0.03347
3382.80262,0.03400
3380.74244,0.03394
3378.68227,0.03340
3376.62210,0.03337
3374.56193,0.03386
3372.50176,0.03406
3370.44158,0.03395
3368.38141,0.03401
3366.32124,0.03436
3364.26107,0.03478
3362.20089,0.03490
3360.14072,0.03462
3358.08055,0.03447
3356.02038,0.03474
3353.96021,0.03499
3351.90003,0.03499
3349.83986,0.03500
3347.77969,0.03520
3345.71952,0.03546
3343.65935,0.03554
3341.59917,0.03588
3339.53900,0.03660
3337.47883,0.03698
3335.41866,0.03681
3333.35849,0.03644
3331.29831,0.03627
3329.23814,0.03654
3327.17797,0.03692
3325.11780,0.03708
3323.05762,0.03715
3320.99745,0.03709
3318.93728,0.03705
3316.87711,0.03732
3314.81694,0.03752
3312.75676,0.03762
3310.69659,0.03789
3308.63642,0.03771
3306.57625,0.03700
3304.51608,0.03672
3302.45590,0.03693
3300.39573,0.03704
3298.33556,0.03704
3296.27539,0.03703
3294.21521,0.03693
3292.15504,0.03674
3290.09487,0.03661
3288.03470,0.03664
3285.97453,0.03667
3283.91435,0.03676
3281.85418,0.03696
3279.79401,0.03696
3277.73384,0.03685
3275.67367,0.03683
3273.61349,0.03691
3271.55332,0.03719
3269.49315,0.03732
3267.43298,0.03689
3265.37281,0.03650
3263.31263,0.03650
3261.25246,0.03648
3259.19229,0.03653
3257.13212,0.03677
3255.07194,0.03687
3253.01177,0.03682
3250.95160,0.03690
3248.89143,0.03709
3246.83126,0.03702
3244.77108,0.03651
3242.71091,0.03605
3240.65074,0.03623
3238.59057,0.03683
3236.53040,0.03702
3234.47022,0.03677
3232.41005,0.03667
3230.34988,0.03670
3228.28971,0.03648
3226.22954,0.03634
3224.16936,0.03648
3222.10919,0.03636
3220.04902,0.03584
3217.98885,0.03554
3215.92867,0.03585
3213.86850,0.03634
3211.80833,0.03623
3209.74816,0.03563
3207.68799,0.03525
3205.62781,0.03507
3203.56764,0.03465
3201.50747,0.03402
3199.44730,0.03378
3197.38713,0.03416
3195.32695,0.03468
3193.26678,0.03483
3191.20661,0.03451
3189.14644,0.03408
3187.08626,0.03395
3185.02609,0.03383
3182.96592,0.03333
3180.90575,0.03260
3178.84558,0.03181
3176.78540,0.03129
3174.72523,0.03152
3172.66506,0.03207
3170.60489,0.03214
3168.54472,0.03175
3166.48454,0.03144
3164.42437,0.03150
3162.36420,0.03171
3160.30403,0.03169
3158.24386,0.03151
3156.18368,0.03143
3154.12351,0.03141
3152.06334,0.03124
3150.00317,0.03083
3147.94299,0.03041
3145.88282,0.03022
3143.82265,0.03023
3141.76248,0.03005
3139.70231,0.02932
3137.64213,0.02866
3135.58196,0.02869
3133.52179,0.02883
3131.46162,0.02866
3129.40145,0.02843
3127.34127,0.02821
3125.28110,0.02790
3123.22093,0.02778
3121.16076,0.02804
3119.10058,0.02812
3117.04041,0.02778
3114.98024,0.02727
3112.92007,0.02699
3110.85990,0.02716
3108.79972,0.02729
3106.73955,0.02688
3104.67938,0.02636
3102.61921,0.02626
3100.55904,0.02633
3098.49886,0.02605
3096.43869,0.02579
3094.37852,0.02598
3092.31835,0.02601
3090.25818,0.02548
3088.19800,0.02511
3086.13783,0.02513
3084.07766,0.02503
3082.01749,0.02463
3079.95731,0.02414
3077.89714,0.02394
3075.83697,0.02416
3073.77680,0.02424
3071.71663,0.02384
3069.65645,0.02336
3067.59628,0.02297
3065.53611,0.02258
3063.47594,0.02246
3061.41577,0.02276
3059.35559,0.02301
3057.29542,0.02273
3055.23525,0.02207
3053.17508,0.02153
3051.11491,0.02137
3049.05473,0.02131
3046.99456,0.02114
3044.93439,0.02115
3042.87422,0.02122
3040.81404,0.02087
3038.75387,0.02022
3036.69370,0.01977
3034.63353,0.01968
3032.57336,0.01971
3030.51318,0.01968
3028.45301,0.01975
3026.39284,0.01978
3024.33267,0.01944
3022.27250,0.01902
3020.21232,0.01881
3018.15215,0.01874
3016.09198,0.01886
3014.03181,0.01908
3011.97163,0.01917
3009.91146,0.01897
3007.85129,0.01858
3005.79112,0.01826
3003.73095,0.01807
3001.67077,0.01788
2999.61060,0.01772
2997.55043,0.01756
2995.49026,0.01735
2993.43009,0.01733
2991.36991,0.01741
2989.30974,0.01743
2987.24957,0.01755
2985.18940,0.01764
2983.12923,0.01762
2981.06905,0.01774
2979.00888,0.01813
2976.94871,0.01864
2974.88854,0.01910
2972.82836,0.01938
2970.76819,0.01959
2968.70802,0.02025
2966.64785,0.02124
2964.58768,0.02207
2962.52750,0.02287
2960.46733,0.02400
2958.40716,0.02515
2956.34699,0.02609
2954.28682,0.02736
2952.22664,0.02910
2950.16647,0.03067
2948.10630,0.03181
2946.04613,0.03279
2943.98596,0.03420
2941.92578,0.03635
2939.86561,0.03855
2937.80544,0.04019
2935.74527,0.04172
2933.68509,0.04359
2931.62492,0.04521
2929.56475,0.04619
2927.50458,0.04726
2925.44441,0.04861
2923.38423,0.04962
2921.32406,0.05029
2919.26389,0.05055
2917.20372,0.05006
2915.14355,0.04903
2913.08337,0.04754
2911.02320,0.04583
2908.96303,0.04450
2906.90286,0.04344
2904.84268,0.04221
2902.78251,0.04079
2900.72234,0.03936
2898.66217,0.03800
2896.60200,0.03671
2894.54182,0.03556
2892.48165,0.03468
2890.42148,0.03420
2888.36131,0.03389
2886.30114,0.03337
2884.24096,0.03295
2882.18079,0.03272
2880.12062,0.03251
2878.06045,0.03244
2876.00028,0.03260
2873.94010,0.03281
2871.87993,0.03272
2869.81976,0.03250
2867.75959,0.03277
2865.69941,0.03377
2863.63924,0.03476
2861.57907,0.03549
2859.51890,0.03665
2857.45873,0.03803
2855.39855,0.03910
2853.33838,0.04017
2851.27821,0.04123
2849.21804,0.04121
2847.15787,0.03960
2845.09769,0.03719
2843.03752,0.03471
2840.97735,0.03255
2838.91718,0.03092
2836.85700,0.02962
2834.79683,0.02860
2832.73666,0.02786
2830.67649,0.02717
2828.61632,0.02646
2826.55614,0.02571
2824.49597,0.02514
2822.43580,0.02471
2820.37563,0.02408
2818.31546,0.02348
2816.25528,0.02309
2814.19511,0.02281
2812.13494,0.02254
2810.07477,0.02216
2808.01460,0.02180
2805.95442,0.02168
2803.89425,0.02155
2801.83408,0.02121
2799.77391,0.02097
2797.71373,0.02109
2795.65356,0.02131
2793.59339,0.02108
2791.53322,0.02044
2789.47305,0.01980
2787.41287,0.01925
2785.35270,0.01891
2783.29253,0.01903
2781.23236,0.01933
2779.17219,0.01923
2777.11201,0.01873
2775.05184,0.01824
2772.99167,0.01814
2770.93150,0.01845
2768.87133,0.01874
2766.81115,0.01873
2764.75098,0.01849
2762.69081,0.01829
2760.63064,0.01839
2758.57046,0.01840
2756.51029,0.01808
2754.45012,0.01777
2752.38995,0.01759
2750.32978,0.01768
2748.26960,0.01802
2746.20943,0.01815
2744.14926,0.01799
2742.08909,0.01792
2740.02892,0.01805
2737.96874,0.01807
2735.90857,0.01784
2733.84840,0.01761
2731.78823,0.01737
2729.72805,0.01725
2727.66788,0.01760
2725.60771,0.01812
2723.54754,0.01810
2721.48737,0.01762
2719.42719,0.01719
2717.36702,0.01702
2715.30685,0.01707
2713.24668,0.01719
2711.18651,0.01725
2709.12633,0.01716
2707.06616,0.01685
2705.00599,0.01666
2702.94582,0.01677
2700.88565,0.01700
2698.82547,0.01736
2696.76530,0.01766
2694.70513,0.01765
2692.64496,0.01736
2690.58478,0.01699
2688.52461,0.01691
2686.46444,0.01714
2684.40427,0.01720
2682.34410,0.01697
2680.28392,0.01689
2678.22375,0.01694
2676.16358,0.01686
2674.10341,0.01688
2672.04324,0.01698
2669.98306,0.01692
2667.92289,0.01672
2665.86272,0.01649
2663.80255,0.01624
2661.74238,0.01607
2659.68220,0.01606
2657.62203,0.01603
2655.56186,0.01583
2653.50169,0.01557
2651.44151,0.01562
2649.38134,0.01618
2647.32117,0.01681
2645.26100,0.01698
2643.20083,0.01671
2641.14065,0.01622
2639.08048,0.01572
2637.02031,0.01532
2634.96014,0.01507
2632.89997,0.01502
2630.83979,0.01495
2628.77962,0.01480
2626.71945,0.01488
2624.65928,0.01512
2622.59910,0.01513
2620.53893,0.01476
2618.47876,0.01451
2616.41859,0.01457
2614.35842,0.01453
2612.29824,0.01452
2610.23807,0.01441
2608.17790,0.01393
2606.11773,0.01371
2604.05756,0.01395
2601.99738,0.01415
2599.93721,0.01413
2597.87704,0.01402
2595.81687,0.01373
2593.75670,0.01339
2591.69652,0.01349
2589.63635,0.01339
2587.57618,0.01279
2585.51601,0.01267
2583.45583,0.01298
2581.39566,0.01293
2579.33549,0.01254
2577.27532,0.01242
2575.21515,0.01275
2573.15497,0.01301
2571.09480,0.01300
2569.03463,0.01299
2566.97446,0.01281
2564.91429,0.01206
2562.85411,0.01151
2560.79394,0.01192
2558.73377,0.01243
2556.67360,0.01233
2554.61342,0.01203
2552.55325,0.01214
2550.49308,0.01271
2548.43291,0.01273
2546.37274,0.01221
2544.31256,0.01211
2542.25239,0.01214
2540.19222,0.01207
2538.13205,0.01243
2536.07188,0.01296
2534.01170,0.01309
2531.95153,0.01269
2529.89136,0.01194
2527.83119,0.01138
2525.77102,0.01121
2523.71084,0.01120
2521.65067,0.01136
2519.59050,0.01176
2517.53033,0.01209
2515.47015,0.01197
2513.40998,0.01155
2511.34981,0.01132
2509.28964,0.01128
2507.22947,0.01111
2505.16929,0.01100
2503.10912,0.01119
2501.04895,0.01140
2498.98878,0.01120
2496.92861,0.01068
2494.86843,0.01037
2492.80826,0.01036
2490.74809,0.00998
2488.68792,0.00944
2486.62775,0.00962
2484.56757,0.00977
2482.50740,0.00960
2480.44723,0.01044
2478.38706,0.01195
2476.32688,0.01263
2474.26671,0.01246
2472.20654,0.01200
2470.14637,0.01148
2468.08620,0.01092
2466.02602,0.01051
2463.96585,0.01029
2461.90568,0.01012
2459.84551,0.01003
2457.78534,0.01010
2455.72516,0.01058
2453.66499,0.01092
2451.60482,0.01081
2449.54465,0.01086
2447.48447,0.01100
2445.42430,0.01101
2443.36413,0.01088
2441.30396,0.01047
2439.24379,0.01011
2437.18361,0.01002
2435.12344,0.01007
2433.06327,0.01016
2431.00310,0.00997
2428.94293,0.00957
2426.88275,0.00955
2424.82258,0.00967
2422.76241,0.00948
2420.70224,0.00968
2418.64207,0.01039
2416.58189,0.01040
2414.52172,0.00958
2412.46155,0.00927
2410.40138,0.00974
2408.34120,0.01000
2406.28103,0.00986
2404.22086,0.00970
2402.16069,0.00958
2400.10052,0.00940
2398.04034,0.00907
2395.98017,0.00891
2393.92000,0.00906
2391.85983,0.00926
2389.79966,0.00932
2387.73948,0.00921
2385.67931,0.00902
2383.61914,0.00905
2381.55897,0.00951
2379.49880,0.01015
2377.43862,0.01032
2375.37845,0.00926
2373.31828,0.00776
2371.25811,0.00799
2369.19793,0.01103
2367.13776,0.01399
2365.07759,0.01179
2363.01742,0.00611
2360.95725,0.00429
2358.89707,0.00544
2356.83690,0.00670
2354.77673,0.00766
2352.71656,0.00872
2350.65639,0.01061
2348.59621,0.01116
2346.53604,0.00917
2344.47587,0.00902
2342.41570,0.00987
2340.35552,0.00932
2338.29535,0.00773
2336.23518,0.00715
2334.17501,0.00748
2332.11484,0.00694
2330.05466,0.00651
2327.99449,0.00654
2325.93432,0.00682
2323.87415,0.00702
2321.81398,0.00731
2319.75380,0.00751
2317.69363,0.00844
2315.63346,0.00963
2313.57329,0.01055
2311.51312,0.01118
2309.45294,0.01118
2307.39277,0.01038
2305.33260,0.00952
2303.27243,0.00906
2301.21225,0.00849
2299.15208,0.00788
2297.09191,0.00763
2295.03174,0.00767
2292.97157,0.00775
2290.91139,0.00788
2288.85122,0.00833
2286.79105,0.00895
2284.73088,0.00917
2282.67071,0.00886
2280.61053,0.00856
2278.55036,0.00853
2276.49019,0.00860
2274.43002,0.00878
2272.36984,0.00902
2270.30967,0.00924
2268.24950,0.00919
2266.18933,0.00841
2264.12916,0.00723
2262.06898,0.00620
2260.00881,0.00522
2257.94864,0.00504
2255.88847,0.00634
2253.82830,0.00774
2251.76812,0.00769
2249.70795,0.00693
2247.64778,0.00679
2245.58761,0.00672
2243.52744,0.00659
2241.46726,0.00743
2239.40709,0.00844
2237.34692,0.00865
2235.28675,0.00931
2233.22657,0.00960
2231.16640,0.00754
2229.10623,0.00480
2227.04606,0.00376
2224.98589,0.00481
2222.92571,0.00662
2220.86554,0.00777
2218.80537,0.00848
2216.74520,0.00870
2214.68503,0.00720
2212.62485,0.00465
2210.56468,0.00442
2208.50451,0.00654
2206.44434,0.00702
2204.38417,0.00617
2202.32399,0.00586
2200.26382,0.00480
2198.20365,0.00334
2196.14348,0.00336
2194.08330,0.00550
2192.02313,0.00759
2189.96296,0.00775
2187.90279,0.00773
2185.84262,0.00809
2183.78244,0.00794
2181.72227,0.00719
2179.66210,0.00575
2177.60193,0.00433
2175.54176,0.00375
2173.48158,0.00344
2171.42141,0.00377
2169.36124,0.00576
2167.30107,0.00760
2165.24089,0.00719
2163.18072,0.00409
2161.12055,0.00098
2159.06038,0.00154
2157.00021,0.00328
2154.94003,0.00352
2152.87986,0.00322
2150.81969,0.00302
2148.75952,0.00312
2146.69935,0.00373
2144.63917,0.00435
2142.57900,0.00428
2140.51883,0.00410
2138.45866,0.00460
2136.39849,0.00461
2134.33831,0.00323
2132.27814,0.00240
2130.21797,0.00307
2128.15780,0.00437
2126.09762,0.00561
2124.03745,0.00634
2121.97728,0.00610
2119.91711,0.00522
2117.85694,0.00537
2115.79676,0.00682
2113.73659,0.00794
2111.67642,0.00797
2109.61625,0.00751
2107.55608,0.00710
2105.49590,0.00675
2103.43573,0.00655
2101.37556,0.00633
2099.31539,0.00567
2097.25521,0.00500
2095.19504,0.00456
2093.13487,0.00376
2091.07470,0.00303
2089.01453,0.00306
2086.95435,0.00394
2084.89418,0.00556
2082.83401,0.00690
2080.77384,0.00696
2078.71367,0.00578
2076.65349,0.00497
2074.59332,0.00576
2072.53315,0.00648
2070.47298,0.00588
2068.41281,0.00501
2066.35263,0.00457
2064.29246,0.00459
2062.23229,0.00520
2060.17212,0.00560
2058.11194,0.00490
2056.05177,0.00435
2053.99160,0.00464
2051.93143,0.00439
2049.87126,0.00360
2047.81108,0.00384
2045.75091,0.00486
2043.69074,0.00585
2041.63057,0.00686
2039.57040,0.00625
2037.51022,0.00431
2035.45005,0.00476
2033.38988,0.00629
2031.32971,0.00472
2029.26954,0.00219
2027.20936,0.00090
2025.14919,0.00000
2023.08902,0.00006
2021.02885,0.00043
2018.96867,0.00047
2016.90850,0.00129
2014.84833,0.00239
2012.78816,0.00267
2010.72799,0.00207
2008.66781,0.00138
2006.60764,0.00187
2004.54747,0.00251
2002.48730,0.00239
2000.42713,0.00199
1998.36695,0.00143
1996.30678,0.00154
1994.24661,0.00261
1992.18644,0.00333
1990.12626,0.00267
1988.06609,0.00130
1986.00592,0.00046
1983.94575,0.00037
1981.88558,0.00012
1979.82540,0.00007
1977.76523,0.00062
1975.70506,0.00046
1973.64489,0.00051
1971.58472,0.00125
1969.52454,0.00159
1967.46437,0.00181
1965.40420,0.00169
1963.34403,0.00141
1961.28386,0.00202
1959.22368,0.00314
1957.16351,0.00368
1955.10334,0.00334
1953.04317,0.00256
1950.98299,0.00183
1948.92282,0.00131
1946.86265,0.00113
1944.80248,0.00115
1942.74231,0.00125
1940.68213,0.00168
1938.62196,0.00271
1936.56179,0.00428
1934.50162,0.00502
1932.44145,0.00442
1930.38127,0.00391
1928.32110,0.00375
1926.26093,0.00302
1924.20076,0.00224
1922.14059,0.00200
1920.08041,0.00189
1918.02024,0.00200
1915.96007,0.00229
1913.89990,0.00226
1911.83972,0.00215
1909.77955,0.00233
1907.71938,0.00261
1905.65921,0.00265
1903.59904,0.00246
1901.53886,0.00234
1899.47869,0.00245
1897.41852,0.00264
1895.35835,0.00281
1893.29818,0.00311
1891.23800,0.00324
1889.17783,0.00240
1887.11766,0.00131
1885.05749,0.00158
1882.99731,0.00298
1880.93714,0.00396
1878.87697,0.00375
1876.81680,0.00285
1874.75663,0.00212
1872.69645,0.00166
1870.63628,0.00120
1868.57611,0.00121
1866.51594,0.00201
1864.45577,0.00255
1862.39559,0.00235
1860.33542,0.00208
1858.27525,0.00207
1856.21508,0.00204
1854.15491,0.00191
1852.09473,0.00171
1850.03456,0.00172
1847.97439,0.00188
1845.91422,0.00177
1843.85404,0.00151
1841.79387,0.00155
1839.73370,0.00176
1837.67353,0.00182
1835.61336,0.00184
1833.55318,0.00207
1831.49301,0.00229
1829.43284,0.00211
1827.37267,0.00171
1825.31250,0.00154
1823.25232,0.00146
1821.19215,0.00112
1819.13198,0.00068
1817.07181,0.00056
1815.01163,0.00069
1812.95146,0.00068
1810.89129,0.00058
1808.83112,0.00065
1806.77095,0.00090
1804.71077,0.00094
1802.65060,0.00056
1800.59043,0.00031
1798.53026,0.00053
1796.47009,0.00084
1794.40991,0.00085
1792.34974,0.00051
1790.28957,0.00020
1788.22940,0.00028
1786.16923,0.00052
1784.10905,0.00056
1782.04888,0.00037
1779.98871,0.00022
1777.92854,0.00035
1775.86836,0.00062
1773.80819,0.00064
1771.74802,0.00030
1769.68785,0.00000
1767.62768,0.00001
1765.56750,0.00033
1763.50733,0.00110
1761.44716,0.00248
1759.38699,0.00374
1757.32682,0.00421
1755.26664,0.00438
1753.20647,0.00518
1751.14630,0.00688
1749.08613,0.00855
1747.02596,0.00939
1744.96578,0.00993
1742.90561,0.01072
1740.84544,0.01168
1738.78527,0.01228
1736.72509,0.01220
1734.66492,0.01191
1732.60475,0.01216
1730.54458,0.01269
1728.48441,0.01283
1726.42423,0.01272
1724.36406,0.01270
1722.30389,0.01284
1720.24372,0.01329
1718.18355,0.01395
1716.12337,0.01419
1714.06320,0.01388
1712.00303,0.01352
1709.94286,0.01321
1707.88268,0.01298
1705.82251,0.01295
1703.76234,0.01291
1701.70217,0.01272
1699.64200,0.01260
1697.58182,0.01275
1695.52165,0.01312
1693.46148,0.01354
1691.40131,0.01401
1689.34114,0.01496
1687.28096,0.01668
1685.22079,0.01902
1683.16062,0.02122
1681.10045,0.02265
1679.04028,0.02373
1676.98010,0.02454
1674.91993,0.02503
1672.85976,0.02543
1670.79959,0.02584
1668.73941,0.02601
1666.67924,0.02580
1664.61907,0.02534
1662.55890,0.02455
1660.49873,0.02366
1658.43855,0.02307
1656.37838,0.02265
1654.31821,0.02216
1652.25804,0.02170
1650.19787,0.02156
1648.13769,0.02162
1646.07752,0.02176
1644.01735,0.02180
1641.95718,0.02159
1639.89701,0.02145
1637.83683,0.02178
1635.77666,0.02255
1633.71649,0.02339
1631.65632,0.02399
1629.59614,0.02438
1627.53597,0.02478
1625.47580,0.02517
1623.41563,0.02540
1621.35546,0.02559
1619.29528,0.02597
1617.23511,0.02655
1615.17494,0.02711
1613.11477,0.02769
1611.05460,0.02870
1608.99442,0.03023
1606.93425,0.03171
1604.87408,0.03239
1602.81391,0.03199
1600.75373,0.03092
1598.69356,0.02953
1596.63339,0.02787
1594.57322,0.02641
1592.51305,0.02563
1590.45287,0.02523
1588.39270,0.02477
1586.33253,0.02418
1584.27236,0.02343
1582.21219,0.02262
1580.15201,0.02197
1578.09184,0.02146
1576.03167,0.02090
1573.97150,0.02050
1571.91133,0.02029
1569.85115,0.01979
1567.79098,0.01886
1565.73081,0.01799
1563.67064,0.01742
1561.61046,0.01682
1559.55029,0.01567
1557.49012,0.01445
1555.42995,0.01407
1553.36978,0.01370
1551.30960,0.01284
1549.24943,0.01195
1547.18926,0.01152
1545.12909,0.01146
1543.06892,0.01126
1541.00874,0.01049
1538.94857,0.00950
1536.88840,0.00889
1534.82823,0.00845
1532.76805,0.00790
1530.70788,0.00718
1528.64771,0.00652
1526.58754,0.00625
1524.52737,0.00676
1522.46719,0.00815
1520.40702,0.00967
1518.34685,0.01052
1516.28668,0.01104
1514.22651,0.01128
1512.16633,0.01094
1510.10616,0.01006
1508.04599,0.00857
1505.98582,0.00671
1503.92565,0.00563
1501.86547,0.00524
1499.80530,0.00493
1497.74513,0.00429
1495.68496,0.00317
1493.62478,0.00203
1491.56461,0.00131
1489.50444,0.00105
1487.44427,0.00108
1485.38410,0.00119
1483.32392,0.00131
1481.26375,0.00142
1479.20358,0.00160
1477.14341,0.00216
1475.08324,0.00333
1473.02306,0.00495
1470.96289,0.00674
1468.90272,0.00837
1466.84255,0.00979
1464.78238,0.01106
1462.72220,0.01206
1460.66203,0.01295
1458.60186,0.01437
1456.54169,0.01614
1454.48151,0.01682
1452.42134,0.01660
1450.36117,0.01646
1448.30100,0.01693
1446.24083,0.01798
1444.18065,0.01913
1442.12048,0.02008
1440.06031,0.02082
1438.00014,0.02144
1435.93997,0.02190
1433.87979,0.02216
1431.81962,0.02237
1429.75945,0.02248
1427.69928,0.02240
1425.63910,0.02244
1423.57893,0.02283
1421.51876,0.02332
1419.45859,0.02375
1417.39842,0.02402
1415.33824,0.02381
1413.27807,0.02313
1411.21790,0.02245
1409.15773,0.02208
1407.09756,0.02182
1405.03738,0.02134
1402.97721,0.02066
1400.91704,0.02001
1398.85687,0.01933
1396.79670,0.01846
1394.73652,0.01755
1392.67635,0.01686
1390.61618,0.01661
1388.55601,0.01703
1386.49583,0.01800
1384.43566,0.01874
1382.37549,0.01905
1380.31532,0.01939
1378.25515,0.01996
1376.19497,0.02071
1374.13480,0.02143
1372.07463,0.02168
1370.01446,0.02141
1367.95429,0.02100
1365.89411,0.02063
1363.83394,0.02027
1361.77377,0.01984
1359.71360,0.01948
1357.65343,0.01934
1355.59325,0.01937
1353.53308,0.01948
1351.47291,0.01956
1349.41274,0.01935
1347.35256,0.01905
1345.29239,0.01916
1343.23222,0.01952
1341.17205,0.01952
1339.11188,0.01905
1337.05170,0.01866
1334.99153,0.01876
1332.93136,0.01892
1330.87119,0.01884
1328.81102,0.01889
1326.75084,0.01916
1324.69067,0.01934
1322.63050,0.01938
1320.57033,0.01930
1318.51015,0.01914
1316.44998,0.01904
1314.38981,0.01894
1312.32964,0.01870
1310.26947,0.01828
1308.20929,0.01779
1306.14912,0.01730
1304.08895,0.01678
1302.02878,0.01622
1299.96861,0.01573
1297.90843,0.01527
1295.84826,0.01493
1293.78809,0.01492
1291.72792,0.01511
1289.66775,0.01536
1287.60757,0.01574
1285.54740,0.01614
1283.48723,0.01638
1281.42706,0.01643
1279.36688,0.01646
1277.30671,0.01648
1275.24654,0.01641
1273.18637,0.01649
1271.12620,0.01691
1269.06602,0.01737
1267.00585,0.01768
1264.94568,0.01822
1262.88551,0.01919
1260.82534,0.02021
1258.76516,0.02093
1256.70499,0.02119
1254.64482,0.02131
1252.58465,0.02183
1250.52447,0.02256
1248.46430,0.02308
1246.40413,0.02335
1244.34396,0.02355
1242.28379,0.02382
1240.22361,0.02413
1238.16344,0.02425
1236.10327,0.02415
1234.04310,0.02389
1231.98293,0.02318
1229.92275,0.02204
1227.86258,0.02098
1225.80241,0.02025
1223.74224,0.01953
1221.68207,0.01841
1219.62189,0.01699
1217.56172,0.01572
1215.50155,0.01476
1213.44138,0.01386
1211.38120,0.01291
1209.32103,0.01189
1207.26086,0.01074
1205.20069,0.00951
1203.14052,0.00825
1201.08034,0.00697
1199.02017,0.00572
1196.96000,0.00450
1194.89983,0.00324
1192.83966,0.00199
1190.77948,0.00094
1188.71931,0.00026
1186.65914,0.00000
1184.59897,0.00002
1182.53880,0.00021
1180.47862,0.00041
1178.41845,0.00085
1176.35828,0.00181
1174.29811,0.00347
1172.23793,0.00560
1170.17776,0.00778
1168.11759,0.00944
1166.05742,0.01015
1163.99725,0.01044
1161.93707,0.01089
1159.87690,0.01131
1157.81673,0.01164
1155.75656,0.01202
1153.69639,0.01258
1151.63621,0.01360
1149.57604,0.01495
1147.51587,0.01602
1145.45570,0.01666
1143.39552,0.01734
1141.33535,0.01831
1139.27518,0.01914
1137.21501,0.01969
1135.15484,0.02018
1133.09466,0.02082
1131.03449,0.02166
1128.97432,0.02247
1126.91415,0.02321
1124.85398,0.02412
1122.79380,0.02518
1120.73363,0.02633
1118.67346,0.02754
1116.61329,0.02876
1114.55312,0.02979
1112.49294,0.03055
1110.43277,0.03124
1108.37260,0.03191
1106.31243,0.03278
1104.25225,0.03432
1102.19208,0.03621
1100.13191,0.03781
1098.07174,0.03910
1096.01157,0.04034
1093.95139,0.04186
1091.89122,0.04367
1089.83105,0.04537
1087.77088,0.04690
1085.71071,0.04848
1083.65053,0.05007
1081.59036,0.05173
1079.53019,0.05390
1077.47002,0.05633
1075.40985,0.05832
1073.34967,0.05989
1071.28950,0.06142
1069.22933,0.06303
1067.16916,0.06446
1065.10898,0.06579
1063.04881,0.06721
1060.98864,0.06840
1058.92847,0.06958
1056.86830,0.07087
1054.80812,0.07213
1052.74795,0.07390
1050.68778,0.07632
1048.62761,0.07891
1046.56744,0.08127
1044.50726,0.08349
1042.44709,0.08582
1040.38692,0.08806
1038.32675,0.08974
1036.26657,0.09076
1034.20640,0.09147
1032.14623,0.09195
1030.08606,0.09211
1028.02589,0.09201
1025.96571,0.09181
1023.90554,0.09186
1021.84537,0.09186
1019.78520,0.09117
1017.72503,0.09016
1015.66485,0.08939
1013.60468,0.08925
1011.54451,0.08992
1009.48434,0.09089
1007.42417,0.09150
1005.36399,0.09138
1003.30382,0.09062
1001.24365,0.08993
999.18348,0.08915
997.12330,0.08782
995.06313,0.08643
993.00296,0.08481
990.94279,0.08301
988.88262,0.08212
986.82244,0.08175
984.76227,0.08057
982.70210,0.07864
980.64193,0.07679
978.58176,0.07531
976.52158,0.07423
974.46141,0.07332
972.40124,0.07237
970.34107,0.07123
968.28089,0.06983
966.22072,0.06824
964.16055,0.06650
962.10038,0.06491
960.04021,0.06356
957.98003,0.06217
955.91986,0.06080
953.85969,0.05952
951.79952,0.05822
949.73935,0.05726
947.67917,0.05669
945.61900,0.05571
943.55883,0.05393
941.49866,0.05172
939.43849,0.04925
937.37831,0.04657
935.31814,0.04384
933.25797,0.04097
931.19780,0.03794
929.13762,0.03502
927.07745,0.03295
925.01728,0.03174
922.95711,0.03053
920.89694,0.02914
918.83676,0.02764
916.77659,0.02590
914.71642,0.02419
912.65625,0.02258
910.59608,0.02073
908.53590,0.01934
906.47573,0.01905
904.41556,0.01905
902.35539,0.01857
900.29522,0.01775
898.23504,0.01712
896.17487,0.01719
894.11470,0.01784
892.05453,0.01834
889.99435,0.01835
887.93418,0.01783
885.87401,0.01694
883.81384,0.01630
881.75367,0.01554
879.69349,0.01373
877.63332,0.01165
875.57315,0.01062
873.51298,0.01060
871.45281,0.01062
869.39263,0.01002
867.33246,0.00906
865.27229,0.00820
863.21212,0.00831
861.15194,0.00977
859.09177,0.01086
857.03160,0.01001
854.97143,0.00832
852.91126,0.00768
850.85108,0.00807
848.79091,0.00859
846.73074,0.00875
844.67057,0.00845
842.61040,0.00813
840.55022,0.00827
838.49005,0.00813
836.42988,0.00714
834.36971,0.00664
832.30954,0.00700
830.24936,0.00691
828.18919,0.00577
826.12902,0.00446
824.06885,0.00405
822.00867,0.00371
819.94850,0.00290
817.88833,0.00323
815.82816,0.00477
813.76799,0.00568
811.70781,0.00586
809.64764,0.00582
807.58747,0.00566
805.52730,0.00551
803.46713,0.00504
801.40695,0.00428
799.34678,0.00405
797.28661,0.00439
795.22644,0.00442
793.16627,0.00458
791.10609,0.00481
789.04592,0.00418
786.98575,0.00344
784.92558,0.00308
782.86540,0.00301
780.80523,0.00286
778.74506,0.00205
776.68489,0.00157
774.62472,0.00179
772.56454,0.00144
770.50437,0.00080
768.44420,0.00093
766.38403,0.00143
764.32386,0.00165
762.26368,0.00089
760.20351,0.00000
758.14334,0.00099
756.08317,0.00259
754.02299,0.00312
751.96282,0.00322
749.90265,0.00305
747.84248,0.00245
745.78231,0.00167
743.72213,0.00164
741.66196,0.00269
739.60179,0.00266
737.54162,0.00084
735.48145,0.00000
733.42127,0.00057
731.36110,0.00149
729.30093,0.00227
727.24076,0.00283
725.18059,0.00338
723.12041,0.00358
721.06024,0.00392
719.00007,0.00543
716.93990,0.00630
714.87972,0.00575
712.81955,0.00579
710.75938,0.00676
708.69921,0.00742
706.63904,0.00845
704.57886,0.01055
702.51869,0.01182
700.45852,0.01106
698.39835,0.01042
696.33818,0.01104
694.27800,0.01103
692.21783,0.00957
690.15766,0.00814
688.09749,0.00761
686.03731,0.00722
683.97714,0.00661
681.91697,0.00667
679.85680,0.00813
677.79663,0.00968
675.73645,0.00980
673.67628,0.00989
671.61611,0.01094
669.55594,0.00915
667.49577,0.00646
665.43559,0.00851
663.37542,0.00901
661.31525,0.00996
659.25508,0.01064
657.19491,0.00945
655.13473,0.00720
653.07456,0.00640
651.01439,0.00767
648.95422,0.00977
646.89404,0.01087
644.83387,0.00855
642.77370,0.00438
640.71353,0.00239
638.65336,0.00334
636.59318,0.00332
634.53301,0.00069
632.47284,0.00000
630.41267,0.00308
628.35250,0.00665
626.29232,0.00571
624.23215,0.00152
622.17198,-0.00223
620.11181,-0.00461
618.05164,-0.00630
615.99146,-0.00678
613.93129,-0.00668
611.87112,-0.00716
609.81095,-0.00494
607.75077,-0.00190
605.69060,-0.00308
603.63043,-0.00405
601.57026,-0.00129
599.51009,0.00000
