3996.73391,0.00071
3994.67373,0.00087
3992.61356,0.00085
3990.55339,0.00039
3988.49322,0.00000
3986.43305,0.00030
3984.37287,0.00071
3982.31270,0.00072
3980.25253,0.00084
3978.19236,0.00108
3976.13219,0.00106
3974.07201,0.00097
3972.01184,0.00096
3969.95167,0.00081
3967.89150,0.00055
3965.83133,0.00047
3963.77115,0.00073
3961.71098,0.00111
3959.65081,0.00132
3957.59064,0.00124
3955.53046,0.00100
3953.47029,0.00085
3951.41012,0.00092
3949.34995,0.00101
3947.28978,0.00094
3945.22960,0.00078
3943.16943,0.00061
3941.10926,0.00050
3939.04909,0.00062
3936.98892,0.00083
3934.92874,0.00102
3932.86857,0.00139
3930.80840,0.00177
3928.74823,0.00170
3926.68805,0.00145
3924.62788,0.00148
3922.56771,0.00164
3920.50754,0.00172
3918.44737,0.00194
3916.38719,0.00241
3914.32702,0.00263
3912.26685,0.00217
3910.20668,0.00147
3908.14651,0.00118
3906.08633,0.00113
3904.02616,0.00076
3901.96599,0.00044
3899.90582,0.00085
3897.84565,0.00165
3895.78547,0.00213
3893.72530,0.00192
3891.66513,0.00134
3889.60496,0.00134
3887.54478,0.00192
3885.48461,0.00199
3883.42444,0.00134
3881.36427,0.00080
3879.30410,0.00070
3877.24392,0.00083
3875.18375,0.00090
3873.12358,0.00082
3871.06341,0.00061
3869.00324,0.00049
3866.94306,0.00071
3864.88289,0.00121
3862.82272,0.00174
3860.76255,0.00195
3858.70237,0.00166
3856.64220,0.00101
3854.58203,0.00025
3852.52186,0.00000
3850.46169,0.00045
3848.40151,0.00104
3846.34134,0.00155
3844.28117,0.00164
3842.22100,0.00115
3840.16083,0.00078
3838.10065,0.00127
3836.04048,0.00207
3833.98031,0.00226
3831.92014,0.00198
3829.85997,0.00164
3827.79979,0.00127
3825.73962,0.00100
3823.67945,0.00088
3821.61928,0.00068
3819.55910,0.00049
3817.49893,0.00066
3815.43876,0.00107
3813.37859,0.00131
3811.31842,0.00142
3809.25824,0.00158
3807.19807,0.00151
3805.13790,0.00111
3803.07773,0.00096
3801.01756,0.00136
3798.95738,0.00164
3796.89721,0.00164
3794.83704,0.00176
3792.77687,0.00181
3790.71670,0.00157
3788.65652,0.00126
3786.59635,0.00114
3784.53618,0.00117
3782.47601,0.00124
3780.41583,0.00150
3778.35566,0.00189
3776.29549,0.00191
3774.23532,0.00149
3772.17515,0.00110
3770.11497,0.00121
3768.05480,0.00177
3765.99463,0.00230
3763.93446,0.00229
3761.87429,0.00164
3759.81411,0.00067
3757.75394,0.00000
3755.69377,0.00005
3753.63360,0.00077
3751.57342,0.00191
3749.51325,0.00255
3747.45308,0.00240
3745.39291,0.00244
3743.33274,0.00299
3741.27256,0.00336
3739.21239,0.00295
3737.15222,0.00175
3735.09205,0.00043
3733.03188,0.00000
3730.97170,0.00064
3728.91153,0.00144
3726.85136,0.00160
3724.79119,0.00115
3722.73102,0.00078
3720.67084,0.00068
3718.61067,0.00048
3716.55050,0.00022
3714.49033,0.00033
3712.43015,0.00098
3710.36998,0.00151
3708.30981,0.00123
3706.24964,0.00072
3704.18947,0.00075
3702.12929,0.00133
3700.06912,0.00181
3698.00895,0.00185
3695.94878,0.00176
3693.88861,0.00167
3691.82843,0.00172
3689.76826,0.00194
3687.70809,0.00174
3685.64792,0.00123
3683.58775,0.00121
3681.52757,0.00164
3679.46740,0.00189
3677.40723,0.00173
3675.34706,0.00137
3673.28688,0.00097
3671.22671,0.00080
3669.16654,0.00098
3667.10637,0.00111
3665.04620,0.00114
3662.98602,0.00120
3660.92585,0.00110
3658.86568,0.00072
3656.80551,0.00043
3654.74534,0.00081
3652.68516,0.00165
3650.62499,0.00233
3648.56482,0.00256
3646.50465,0.00237
3644.44447,0.00200
3642.38430,0.00161
3640.32413,0.00145
3638.26396,0.00171
3636.20379,0.00236
3634.14361,0.00299
3632.08344,0.00313
3630.02327,0.00291
3627.96310,0.00265
3625.90293,0.00246
3623.84275,0.00231
3621.78258,0.00213
3619.72241,0.00208
3617.66224,0.00230
3615.60207,0.00243
3613.54189,0.00247
3611.48172,0.00265
3609.42155,0.00283
3607.36138,0.00296
3605.30120,0.00307
3603.24103,0.00300
3601.18086,0.00267
3599.12069,0.00251
3597.06052,0.00297
3595.00034,0.00383
3592.94017,0.00470
3590.88000,0.00523
3588.81983,0.00535
3586.75966,0.00558
3584.69948,0.00609
3582.63931,0.00637
3580.57914,0.00632
3578.51897,0.00653
3576.45879,0.00712
3574.39862,0.00722
3572.33845,0.00659
3570.27828,0.00611
3568.21811,0.00603
3566.15793,0.00606
3564.09776,0.00640
3562.03759,0.00704
3559.97742,0.00770
3557.91725,0.00826
3555.85707,0.00893
3553.79690,0.00984
3551.73673,0.01051
3549.67656,0.01061
3547.61639,0.01053
3545.55621,0.01078
3543.49604,0.01135
3541.43587,0.01174
3539.37570,0.01173
3537.31552,0.01172
3535.25535,0.01205
3533.19518,0.01254
3531.13501,0.01296
3529.07484,0.01341
3527.01466,0.01396
3524.95449,0.01445
3522.89432,0.01481
3520.83415,0.01514
3518.77398,0.01540
3516.71380,0.01536
3514.65363,0.01522
3512.59346,0.01540
3510.53329,0.01586
3508.47312,0.01618
3506.41294,0.01620
3504.35277,0.01636
3502.29260,0.01672
3500.23243,0.01673
3498.17225,0.01667
3496.11208,0.01727
3494.05191,0.01821
3491.99174,0.01860
3489.93157,0.01864
3487.87139,0.01921
3485.81122,0.02020
3483.75105,0.02077
3481.69088,0.02085
3479.63071,0.02094
3477.57053,0.02108
3475.51036,0.02113
3473.45019,0.02141
3471.39002,0.02193
3469.32984,0.02235
3467.26967,0.02271
3465.20950,0.02313
3463.14933,0.02347
3461.08916,0.02360
3459.02898,0.02374
3456.96881,0.02427
3454.90864,0.02515
3452.84847,0.02600
3450.78830,0.02640
3448.72812,0.02606
3446.66795,0.02522
3444.60778,0.02485
3442.54761,0.02553
3440.48744,0.02654
3438.42726,0.02691
3436.36709,0.02696
3434.30692,0.02747
3432.24675,0.02823
3430.18657,0.02865
3428.12640,0.02892
3426.06623,0.02925
3424.00606,0.02927
3421.94589,0.02910
3419.88571,0.02933
3417.82554,0.02955
3415.76537,0.02944
3413.70520,0.02973
3411.64503,0.03043
3409.58485,0.03091
3407.52468,0.03109
3405.46451,0.03132
3403.40434,0.03173
3401.34416,0.03198
3399.28399,0.03179
3397.22382,0.03170
3395.16365,0.03232
3393.10348,0.03322
3391.04330,0.03368
3388.98313,0.03375
3386.92296,0.03376
3384.86279,0.03391
3382.80262,0.03408
3380.74244,0.03392
3378.68227,0.03368
3376.62210,0.03395
3374.56193,0.03453
3372.50176,0.03484
3370.44158,0.03477
3368.38141,0.03461
3366.32124,0.03470
3364.26107,0.03516
3362.20089,0.03546
3360.14072,0.03526
3358.08055,0.03511
3356.02038,0.03521
3353.96021,0.03530
3351.90003,0.03546
3349.83986,0.03572
3347.77969,0.03603
3345.71952,0.03639
3343.65935,0.03663
3341.59917,0.03688
3339.53900,0.03722
3337.47883,0.03727
3335.41866,0.03709
3333.35849,0.03695
3331.29831,0.03682
3329.23814,0.03669
3327.17797,0.03661
3325.11780,0.03685
3323.05762,0.03737
3320.99745,0.03765
3318.93728,0.03772
3316.87711,0.03799
3314.81694,0.03835
3312.75676,0.03859
3310.69659,0.03864
3308.63642,0.03821
3306.57625,0.03758
3304.51608,0.03750
3302.45590,0.03781
3300.39573,0.03779
3298.33556,0.03755
3296.27539,0.03750
3294.21521,0.03747
3292.15504,0.03732
3290.09487,0.03750
3288.03470,0.03800
3285.97453,0.03815
3283.91435,0.03794
3281.85418,0.03782
3279.79401,0.03784
3277.73384,0.03785
3275.67367,0.03779
3273.61349,0.03776
3271.55332,0.03785
3269.49315,0.03788
3267.43298,0.03771
3265.37281,0.03765
3263.31263,0.03771
3261.25246,0.03768
3259.19229,0.03765
3257.13212,0.03762
3255.07194,0.03759
3253.01177,0.03771
3250.95160,0.03794
3248.89143,0.03801
3246.83126,0.03789
3244.77108,0.03748
3242.71091,0.03686
3240.65074,0.03677
3238.59057,0.03722
3236.53040,0.03719
3234.47022,0.03668
3232.41005,0.03665
3230.34988,0.03713
3228.28971,0.03752
3226.22954,0.03755
3224.16936,0.03719
3222.10919,0.03657
3220.04902,0.03592
3217.98885,0.03565
3215.92867,0.03580
3213.86850,0.03590
3211.80833,0.03582
3209.74816,0.03579
3207.68799,0.03579
3205.62781,0.03573
3203.56764,0.03549
3201.50747,0.03494
3199.44730,0.03434
3197.38713,0.03421
3195.32695,0.03455
3193.26678,0.03506
3191.20661,0.03530
3189.14644,0.03501
3187.08626,0.03463
3185.02609,0.03425
3182.96592,0.03368
3180.90575,0.03325
3178.84558,0.03299
3176.78540,0.03274
3174.72523,0.03263
3172.66506,0.03261
3170.60489,0.03249
3168.54472,0.03217
3166.48454,0.03172
3164.42437,0.03146
3162.36420,0.03159
3160.30403,0.03178
3158.24386,0.03176
3156.18368,0.03166
3154.12351,0.03157
3152.06334,0.03135
3150.00317,0.03098
3147.94299,0.03072
3145.88282,0.03063
3143.82265,0.03061
3141.76248,0.03050
3139.70231,0.03000
3137.64213,0.02932
3135.58196,0.02886
3133.52179,0.02875
3131.46162,0.02894
3129.40145,0.02912
3127.34127,0.02897
3125.28110,0.02845
3123.22093,0.02801
3121.16076,0.02806
3119.10058,0.02828
3117.04041,0.02822
3114.98024,0.02778
3112.92007,0.02730
3110.85990,0.02725
3108.79972,0.02747
3106.73955,0.02734
3104.67938,0.02686
3102.61921,0.02643
3100.55904,0.02619
3098.49886,0.02600
3096.43869,0.02608
3094.37852,0.02633
3092.31835,0.02614
3090.25818,0.02557
3088.19800,0.02527
3086.13783,0.02534
3084.07766,0.02531
3082.01749,0.02507
3079.95731,0.02475
3077.89714,0.02453
3075.83697,0.02430
3073.77680,0.02387
3071.71663,0.02349
3069.65645,0.02343
3067.59628,0.02350
3065.53611,0.02338
3063.47594,0.02314
3061.41577,0.02311
3059.35559,0.02317
3057.29542,0.02294
3055.23525,0.02254
3053.17508,0.02227
3051.11491,0.02217
3049.05473,0.02196
3046.99456,0.02164
3044.93439,0.02153
3042.87422,0.02149
3040.81404,0.02105
3038.75387,0.02037
3036.69370,0.01998
3034.63353,0.01994
3032.57336,0.01996
3030.51318,0.01988
3028.45301,0.01982
3026.39284,0.01969
3024.33267,0.01925
3022.27250,0.01877
3020.21232,0.01865
3018.15215,0.01891
3016.09198,0.01923
3014.03181,0.01929
3011.97163,0.01927
3009.91146,0.01934
3007.85129,0.01927
3005.79112,0.01889
3003.73095,0.01846
3001.67077,0.01819
2999.61060,0.01796
2997.55043,0.01766
2995.49026,0.01732
2993.43009,0.01718
2991.36991,0.01731
2989.30974,0.01751
2987.24957,0.01776
2985.18940,0.01802
2983.12923,0.01822
2981.06905,0.01827
2979.00888,0.01839
2976.94871,0.01891
2974.88854,0.01961
2972.82836,0.02008
2970.76819,0.02034
2968.70802,0.02067
2966.64785,0.02127
2964.58768,0.02208
2962.52750,0.02300
2960.46733,0.02412
2958.40716,0.02543
2956.34699,0.02659
2954.28682,0.02782
2952.22664,0.02939
2950.16647,0.03084
2948.10630,0.03199
2946.04613,0.03319
2943.98596,0.03480
2941.92578,0.03704
2939.86561,0.03926
2937.80544,0.04096
2935.74527,0.04272
2933.68509,0.04466
2931.62492,0.04607
2929.56475,0.04704
2927.50458,0.04830
2925.44441,0.04976
2923.38423,0.05070
2921.32406,0.05120
2919.26389,0.05150
2917.20372,0.05126
2915.14355,0.05034
2913.08337,0.04862
2911.02320,0.04672
2908.96303,0.04538
2906.90286,0.04420
2904.84268,0.04285
2902.78251,0.04154
2900.72234,0.04029
2898.66217,0.03900
2896.60200,0.03768
2894.54182,0.03656
2892.48165,0.03571
2890.42148,0.03508
2888.36131,0.03454
2886.30114,0.03401
2884.24096,0.03369
2882.18079,0.03340
2880.12062,0.03300
2878.06045,0.03273
2876.00028,0.03271
2873.94010,0.03293
2871.87993,0.03303
2869.81976,0.03290
2867.75959,0.03317
2865.69941,0.03412
2863.63924,0.03508
2861.57907,0.03600
2859.51890,0.03743
2857.45873,0.03906
2855.39855,0.04032
2853.33838,0.04121
2851.27821,0.04186
2849.21804,0.04173
2847.15787,0.04020
2845.09769,0.03765
2843.03752,0.03495
2840.97735,0.03274
2838.91718,0.03124
2836.85700,0.03012
2834.79683,0.02910
2832.73666,0.02822
2830.67649,0.02744
2828.61632,0.02676
2826.55614,0.02614
2824.49597,0.02545
2822.43580,0.02479
2820.37563,0.02426
2818.31546,0.02392
2816.25528,0.02377
2814.19511,0.02342
2812.13494,0.02275
2810.07477,0.02216
2808.01460,0.02192
2805.95442,0.02196
2803.89425,0.02197
2801.83408,0.02166
2799.77391,0.02137
2797.71373,0.02143
2795.65356,0.02159
2793.59339,0.02147
2791.53322,0.02100
2789.47305,0.02045
2787.41287,0.02004
2785.35270,0.01973
2783.29253,0.01964
2781.23236,0.01968
2779.17219,0.01951
2777.11201,0.01912
2775.05184,0.01878
2772.99167,0.01886
2770.93150,0.01929
2768.87133,0.01951
2766.81115,0.01932
2764.75098,0.01904
2762.69081,0.01895
2760.63064,0.01901
2758.57046,0.01880
2756.51029,0.01819
2754.45012,0.01771
2752.38995,0.01778
2750.32978,0.01809
2748.26960,0.01825
2746.20943,0.01811
2744.14926,0.01791
2742.08909,0.01799
2740.02892,0.01816
2737.96874,0.01813
2735.90857,0.01811
2733.84840,0.01817
2731.78823,0.01802
2729.72805,0.01780
2727.66788,0.01789
2725.60771,0.01814
2723.54754,0.01806
2721.48737,0.01773
2719.42719,0.01760
2717.36702,0.01759
2715.30685,0.01756
2713.24668,0.01768
2711.18651,0.01786
2709.12633,0.01766
2707.06616,0.01710
2705.00599,0.01681
2702.94582,0.01695
2700.88565,0.01711
2698.82547,0.01732
2696.76530,0.01772
2694.70513,0.01788
2692.64496,0.01753
2690.58478,0.01712
2688.52461,0.01714
2686.46444,0.01739
2684.40427,0.01739
2682.34410,0.01726
2680.28392,0.01721
2678.22375,0.01711
2676.16358,0.01703
2674.10341,0.01717
2672.04324,0.01728
2669.98306,0.01701
2667.92289,0.01669
2665.86272,0.01657
2663.80255,0.01643
2661.74238,0.01621
2659.68220,0.01619
2657.62203,0.01632
2655.56186,0.01632
2653.50169,0.01609
2651.44151,0.01597
2649.38134,0.01643
2647.32117,0.01699
2645.26100,0.01687
2643.20083,0.01635
2641.14065,0.01600
2639.08048,0.01569
2637.02031,0.01530
2634.96014,0.01520
2632.89997,0.01537
2630.83979,0.01535
2628.77962,0.01516
2626.71945,0.01515
2624.65928,0.01534
2622.59910,0.01533
2620.53893,0.01495
2618.47876,0.01462
2616.41859,0.01459
2614.35842,0.01464
2612.29824,0.01468
2610.23807,0.01458
2608.17790,0.01428
2606.11773,0.01396
2604.05756,0.01364
2601.99738,0.01347
2599.93721,0.01371
2597.87704,0.01409
2595.81687,0.01397
2593.75670,0.01346
2591.69652,0.01354
2589.63635,0.01394
2587.57618,0.01401
2585.51601,0.01387
2583.45583,0.01357
2581.39566,0.01324
2579.33549,0.01289
2577.27532,0.01267
2575.21515,0.01273
2573.15497,0.01268
2571.09480,0.01262
2569.03463,0.01293
2566.97446,0.01302
2564.91429,0.01251
2562.85411,0.01218
2560.79394,0.01269
2558.73377,0.01328
2556.67360,0.01314
2554.61342,0.01266
2552.55325,0.01246
2550.49308,0.01263
2548.43291,0.01264
2546.37274,0.01245
2544.31256,0.01246
2542.25239,0.01235
2540.19222,0.01204
2538.13205,0.01188
2536.07188,0.01202
2534.01170,0.01249
2531.95153,0.01278
2529.89136,0.01230
2527.83119,0.01158
2525.77102,0.01129
2523.71084,0.01122
2521.65067,0.01119
2519.59050,0.01134
2517.53033,0.01170
2515.47015,0.01196
2513.40998,0.01178
2511.34981,0.01154
2509.28964,0.01155
2507.22947,0.01161
2505.16929,0.01165
2503.10912,0.01160
2501.04895,0.01135
2498.98878,0.01103
2496.92861,0.01091
2494.86843,0.01090
2492.80826,0.01077
2490.74809,0.01056
2488.68792,0.01031
2486.62775,0.01032
2484.56757,0.01042
2482.50740,0.01018
2480.44723,0.01022
2478.38706,0.01083
2476.32688,0.01148
2474.26671,0.01182
2472.20654,0.01180
2470.14637,0.01162
2468.08620,0.01133
2466.02602,0.01086
2463.96585,0.01044
2461.90568,0.01023
2459.84551,0.01019
2457.78534,0.01035
2455.72516,0.01081
2453.66499,0.01112
2451.60482,0.01104
2449.54465,0.01085
2447.48447,0.01070
2445.42430,0.01067
2443.36413,0.01049
2441.30396,0.01031
2439.24379,0.01052
2437.18361,0.01049
2435.12344,0.01014
2433.06327,0.01015
2431.00310,0.01011
2428.94293,0.00964
2426.88275,0.00930
2424.82258,0.00931
2422.76241,0.00944
2420.70224,0.00986
2418.64207,0.01054
2416.58189,0.01062
2414.52172,0.00991
2412.46155,0.00945
2410.40138,0.00958
2408.34120,0.00977
2406.28103,0.00974
2404.22086,0.00956
2402.16069,0.00948
2400.10052,0.00968
2398.04034,0.00984
2395.98017,0.00973
2393.92000,0.00938
2391.85983,0.00906
2389.79966,0.00891
2387.73948,0.00879
2385.67931,0.00875
2383.61914,0.00888
2381.55897,0.00905
2379.49880,0.00910
2377.43862,0.00893
2375.37845,0.00833
2373.31828,0.00760
2371.25811,0.00819
2369.19793,0.01084
2367.13776,0.01304
2365.07759,0.01278
2363.01742,0.01282
2360.95725,0.01349
2358.89707,0.01183
2356.83690,0.01094
2354.77673,0.01242
2352.71656,0.01308
2350.65639,0.01260
2348.59621,0.01203
2346.53604,0.01153
2344.47587,0.01121
2342.41570,0.01123
2340.35552,0.01058
2338.29535,0.00859
2336.23518,0.00724
2334.17501,0.00725
2332.11484,0.00710
2330.05466,0.00712
2327.99449,0.00834
2325.93432,0.00989
2323.87415,0.01066
2321.81398,0.01095
2319.75380,0.01118
2317.69363,0.01114
2315.63346,0.01084
2313.57329,0.01060
2311.51312,0.01080
2309.45294,0.01130
2307.39277,0.01123
2305.33260,0.01050
2303.27243,0.00986
2301.21225,0.00963
2299.15208,0.00974
2297.09191,0.01012
2295.03174,0.01021
2292.97157,0.00955
2290.91139,0.00876
2288.85122,0.00881
2286.79105,0.00965
2284.73088,0.01015
2282.67071,0.00969
2280.61053,0.00880
2278.55036,0.00814
2276.49019,0.00804
2274.43002,0.00848
2272.36984,0.00926
2270.30967,0.00999
2268.24950,0.00990
2266.18933,0.00888
2264.12916,0.00791
2262.06898,0.00721
2260.00881,0.00626
2257.94864,0.00568
2255.88847,0.00618
2253.82830,0.00715
2251.76812,0.00759
2249.70795,0.00739
2247.64778,0.00767
2245.58761,0.00865
2243.52744,0.00887
2241.46726,0.00889
2239.40709,0.00974
2237.34692,0.00988
2235.28675,0.00910
2233.22657,0.00894
2231.16640,0.00861
2229.10623,0.00714
2227.04606,0.00631
2224.98589,0.00706
2222.92571,0.00801
2220.86554,0.00822
2218.80537,0.00796
2216.74520,0.00779
2214.68503,0.00714
2212.62485,0.00588
2210.56468,0.00569
2208.50451,0.00679
2206.44434,0.00724
2204.38417,0.00621
2202.32399,0.00466
2200.26382,0.00399
2198.20365,0.00418
2196.14348,0.00475
2194.08330,0.00637
2192.02313,0.00759
2189.96296,0.00696
2187.90279,0.00656
2185.84262,0.00650
2183.78244,0.00555
2181.72227,0.00456
2179.66210,0.00414
2177.60193,0.00459
2175.54176,0.00506
2173.48158,0.00449
2171.42141,0.00444
2169.36124,0.00570
2167.30107,0.00736
2165.24089,0.00879
2163.18072,0.00774
2161.12055,0.00362
2159.06038,0.00112
2157.00021,0.00182
2154.94003,0.00315
2152.87986,0.00403
2150.81969,0.00446
2148.75952,0.00469
2146.69935,0.00497
2144.63917,0.00516
2142.57900,0.00491
2140.51883,0.00448
2138.45866,0.00432
2136.39849,0.00425
2134.33831,0.00427
2132.27814,0.00476
2130.21797,0.00526
2128.15780,0.00563
2126.09762,0.00658
2124.03745,0.00750
2121.97728,0.00719
2119.91711,0.00602
2117.85694,0.00564
2115.79676,0.00682
2113.73659,0.00816
2111.67642,0.00810
2109.61625,0.00754
2107.55608,0.00770
2105.49590,0.00760
2103.43573,0.00695
2101.37556,0.00654
2099.31539,0.00618
2097.25521,0.00568
2095.19504,0.00531
2093.13487,0.00499
2091.07470,0.00458
2089.01453,0.00431
2086.95435,0.00464
2084.89418,0.00564
2082.83401,0.00620
2080.77384,0.00617
2078.71367,0.00628
2076.65349,0.00643
2074.59332,0.00632
2072.53315,0.00595
2070.47298,0.00560
2068.41281,0.00527
2066.35263,0.00510
2064.29246,0.00551
2062.23229,0.00640
2060.17212,0.00713
2058.11194,0.00644
2056.05177,0.00490
2053.99160,0.00479
2051.93143,0.00560
2049.87126,0.00546
2047.81108,0.00550
2045.75091,0.00671
2043.69074,0.00762
2041.63057,0.00762
2039.57040,0.00624
2037.51022,0.00354
2035.45005,0.00215
2033.38988,0.00297
2031.32971,0.00312
2029.26954,0.00189
2027.20936,0.00142
2025.14919,0.00140
2023.08902,0.00128
2021.02885,0.00216
2018.96867,0.00377
2016.90850,0.00568
2014.84833,0.00730
2012.78816,0.00710
2010.72799,0.00454
2008.66781,0.00140
2006.60764,0.00020
2004.54747,0.00106
2002.48730,0.00254
2000.42713,0.00329
1998.36695,0.00276
1996.30678,0.00236
1994.24661,0.00291
1992.18644,0.00284
1990.12626,0.00167
1988.06609,0.00116
1986.00592,0.00216
1983.94575,0.00378
1981.88558,0.00421
1979.82540,0.00322
1977.76523,0.00212
1975.70506,0.00120
1973.64489,0.00115
1971.58472,0.00198
1969.52454,0.00199
1967.46437,0.00078
1965.40420,0.00000
1963.34403,0.00090
1961.28386,0.00195
1959.22368,0.00201
1957.16351,0.00223
1955.10334,0.00304
1953.04317,0.00389
1950.98299,0.00387
1948.92282,0.00257
1946.86265,0.00164
1944.80248,0.00225
1942.74231,0.00284
1940.68213,0.00250
1938.62196,0.00254
1936.56179,0.00383
1934.50162,0.00497
1932.44145,0.00474
1930.38127,0.00439
1928.32110,0.00464
1926.26093,0.00410
1924.20076,0.00274
1922.14059,0.00236
1920.08041,0.00300
1918.02024,0.00308
1915.96007,0.00255
1913.89990,0.00251
1911.83972,0.00313
1909.77955,0.00387
1907.71938,0.00414
1905.65921,0.00376
1903.59904,0.00325
1901.53886,0.00306
1899.47869,0.00323
1897.41852,0.00359
1895.35835,0.00393
1893.29818,0.00404
1891.23800,0.00374
1889.17783,0.00291
1887.11766,0.00215
1885.05749,0.00229
1882.99731,0.00315
1880.93714,0.00382
1878.87697,0.00393
1876.81680,0.00361
1874.75663,0.00300
1872.69645,0.00214
1870.63628,0.00135
1868.57611,0.00130
1866.51594,0.00218
1864.45577,0.00300
1862.39559,0.00316
1860.33542,0.00311
1858.27525,0.00321
1856.21508,0.00333
1854.15491,0.00336
1852.09473,0.00318
1850.03456,0.00283
1847.97439,0.00241
1845.91422,0.00187
1843.85404,0.00155
1841.79387,0.00181
1839.73370,0.00221
1837.67353,0.00233
1835.61336,0.00228
1833.55318,0.00235
1831.49301,0.00241
1829.43284,0.00216
1827.37267,0.00175
1825.31250,0.00160
1823.25232,0.00170
1821.19215,0.00173
1819.13198,0.00166
1817.07181,0.00171
1815.01163,0.00182
1812.95146,0.00187
1810.89129,0.00190
1808.83112,0.00203
1806.77095,0.00216
1804.71077,0.00197
1802.65060,0.00151
1800.59043,0.00127
1798.53026,0.00128
1796.47009,0.00107
1794.40991,0.00055
1792.34974,0.00004
1790.28957,0.00000
1788.22940,0.00037
1786.16923,0.00075
1784.10905,0.00084
1782.04888,0.00072
1779.98871,0.00062
1777.92854,0.00060
1775.86836,0.00063
1773.80819,0.00069
1771.74802,0.00059
1769.68785,0.00045
1767.62768,0.00052
1765.56750,0.00080
1763.50733,0.00138
1761.44716,0.00234
1759.38699,0.00338
1757.32682,0.00422
1755.26664,0.00489
1753.20647,0.00564
1751.14630,0.00689
1749.08613,0.00850
1747.02596,0.00972
1744.96578,0.01031
1742.90561,0.01075
1740.84544,0.01149
1738.78527,0.01233
1736.72509,0.01265
1734.66492,0.01248
1732.60475,0.01242
1730.54458,0.01261
1728.48441,0.01272
1726.42423,0.01278
1724.36406,0.01287
1722.30389,0.01295
1720.24372,0.01329
1718.18355,0.01395
1716.12337,0.01435
1714.06320,0.01420
1712.00303,0.01395
1709.94286,0.01374
1707.88268,0.01349
1705.82251,0.01324
1703.76234,0.01296
1701.70217,0.01263
1699.64200,0.01251
1697.58182,0.01289
1695.52165,0.01363
1693.46148,0.01430
1691.40131,0.01473
1689.34114,0.01540
1687.28096,0.01665
1685.22079,0.01860
1683.16062,0.02092
1681.10045,0.02270
1679.04028,0.02393
1676.98010,0.02483
1674.91993,0.02552
1672.85976,0.02597
1670.79959,0.02615
1668.73941,0.02601
1666.67924,0.02560
1664.61907,0.02499
1662.55890,0.02420
1660.49873,0.02347
1658.43855,0.02300
1656.37838,0.02274
1654.31821,0.02248
1652.25804,0.02204
1650.19787,0.02144
1648.13769,0.02094
1646.07752,0.02100
1644.01735,0.02146
1641.95718,0.02167
1639.89701,0.02171
1637.83683,0.02201
1635.77666,0.02277
1633.71649,0.02371
1631.65632,0.02433
1629.59614,0.02467
1627.53597,0.02495
1625.47580,0.02515
1623.41563,0.02536
1621.35546,0.02581
1619.29528,0.02631
1617.23511,0.02673
1615.17494,0.02714
1613.11477,0.02764
1611.05460,0.02854
1608.99442,0.03001
1606.93425,0.03164
1604.87408,0.03255
1602.81391,0.03227
1600.75373,0.03119
1598.69356,0.02975
1596.63339,0.02810
1594.57322,0.02667
1592.51305,0.02589
1590.45287,0.02556
1588.39270,0.02520
1586.33253,0.02458
1584.27236,0.02372
1582.21219,0.02287
1580.15201,0.02220
1578.09184,0.02164
1576.03167,0.02120
1573.97150,0.02097
1571.91133,0.02061
1569.85115,0.01981
1567.79098,0.01893
1565.73081,0.01829
1563.67064,0.01784
1561.61046,0.01742
1559.55029,0.01647
1557.49012,0.01509
1555.42995,0.01432
1553.36978,0.01380
1551.30960,0.01307
1549.24943,0.01225
1547.18926,0.01159
1545.12909,0.01090
1543.06892,0.00981
1541.00874,0.00855
1538.94857,0.00798
1536.88840,0.00800
1534.82823,0.00788
1532.76805,0.00741
1530.70788,0.00680
1528.64771,0.00621
1526.58754,0.00585
1524.52737,0.00613
1522.46719,0.00713
1520.40702,0.00845
1518.34685,0.00964
1516.28668,0.01061
1514.22651,0.01097
1512.16633,0.01051
1510.10616,0.00950
1508.04599,0.00804
1505.98582,0.00646
1503.92565,0.00556
1501.86547,0.00508
1499.80530,0.00452
1497.74513,0.00371
1495.68496,0.00268
1493.62478,0.00169
1491.56461,0.00096
1489.50444,0.00062
1487.44427,0.00064
1485.38410,0.00072
1483.32392,0.00070
1481.26375,0.00079
1479.20358,0.00119
1477.14341,0.00193
1475.08324,0.00299
1473.02306,0.00453
1470.96289,0.00653
1468.90272,0.00842
1466.84255,0.00995
1464.78238,0.01117
1462.72220,0.01206
1460.66203,0.01275
1458.60186,0.01379
1456.54169,0.01536
1454.48151,0.01650
1452.42134,0.01685
1450.36117,0.01700
1448.30100,0.01749
1446.24083,0.01842
1444.18065,0.01942
1442.12048,0.02026
1440.06031,0.02093
1438.00014,0.02153
1435.93997,0.02207
1433.87979,0.02247
1431.81962,0.02277
1429.75945,0.02292
1427.69928,0.02284
1425.63910,0.02280
1423.57893,0.02310
1421.51876,0.02359
1419.45859,0.02402
1417.39842,0.02430
1415.33824,0.02416
1413.27807,0.02348
1411.21790,0.02277
1409.15773,0.02249
1407.09756,0.02237
1405.03738,0.02192
1402.97721,0.02117
1400.91704,0.02041
1398.85687,0.01959
1396.79670,0.01869
1394.73652,0.01789
1392.67635,0.01742
1390.61618,0.01729
1388.55601,0.01747
1386.49583,0.01800
1384.43566,0.01874
1382.37549,0.01948
1380.31532,0.02009
1378.25515,0.02047
1376.19497,0.02079
1374.13480,0.02126
1372.07463,0.02161
1370.01446,0.02161
1367.95429,0.02142
1365.89411,0.02112
1363.83394,0.02064
1361.77377,0.02022
1359.71360,0.02005
1357.65343,0.01998
1355.59325,0.01987
1353.53308,0.01976
1351.47291,0.01966
1349.41274,0.01949
1347.35256,0.01937
1345.29239,0.01943
1343.23222,0.01952
1341.17205,0.01941
1339.11188,0.01913
1337.05170,0.01893
1334.99153,0.01900
1332.93136,0.01917
1330.87119,0.01929
1328.81102,0.01948
1326.75084,0.01969
1324.69067,0.01973
1322.63050,0.01968
1320.57033,0.01965
1318.51015,0.01954
1316.44998,0.01923
1314.38981,0.01888
1312.32964,0.01869
1310.26947,0.01857
1308.20929,0.01832
1306.14912,0.01790
1304.08895,0.01738
1302.02878,0.01678
1299.96861,0.01609
1297.90843,0.01547
1295.84826,0.01521
1293.78809,0.01529
1291.72792,0.01549
1289.66775,0.01575
1287.60757,0.01607
1285.54740,0.01644
1283.48723,0.01664
1281.42706,0.01672
1279.36688,0.01691
1277.30671,0.01702
1275.24654,0.01699
1273.18637,0.01717
1271.12620,0.01746
1269.06602,0.01770
1267.00585,0.01815
1264.94568,0.01900
1262.88551,0.02002
1260.82534,0.02084
1258.76516,0.02128
1256.70499,0.02149
1254.64482,0.02182
1252.58465,0.02247
1250.52447,0.02317
1248.46430,0.02358
1246.40413,0.02367
1244.34396,0.02378
1242.28379,0.02415
1240.22361,0.02449
1238.16344,0.02457
1236.10327,0.02447
1234.04310,0.02421
1231.98293,0.02352
1229.92275,0.02241
1227.86258,0.02146
1225.80241,0.02084
1223.74224,0.02006
1221.68207,0.01877
1219.62189,0.01722
1217.56172,0.01594
1215.50155,0.01501
1213.44138,0.01409
1211.38120,0.01315
1209.32103,0.01219
1207.26086,0.01116
1205.20069,0.01006
1203.14052,0.00871
1201.08034,0.00726
1199.02017,0.00597
1196.96000,0.00468
1194.89983,0.00331
1192.83966,0.00210
1190.77948,0.00118
1188.71931,0.00070
1186.65914,0.00055
1184.59897,0.00026
1182.53880,0.00000
1180.47862,0.00031
1178.41845,0.00106
1176.35828,0.00201
1174.29811,0.00351
1172.23793,0.00566
1170.17776,0.00808
1168.11759,0.01002
1166.05742,0.01095
1163.99725,0.01131
1161.93707,0.01153
1159.87690,0.01169
1157.81673,0.01210
1155.75656,0.01273
1153.69639,0.01332
1151.63621,0.01403
1149.57604,0.01510
1147.51587,0.01626
1145.45570,0.01719
1143.39552,0.01807
1141.33535,0.01910
1139.27518,0.01981
1137.21501,0.02012
1135.15484,0.02055
1133.09466,0.02130
1131.03449,0.02230
1128.97432,0.02331
1126.91415,0.02420
1124.85398,0.02504
1122.79380,0.02604
1120.73363,0.02723
1118.67346,0.02848
1116.61329,0.02987
1114.55312,0.03106
1112.49294,0.03165
1110.43277,0.03200
1108.37260,0.03266
1106.31243,0.03389
1104.25225,0.03546
1102.19208,0.03698
1100.13191,0.03860
1098.07174,0.04031
1096.01157,0.04174
1093.95139,0.04303
1091.89122,0.04445
1089.83105,0.04599
1087.77088,0.04762
1085.71071,0.04948
1083.65053,0.05156
1081.59036,0.05357
1079.53019,0.05541
1077.47002,0.05740
1075.40985,0.05945
1073.34967,0.06118
1071.28950,0.06282
1069.22933,0.06464
1067.16916,0.06644
1065.10898,0.06811
1063.04881,0.06956
1060.98864,0.07050
1058.92847,0.07123
1056.86830,0.07223
1054.80812,0.07363
1052.74795,0.07557
1050.68778,0.07789
1048.62761,0.08024
1046.56744,0.08252
1044.50726,0.08487
1042.44709,0.08735
1040.38692,0.08968
1038.32675,0.09165
1036.26657,0.09317
1034.20640,0.09413
1032.14623,0.09439
1030.08606,0.09423
1028.02589,0.09407
1025.96571,0.09394
1023.90554,0.09377
1021.84537,0.09348
1019.78520,0.09297
1017.72503,0.09236
1015.66485,0.09190
1013.60468,0.09195
1011.54451,0.09270
1009.48434,0.09348
1007.42417,0.09362
1005.36399,0.09347
1003.30382,0.09328
1001.24365,0.09283
999.18348,0.09192
997.12330,0.09048
995.06313,0.08881
993.00296,0.08727
990.94279,0.08602
988.88262,0.08514
986.82244,0.08415
984.76227,0.08275
982.70210,0.08146
980.64193,0.08040
978.58176,0.07897
976.52158,0.07740
974.46141,0.07631
972.40124,0.07541
970.34107,0.07431
968.28089,0.07274
966.22072,0.07071
964.16055,0.06884
962.10038,0.06736
960.04021,0.06581
957.98003,0.06457
955.91986,0.06384
953.85969,0.06258
951.79952,0.06065
949.73935,0.05899
947.67917,0.05777
945.61900,0.05643
943.55883,0.05473
941.49866,0.05282
939.43849,0.05062
937.37831,0.04804
935.31814,0.04534
933.25797,0.04271
931.19780,0.03995
929.13762,0.03707
927.07745,0.03488
925.01728,0.03365
922.95711,0.03235
920.89694,0.03049
918.83676,0.02876
916.77659,0.02741
914.71642,0.02590
912.65625,0.02418
910.59608,0.02256
908.53590,0.02125
906.47573,0.02062
904.41556,0.02033
902.35539,0.01962
900.29522,0.01895
898.23504,0.01902
896.17487,0.01961
894.11470,0.02008
892.05453,0.01987
889.99435,0.01908
887.93418,0.01832
885.87401,0.01797
883.81384,0.01774
881.75367,0.01676
879.69349,0.01498
877.63332,0.01322
875.57315,0.01194
873.51298,0.01108
871.45281,0.01048
869.39263,0.00994
867.33246,0.00967
865.27229,0.00989
863.21212,0.01044
861.15194,0.01087
859.09177,0.01080
857.03160,0.01000
854.97143,0.00917
852.91126,0.00916
850.85108,0.00928
848.79091,0.00902
846.73074,0.00911
844.67057,0.00962
842.61040,0.00963
840.55022,0.00928
838.49005,0.00901
836.42988,0.00827
834.36971,0.00769
832.30954,0.00795
830.24936,0.00787
828.18919,0.00681
826.12902,0.00584
824.06885,0.00571
822.00867,0.00565
819.94850,0.00495
817.88833,0.00428
815.82816,0.00400
813.76799,0.00396
811.70781,0.00467
809.64764,0.00527
807.58747,0.00477
805.52730,0.00434
803.46713,0.00439
801.40695,0.00396
799.34678,0.00344
797.28661,0.00357
795.22644,0.00363
793.16627,0.00350
791.10609,0.00371
789.04592,0.00349
786.98575,0.00258
784.92558,0.00244
782.86540,0.00343
780.80523,0.00403
778.74506,0.00323
776.68489,0.00184
774.62472,0.00080
772.56454,0.00000
770.50437,0.00020
768.44420,0.00199
766.38403,0.00357
764.32386,0.00383
762.26368,0.00215
760.20351,-0.00014
758.14334,0.00002
756.08317,0.00179
754.02299,0.00220
751.96282,0.00158
749.90265,0.00174
747.84248,0.00170
745.78231,0.00049
743.72213,0.00000
741.66196,0.00055
739.60179,0.00051
737.54162,-0.00036
735.48145,-0.00050
733.42127,0.00012
731.36110,0.00050
729.30093,0.00034
727.24076,0.00027
725.18059,0.00086
723.12041,0.00129
721.06024,0.00155
719.00007,0.00183
716.93990,0.00173
714.87972,0.00153
712.81955,0.00172
710.75938,0.00166
708.69921,0.00109
706.63904,0.00139
704.57886,0.00329
702.51869,0.00511
700.45852,0.00578
698.39835,0.00602
696.33818,0.00549
694.27800,0.00394
692.21783,0.00293
690.15766,0.00288
688.09749,0.00254
686.03731,0.00150
683.97714,0.00055
681.91697,0.00025
679.85680,0.00095
677.79663,0.00227
675.73645,0.00255
673.67628,0.00096
671.61611,-0.00163
669.55594,-0.00259
667.49577,-0.00013
665.43559,0.00229
663.37542,0.00326
661.31525,0.00403
659.25508,0.00468
657.19491,0.00468
655.13473,0.00379
653.07456,0.00239
651.01439,0.00097
648.95422,0.00000
646.89404,-0.00028
644.83387,-0.00052
642.77370,-0.00117
640.71353,-0.00146
638.65336,-0.00140
636.59318,-0.00211
634.53301,-0.00327
632.47284,-0.00244
630.41267,0.00037
628.35250,0.00146
626.29232,-0.00175
624.23215,-0.00539
622.17198,-0.00495
620.11181,-0.00335
618.05164,-0.00400
615.99146,-0.00401
613.93129,-0.00366
611.87112,-0.00552
609.81095,-0.00500
607.75077,-0.00111
605.69060,-0.00097
603.63043,-0.00374
601.57026,-0.00290
599.51009,0.00000
