3996.73391,0.00074
3994.67373,0.00102
3992.61356,0.00112
3990.55339,0.00046
3988.49322,0.00000
3986.43305,0.00041
3984.37287,0.00060
3982.31270,0.00036
3980.25253,0.00060
3978.19236,0.00121
3976.13219,0.00170
3974.07201,0.00201
3972.01184,0.00197
3969.95167,0.00167
3967.89150,0.00148
3965.83133,0.00143
3963.77115,0.00145
3961.71098,0.00182
3959.65081,0.00223
3957.59064,0.00222
3955.53046,0.00196
3953.47029,0.00162
3951.41012,0.00126
3949.34995,0.00117
3947.28978,0.00156
3945.22960,0.00196
3943.16943,0.00202
3941.10926,0.00206
3939.04909,0.00192
3936.98892,0.00184
3934.92874,0.00200
3932.86857,0.00219
3930.80840,0.00262
3928.74823,0.00295
3926.68805,0.00270
3924.62788,0.00257
3922.56771,0.00290
3920.50754,0.00251
3918.44737,0.00175
3916.38719,0.00209
3914.32702,0.00319
3912.26685,0.00369
3910.20668,0.00370
3908.14651,0.00346
3906.08633,0.00245
3904.02616,0.00138
3901.96599,0.00120
3899.90582,0.00164
3897.84565,0.00294
3895.78547,0.00379
3893.72530,0.00279
3891.66513,0.00165
3889.60496,0.00271
3887.54478,0.00362
3885.48461,0.00314
3883.42444,0.00278
3881.36427,0.00231
3879.30410,0.00280
3877.24392,0.00332
3875.18375,0.00258
3873.12358,0.00220
3871.06341,0.00171
3869.00324,0.00205
3866.94306,0.00308
3864.88289,0.00301
3862.82272,0.00343
3860.76255,0.00433
3858.70237,0.00467
3856.64220,0.00345
3854.58203,0.00064
3852.52186,0.00000
3850.46169,0.00186
3848.40151,0.00282
3846.34134,0.00275
3844.28117,0.00240
3842.22100,0.00210
3840.16083,0.00147
3838.10065,0.00140
3836.04048,0.00252
3833.98031,0.00304
3831.92014,0.00278
3829.85997,0.00281
3827.79979,0.00281
3825.73962,0.00292
3823.67945,0.00211
3821.61928,0.00077
3819.55910,0.00202
3817.49893,0.00247
3815.43876,0.00206
3813.37859,0.00332
3811.31842,0.00413
3809.25824,0.00355
3807.19807,0.00291
3805.13790,0.00334
3803.07773,0.00270
3801.01756,0.00239
3798.95738,0.00322
3796.89721,0.00251
3794.83704,0.00203
3792.77687,0.00224
3790.71670,0.00218
3788.65652,0.00188
3786.59635,0.00143
3784.53618,0.00154
3782.47601,0.00212
3780.41583,0.00204
3778.35566,0.00225
3776.29549,0.00275
3774.23532,0.00247
3772.17515,0.00174
3770.11497,0.00169
3768.05480,0.00292
3765.99463,0.00393
3763.93446,0.00435
3761.87429,0.00347
3759.81411,0.00196
3757.75394,0.00222
3755.69377,0.00347
3753.63360,0.00327
3751.57342,0.00237
3749.51325,0.00349
3747.45308,0.00483
3745.39291,0.00401
3743.33274,0.00461
3741.27256,0.00615
3739.21239,0.00523
3737.15222,0.00234
3735.09205,0.00005
3733.03188,0.00020
3730.97170,0.00195
3728.91153,0.00282
3726.85136,0.00195
3724.79119,0.00118
3722.73102,0.00069
3720.67084,0.00014
3718.61067,0.00018
3716.55050,0.00084
3714.49033,0.00087
3712.43015,0.00027
3710.36998,0.00045
3708.30981,0.00108
3706.24964,0.00166
3704.18947,0.00206
3702.12929,0.00233
3700.06912,0.00274
3698.00895,0.00271
3695.94878,0.00279
3693.88861,0.00317
3691.82843,0.00245
3689.76826,0.00100
3687.70809,0.00073
3685.64792,0.00109
3683.58775,0.00115
3681.52757,0.00160
3679.46740,0.00233
3677.40723,0.00208
3675.34706,0.00182
3673.28688,0.00266
3671.22671,0.00132
3669.16654,0.00061
3667.10637,0.00222
3665.04620,0.00264
3662.98602,0.00186
3660.92585,0.00135
3658.86568,0.00101
3656.80551,0.00100
3654.74534,0.00272
3652.68516,0.00359
3650.62499,0.00194
3648.56482,0.00114
3646.50465,0.00238
3644.44447,0.00345
3642.38430,0.00333
3640.32413,0.00294
3638.26396,0.00268
3636.20379,0.00272
3634.14361,0.00346
3632.08344,0.00419
3630.02327,0.00308
3627.96310,0.00243
3625.90293,0.00349
3623.84275,0.00375
3621.78258,0.00278
3619.72241,0.00179
3617.66224,0.00226
3615.60207,0.00277
3613.54189,0.00244
3611.48172,0.00251
3609.42155,0.00257
3607.36138,0.00288
3605.30120,0.00366
3603.24103,0.00378
3601.18086,0.00327
3599.12069,0.00307
3597.06052,0.00338
3595.00034,0.00426
3592.94017,0.00562
3590.88000,0.00583
3588.81983,0.00439
3586.75966,0.00402
3584.69948,0.00558
3582.63931,0.00666
3580.57914,0.00697
3578.51897,0.00741
3576.45879,0.00802
3574.39862,0.00826
3572.33845,0.00806
3570.27828,0.00752
3568.21811,0.00648
3566.15793,0.00606
3564.09776,0.00680
3562.03759,0.00721
3559.97742,0.00747
3557.91725,0.00861
3555.85707,0.00997
3553.79690,0.01030
3551.73673,0.00998
3549.67656,0.00987
3547.61639,0.00990
3545.55621,0.01014
3543.49604,0.01067
3541.43587,0.01114
3539.37570,0.01137
3537.31552,0.01158
3535.25535,0.01219
3533.19518,0.01297
3531.13501,0.01356
3529.07484,0.01394
3527.01466,0.01405
3524.95449,0.01417
3522.89432,0.01475
3520.83415,0.01545
3518.77398,0.01543
3516.71380,0.01519
3514.65363,0.01538
3512.59346,0.01570
3510.53329,0.01597
3508.47312,0.01664
3506.41294,0.01722
3504.35277,0.01700
3502.29260,0.01676
3500.23243,0.01678
3498.17225,0.01675
3496.11208,0.01720
3494.05191,0.01818
3491.99174,0.01879
3489.93157,0.01877
3487.87139,0.01891
3485.81122,0.01954
3483.75105,0.02006
3481.69088,0.02068
3479.63071,0.02152
3477.57053,0.02162
3475.51036,0.02115
3473.45019,0.02124
3471.39002,0.02196
3469.32984,0.02263
3467.26967,0.02305
3465.20950,0.02331
3463.14933,0.02327
3461.08916,0.02321
3459.02898,0.02365
3456.96881,0.02450
3454.90864,0.02533
3452.84847,0.02584
3450.78830,0.02578
3448.72812,0.02486
3446.66795,0.02394
3444.60778,0.02395
3442.54761,0.02450
3440.48744,0.02541
3438.42726,0.02617
3436.36709,0.02653
3434.30692,0.02688
3432.24675,0.02738
3430.18657,0.02790
3428.12640,0.02840
3426.06623,0.02857
3424.00606,0.02819
3421.94589,0.02798
3419.88571,0.02865
3417.82554,0.02917
3415.76537,0.02892
3413.70520,0.02920
3411.64503,0.03028
3409.58485,0.03111
3407.52468,0.03126
3405.46451,0.03126
3403.40434,0.03136
3401.34416,0.03124
3399.28399,0.03110
3397.22382,0.03144
3395.16365,0.03236
3393.10348,0.03331
3391.04330,0.03371
3388.98313,0.03327
3386.92296,0.03269
3384.86279,0.03296
3382.80262,0.03332
3380.74244,0.03278
3378.68227,0.03236
3376.62210,0.03300
3374.56193,0.03378
3372.50176,0.03385
3370.44158,0.03351
3368.38141,0.03318
3366.32124,0.03353
3364.26107,0.03477
3362.20089,0.03563
3360.14072,0.03535
3358.08055,0.03467
3356.02038,0.03445
3353.96021,0.03462
3351.90003,0.03476
3349.83986,0.03492
3347.77969,0.03533
3345.71952,0.03590
3343.65935,0.03624
3341.59917,0.03626
3339.53900,0.03623
3337.47883,0.03612
3335.41866,0.03590
3333.35849,0.03599
3331.29831,0.03665
3329.23814,0.03711
3327.17797,0.03670
3325.11780,0.03618
3323.05762,0.03637
3320.99745,0.03669
3318.93728,0.03645
3316.87711,0.03617
3314.81694,0.03646
3312.75676,0.03701
3310.69659,0.03717
3308.63642,0.03683
3306.57625,0.03653
3304.51608,0.03656
3302.45590,0.03676
3300.39573,0.03698
3298.33556,0.03715
3296.27539,0.03716
3294.21521,0.03692
3292.15504,0.03659
3290.09487,0.03672
3288.03470,0.03710
3285.97453,0.03715
3283.91435,0.03687
3281.85418,0.03660
3279.79401,0.03675
3277.73384,0.03733
3275.67367,0.03758
3273.61349,0.03706
3271.55332,0.03654
3269.49315,0.03655
3267.43298,0.03671
3265.37281,0.03686
3263.31263,0.03698
3261.25246,0.03680
3259.19229,0.03654
3257.13212,0.03648
3255.07194,0.03640
3253.01177,0.03621
3250.95160,0.03603
3248.89143,0.03587
3246.83126,0.03570
3244.77108,0.03546
3242.71091,0.03534
3240.65074,0.03571
3238.59057,0.03642
3236.53040,0.03656
3234.47022,0.03601
3232.41005,0.03583
3230.34988,0.03630
3228.28971,0.03665
3226.22954,0.03662
3224.16936,0.03639
3222.10919,0.03581
3220.04902,0.03497
3217.98885,0.03464
3215.92867,0.03505
3213.86850,0.03555
3211.80833,0.03586
3209.74816,0.03591
3207.68799,0.03555
3205.62781,0.03507
3203.56764,0.03494
3201.50747,0.03477
3199.44730,0.03418
3197.38713,0.03388
3195.32695,0.03426
3193.26678,0.03460
3191.20661,0.03454
3189.14644,0.03452
3187.08626,0.03464
3185.02609,0.03428
3182.96592,0.03344
3180.90575,0.03283
3178.84558,0.03264
3176.78540,0.03260
3174.72523,0.03254
3172.66506,0.03246
3170.60489,0.03229
3168.54472,0.03226
3166.48454,0.03249
3164.42437,0.03236
3162.36420,0.03183
3160.30403,0.03151
3158.24386,0.03147
3156.18368,0.03133
3154.12351,0.03101
3152.06334,0.03081
3150.00317,0.03069
3147.94299,0.03045
3145.88282,0.03020
3143.82265,0.03012
3141.76248,0.03005
3139.70231,0.02964
3137.64213,0.02917
3135.58196,0.02894
3133.52179,0.02880
3131.46162,0.02890
3129.40145,0.02916
3127.34127,0.02923
3125.28110,0.02900
3123.22093,0.02876
3121.16076,0.02870
3119.10058,0.02847
3117.04041,0.02802
3114.98024,0.02749
3112.92007,0.02710
3110.85990,0.02714
3108.79972,0.02736
3106.73955,0.02724
3104.67938,0.02685
3102.61921,0.02656
3100.55904,0.02656
3098.49886,0.02653
3096.43869,0.02640
3094.37852,0.02627
3092.31835,0.02577
3090.25818,0.02515
3088.19800,0.02499
3086.13783,0.02495
3084.07766,0.02475
3082.01749,0.02475
3079.95731,0.02473
3077.89714,0.02425
3075.83697,0.02376
3073.77680,0.02373
3071.71663,0.02394
3069.65645,0.02412
3067.59628,0.02406
3065.53611,0.02366
3063.47594,0.02326
3061.41577,0.02322
3059.35559,0.02315
3057.29542,0.02262
3055.23525,0.02204
3053.17508,0.02198
3051.11491,0.02208
3049.05473,0.02182
3046.99456,0.02137
3044.93439,0.02135
3042.87422,0.02164
3040.81404,0.02146
3038.75387,0.02072
3036.69370,0.02015
3034.63353,0.01996
3032.57336,0.01979
3030.51318,0.01966
3028.45301,0.01970
3026.39284,0.01960
3024.33267,0.01908
3022.27250,0.01862
3020.21232,0.01876
3018.15215,0.01915
3016.09198,0.01918
3014.03181,0.01903
3011.97163,0.01929
3009.91146,0.01973
3007.85129,0.01972
3005.79112,0.01929
3003.73095,0.01880
3001.67077,0.01845
2999.61060,0.01827
2997.55043,0.01802
2995.49026,0.01757
2993.43009,0.01699
2991.36991,0.01647
2989.30974,0.01659
2987.24957,0.01736
2985.18940,0.01803
2983.12923,0.01831
2981.06905,0.01842
2979.00888,0.01861
2976.94871,0.01893
2974.88854,0.01952
2972.82836,0.02025
2970.76819,0.02064
2968.70802,0.02091
2966.64785,0.02150
2964.58768,0.02226
2962.52750,0.02290
2960.46733,0.02369
2958.40716,0.02480
2956.34699,0.02584
2954.28682,0.02704
2952.22664,0.02874
2950.16647,0.03045
2948.10630,0.03191
2946.04613,0.03326
2943.98596,0.03460
2941.92578,0.03619
2939.86561,0.03801
2937.80544,0.03986
2935.74527,0.04177
2933.68509,0.04355
2931.62492,0.04475
2929.56475,0.04566
2927.50458,0.04680
2925.44441,0.04779
2923.38423,0.04828
2921.32406,0.04888
2919.26389,0.04956
2917.20372,0.04936
2915.14355,0.04826
2913.08337,0.04695
2911.02320,0.04565
2908.96303,0.04439
2906.90286,0.04322
2904.84268,0.04197
2902.78251,0.04060
2900.72234,0.03927
2898.66217,0.03795
2896.60200,0.03671
2894.54182,0.03584
2892.48165,0.03517
2890.42148,0.03440
2888.36131,0.03367
2886.30114,0.03331
2884.24096,0.03339
2882.18079,0.03334
2880.12062,0.03277
2878.06045,0.03217
2876.00028,0.03202
2873.94010,0.03225
2871.87993,0.03230
2869.81976,0.03218
2867.75959,0.03258
2865.69941,0.03352
2863.63924,0.03423
2861.57907,0.03490
2859.51890,0.03635
2857.45873,0.03799
2855.39855,0.03910
2853.33838,0.04010
2851.27821,0.04098
2849.21804,0.04094
2847.15787,0.03965
2845.09769,0.03747
2843.03752,0.03503
2840.97735,0.03281
2838.91718,0.03096
2836.85700,0.02950
2834.79683,0.02838
2832.73666,0.02758
2830.67649,0.02707
2828.61632,0.02671
2826.55614,0.02627
2824.49597,0.02569
2822.43580,0.02504
2820.37563,0.02447
2818.31546,0.02410
2816.25528,0.02367
2814.19511,0.02309
2812.13494,0.02252
2810.07477,0.02210
2808.01460,0.02199
2805.95442,0.02213
2803.89425,0.02223
2801.83408,0.02222
2799.77391,0.02213
2797.71373,0.02184
2795.65356,0.02145
2793.59339,0.02116
2791.53322,0.02088
2789.47305,0.02060
2787.41287,0.02046
2785.35270,0.02024
2783.29253,0.01995
2781.23236,0.01978
2779.17219,0.01959
2777.11201,0.01940
2775.05184,0.01927
2772.99167,0.01921
2770.93150,0.01914
2768.87133,0.01898
2766.81115,0.01882
2764.75098,0.01881
2762.69081,0.01893
2760.63064,0.01910
2758.57046,0.01902
2756.51029,0.01832
2754.45012,0.01771
2752.38995,0.01787
2750.32978,0.01842
2748.26960,0.01896
2746.20943,0.01922
2744.14926,0.01903
2742.08909,0.01873
2740.02892,0.01875
2737.96874,0.01895
2735.90857,0.01886
2733.84840,0.01833
2731.78823,0.01774
2729.72805,0.01755
2727.66788,0.01782
2725.60771,0.01828
2723.54754,0.01829
2721.48737,0.01800
2719.42719,0.01799
2717.36702,0.01791
2715.30685,0.01777
2713.24668,0.01804
2711.18651,0.01839
2709.12633,0.01819
2707.06616,0.01752
2705.00599,0.01718
2702.94582,0.01736
2700.88565,0.01749
2698.82547,0.01753
2696.76530,0.01771
2694.70513,0.01769
2692.64496,0.01730
2690.58478,0.01711
2688.52461,0.01739
2686.46444,0.01770
2684.40427,0.01774
2682.34410,0.01762
2680.28392,0.01744
2678.22375,0.01722
2676.16358,0.01704
2674.10341,0.01710
2672.04324,0.01725
2669.98306,0.01714
2667.92289,0.01695
2665.86272,0.01702
2663.80255,0.01692
2661.74238,0.01660
2659.68220,0.01659
2657.62203,0.01669
2655.56186,0.01656
2653.50169,0.01630
2651.44151,0.01615
2649.38134,0.01633
2647.32117,0.01674
2645.26100,0.01685
2643.20083,0.01677
2641.14065,0.01670
2639.08048,0.01625
2637.02031,0.01593
2634.96014,0.01626
2632.89997,0.01671
2630.83979,0.01657
2628.77962,0.01582
2626.71945,0.01521
2624.65928,0.01522
2622.59910,0.01525
2620.53893,0.01494
2618.47876,0.01485
2616.41859,0.01500
2614.35842,0.01518
2612.29824,0.01553
2610.23807,0.01567
2608.17790,0.01540
2606.11773,0.01513
2604.05756,0.01498
2601.99738,0.01481
2599.93721,0.01472
2597.87704,0.01488
2595.81687,0.01504
2593.75670,0.01478
2591.69652,0.01452
2589.63635,0.01436
2587.57618,0.01398
2585.51601,0.01353
2583.45583,0.01322
2581.39566,0.01309
2579.33549,0.01284
2577.27532,0.01289
2575.21515,0.01364
2573.15497,0.01406
2571.09480,0.01399
2569.03463,0.01413
2566.97446,0.01404
2564.91429,0.01314
2562.85411,0.01251
2560.79394,0.01294
2558.73377,0.01327
2556.67360,0.01284
2554.61342,0.01259
2552.55325,0.01315
2550.49308,0.01424
2548.43291,0.01491
2546.37274,0.01435
2544.31256,0.01330
2542.25239,0.01267
2540.19222,0.01236
2538.13205,0.01226
2536.07188,0.01240
2534.01170,0.01278
2531.95153,0.01311
2529.89136,0.01276
2527.83119,0.01205
2525.77102,0.01173
2523.71084,0.01166
2521.65067,0.01189
2519.59050,0.01240
2517.53033,0.01258
2515.47015,0.01221
2513.40998,0.01182
2511.34981,0.01194
2509.28964,0.01208
2507.22947,0.01221
2505.16929,0.01267
2503.10912,0.01280
2501.04895,0.01226
2498.98878,0.01168
2496.92861,0.01144
2494.86843,0.01124
2492.80826,0.01103
2490.74809,0.01075
2488.68792,0.01046
2486.62775,0.01055
2484.56757,0.01061
2482.50740,0.01029
2480.44723,0.01019
2478.38706,0.01047
2476.32688,0.01117
2474.26671,0.01198
2472.20654,0.01227
2470.14637,0.01204
2468.08620,0.01172
2466.02602,0.01152
2463.96585,0.01101
2461.90568,0.01033
2459.84551,0.01018
2457.78534,0.01055
2455.72516,0.01088
2453.66499,0.01101
2451.60482,0.01131
2449.54465,0.01161
2447.48447,0.01159
2445.42430,0.01128
2443.36413,0.01080
2441.30396,0.01065
2439.24379,0.01093
2437.18361,0.01084
2435.12344,0.01014
2433.06327,0.00943
2431.00310,0.00909
2428.94293,0.00917
2426.88275,0.00962
2424.82258,0.01005
2422.76241,0.01014
2420.70224,0.01021
2418.64207,0.01069
2416.58189,0.01090
2414.52172,0.01031
2412.46155,0.01014
2410.40138,0.01088
2408.34120,0.01146
2406.28103,0.01125
2404.22086,0.01063
2402.16069,0.01038
2400.10052,0.01071
2398.04034,0.01094
2395.98017,0.01087
2393.92000,0.01066
2391.85983,0.01047
2389.79966,0.01023
2387.73948,0.00996
2385.67931,0.00983
2383.61914,0.00985
2381.55897,0.01003
2379.49880,0.01037
2377.43862,0.01030
2375.37845,0.00895
2373.31828,0.00681
2371.25811,0.00680
2369.19793,0.01086
2367.13776,0.01495
2365.07759,0.01444
2363.01742,0.01284
2360.95725,0.01186
2358.89707,0.00769
2356.83690,0.00464
2354.77673,0.00616
2352.71656,0.00830
2350.65639,0.00965
2348.59621,0.01098
2346.53604,0.01152
2344.47587,0.01045
2342.41570,0.00945
2340.35552,0.00986
2338.29535,0.01025
2336.23518,0.01037
2334.17501,0.01001
2332.11484,0.00815
2330.05466,0.00655
2327.99449,0.00736
2325.93432,0.00964
2323.87415,0.01119
2321.81398,0.01117
2319.75380,0.01086
2317.69363,0.01104
2315.63346,0.01099
2313.57329,0.01069
2311.51312,0.01053
2309.45294,0.01000
2307.39277,0.00916
2305.33260,0.00909
2303.27243,0.00956
2301.21225,0.00969
2299.15208,0.01010
2297.09191,0.01096
2295.03174,0.01101
2292.97157,0.00994
2290.91139,0.00872
2288.85122,0.00833
2286.79105,0.00894
2284.73088,0.00956
2282.67071,0.00942
2280.61053,0.00879
2278.55036,0.00830
2276.49019,0.00836
2274.43002,0.00881
2272.36984,0.00926
2270.30967,0.00977
2268.24950,0.01005
2266.18933,0.00933
2264.12916,0.00826
2262.06898,0.00759
2260.00881,0.00688
2257.94864,0.00661
2255.88847,0.00739
2253.82830,0.00828
2251.76812,0.00847
2249.70795,0.00826
2247.64778,0.00851
2245.58761,0.00966
2243.52744,0.01062
2241.46726,0.01074
2239.40709,0.01108
2237.34692,0.01182
2235.28675,0.01219
2233.22657,0.01146
2231.16640,0.00953
2229.10623,0.00758
2227.04606,0.00675
2224.98589,0.00765
2222.92571,0.00938
2220.86554,0.01036
2218.80537,0.01061
2216.74520,0.01060
2214.68503,0.00898
2212.62485,0.00551
2210.56468,0.00442
2208.50451,0.00680
2206.44434,0.00839
2204.38417,0.00803
2202.32399,0.00740
2200.26382,0.00642
2198.20365,0.00555
2196.14348,0.00695
2194.08330,0.00987
2192.02313,0.01011
2189.96296,0.00689
2187.90279,0.00418
2185.84262,0.00420
2183.78244,0.00462
2181.72227,0.00406
2179.66210,0.00411
2177.60193,0.00458
2175.54176,0.00510
2173.48158,0.00604
2171.42141,0.00654
2169.36124,0.00695
2167.30107,0.00747
2165.24089,0.00669
2163.18072,0.00427
2161.12055,0.00172
2159.06038,0.00124
2157.00021,0.00258
2154.94003,0.00368
2152.87986,0.00396
2150.81969,0.00432
2148.75952,0.00660
2146.69935,0.00940
2144.63917,0.00907
2142.57900,0.00619
2140.51883,0.00384
2138.45866,0.00318
2136.39849,0.00316
2134.33831,0.00308
2132.27814,0.00363
2130.21797,0.00419
2128.15780,0.00466
2126.09762,0.00620
2124.03745,0.00746
2121.97728,0.00700
2119.91711,0.00632
2117.85694,0.00705
2115.79676,0.00848
2113.73659,0.00901
2111.67642,0.00849
2109.61625,0.00771
2107.55608,0.00749
2105.49590,0.00730
2103.43573,0.00639
2101.37556,0.00557
2099.31539,0.00526
2097.25521,0.00533
2095.19504,0.00600
2093.13487,0.00649
2091.07470,0.00589
2089.01453,0.00531
2086.95435,0.00628
2084.89418,0.00800
2082.83401,0.00823
2080.77384,0.00723
2078.71367,0.00664
2076.65349,0.00602
2074.59332,0.00499
2072.53315,0.00461
2070.47298,0.00494
2068.41281,0.00504
2066.35263,0.00503
2064.29246,0.00557
2062.23229,0.00638
2060.17212,0.00666
2058.11194,0.00627
2056.05177,0.00595
2053.99160,0.00636
2051.93143,0.00685
2049.87126,0.00708
2047.81108,0.00711
2045.75091,0.00649
2043.69074,0.00654
2041.63057,0.00780
2039.57040,0.00784
2037.51022,0.00556
2035.45005,0.00405
2033.38988,0.00527
2031.32971,0.00629
2029.26954,0.00554
2027.20936,0.00428
2025.14919,0.00278
2023.08902,0.00227
2021.02885,0.00379
2018.96867,0.00443
2016.90850,0.00388
2014.84833,0.00507
2012.78816,0.00601
2010.72799,0.00417
2008.66781,0.00235
2006.60764,0.00339
2004.54747,0.00574
2002.48730,0.00806
2000.42713,0.00917
1998.36695,0.00783
1996.30678,0.00579
1994.24661,0.00388
1992.18644,0.00202
1990.12626,0.00191
1988.06609,0.00322
1986.00592,0.00427
1983.94575,0.00367
1981.88558,0.00147
1979.82540,0.00003
1977.76523,0.00000
1975.70506,0.00007
1973.64489,0.00062
1971.58472,0.00125
1969.52454,0.00088
1967.46437,0.00032
1965.40420,0.00071
1963.34403,0.00262
1961.28386,0.00555
1959.22368,0.00662
1957.16351,0.00480
1955.10334,0.00246
1953.04317,0.00171
1950.98299,0.00245
1948.92282,0.00243
1946.86265,0.00150
1944.80248,0.00167
1942.74231,0.00296
1940.68213,0.00465
1938.62196,0.00566
1936.56179,0.00587
1934.50162,0.00567
1932.44145,0.00519
1930.38127,0.00523
1928.32110,0.00587
1926.26093,0.00573
1924.20076,0.00412
1922.14059,0.00293
1920.08041,0.00272
1918.02024,0.00269
1915.96007,0.00347
1913.89990,0.00391
1911.83972,0.00376
1909.77955,0.00404
1907.71938,0.00463
1905.65921,0.00476
1903.59904,0.00413
1901.53886,0.00318
1899.47869,0.00271
1897.41852,0.00305
1895.35835,0.00384
1893.29818,0.00470
1891.23800,0.00473
1889.17783,0.00402
1887.11766,0.00365
1885.05749,0.00371
1882.99731,0.00419
1880.93714,0.00436
1878.87697,0.00371
1876.81680,0.00299
1874.75663,0.00277
1872.69645,0.00247
1870.63628,0.00142
1868.57611,0.00113
1866.51594,0.00267
1864.45577,0.00378
1862.39559,0.00372
1860.33542,0.00386
1858.27525,0.00447
1856.21508,0.00489
1854.15491,0.00474
1852.09473,0.00392
1850.03456,0.00292
1847.97439,0.00246
1845.91422,0.00215
1843.85404,0.00237
1841.79387,0.00367
1839.73370,0.00406
1837.67353,0.00349
1835.61336,0.00341
1833.55318,0.00355
1831.49301,0.00293
1829.43284,0.00255
1827.37267,0.00273
1825.31250,0.00229
1823.25232,0.00213
1821.19215,0.00210
1819.13198,0.00177
1817.07181,0.00189
1815.01163,0.00258
1812.95146,0.00293
1810.89129,0.00290
1808.83112,0.00292
1806.77095,0.00277
1804.71077,0.00238
1802.65060,0.00190
1800.59043,0.00183
1798.53026,0.00232
1796.47009,0.00225
1794.40991,0.00102
1792.34974,0.00000
1790.28957,0.00082
1788.22940,0.00174
1786.16923,0.00141
1784.10905,0.00090
1782.04888,0.00062
1779.98871,0.00082
1777.92854,0.00175
1775.86836,0.00207
1773.80819,0.00092
1771.74802,0.00001
1769.68785,0.00055
1767.62768,0.00117
1765.56750,0.00178
1763.50733,0.00180
1761.44716,0.00229
1759.38699,0.00378
1757.32682,0.00467
1755.26664,0.00582
1753.20647,0.00677
1751.14630,0.00716
1749.08613,0.00833
1747.02596,0.00977
1744.96578,0.01053
1742.90561,0.01087
1740.84544,0.01141
1738.78527,0.01285
1736.72509,0.01327
1734.66492,0.01134
1732.60475,0.01132
1730.54458,0.01248
1728.48441,0.01264
1726.42423,0.01259
1724.36406,0.01290
1722.30389,0.01373
1720.24372,0.01339
1718.18355,0.01186
1716.12337,0.01214
1714.06320,0.01340
1712.00303,0.01389
1709.94286,0.01365
1707.88268,0.01307
1705.82251,0.01315
1703.76234,0.01419
1701.70217,0.01337
1699.64200,0.01222
1697.58182,0.01252
1695.52165,0.01304
1693.46148,0.01500
1691.40131,0.01607
1689.34114,0.01676
1687.28096,0.01784
1685.22079,0.01804
1683.16062,0.02031
1681.10045,0.02375
1679.04028,0.02507
1676.98010,0.02466
1674.91993,0.02457
1672.85976,0.02533
1670.79959,0.02462
1668.73941,0.02453
1666.67924,0.02565
1664.61907,0.02473
1662.55890,0.02291
1660.49873,0.02311
1658.43855,0.02393
1656.37838,0.02280
1654.31821,0.01952
1652.25804,0.01983
1650.19787,0.02236
1648.13769,0.02071
1646.07752,0.01950
1644.01735,0.02151
1641.95718,0.02273
1639.89701,0.02267
1637.83683,0.02167
1635.77666,0.02096
1633.71649,0.02307
1631.65632,0.02491
1629.59614,0.02484
1627.53597,0.02483
1625.47580,0.02486
1623.41563,0.02463
1621.35546,0.02600
1619.29528,0.02668
1617.23511,0.02567
1615.17494,0.02641
1613.11477,0.02792
1611.05460,0.02849
1608.99442,0.02934
1606.93425,0.03072
1604.87408,0.03140
1602.81391,0.03096
1600.75373,0.03013
1598.69356,0.02901
1596.63339,0.02744
1594.57322,0.02617
1592.51305,0.02569
1590.45287,0.02548
1588.39270,0.02511
1586.33253,0.02447
1584.27236,0.02351
1582.21219,0.02285
1580.15201,0.02258
1578.09184,0.02124
1576.03167,0.02008
1573.97150,0.02139
1571.91133,0.02132
1569.85115,0.01936
1567.79098,0.01897
1565.73081,0.01915
1563.67064,0.01931
1561.61046,0.01754
1559.55029,0.01291
1557.49012,0.01272
1555.42995,0.01467
1553.36978,0.01474
1551.30960,0.01371
1549.24943,0.01296
1547.18926,0.01300
1545.12909,0.01242
1543.06892,0.01064
1541.00874,0.00761
1538.94857,0.00757
1536.88840,0.00995
1534.82823,0.00920
1532.76805,0.00784
1530.70788,0.00829
1528.64771,0.00779
1526.58754,0.00714
1524.52737,0.00779
1522.46719,0.00835
1520.40702,0.00975
1518.34685,0.01106
1516.28668,0.01132
1514.22651,0.01213
1512.16633,0.01255
1510.10616,0.01110
1508.04599,0.00696
1505.98582,0.00497
1503.92565,0.00699
1501.86547,0.00755
1499.80530,0.00608
1497.74513,0.00442
1495.68496,0.00381
1493.62478,0.00347
1491.56461,0.00159
1489.50444,0.00000
1487.44427,0.00079
1485.38410,0.00200
1483.32392,0.00206
1481.26375,0.00190
1479.20358,0.00255
1477.14341,0.00308
1475.08324,0.00301
1473.02306,0.00356
1470.96289,0.00666
1468.90272,0.00976
1466.84255,0.01036
1464.78238,0.01075
1462.72220,0.01272
1460.66203,0.01364
1458.60186,0.01282
1456.54169,0.01391
1454.48151,0.01672
1452.42134,0.01746
1450.36117,0.01675
1448.30100,0.01642
1446.24083,0.01736
1444.18065,0.01867
1442.12048,0.01974
1440.06031,0.02047
1438.00014,0.02006
1435.93997,0.02033
1433.87979,0.02193
1431.81962,0.02221
1429.75945,0.02196
1427.69928,0.02246
1425.63910,0.02273
1423.57893,0.02310
1421.51876,0.02341
1419.45859,0.02287
1417.39842,0.02337
1415.33824,0.02397
1413.27807,0.02317
1411.21790,0.02208
1409.15773,0.02182
1407.09756,0.02164
1405.03738,0.02104
1402.97721,0.02072
1400.91704,0.01997
1398.85687,0.01867
1396.79670,0.01746
1394.73652,0.01649
1392.67635,0.01664
1390.61618,0.01682
1388.55601,0.01647
1386.49583,0.01712
1384.43566,0.01843
1382.37549,0.01901
1380.31532,0.01930
1378.25515,0.01980
1376.19497,0.02010
1374.13480,0.02028
1372.07463,0.02076
1370.01446,0.02078
1367.95429,0.02059
1365.89411,0.02047
1363.83394,0.01966
1361.77377,0.01913
1359.71360,0.01937
1357.65343,0.01933
1355.59325,0.01896
1353.53308,0.01871
1351.47291,0.01849
1349.41274,0.01823
1347.35256,0.01822
1345.29239,0.01865
1343.23222,0.01896
1341.17205,0.01843
1339.11188,0.01777
1337.05170,0.01796
1334.99153,0.01837
1332.93136,0.01835
1330.87119,0.01817
1328.81102,0.01835
1326.75084,0.01869
1324.69067,0.01883
1322.63050,0.01887
1320.57033,0.01883
1318.51015,0.01870
1316.44998,0.01847
1314.38981,0.01803
1312.32964,0.01776
1310.26947,0.01769
1308.20929,0.01731
1306.14912,0.01671
1304.08895,0.01622
1302.02878,0.01587
1299.96861,0.01541
1297.90843,0.01479
1295.84826,0.01432
1293.78809,0.01423
1291.72792,0.01448
1289.66775,0.01493
1287.60757,0.01543
1285.54740,0.01584
1283.48723,0.01604
1281.42706,0.01601
1279.36688,0.01592
1277.30671,0.01599
1275.24654,0.01609
1273.18637,0.01616
1271.12620,0.01641
1269.06602,0.01684
1267.00585,0.01742
1264.94568,0.01817
1262.88551,0.01891
1260.82534,0.01954
1258.76516,0.02013
1256.70499,0.02036
1254.64482,0.02036
1252.58465,0.02080
1250.52447,0.02150
1248.46430,0.02199
1246.40413,0.02239
1244.34396,0.02275
1242.28379,0.02279
1240.22361,0.02269
1238.16344,0.02279
1236.10327,0.02286
1234.04310,0.02260
1231.98293,0.02203
1229.92275,0.02118
1227.86258,0.02025
1225.80241,0.01946
1223.74224,0.01865
1221.68207,0.01761
1219.62189,0.01634
1217.56172,0.01521
1215.50155,0.01432
1213.44138,0.01331
1211.38120,0.01218
1209.32103,0.01116
1207.26086,0.01035
1205.20069,0.00950
1203.14052,0.00829
1201.08034,0.00693
1199.02017,0.00560
1196.96000,0.00420
1194.89983,0.00287
1192.83966,0.00164
1190.77948,0.00050
1188.71931,0.00000
1186.65914,0.00001
1184.59897,-0.00015
1182.53880,-0.00031
1180.47862,-0.00005
1178.41845,0.00031
1176.35828,0.00091
1174.29811,0.00245
1172.23793,0.00470
1170.17776,0.00680
1168.11759,0.00837
1166.05742,0.00929
1163.99725,0.00969
1161.93707,0.00989
1159.87690,0.01022
1157.81673,0.01083
1155.75656,0.01149
1153.69639,0.01210
1151.63621,0.01291
1149.57604,0.01399
1147.51587,0.01515
1145.45570,0.01626
1143.39552,0.01724
1141.33535,0.01786
1139.27518,0.01822
1137.21501,0.01868
1135.15484,0.01906
1133.09466,0.01938
1131.03449,0.02025
1128.97432,0.02139
1126.91415,0.02234
1124.85398,0.02320
1122.79380,0.02403
1120.73363,0.02486
1118.67346,0.02600
1116.61329,0.02749
1114.55312,0.02864
1112.49294,0.02920
1110.43277,0.02968
1108.37260,0.03043
1106.31243,0.03161
1104.25225,0.03310
1102.19208,0.03463
1100.13191,0.03609
1098.07174,0.03720
1096.01157,0.03820
1093.95139,0.03974
1091.89122,0.04173
1089.83105,0.04371
1087.77088,0.04544
1085.71071,0.04709
1083.65053,0.04884
1081.59036,0.05051
1079.53019,0.05226
1077.47002,0.05428
1075.40985,0.05630
1073.34967,0.05819
1071.28950,0.06012
1069.22933,0.06190
1067.16916,0.06303
1065.10898,0.06384
1063.04881,0.06497
1060.98864,0.06614
1058.92847,0.06738
1056.86830,0.06887
1054.80812,0.07032
1052.74795,0.07199
1050.68778,0.07400
1048.62761,0.07601
1046.56744,0.07801
1044.50726,0.07998
1042.44709,0.08199
1040.38692,0.08421
1038.32675,0.08648
1036.26657,0.08834
1034.20640,0.08927
1032.14623,0.08941
1030.08606,0.08931
1028.02589,0.08920
1025.96571,0.08895
1023.90554,0.08880
1021.84537,0.08882
1019.78520,0.08839
1017.72503,0.08782
1015.66485,0.08763
1013.60468,0.08770
1011.54451,0.08794
1009.48434,0.08824
1007.42417,0.08836
1005.36399,0.08838
1003.30382,0.08824
1001.24365,0.08754
999.18348,0.08661
997.12330,0.08580
995.06313,0.08469
993.00296,0.08284
990.94279,0.08113
988.88262,0.08055
986.82244,0.07998
984.76227,0.07825
982.70210,0.07647
980.64193,0.07549
978.58176,0.07438
976.52158,0.07296
974.46141,0.07200
972.40124,0.07143
970.34107,0.07043
968.28089,0.06854
966.22072,0.06636
964.16055,0.06477
962.10038,0.06372
960.04021,0.06257
957.98003,0.06111
955.91986,0.05948
953.85969,0.05807
951.79952,0.05707
949.73935,0.05631
947.67917,0.05549
945.61900,0.05429
943.55883,0.05255
941.49866,0.05044
939.43849,0.04821
937.37831,0.04594
935.31814,0.04321
933.25797,0.03997
931.19780,0.03692
929.13762,0.03458
927.07745,0.03316
925.01728,0.03227
922.95711,0.03087
920.89694,0.02913
918.83676,0.02785
916.77659,0.02665
914.71642,0.02481
912.65625,0.02259
910.59608,0.02081
908.53590,0.01951
906.47573,0.01881
904.41556,0.01871
902.35539,0.01832
900.29522,0.01793
898.23504,0.01833
896.17487,0.01870
894.11470,0.01843
892.05453,0.01810
889.99435,0.01797
887.93418,0.01777
885.87401,0.01701
883.81384,0.01592
881.75367,0.01501
879.69349,0.01397
877.63332,0.01275
875.57315,0.01200
873.51298,0.01148
871.45281,0.01035
869.39263,0.00925
867.33246,0.00925
865.27229,0.00966
863.21212,0.00998
861.15194,0.01065
859.09177,0.01079
857.03160,0.00975
854.97143,0.00883
852.91126,0.00848
850.85108,0.00794
848.79091,0.00766
846.73074,0.00822
844.67057,0.00843
842.61040,0.00783
840.55022,0.00782
838.49005,0.00795
836.42988,0.00722
834.36971,0.00713
832.30954,0.00809
830.24936,0.00851
828.18919,0.00770
826.12902,0.00593
824.06885,0.00422
822.00867,0.00326
819.94850,0.00323
817.88833,0.00476
815.82816,0.00634
813.76799,0.00630
811.70781,0.00584
809.64764,0.00570
807.58747,0.00514
805.52730,0.00387
803.46713,0.00299
801.40695,0.00339
799.34678,0.00458
797.28661,0.00558
795.22644,0.00550
793.16627,0.00467
791.10609,0.00337
789.04592,0.00197
786.98575,0.00184
784.92558,0.00279
782.86540,0.00362
780.80523,0.00366
778.74506,0.00234
776.68489,0.00066
774.62472,0.00019
772.56454,0.00000
770.50437,-0.00007
768.44420,0.00145
766.38403,0.00273
764.32386,0.00239
762.26368,0.00069
760.20351,-0.00132
758.14334,-0.00122
756.08317,0.00046
754.02299,0.00103
751.96282,0.00042
749.90265,0.00000
747.84248,0.00005
745.78231,-0.00002
743.72213,-0.00054
741.66196,-0.00101
739.60179,-0.00131
737.54162,-0.00187
735.48145,-0.00262
733.42127,-0.00316
731.36110,-0.00283
729.30093,-0.00200
727.24076,-0.00079
725.18059,0.00043
723.12041,-0.00026
721.06024,-0.00087
719.00007,0.00036
716.93990,0.00216
714.87972,0.00324
712.81955,0.00351
710.75938,0.00338
708.69921,0.00340
706.63904,0.00412
704.57886,0.00567
702.51869,0.00695
700.45852,0.00751
698.39835,0.00824
696.33818,0.00872
694.27800,0.00791
692.21783,0.00612
690.15766,0.00390
688.09749,0.00208
686.03731,0.00178
683.97714,0.00323
681.91697,0.00550
679.85680,0.00751
677.79663,0.00802
675.73645,0.00612
673.67628,0.00287
671.61611,0.00083
669.55594,0.00208
667.49577,0.00582
665.43559,0.00734
663.37542,0.00535
661.31525,0.00271
659.25508,0.00352
657.19491,0.00762
655.13473,0.01038
653.07456,0.00929
651.01439,0.00649
648.95422,0.00518
646.89404,0.00519
644.83387,0.00466
642.77370,0.00411
640.71353,0.00497
638.65336,0.00654
636.59318,0.00563
634.53301,0.00158
632.47284,0.00000
630.41267,0.00338
628.35250,0.00658
626.29232,0.00496
624.23215,0.00328
622.17198,0.00403
620.11181,0.00440
618.05164,0.00544
615.99146,0.00801
613.93129,0.00793
611.87112,0.00356
609.81095,0.00030
607.75077,0.00152
605.69060,0.00256
603.63043,0.00079
601.57026,-0.00006
599.51009,0.00000
