3996.73391,-0.00006
3994.67373,0.00010
3992.61356,0.00027
3990.55339,0.00035
3988.49322,0.00017
3986.43305,0.00000
3984.37287,0.00008
3982.31270,0.00021
3980.25253,0.00033
3978.19236,0.00068
3976.13219,0.00111
3974.07201,0.00121
3972.01184,0.00107
3969.95167,0.00098
3967.89150,0.00094
3965.83133,0.00089
3963.77115,0.00095
3961.71098,0.00101
3959.65081,0.00096
3957.59064,0.00097
3955.53046,0.00095
3953.47029,0.00081
3951.41012,0.00083
3949.34995,0.00100
3947.28978,0.00084
3945.22960,0.00068
3943.16943,0.00078
3941.10926,0.00061
3939.04909,0.00038
3936.98892,0.00033
3934.92874,0.00069
3932.86857,0.00147
3930.80840,0.00152
3928.74823,0.00074
3926.68805,0.00040
3924.62788,0.00056
3922.56771,0.00060
3920.50754,0.00096
3918.44737,0.00141
3916.38719,0.00113
3914.32702,0.00051
3912.26685,0.00049
3910.20668,0.00063
3908.14651,0.00075
3906.08633,0.00139
3904.02616,0.00187
3901.96599,0.00175
3899.90582,0.00171
3897.84565,0.00106
3895.78547,0.00041
3893.72530,0.00099
3891.66513,0.00158
3889.60496,0.00089
3887.54478,0.00093
3885.48461,0.00144
3883.42444,0.00105
3881.36427,0.00132
3879.30410,0.00107
3877.24392,0.00050
3875.18375,0.00099
3873.12358,0.00111
3871.06341,0.00129
3869.00324,0.00103
3866.94306,0.00066
3864.88289,0.00137
3862.82272,0.00134
3860.76255,0.00059
3858.70237,0.00027
3856.64220,0.00142
3854.58203,0.00361
3852.52186,0.00308
3850.46169,0.00067
3848.40151,0.00000
3846.34134,0.00049
3844.28117,0.00078
3842.22100,0.00058
3840.16083,0.00096
3838.10065,0.00138
3836.04048,0.00082
3833.98031,0.00065
3831.92014,0.00096
3829.85997,0.00087
3827.79979,0.00095
3825.73962,0.00093
3823.67945,0.00144
3821.61928,0.00244
3819.55910,0.00158
3817.49893,0.00148
3815.43876,0.00194
3813.37859,0.00090
3811.31842,0.00022
3809.25824,0.00071
3807.19807,0.00115
3805.13790,0.00040
3803.07773,0.00094
3801.01756,0.00181
3798.95738,0.00144
3796.89721,0.00185
3794.83704,0.00196
3792.77687,0.00168
3790.71670,0.00167
3788.65652,0.00184
3786.59635,0.00209
3784.53618,0.00174
3782.47601,0.00115
3780.41583,0.00152
3778.35566,0.00169
3776.29549,0.00113
3774.23532,0.00087
3772.17515,0.00123
3770.11497,0.00154
3768.05480,0.00129
3765.99463,0.00145
3763.93446,0.00149
3761.87429,0.00173
3759.81411,0.00227
3757.75394,0.00192
3755.69377,0.00142
3753.63360,0.00214
3751.57342,0.00290
3749.51325,0.00141
3747.45308,0.00045
3745.39291,0.00247
3743.33274,0.00267
3741.27256,0.00084
3739.21239,0.00084
3737.15222,0.00212
3735.09205,0.00239
3733.03188,0.00145
3730.97170,0.00043
3728.91153,0.00034
3726.85136,0.00136
3724.79119,0.00190
3722.73102,0.00188
3720.67084,0.00180
3718.61067,0.00168
3716.55050,0.00140
3714.49033,0.00154
3712.43015,0.00205
3710.36998,0.00169
3708.30981,0.00096
3706.24964,0.00090
3704.18947,0.00180
3702.12929,0.00266
3700.06912,0.00217
3698.00895,0.00150
3695.94878,0.00132
3693.88861,0.00130
3691.82843,0.00195
3689.76826,0.00266
3687.70809,0.00205
3685.64792,0.00121
3683.58775,0.00120
3681.52757,0.00120
3679.46740,0.00105
3677.40723,0.00162
3675.34706,0.00157
3673.28688,0.00008
3671.22671,0.00101
3669.16654,0.00214
3667.10637,0.00142
3665.04620,0.00136
3662.98602,0.00179
3660.92585,0.00175
3658.86568,0.00186
3656.80551,0.00222
3654.74534,0.00166
3652.68516,0.00186
3650.62499,0.00333
3648.56482,0.00342
3646.50465,0.00228
3644.44447,0.00172
3642.38430,0.00212
3640.32413,0.00265
3638.26396,0.00305
3636.20379,0.00336
3634.14361,0.00340
3632.08344,0.00360
3630.02327,0.00502
3627.96310,0.00513
3625.90293,0.00350
3623.84275,0.00310
3621.78258,0.00402
3619.72241,0.00477
3617.66224,0.00420
3615.60207,0.00373
3613.54189,0.00413
3611.48172,0.00464
3609.42155,0.00552
3607.36138,0.00585
3605.30120,0.00526
3603.24103,0.00518
3601.18086,0.00562
3599.12069,0.00574
3597.06052,0.00592
3595.00034,0.00619
3592.94017,0.00582
3590.88000,0.00567
3588.81983,0.00677
3586.75966,0.00762
3584.69948,0.00738
3582.63931,0.00727
3580.57914,0.00740
3578.51897,0.00739
3576.45879,0.00743
3574.39862,0.00749
3572.33845,0.00744
3570.27828,0.00787
3568.21811,0.00901
3566.15793,0.00946
3564.09776,0.00900
3562.03759,0.00892
3559.97742,0.00913
3557.91725,0.00927
3555.85707,0.00955
3553.79690,0.00992
3551.73673,0.01000
3549.67656,0.00998
3547.61639,0.01032
3545.55621,0.01047
3543.49604,0.01019
3541.43587,0.01011
3539.37570,0.01047
3537.31552,0.01102
3535.25535,0.01123
3533.19518,0.01114
3531.13501,0.01113
3529.07484,0.01121
3527.01466,0.01135
3524.95449,0.01171
3522.89432,0.01213
3520.83415,0.01229
3518.77398,0.01230
3516.71380,0.01226
3514.65363,0.01237
3512.59346,0.01272
3510.53329,0.01326
3508.47312,0.01358
3506.41294,0.01351
3504.35277,0.01359
3502.29260,0.01377
3500.23243,0.01393
3498.17225,0.01421
3496.11208,0.01440
3494.05191,0.01445
3491.99174,0.01462
3489.93157,0.01496
3487.87139,0.01517
3485.81122,0.01514
3483.75105,0.01534
3481.69088,0.01572
3479.63071,0.01564
3477.57053,0.01540
3475.51036,0.01551
3473.45019,0.01596
3471.39002,0.01638
3469.32984,0.01653
3467.26967,0.01663
3465.20950,0.01675
3463.14933,0.01685
3461.08916,0.01696
3459.02898,0.01703
3456.96881,0.01698
3454.90864,0.01702
3452.84847,0.01721
3450.78830,0.01730
3448.72812,0.01756
3446.66795,0.01788
3444.60778,0.01803
3442.54761,0.01829
3440.48744,0.01831
3438.42726,0.01820
3436.36709,0.01827
3434.30692,0.01836
3432.24675,0.01848
3430.18657,0.01865
3428.12640,0.01869
3426.06623,0.01864
3424.00606,0.01873
3421.94589,0.01914
3419.88571,0.01951
3417.82554,0.01964
3415.76537,0.01977
3413.70520,0.01987
3411.64503,0.01984
3409.58485,0.01980
3407.52468,0.01989
3405.46451,0.02008
3403.40434,0.02018
3401.34416,0.02017
3399.28399,0.02040
3397.22382,0.02071
3395.16365,0.02081
3393.10348,0.02083
3391.04330,0.02080
3388.98313,0.02079
3386.92296,0.02099
3384.86279,0.02131
3382.80262,0.02150
3380.74244,0.02160
3378.68227,0.02169
3376.62210,0.02174
3374.56193,0.02187
3372.50176,0.02207
3370.44158,0.02208
3368.38141,0.02185
3366.32124,0.02167
3364.26107,0.02188
3362.20089,0.02227
3360.14072,0.02237
3358.08055,0.02234
3356.02038,0.02249
3353.96021,0.02269
3351.90003,0.02279
3349.83986,0.02273
3347.77969,0.02259
3345.71952,0.02265
3343.65935,0.02295
3341.59917,0.02319
3339.53900,0.02319
3337.47883,0.02299
3335.41866,0.02278
3333.35849,0.02274
3331.29831,0.02282
3329.23814,0.02291
3327.17797,0.02294
3325.11780,0.02280
3323.05762,0.02264
3320.99745,0.02266
3318.93728,0.02272
3316.87711,0.02268
3314.81694,0.02270
3312.75676,0.02280
3310.69659,0.02291
3308.63642,0.02318
3306.57625,0.02346
3304.51608,0.02340
3302.45590,0.02320
3300.39573,0.02321
3298.33556,0.02320
3296.27539,0.02305
3294.21521,0.02308
3292.15504,0.02333
3290.09487,0.02343
3288.03470,0.02342
3285.97453,0.02343
3283.91435,0.02333
3281.85418,0.02321
3279.79401,0.02322
3277.73384,0.02321
3275.67367,0.02308
3273.61349,0.02306
3271.55332,0.02309
3269.49315,0.02313
3267.43298,0.02325
3265.37281,0.02324
3263.31263,0.02302
3261.25246,0.02280
3259.19229,0.02271
3257.13212,0.02286
3255.07194,0.02309
3253.01177,0.02302
3250.95160,0.02264
3248.89143,0.02219
3246.83126,0.02198
3244.77108,0.02223
3242.71091,0.02264
3240.65074,0.02276
3238.59057,0.02260
3236.53040,0.02246
3234.47022,0.02234
3232.41005,0.02215
3230.34988,0.02204
3228.28971,0.02203
3226.22954,0.02195
3224.16936,0.02182
3222.10919,0.02185
3220.04902,0.02194
3217.98885,0.02186
3215.92867,0.02174
3213.86850,0.02158
3211.80833,0.02126
3209.74816,0.02102
3207.68799,0.02088
3205.62781,0.02073
3203.56764,0.02054
3201.50747,0.02050
3199.44730,0.02075
3197.38713,0.02095
3195.32695,0.02088
3193.26678,0.02069
3191.20661,0.02039
3189.14644,0.02004
3187.08626,0.01978
3185.02609,0.01965
3182.96592,0.01955
3180.90575,0.01940
3178.84558,0.01939
3176.78540,0.01939
3174.72523,0.01923
3172.66506,0.01908
3170.60489,0.01889
3168.54472,0.01863
3166.48454,0.01857
3164.42437,0.01865
3162.36420,0.01862
3160.30403,0.01848
3158.24386,0.01827
3156.18368,0.01797
3154.12351,0.01771
3152.06334,0.01761
3150.00317,0.01753
3147.94299,0.01722
3145.88282,0.01674
3143.82265,0.01637
3141.76248,0.01625
3139.70231,0.01627
3137.64213,0.01628
3135.58196,0.01616
3133.52179,0.01596
3131.46162,0.01575
3129.40145,0.01553
3127.34127,0.01533
3125.28110,0.01525
3123.22093,0.01533
3121.16076,0.01532
3119.10058,0.01516
3117.04041,0.01507
3114.98024,0.01502
3112.92007,0.01493
3110.85990,0.01478
3108.79972,0.01451
3106.73955,0.01423
3104.67938,0.01408
3102.61921,0.01396
3100.55904,0.01376
3098.49886,0.01354
3096.43869,0.01338
3094.37852,0.01321
3092.31835,0.01303
3090.25818,0.01286
3088.19800,0.01272
3086.13783,0.01261
3084.07766,0.01246
3082.01749,0.01228
3079.95731,0.01208
3077.89714,0.01198
3075.83697,0.01196
3073.77680,0.01182
3071.71663,0.01171
3069.65645,0.01182
3067.59628,0.01199
3065.53611,0.01182
3063.47594,0.01132
3061.41577,0.01112
3059.35559,0.01121
3057.29542,0.01114
3055.23525,0.01091
3053.17508,0.01072
3051.11491,0.01058
3049.05473,0.01051
3046.99456,0.01050
3044.93439,0.01040
3042.87422,0.01020
3040.81404,0.01007
3038.75387,0.01016
3036.69370,0.01029
3034.63353,0.01019
3032.57336,0.01000
3030.51318,0.00990
3028.45301,0.00980
3026.39284,0.00961
3024.33267,0.00942
3022.27250,0.00938
3020.21232,0.00934
3018.15215,0.00927
3016.09198,0.00926
3014.03181,0.00917
3011.97163,0.00892
3009.91146,0.00875
3007.85129,0.00880
3005.79112,0.00885
3003.73095,0.00870
3001.67077,0.00857
2999.61060,0.00866
2997.55043,0.00881
2995.49026,0.00884
2993.43009,0.00881
2991.36991,0.00884
2989.30974,0.00893
2987.24957,0.00902
2985.18940,0.00904
2983.12923,0.00893
2981.06905,0.00894
2979.00888,0.00918
2976.94871,0.00936
2974.88854,0.00938
2972.82836,0.00947
2970.76819,0.00962
2968.70802,0.00963
2966.64785,0.00963
2964.58768,0.00989
2962.52750,0.01035
2960.46733,0.01078
2958.40716,0.01105
2956.34699,0.01117
2954.28682,0.01128
2952.22664,0.01144
2950.16647,0.01158
2948.10630,0.01172
2946.04613,0.01201
2943.98596,0.01234
2941.92578,0.01253
2939.86561,0.01256
2937.80544,0.01250
2935.74527,0.01254
2933.68509,0.01272
2931.62492,0.01278
2929.56475,0.01266
2927.50458,0.01255
2925.44441,0.01259
2923.38423,0.01279
2921.32406,0.01289
2919.26389,0.01270
2917.20372,0.01241
2915.14355,0.01222
2913.08337,0.01207
2911.02320,0.01188
2908.96303,0.01172
2906.90286,0.01164
2904.84268,0.01159
2902.78251,0.01152
2900.72234,0.01150
2898.66217,0.01151
2896.60200,0.01145
2894.54182,0.01127
2892.48165,0.01108
2890.42148,0.01099
2888.36131,0.01095
2886.30114,0.01084
2884.24096,0.01076
2882.18079,0.01089
2880.12062,0.01100
2878.06045,0.01092
2876.00028,0.01070
2873.94010,0.01042
2871.87993,0.01019
2869.81976,0.01006
2867.75959,0.00997
2865.69941,0.00983
2863.63924,0.00967
2861.57907,0.00958
2859.51890,0.00956
2857.45873,0.00961
2855.39855,0.00962
2853.33838,0.00955
2851.27821,0.00949
2849.21804,0.00938
2847.15787,0.00919
2845.09769,0.00893
2843.03752,0.00868
2840.97735,0.00861
2838.91718,0.00854
2836.85700,0.00819
2834.79683,0.00787
2832.73666,0.00786
2830.67649,0.00799
2828.61632,0.00801
2826.55614,0.00780
2824.49597,0.00754
2822.43580,0.00742
2820.37563,0.00745
2818.31546,0.00736
2816.25528,0.00717
2814.19511,0.00716
2812.13494,0.00735
2810.07477,0.00745
2808.01460,0.00734
2805.95442,0.00726
2803.89425,0.00733
2801.83408,0.00740
2799.77391,0.00737
2797.71373,0.00729
2795.65356,0.00715
2793.59339,0.00700
2791.53322,0.00701
2789.47305,0.00703
2787.41287,0.00696
2785.35270,0.00701
2783.29253,0.00717
2781.23236,0.00715
2779.17219,0.00686
2777.11201,0.00656
2775.05184,0.00653
2772.99167,0.00672
2770.93150,0.00692
2768.87133,0.00711
2766.81115,0.00718
2764.75098,0.00695
2762.69081,0.00669
2760.63064,0.00654
2758.57046,0.00642
2756.51029,0.00636
2754.45012,0.00632
2752.38995,0.00630
2750.32978,0.00644
2748.26960,0.00666
2746.20943,0.00681
2744.14926,0.00680
2742.08909,0.00660
2740.02892,0.00640
2737.96874,0.00647
2735.90857,0.00656
2733.84840,0.00643
2731.78823,0.00640
2729.72805,0.00661
2727.66788,0.00671
2725.60771,0.00656
2723.54754,0.00634
2721.48737,0.00622
2719.42719,0.00619
2717.36702,0.00620
2715.30685,0.00617
2713.24668,0.00606
2711.18651,0.00592
2709.12633,0.00590
2707.06616,0.00603
2705.00599,0.00617
2702.94582,0.00614
2700.88565,0.00607
2698.82547,0.00618
2696.76530,0.00623
2694.70513,0.00606
2692.64496,0.00591
2690.58478,0.00584
2688.52461,0.00580
2686.46444,0.00586
2684.40427,0.00600
2682.34410,0.00603
2680.28392,0.00591
2678.22375,0.00576
2676.16358,0.00576
2674.10341,0.00580
2672.04324,0.00580
2669.98306,0.00582
2667.92289,0.00579
2665.86272,0.00568
2663.80255,0.00567
2661.74238,0.00568
2659.68220,0.00558
2657.62203,0.00552
2655.56186,0.00566
2653.50169,0.00579
2651.44151,0.00573
2649.38134,0.00559
2647.32117,0.00550
2645.26100,0.00549
2643.20083,0.00558
2641.14065,0.00574
2639.08048,0.00593
2637.02031,0.00599
2634.96014,0.00572
2632.89997,0.00539
2630.83979,0.00538
2628.77962,0.00549
2626.71945,0.00546
2624.65928,0.00530
2622.59910,0.00512
2620.53893,0.00514
2618.47876,0.00523
2616.41859,0.00510
2614.35842,0.00499
2612.29824,0.00519
2610.23807,0.00547
2608.17790,0.00541
2606.11773,0.00507
2604.05756,0.00497
2601.99738,0.00516
2599.93721,0.00516
2597.87704,0.00495
2595.81687,0.00498
2593.75670,0.00531
2591.69652,0.00546
2589.63635,0.00511
2587.57618,0.00455
2585.51601,0.00417
2583.45583,0.00411
2581.39566,0.00445
2579.33549,0.00492
2577.27532,0.00491
2575.21515,0.00450
2573.15497,0.00431
2571.09480,0.00436
2569.03463,0.00443
2566.97446,0.00450
2564.91429,0.00449
2562.85411,0.00438
2560.79394,0.00436
2558.73377,0.00460
2556.67360,0.00466
2554.61342,0.00437
2552.55325,0.00420
2550.49308,0.00427
2548.43291,0.00431
2546.37274,0.00428
2544.31256,0.00435
2542.25239,0.00443
2540.19222,0.00437
2538.13205,0.00432
2536.07188,0.00437
2534.01170,0.00441
2531.95153,0.00437
2529.89136,0.00428
2527.83119,0.00426
2525.77102,0.00441
2523.71084,0.00450
2521.65067,0.00437
2519.59050,0.00429
2517.53033,0.00440
2515.47015,0.00466
2513.40998,0.00491
2511.34981,0.00481
2509.28964,0.00433
2507.22947,0.00389
2505.16929,0.00380
2503.10912,0.00401
2501.04895,0.00424
2498.98878,0.00431
2496.92861,0.00417
2494.86843,0.00390
2492.80826,0.00365
2490.74809,0.00367
2488.68792,0.00402
2486.62775,0.00439
2484.56757,0.00444
2482.50740,0.00438
2480.44723,0.00439
2478.38706,0.00429
2476.32688,0.00406
2474.26671,0.00387
2472.20654,0.00397
2470.14637,0.00424
2468.08620,0.00431
2466.02602,0.00425
2463.96585,0.00430
2461.90568,0.00439
2459.84551,0.00453
2457.78534,0.00464
2455.72516,0.00458
2453.66499,0.00438
2451.60482,0.00438
2449.54465,0.00472
2447.48447,0.00489
2445.42430,0.00460
2443.36413,0.00422
2441.30396,0.00394
2439.24379,0.00370
2437.18361,0.00361
2435.12344,0.00370
2433.06327,0.00394
2431.00310,0.00419
2428.94293,0.00423
2426.88275,0.00409
2424.82258,0.00383
2422.76241,0.00375
2420.70224,0.00400
2418.64207,0.00411
2416.58189,0.00401
2414.52172,0.00397
2412.46155,0.00385
2410.40138,0.00380
2408.34120,0.00410
2406.28103,0.00439
2404.22086,0.00425
2402.16069,0.00386
2400.10052,0.00360
2398.04034,0.00344
2395.98017,0.00352
2393.92000,0.00368
2391.85983,0.00378
2389.79966,0.00376
2387.73948,0.00369
2385.67931,0.00370
2383.61914,0.00380
2381.55897,0.00401
2379.49880,0.00418
2377.43862,0.00406
2375.37845,0.00382
2373.31828,0.00351
2371.25811,0.00320
2369.19793,0.00323
2367.13776,0.00328
2365.07759,0.00280
2363.01742,0.00239
2360.95725,0.00158
2358.89707,0.00149
2356.83690,0.00240
2354.77673,0.00331
2352.71656,0.00345
2350.65639,0.00263
2348.59621,0.00233
2346.53604,0.00344
2344.47587,0.00230
2342.41570,0.00029
2340.35552,0.00000
2338.29535,0.00127
2336.23518,0.00225
2334.17501,0.00229
2332.11484,0.00259
2330.05466,0.00315
2327.99449,0.00370
2325.93432,0.00397
2323.87415,0.00425
2321.81398,0.00417
2319.75380,0.00410
2317.69363,0.00368
2315.63346,0.00356
2313.57329,0.00390
2311.51312,0.00417
2309.45294,0.00415
2307.39277,0.00399
2305.33260,0.00399
2303.27243,0.00414
2301.21225,0.00432
2299.15208,0.00441
2297.09191,0.00442
2295.03174,0.00434
2292.97157,0.00411
2290.91139,0.00383
2288.85122,0.00374
2286.79105,0.00379
2284.73088,0.00375
2282.67071,0.00352
2280.61053,0.00325
2278.55036,0.00320
2276.49019,0.00338
2274.43002,0.00358
2272.36984,0.00384
2270.30967,0.00407
2268.24950,0.00402
2266.18933,0.00389
2264.12916,0.00395
2262.06898,0.00418
2260.00881,0.00427
2257.94864,0.00398
2255.88847,0.00328
2253.82830,0.00249
2251.76812,0.00224
2249.70795,0.00273
2247.64778,0.00343
2245.58761,0.00359
2243.52744,0.00358
2241.46726,0.00405
2239.40709,0.00437
2237.34692,0.00410
2235.28675,0.00382
2233.22657,0.00379
2231.16640,0.00359
2229.10623,0.00324
2227.04606,0.00305
2224.98589,0.00305
2222.92571,0.00356
2220.86554,0.00440
2218.80537,0.00460
2216.74520,0.00409
2214.68503,0.00362
2212.62485,0.00357
2210.56468,0.00374
2208.50451,0.00408
2206.44434,0.00437
2204.38417,0.00437
2202.32399,0.00454
2200.26382,0.00487
2198.20365,0.00462
2196.14348,0.00450
2194.08330,0.00513
2192.02313,0.00514
2189.96296,0.00422
2187.90279,0.00365
2185.84262,0.00334
2183.78244,0.00269
2181.72227,0.00272
2179.66210,0.00362
2177.60193,0.00414
2175.54176,0.00412
2173.48158,0.00366
2171.42141,0.00287
2169.36124,0.00254
2167.30107,0.00265
2165.24089,0.00233
2163.18072,0.00198
2161.12055,0.00206
2159.06038,0.00144
2157.00021,0.00026
2154.94003,0.00000
2152.87986,0.00069
2150.81969,0.00088
2148.75952,0.00055
2146.69935,0.00134
2144.63917,0.00264
2142.57900,0.00297
2140.51883,0.00308
2138.45866,0.00362
2136.39849,0.00387
2134.33831,0.00325
2132.27814,0.00244
2130.21797,0.00253
2128.15780,0.00315
2126.09762,0.00351
2124.03745,0.00353
2121.97728,0.00334
2119.91711,0.00328
2117.85694,0.00320
2115.79676,0.00268
2113.73659,0.00216
2111.67642,0.00235
2109.61625,0.00308
2107.55608,0.00362
2105.49590,0.00384
2103.43573,0.00393
2101.37556,0.00392
2099.31539,0.00368
2097.25521,0.00293
2095.19504,0.00221
2093.13487,0.00260
2091.07470,0.00351
2089.01453,0.00369
2086.95435,0.00355
2084.89418,0.00349
2082.83401,0.00319
2080.77384,0.00311
2078.71367,0.00334
2076.65349,0.00327
2074.59332,0.00293
2072.53315,0.00289
2070.47298,0.00307
2068.41281,0.00308
2066.35263,0.00307
2064.29246,0.00332
2062.23229,0.00348
2060.17212,0.00310
2058.11194,0.00281
2056.05177,0.00328
2053.99160,0.00389
2051.93143,0.00404
2049.87126,0.00378
2047.81108,0.00357
2045.75091,0.00354
2043.69074,0.00313
2041.63057,0.00229
2039.57040,0.00147
2037.51022,0.00151
2035.45005,0.00290
2033.38988,0.00389
2031.32971,0.00294
2029.26954,0.00131
2027.20936,0.00051
2025.14919,0.00102
2023.08902,0.00232
2021.02885,0.00294
2018.96867,0.00271
2016.90850,0.00265
2014.84833,0.00251
2012.78816,0.00226
2010.72799,0.00266
2008.66781,0.00346
2006.60764,0.00367
2004.54747,0.00302
2002.48730,0.00207
2000.42713,0.00164
1998.36695,0.00142
1996.30678,0.00056
1994.24661,0.00018
1992.18644,0.00139
1990.12626,0.00242
1988.06609,0.00205
1986.00592,0.00155
1983.94575,0.00204
1981.88558,0.00254
1979.82540,0.00223
1977.76523,0.00187
1975.70506,0.00186
1973.64489,0.00206
1971.58472,0.00218
1969.52454,0.00214
1967.46437,0.00241
1965.40420,0.00269
1963.34403,0.00260
1961.28386,0.00173
1959.22368,0.00040
1957.16351,0.00000
1955.10334,0.00051
1953.04317,0.00102
1950.98299,0.00142
1948.92282,0.00183
1946.86265,0.00181
1944.80248,0.00130
1942.74231,0.00079
1940.68213,0.00037
1938.62196,0.00056
1936.56179,0.00130
1934.50162,0.00194
1932.44145,0.00215
1930.38127,0.00199
1928.32110,0.00183
1926.26093,0.00195
1924.20076,0.00216
1922.14059,0.00171
1920.08041,0.00123
1918.02024,0.00136
1915.96007,0.00106
1913.89990,0.00088
1911.83972,0.00135
1909.77955,0.00198
1907.71938,0.00205
1905.65921,0.00166
1903.59904,0.00158
1901.53886,0.00179
1899.47869,0.00177
1897.41852,0.00163
1895.35835,0.00147
1893.29818,0.00112
1891.23800,0.00108
1889.17783,0.00117
1887.11766,0.00112
1885.05749,0.00142
1882.99731,0.00158
1880.93714,0.00141
1878.87697,0.00132
1876.81680,0.00130
1874.75663,0.00111
1872.69645,0.00093
1870.63628,0.00126
1868.57611,0.00153
1866.51594,0.00114
1864.45577,0.00092
1862.39559,0.00124
1860.33542,0.00158
1858.27525,0.00152
1856.21508,0.00112
1854.15491,0.00086
1852.09473,0.00085
1850.03456,0.00084
1847.97439,0.00071
1845.91422,0.00099
1843.85404,0.00134
1841.79387,0.00084
1839.73370,0.00076
1837.67353,0.00115
1835.61336,0.00096
1833.55318,0.00060
1831.49301,0.00099
1829.43284,0.00128
1827.37267,0.00102
1825.31250,0.00122
1823.25232,0.00113
1821.19215,0.00081
1819.13198,0.00089
1817.07181,0.00097
1815.01163,0.00073
1812.95146,0.00066
1810.89129,0.00085
1808.83112,0.00077
1806.77095,0.00066
1804.71077,0.00091
1802.65060,0.00150
1800.59043,0.00173
1798.53026,0.00115
1796.47009,0.00058
1794.40991,0.00088
1792.34974,0.00142
1790.28957,0.00080
1788.22940,0.00020
1786.16923,0.00062
1784.10905,0.00098
1782.04888,0.00105
1779.98871,0.00100
1777.92854,0.00053
1775.86836,0.00038
1773.80819,0.00114
1771.74802,0.00167
1769.68785,0.00140
1767.62768,0.00130
1765.56750,0.00115
1763.50733,0.00158
1761.44716,0.00195
1759.38699,0.00173
1757.32682,0.00215
1755.26664,0.00247
1753.20647,0.00308
1751.14630,0.00422
1749.08613,0.00438
1747.02596,0.00392
1744.96578,0.00380
1742.90561,0.00405
1740.84544,0.00449
1738.78527,0.00425
1736.72509,0.00434
1734.66492,0.00590
1732.60475,0.00566
1730.54458,0.00465
1728.48441,0.00466
1726.42423,0.00487
1724.36406,0.00488
1722.30389,0.00423
1720.24372,0.00423
1718.18355,0.00526
1716.12337,0.00490
1714.06320,0.00361
1712.00303,0.00289
1709.94286,0.00280
1707.88268,0.00308
1705.82251,0.00292
1703.76234,0.00191
1701.70217,0.00245
1699.64200,0.00312
1697.58182,0.00272
1695.52165,0.00301
1693.46148,0.00248
1691.40131,0.00254
1689.34114,0.00276
1687.28096,0.00277
1685.22079,0.00427
1683.16062,0.00454
1681.10045,0.00325
1679.04028,0.00316
1676.98010,0.00434
1674.91993,0.00502
1672.85976,0.00469
1670.79959,0.00584
1668.73941,0.00664
1666.67924,0.00584
1664.61907,0.00636
1662.55890,0.00766
1660.49873,0.00742
1658.43855,0.00664
1656.37838,0.00723
1654.31821,0.00962
1652.25804,0.00916
1650.19787,0.00681
1648.13769,0.00833
1646.07752,0.01008
1644.01735,0.00924
1641.95718,0.00860
1639.89701,0.00878
1637.83683,0.01007
1635.77666,0.01153
1633.71649,0.01045
1631.65632,0.00938
1629.59614,0.00993
1627.53597,0.01027
1625.47580,0.01034
1623.41563,0.01056
1621.35546,0.00976
1619.29528,0.00988
1617.23511,0.01128
1615.17494,0.01080
1613.11477,0.00982
1611.05460,0.01013
1608.99442,0.01047
1606.93425,0.01019
1604.87408,0.00976
1602.81391,0.00944
1600.75373,0.00898
1598.69356,0.00847
1596.63339,0.00813
1594.57322,0.00780
1592.51305,0.00736
1590.45287,0.00695
1588.39270,0.00658
1586.33253,0.00621
1584.27236,0.00581
1582.21219,0.00506
1580.15201,0.00419
1578.09184,0.00449
1576.03167,0.00480
1573.97150,0.00315
1571.91133,0.00268
1569.85115,0.00363
1567.79098,0.00316
1565.73081,0.00227
1563.67064,0.00139
1561.61046,0.00198
1559.55029,0.00442
1557.49012,0.00311
1555.42995,0.00120
1553.36978,0.00125
1551.30960,0.00180
1549.24943,0.00192
1547.18926,0.00153
1545.12909,0.00157
1543.06892,0.00191
1541.00874,0.00280
1538.94857,0.00199
1536.88840,0.00000
1534.82823,0.00065
1532.76805,0.00151
1530.70788,0.00072
1528.64771,0.00076
1526.58754,0.00116
1524.52737,0.00124
1522.46719,0.00210
1520.40702,0.00199
1518.34685,0.00128
1516.28668,0.00131
1514.22651,0.00091
1512.16633,0.00055
1510.10616,0.00094
1508.04599,0.00267
1505.98582,0.00268
1503.92565,0.00049
1501.86547,0.00012
1499.80530,0.00134
1497.74513,0.00215
1495.68496,0.00143
1493.62478,0.00051
1491.56461,0.00147
1489.50444,0.00269
1487.44427,0.00229
1485.38410,0.00160
1483.32392,0.00175
1481.26375,0.00219
1479.20358,0.00220
1477.14341,0.00250
1475.08324,0.00343
1473.02306,0.00449
1470.96289,0.00407
1468.90272,0.00344
1466.84255,0.00448
1464.78238,0.00539
1462.72220,0.00454
1460.66203,0.00444
1458.60186,0.00644
1456.54169,0.00723
1454.48151,0.00558
1452.42134,0.00500
1450.36117,0.00574
1448.30100,0.00657
1446.24083,0.00664
1444.18065,0.00636
1442.12048,0.00617
1440.06031,0.00622
1438.00014,0.00733
1435.93997,0.00789
1433.87979,0.00711
1431.81962,0.00729
1429.75945,0.00794
1427.69928,0.00794
1425.63910,0.00810
1423.57893,0.00820
1421.51876,0.00847
1419.45859,0.00946
1417.39842,0.00933
1415.33824,0.00876
1413.27807,0.00892
1411.21790,0.00904
1409.15773,0.00875
1407.09756,0.00869
1405.03738,0.00871
1402.97721,0.00806
1400.91704,0.00776
1398.85687,0.00793
1396.79670,0.00790
1394.73652,0.00785
1392.67635,0.00723
1390.61618,0.00689
1388.55601,0.00744
1386.49583,0.00768
1384.43566,0.00742
1382.37549,0.00755
1380.31532,0.00780
1378.25515,0.00784
1376.19497,0.00812
1374.13480,0.00850
1372.07463,0.00833
1370.01446,0.00826
1367.95429,0.00828
1365.89411,0.00821
1363.83394,0.00862
1361.77377,0.00869
1359.71360,0.00806
1357.65343,0.00775
1355.59325,0.00792
1353.53308,0.00799
1351.47291,0.00782
1349.41274,0.00763
1347.35256,0.00745
1345.29239,0.00723
1343.23222,0.00705
1341.17205,0.00716
1339.11188,0.00730
1337.05170,0.00711
1334.99153,0.00700
1332.93136,0.00706
1330.87119,0.00709
1328.81102,0.00706
1326.75084,0.00708
1324.69067,0.00711
1322.63050,0.00710
1320.57033,0.00719
1318.51015,0.00733
1316.44998,0.00737
1314.38981,0.00743
1312.32964,0.00738
1310.26947,0.00720
1308.20929,0.00706
1306.14912,0.00691
1304.08895,0.00679
1302.02878,0.00666
1299.96861,0.00648
1297.90843,0.00633
1295.84826,0.00612
1293.78809,0.00583
1291.72792,0.00567
1289.66775,0.00565
1287.60757,0.00554
1285.54740,0.00536
1283.48723,0.00536
1281.42706,0.00552
1279.36688,0.00568
1277.30671,0.00585
1275.24654,0.00600
1273.18637,0.00615
1271.12620,0.00635
1269.06602,0.00659
1267.00585,0.00687
1264.94568,0.00714
1262.88551,0.00744
1260.82534,0.00777
1258.76516,0.00797
1256.70499,0.00821
1254.64482,0.00855
1252.58465,0.00862
1250.52447,0.00844
1248.46430,0.00842
1246.40413,0.00869
1244.34396,0.00889
1242.28379,0.00878
1240.22361,0.00841
1238.16344,0.00809
1236.10327,0.00792
1234.04310,0.00769
1231.98293,0.00733
1229.92275,0.00693
1227.86258,0.00653
1225.80241,0.00619
1223.74224,0.00598
1221.68207,0.00588
1219.62189,0.00577
1217.56172,0.00549
1215.50155,0.00504
1213.44138,0.00458
1211.38120,0.00407
1209.32103,0.00351
1207.26086,0.00306
1205.20069,0.00267
1203.14052,0.00223
1201.08034,0.00181
1199.02017,0.00139
1196.96000,0.00092
1194.89983,0.00046
1192.83966,0.00016
1190.77948,0.00005
1188.71931,0.00000
1186.65914,-0.00005
1184.59897,-0.00001
1182.53880,0.00017
1180.47862,0.00052
1178.41845,0.00093
1176.35828,0.00134
1174.29811,0.00183
1172.23793,0.00246
1170.17776,0.00317
1168.11759,0.00390
1166.05742,0.00460
1163.99725,0.00515
1161.93707,0.00561
1159.87690,0.00609
1157.81673,0.00653
1155.75656,0.00703
1153.69639,0.00758
1151.63621,0.00798
1149.57604,0.00830
1147.51587,0.00867
1145.45570,0.00892
1143.39552,0.00897
1141.33535,0.00895
1139.27518,0.00897
1137.21501,0.00912
1135.15484,0.00948
1133.09466,0.00997
1131.03449,0.01040
1128.97432,0.01073
1126.91415,0.01108
1124.85398,0.01160
1122.79380,0.01223
1120.73363,0.01277
1118.67346,0.01324
1116.61329,0.01373
1114.55312,0.01412
1112.49294,0.01435
1110.43277,0.01467
1108.37260,0.01516
1106.31243,0.01571
1104.25225,0.01629
1102.19208,0.01686
1100.13191,0.01746
1098.07174,0.01824
1096.01157,0.01911
1093.95139,0.01990
1091.89122,0.02058
1089.83105,0.02122
1087.77088,0.02183
1085.71071,0.02237
1083.65053,0.02287
1081.59036,0.02340
1079.53019,0.02402
1077.47002,0.02471
1075.40985,0.02545
1073.34967,0.02613
1071.28950,0.02649
1069.22933,0.02670
1067.16916,0.02710
1065.10898,0.02768
1063.04881,0.02808
1060.98864,0.02817
1058.92847,0.02837
1056.86830,0.02876
1054.80812,0.02919
1052.74795,0.02961
1050.68778,0.03002
1048.62761,0.03048
1046.56744,0.03100
1044.50726,0.03165
1042.44709,0.03228
1040.38692,0.03259
1038.32675,0.03272
1036.26657,0.03297
1034.20640,0.03321
1032.14623,0.03326
1030.08606,0.03334
1028.02589,0.03354
1025.96571,0.03364
1023.90554,0.03362
1021.84537,0.03364
1019.78520,0.03368
1017.72503,0.03367
1015.66485,0.03365
1013.60468,0.03367
1011.54451,0.03363
1009.48434,0.03356
1007.42417,0.03342
1005.36399,0.03300
1003.30382,0.03243
1001.24365,0.03198
999.18348,0.03173
997.12330,0.03157
995.06313,0.03126
993.00296,0.03065
990.94279,0.02993
988.88262,0.02939
986.82244,0.02892
984.76227,0.02847
982.70210,0.02806
980.64193,0.02767
978.58176,0.02739
976.52158,0.02717
974.46141,0.02672
972.40124,0.02616
970.34107,0.02570
968.28089,0.02526
966.22072,0.02469
964.16055,0.02411
962.10038,0.02370
960.04021,0.02336
957.98003,0.02292
955.91986,0.02240
953.85969,0.02168
951.79952,0.02080
949.73935,0.02010
947.67917,0.01967
945.61900,0.01905
943.55883,0.01800
941.49866,0.01680
939.43849,0.01568
937.37831,0.01458
935.31814,0.01339
933.25797,0.01209
931.19780,0.01085
929.13762,0.00982
927.07745,0.00909
925.01728,0.00858
922.95711,0.00795
920.89694,0.00715
918.83676,0.00633
916.77659,0.00565
914.71642,0.00534
912.65625,0.00524
910.59608,0.00499
908.53590,0.00463
906.47573,0.00441
904.41556,0.00446
902.35539,0.00481
900.29522,0.00510
898.23504,0.00514
896.17487,0.00535
894.11470,0.00558
892.05453,0.00558
889.99435,0.00560
887.93418,0.00558
885.87401,0.00521
883.81384,0.00467
881.75367,0.00440
879.69349,0.00426
877.63332,0.00393
875.57315,0.00358
873.51298,0.00335
871.45281,0.00315
869.39263,0.00302
867.33246,0.00306
865.27229,0.00318
863.21212,0.00318
861.15194,0.00315
859.09177,0.00308
857.03160,0.00267
854.97143,0.00225
852.91126,0.00247
850.85108,0.00286
848.79091,0.00266
846.73074,0.00222
844.67057,0.00196
842.61040,0.00167
840.55022,0.00127
838.49005,0.00074
836.42988,0.00030
834.36971,0.00034
832.30954,0.00057
830.24936,0.00054
828.18919,0.00037
826.12902,0.00027
824.06885,0.00025
822.00867,0.00014
819.94850,-0.00006
817.88833,-0.00010
815.82816,0.00007
813.76799,0.00036
811.70781,0.00060
809.64764,0.00063
807.58747,0.00062
805.52730,0.00077
803.46713,0.00074
801.40695,0.00028
799.34678,0.00000
797.28661,-0.00007
795.22644,-0.00021
793.16627,-0.00032
791.10609,-0.00027
789.04592,0.00006
786.98575,0.00038
784.92558,0.00016
782.86540,-0.00026
780.80523,-0.00021
778.74506,0.00038
776.68489,0.00077
774.62472,0.00059
772.56454,0.00040
770.50437,0.00049
768.44420,0.00068
766.38403,0.00088
764.32386,0.00086
762.26368,0.00048
760.20351,0.00009
758.14334,-0.00008
756.08317,-0.00007
754.02299,0.00023
751.96282,0.00061
749.90265,0.00074
747.84248,0.00064
745.78231,0.00068
743.72213,0.00093
741.66196,0.00118
739.60179,0.00157
737.54162,0.00183
735.48145,0.00174
733.42127,0.00133
731.36110,0.00061
729.30093,0.00020
727.24076,0.00028
725.18059,0.00043
723.12041,0.00063
721.06024,0.00141
719.00007,0.00240
716.93990,0.00291
714.87972,0.00262
712.81955,0.00213
710.75938,0.00194
708.69921,0.00195
706.63904,0.00202
704.57886,0.00226
702.51869,0.00263
700.45852,0.00277
698.39835,0.00256
696.33818,0.00260
694.27800,0.00294
692.21783,0.00278
690.15766,0.00208
688.09749,0.00147
686.03731,0.00086
683.97714,0.00017
681.91697,0.00000
679.85680,0.00073
677.79663,0.00208
675.73645,0.00309
673.67628,0.00247
671.61611,0.00041
669.55594,0.00082
667.49577,0.00303
665.43559,0.00136
663.37542,0.00225
661.31525,0.00291
659.25508,0.00264
657.19491,0.00217
655.13473,0.00185
653.07456,0.00170
651.01439,0.00189
648.95422,0.00256
646.89404,0.00311
644.83387,0.00317
642.77370,0.00265
640.71353,0.00176
638.65336,0.00071
636.59318,0.00000
634.53301,0.00002
632.47284,0.00094
630.41267,0.00188
628.35250,0.00253
626.29232,0.00288
624.23215,0.00269
622.17198,0.00149
620.11181,-0.00035
618.05164,-0.00141
615.99146,-0.00205
613.93129,-0.00242
611.87112,-0.00106
609.81095,0.00065
607.75077,0.00065
605.69060,-0.00022
603.63043,-0.00079
601.57026,-0.00063
599.51009,0.00000
