3996.73391,0.00029
3994.67373,0.00046
3992.61356,0.00060
3990.55339,0.00065
3988.49322,0.00056
3986.43305,0.00041
3984.37287,0.00032
3982.31270,0.00034
3980.25253,0.00038
3978.19236,0.00027
3976.13219,0.00008
3974.07201,0.00000
3972.01184,0.00008
3969.95167,0.00020
3967.89150,0.00030
3965.83133,0.00035
3963.77115,0.00031
3961.71098,0.00031
3959.65081,0.00041
3957.59064,0.00051
3955.53046,0.00056
3953.47029,0.00057
3951.41012,0.00052
3949.34995,0.00042
3947.28978,0.00025
3945.22960,0.00006
3943.16943,0.00001
3941.10926,0.00015
3939.04909,0.00036
3936.98892,0.00053
3934.92874,0.00069
3932.86857,0.00077
3930.80840,0.00063
3928.74823,0.00045
3926.68805,0.00039
3924.62788,0.00042
3922.56771,0.00056
3920.50754,0.00066
3918.44737,0.00068
3916.38719,0.00073
3914.32702,0.00075
3912.26685,0.00070
3910.20668,0.00071
3908.14651,0.00066
3906.08633,0.00055
3904.02616,0.00058
3901.96599,0.00068
3899.90582,0.00064
3897.84565,0.00062
3895.78547,0.00069
3893.72530,0.00074
3891.66513,0.00067
3889.60496,0.00067
3887.54478,0.00091
3885.48461,0.00105
3883.42444,0.00079
3881.36427,0.00036
3879.30410,0.00031
3877.24392,0.00069
3875.18375,0.00092
3873.12358,0.00076
3871.06341,0.00069
3869.00324,0.00096
3866.94306,0.00121
3864.88289,0.00109
3862.82272,0.00081
3860.76255,0.00072
3858.70237,0.00081
3856.64220,0.00085
3854.58203,0.00073
3852.52186,0.00078
3850.46169,0.00111
3848.40151,0.00132
3846.34134,0.00131
3844.28117,0.00127
3842.22100,0.00123
3840.16083,0.00092
3838.10065,0.00031
3836.04048,0.00000
3833.98031,0.00024
3831.92014,0.00065
3829.85997,0.00082
3827.79979,0.00067
3825.73962,0.00049
3823.67945,0.00055
3821.61928,0.00076
3819.55910,0.00111
3817.49893,0.00138
3815.43876,0.00128
3813.37859,0.00099
3811.31842,0.00081
3809.25824,0.00074
3807.19807,0.00060
3805.13790,0.00041
3803.07773,0.00045
3801.01756,0.00082
3798.95738,0.00120
3796.89721,0.00139
3794.83704,0.00146
3792.77687,0.00140
3790.71670,0.00122
3788.65652,0.00110
3786.59635,0.00118
3784.53618,0.00139
3782.47601,0.00163
3780.41583,0.00184
3778.35566,0.00187
3776.29549,0.00164
3774.23532,0.00136
3772.17515,0.00127
3770.11497,0.00123
3768.05480,0.00116
3765.99463,0.00120
3763.93446,0.00135
3761.87429,0.00142
3759.81411,0.00146
3757.75394,0.00148
3755.69377,0.00138
3753.63360,0.00134
3751.57342,0.00158
3749.51325,0.00191
3747.45308,0.00183
3745.39291,0.00139
3743.33274,0.00116
3741.27256,0.00133
3739.21239,0.00143
3737.15222,0.00116
3735.09205,0.00078
3733.03188,0.00071
3730.97170,0.00093
3728.91153,0.00136
3726.85136,0.00196
3724.79119,0.00247
3722.73102,0.00254
3720.67084,0.00218
3718.61067,0.00180
3716.55050,0.00174
3714.49033,0.00190
3712.43015,0.00201
3710.36998,0.00196
3708.30981,0.00190
3706.24964,0.00190
3704.18947,0.00189
3702.12929,0.00174
3700.06912,0.00172
3698.00895,0.00196
3695.94878,0.00206
3693.88861,0.00192
3691.82843,0.00192
3689.76826,0.00217
3687.70809,0.00244
3685.64792,0.00257
3683.58775,0.00256
3681.52757,0.00251
3679.46740,0.00256
3677.40723,0.00276
3675.34706,0.00291
3673.28688,0.00281
3671.22671,0.00257
3669.16654,0.00248
3667.10637,0.00274
3665.04620,0.00311
3662.98602,0.00337
3660.92585,0.00367
3658.86568,0.00412
3656.80551,0.00457
3654.74534,0.00463
3652.68516,0.00423
3650.62499,0.00395
3648.56482,0.00443
3646.50465,0.00522
3644.44447,0.00550
3642.38430,0.00529
3640.32413,0.00511
3638.26396,0.00542
3636.20379,0.00619
3634.14361,0.00698
3632.08344,0.00756
3630.02327,0.00795
3627.96310,0.00832
3625.90293,0.00870
3623.84275,0.00905
3621.78258,0.00929
3619.72241,0.00946
3617.66224,0.00970
3615.60207,0.00991
3613.54189,0.00995
3611.48172,0.00996
3609.42155,0.01019
3607.36138,0.01068
3605.30120,0.01121
3603.24103,0.01156
3601.18086,0.01184
3599.12069,0.01228
3597.06052,0.01280
3595.00034,0.01319
3592.94017,0.01338
3590.88000,0.01326
3588.81983,0.01310
3586.75966,0.01367
3584.69948,0.01459
3582.63931,0.01493
3580.57914,0.01501
3578.51897,0.01542
3576.45879,0.01606
3574.39862,0.01652
3572.33845,0.01678
3570.27828,0.01711
3568.21811,0.01771
3566.15793,0.01839
3564.09776,0.01879
3562.03759,0.01897
3559.97742,0.01928
3557.91725,0.01978
3555.85707,0.02018
3553.79690,0.02035
3551.73673,0.02055
3549.67656,0.02090
3547.61639,0.02130
3545.55621,0.02177
3543.49604,0.02219
3541.43587,0.02246
3539.37570,0.02267
3537.31552,0.02296
3535.25535,0.02327
3533.19518,0.02364
3531.13501,0.02411
3529.07484,0.02448
3527.01466,0.02452
3524.95449,0.02455
3522.89432,0.02500
3520.83415,0.02564
3518.77398,0.02611
3516.71380,0.02636
3514.65363,0.02647
3512.59346,0.02665
3510.53329,0.02707
3508.47312,0.02755
3506.41294,0.02792
3504.35277,0.02834
3502.29260,0.02874
3500.23243,0.02888
3498.17225,0.02900
3496.11208,0.02935
3494.05191,0.02967
3491.99174,0.02984
3489.93157,0.03003
3487.87139,0.03036
3485.81122,0.03073
3483.75105,0.03103
3481.69088,0.03141
3479.63071,0.03176
3477.57053,0.03190
3475.51036,0.03191
3473.45019,0.03201
3471.39002,0.03239
3469.32984,0.03294
3467.26967,0.03333
3465.20950,0.03349
3463.14933,0.03369
3461.08916,0.03402
3459.02898,0.03439
3456.96881,0.03478
3454.90864,0.03516
3452.84847,0.03516
3450.78830,0.03478
3448.72812,0.03471
3446.66795,0.03543
3444.60778,0.03630
3442.54761,0.03664
3440.48744,0.03677
3438.42726,0.03707
3436.36709,0.03742
3434.30692,0.03775
3432.24675,0.03803
3430.18657,0.03820
3428.12640,0.03836
3426.06623,0.03848
3424.00606,0.03859
3421.94589,0.03886
3419.88571,0.03909
3417.82554,0.03922
3415.76537,0.03944
3413.70520,0.03965
3411.64503,0.03983
3409.58485,0.04001
3407.52468,0.03998
3405.46451,0.03994
3403.40434,0.04018
3401.34416,0.04047
3399.28399,0.04063
3397.22382,0.04083
3395.16365,0.04114
3393.10348,0.04151
3391.04330,0.04178
3388.98313,0.04186
3386.92296,0.04199
3384.86279,0.04216
3382.80262,0.04220
3380.74244,0.04227
3378.68227,0.04234
3376.62210,0.04238
3374.56193,0.04261
3372.50176,0.04292
3370.44158,0.04301
3368.38141,0.04296
3366.32124,0.04293
3364.26107,0.04299
3362.20089,0.04316
3360.14072,0.04319
3358.08055,0.04309
3356.02038,0.04314
3353.96021,0.04335
3351.90003,0.04350
3349.83986,0.04352
3347.77969,0.04340
3345.71952,0.04334
3343.65935,0.04346
3341.59917,0.04354
3339.53900,0.04359
3337.47883,0.04364
3335.41866,0.04353
3333.35849,0.04336
3331.29831,0.04336
3329.23814,0.04350
3327.17797,0.04363
3325.11780,0.04371
3323.05762,0.04376
3320.99745,0.04376
3318.93728,0.04380
3316.87711,0.04380
3314.81694,0.04362
3312.75676,0.04352
3310.69659,0.04360
3308.63642,0.04352
3306.57625,0.04331
3304.51608,0.04326
3302.45590,0.04332
3300.39573,0.04337
3298.33556,0.04348
3296.27539,0.04359
3294.21521,0.04355
3292.15504,0.04347
3290.09487,0.04351
3288.03470,0.04355
3285.97453,0.04339
3283.91435,0.04321
3281.85418,0.04328
3279.79401,0.04342
3277.73384,0.04344
3275.67367,0.04347
3273.61349,0.04350
3271.55332,0.04322
3269.49315,0.04272
3267.43298,0.04249
3265.37281,0.04259
3263.31263,0.04276
3261.25246,0.04287
3259.19229,0.04291
3257.13212,0.04280
3255.07194,0.04261
3253.01177,0.04248
3250.95160,0.04242
3248.89143,0.04231
3246.83126,0.04225
3244.77108,0.04242
3242.71091,0.04254
3240.65074,0.04234
3238.59057,0.04195
3236.53040,0.04163
3234.47022,0.04156
3232.41005,0.04154
3230.34988,0.04125
3228.28971,0.04091
3226.22954,0.04078
3224.16936,0.04073
3222.10919,0.04071
3220.04902,0.04075
3217.98885,0.04068
3215.92867,0.04032
3213.86850,0.03984
3211.80833,0.03952
3209.74816,0.03937
3207.68799,0.03917
3205.62781,0.03885
3203.56764,0.03843
3201.50747,0.03807
3199.44730,0.03785
3197.38713,0.03770
3195.32695,0.03757
3193.26678,0.03733
3191.20661,0.03707
3189.14644,0.03696
3187.08626,0.03681
3185.02609,0.03648
3182.96592,0.03611
3180.90575,0.03573
3178.84558,0.03531
3176.78540,0.03497
3174.72523,0.03479
3172.66506,0.03462
3170.60489,0.03423
3168.54472,0.03365
3166.48454,0.03323
3164.42437,0.03296
3162.36420,0.03262
3160.30403,0.03234
3158.24386,0.03231
3156.18368,0.03235
3154.12351,0.03223
3152.06334,0.03199
3150.00317,0.03155
3147.94299,0.03098
3145.88282,0.03051
3143.82265,0.03015
3141.76248,0.02975
3139.70231,0.02931
3137.64213,0.02894
3135.58196,0.02876
3133.52179,0.02866
3131.46162,0.02836
3129.40145,0.02801
3127.34127,0.02778
3125.28110,0.02747
3123.22093,0.02693
3121.16076,0.02642
3119.10058,0.02619
3117.04041,0.02600
3114.98024,0.02574
3112.92007,0.02550
3110.85990,0.02517
3108.79972,0.02484
3106.73955,0.02467
3104.67938,0.02452
3102.61921,0.02411
3100.55904,0.02348
3098.49886,0.02301
3096.43869,0.02287
3094.37852,0.02283
3092.31835,0.02273
3090.25818,0.02255
3088.19800,0.02221
3086.13783,0.02188
3084.07766,0.02177
3082.01749,0.02159
3079.95731,0.02099
3077.89714,0.02032
3075.83697,0.02002
3073.77680,0.01999
3071.71663,0.02000
3069.65645,0.01982
3067.59628,0.01947
3065.53611,0.01920
3063.47594,0.01898
3061.41577,0.01869
3059.35559,0.01836
3057.29542,0.01794
3055.23525,0.01748
3053.17508,0.01730
3051.11491,0.01740
3049.05473,0.01741
3046.99456,0.01722
3044.93439,0.01702
3042.87422,0.01685
3040.81404,0.01663
3038.75387,0.01642
3036.69370,0.01631
3034.63353,0.01618
3032.57336,0.01595
3030.51318,0.01573
3028.45301,0.01561
3026.39284,0.01555
3024.33267,0.01538
3022.27250,0.01498
3020.21232,0.01453
3018.15215,0.01424
3016.09198,0.01409
3014.03181,0.01396
3011.97163,0.01386
3009.91146,0.01395
3007.85129,0.01409
3005.79112,0.01400
3003.73095,0.01380
3001.67077,0.01374
2999.61060,0.01383
2997.55043,0.01380
2995.49026,0.01353
2993.43009,0.01335
2991.36991,0.01337
2989.30974,0.01335
2987.24957,0.01332
2985.18940,0.01346
2983.12923,0.01367
2981.06905,0.01374
2979.00888,0.01378
2976.94871,0.01382
2974.88854,0.01379
2972.82836,0.01382
2970.76819,0.01400
2968.70802,0.01425
2966.64785,0.01449
2964.58768,0.01481
2962.52750,0.01525
2960.46733,0.01566
2958.40716,0.01593
2956.34699,0.01621
2954.28682,0.01649
2952.22664,0.01669
2950.16647,0.01689
2948.10630,0.01708
2946.04613,0.01721
2943.98596,0.01745
2941.92578,0.01775
2939.86561,0.01792
2937.80544,0.01799
2935.74527,0.01815
2933.68509,0.01831
2931.62492,0.01827
2929.56475,0.01814
2927.50458,0.01800
2925.44441,0.01781
2923.38423,0.01758
2921.32406,0.01728
2919.26389,0.01690
2917.20372,0.01665
2915.14355,0.01667
2913.08337,0.01669
2911.02320,0.01657
2908.96303,0.01638
2906.90286,0.01619
2904.84268,0.01605
2902.78251,0.01590
2900.72234,0.01585
2898.66217,0.01596
2896.60200,0.01601
2894.54182,0.01584
2892.48165,0.01559
2890.42148,0.01546
2888.36131,0.01537
2886.30114,0.01524
2884.24096,0.01527
2882.18079,0.01534
2880.12062,0.01522
2878.06045,0.01492
2876.00028,0.01457
2873.94010,0.01428
2871.87993,0.01412
2869.81976,0.01398
2867.75959,0.01373
2865.69941,0.01341
2863.63924,0.01317
2861.57907,0.01298
2859.51890,0.01288
2857.45873,0.01290
2855.39855,0.01279
2853.33838,0.01236
2851.27821,0.01196
2849.21804,0.01191
2847.15787,0.01200
2845.09769,0.01194
2843.03752,0.01177
2840.97735,0.01161
2838.91718,0.01142
2836.85700,0.01125
2834.79683,0.01114
2832.73666,0.01103
2830.67649,0.01082
2828.61632,0.01056
2826.55614,0.01039
2824.49597,0.01030
2822.43580,0.01020
2820.37563,0.01014
2818.31546,0.01010
2816.25528,0.01002
2814.19511,0.00993
2812.13494,0.00981
2810.07477,0.00972
2808.01460,0.00973
2805.95442,0.00971
2803.89425,0.00958
2801.83408,0.00938
2799.77391,0.00926
2797.71373,0.00925
2795.65356,0.00924
2793.59339,0.00916
2791.53322,0.00913
2789.47305,0.00917
2787.41287,0.00906
2785.35270,0.00891
2783.29253,0.00884
2781.23236,0.00873
2779.17219,0.00859
2777.11201,0.00851
2775.05184,0.00855
2772.99167,0.00865
2770.93150,0.00868
2768.87133,0.00867
2766.81115,0.00869
2764.75098,0.00866
2762.69081,0.00862
2760.63064,0.00859
2758.57046,0.00850
2756.51029,0.00838
2754.45012,0.00832
2752.38995,0.00828
2750.32978,0.00831
2748.26960,0.00840
2746.20943,0.00843
2744.14926,0.00837
2742.08909,0.00828
2740.02892,0.00815
2737.96874,0.00798
2735.90857,0.00786
2733.84840,0.00781
2731.78823,0.00781
2729.72805,0.00790
2727.66788,0.00792
2725.60771,0.00780
2723.54754,0.00770
2721.48737,0.00771
2719.42719,0.00773
2717.36702,0.00770
2715.30685,0.00761
2713.24668,0.00752
2711.18651,0.00747
2709.12633,0.00745
2707.06616,0.00747
2705.00599,0.00743
2702.94582,0.00727
2700.88565,0.00715
2698.82547,0.00721
2696.76530,0.00733
2694.70513,0.00734
2692.64496,0.00730
2690.58478,0.00721
2688.52461,0.00710
2686.46444,0.00709
2684.40427,0.00711
2682.34410,0.00709
2680.28392,0.00704
2678.22375,0.00704
2676.16358,0.00710
2674.10341,0.00708
2672.04324,0.00697
2669.98306,0.00685
2667.92289,0.00681
2665.86272,0.00681
2663.80255,0.00677
2661.74238,0.00680
2659.68220,0.00692
2657.62203,0.00698
2655.56186,0.00694
2653.50169,0.00680
2651.44151,0.00660
2649.38134,0.00641
2647.32117,0.00629
2645.26100,0.00634
2643.20083,0.00644
2641.14065,0.00642
2639.08048,0.00628
2637.02031,0.00612
2634.96014,0.00596
2632.89997,0.00583
2630.83979,0.00582
2628.77962,0.00588
2626.71945,0.00591
2624.65928,0.00589
2622.59910,0.00588
2620.53893,0.00601
2618.47876,0.00607
2616.41859,0.00582
2614.35842,0.00559
2612.29824,0.00559
2610.23807,0.00551
2608.17790,0.00530
2606.11773,0.00526
2604.05756,0.00529
2601.99738,0.00524
2599.93721,0.00524
2597.87704,0.00539
2595.81687,0.00552
2593.75670,0.00554
2591.69652,0.00541
2589.63635,0.00525
2587.57618,0.00513
2585.51601,0.00489
2583.45583,0.00480
2581.39566,0.00496
2579.33549,0.00494
2577.27532,0.00481
2575.21515,0.00477
2573.15497,0.00467
2571.09480,0.00467
2569.03463,0.00477
2566.97446,0.00478
2564.91429,0.00498
2562.85411,0.00533
2560.79394,0.00540
2558.73377,0.00512
2556.67360,0.00485
2554.61342,0.00479
2552.55325,0.00485
2550.49308,0.00492
2548.43291,0.00489
2546.37274,0.00482
2544.31256,0.00494
2542.25239,0.00500
2540.19222,0.00474
2538.13205,0.00444
2536.07188,0.00431
2534.01170,0.00443
2531.95153,0.00464
2529.89136,0.00474
2527.83119,0.00472
2525.77102,0.00468
2523.71084,0.00471
2521.65067,0.00469
2519.59050,0.00468
2517.53033,0.00476
2515.47015,0.00483
2513.40998,0.00500
2511.34981,0.00520
2509.28964,0.00513
2507.22947,0.00490
2505.16929,0.00480
2503.10912,0.00482
2501.04895,0.00484
2498.98878,0.00478
2496.92861,0.00475
2494.86843,0.00486
2492.80826,0.00479
2490.74809,0.00442
2488.68792,0.00423
2486.62775,0.00422
2484.56757,0.00398
2482.50740,0.00369
2480.44723,0.00380
2478.38706,0.00414
2476.32688,0.00436
2474.26671,0.00440
2472.20654,0.00429
2470.14637,0.00422
2468.08620,0.00434
2466.02602,0.00453
2463.96585,0.00463
2461.90568,0.00455
2459.84551,0.00430
2457.78534,0.00422
2455.72516,0.00438
2453.66499,0.00451
2451.60482,0.00463
2449.54465,0.00465
2447.48447,0.00445
2445.42430,0.00433
2443.36413,0.00438
2441.30396,0.00427
2439.24379,0.00412
2437.18361,0.00412
2435.12344,0.00402
2433.06327,0.00384
2431.00310,0.00386
2428.94293,0.00388
2426.88275,0.00389
2424.82258,0.00417
2422.76241,0.00450
2420.70224,0.00461
2418.64207,0.00459
2416.58189,0.00460
2414.52172,0.00464
2412.46155,0.00453
2410.40138,0.00431
2408.34120,0.00404
2406.28103,0.00381
2404.22086,0.00397
2402.16069,0.00435
2400.10052,0.00453
2398.04034,0.00445
2395.98017,0.00421
2393.92000,0.00386
2391.85983,0.00367
2389.79966,0.00382
2387.73948,0.00411
2385.67931,0.00433
2383.61914,0.00433
2381.55897,0.00403
2379.49880,0.00352
2377.43862,0.00304
2375.37845,0.00276
2373.31828,0.00276
2371.25811,0.00305
2369.19793,0.00306
2367.13776,0.00224
2365.07759,0.00120
2363.01742,0.00034
2360.95725,0.00000
2358.89707,0.00125
2356.83690,0.00348
2354.77673,0.00435
2352.71656,0.00346
2350.65639,0.00263
2348.59621,0.00271
2346.53604,0.00314
2344.47587,0.00334
2342.41570,0.00350
2340.35552,0.00382
2338.29535,0.00364
2336.23518,0.00278
2334.17501,0.00220
2332.11484,0.00244
2330.05466,0.00272
2327.99449,0.00258
2325.93432,0.00265
2323.87415,0.00335
2321.81398,0.00390
2319.75380,0.00380
2317.69363,0.00355
2315.63346,0.00344
2313.57329,0.00340
2311.51312,0.00353
2309.45294,0.00378
2307.39277,0.00398
2305.33260,0.00408
2303.27243,0.00410
2301.21225,0.00406
2299.15208,0.00401
2297.09191,0.00395
2295.03174,0.00390
2292.97157,0.00390
2290.91139,0.00388
2288.85122,0.00381
2286.79105,0.00385
2284.73088,0.00398
2282.67071,0.00392
2280.61053,0.00375
2278.55036,0.00377
2276.49019,0.00393
2274.43002,0.00400
2272.36984,0.00396
2270.30967,0.00396
2268.24950,0.00398
2266.18933,0.00392
2264.12916,0.00381
2262.06898,0.00384
2260.00881,0.00417
2257.94864,0.00433
2255.88847,0.00375
2253.82830,0.00295
2251.76812,0.00285
2249.70795,0.00325
2247.64778,0.00363
2245.58761,0.00423
2243.52744,0.00478
2241.46726,0.00480
2239.40709,0.00460
2237.34692,0.00453
2235.28675,0.00477
2233.22657,0.00482
2231.16640,0.00410
2229.10623,0.00326
2227.04606,0.00306
2224.98589,0.00332
2222.92571,0.00371
2220.86554,0.00395
2218.80537,0.00375
2216.74520,0.00352
2214.68503,0.00364
2212.62485,0.00361
2210.56468,0.00330
2208.50451,0.00315
2206.44434,0.00324
2204.38417,0.00329
2202.32399,0.00307
2200.26382,0.00309
2198.20365,0.00374
2196.14348,0.00423
2194.08330,0.00424
2192.02313,0.00437
2189.96296,0.00456
2187.90279,0.00450
2185.84262,0.00472
2183.78244,0.00497
2181.72227,0.00495
2179.66210,0.00467
2177.60193,0.00371
2175.54176,0.00274
2173.48158,0.00225
2171.42141,0.00208
2169.36124,0.00214
2167.30107,0.00237
2165.24089,0.00328
2163.18072,0.00468
2161.12055,0.00460
2159.06038,0.00268
2157.00021,0.00094
2154.94003,0.00082
2152.87986,0.00209
2150.81969,0.00315
2148.75952,0.00326
2146.69935,0.00276
2144.63917,0.00208
2142.57900,0.00196
2140.51883,0.00243
2138.45866,0.00250
2136.39849,0.00201
2134.33831,0.00180
2132.27814,0.00225
2130.21797,0.00326
2128.15780,0.00411
2126.09762,0.00415
2124.03745,0.00388
2121.97728,0.00365
2119.91711,0.00317
2117.85694,0.00299
2115.79676,0.00355
2113.73659,0.00411
2111.67642,0.00419
2109.61625,0.00404
2107.55608,0.00391
2105.49590,0.00389
2103.43573,0.00388
2101.37556,0.00390
2099.31539,0.00423
2097.25521,0.00473
2095.19504,0.00457
2093.13487,0.00385
2091.07470,0.00357
2089.01453,0.00384
2086.95435,0.00401
2084.89418,0.00392
2082.83401,0.00375
2080.77384,0.00354
2078.71367,0.00343
2076.65349,0.00312
2074.59332,0.00266
2072.53315,0.00275
2070.47298,0.00277
2068.41281,0.00236
2066.35263,0.00266
2064.29246,0.00355
2062.23229,0.00403
2060.17212,0.00397
2058.11194,0.00411
2056.05177,0.00462
2053.99160,0.00484
2051.93143,0.00443
2049.87126,0.00346
2047.81108,0.00244
2045.75091,0.00206
2043.69074,0.00231
2041.63057,0.00298
2039.57040,0.00356
2037.51022,0.00340
2035.45005,0.00296
2033.38988,0.00263
2031.32971,0.00248
2029.26954,0.00276
2027.20936,0.00323
2025.14919,0.00379
2023.08902,0.00444
2021.02885,0.00437
2018.96867,0.00330
2016.90850,0.00260
2014.84833,0.00246
2012.78816,0.00144
2010.72799,0.00022
2008.66781,0.00022
2006.60764,0.00069
2004.54747,0.00094
2002.48730,0.00126
2000.42713,0.00163
1998.36695,0.00181
1996.30678,0.00158
1994.24661,0.00107
1992.18644,0.00094
1990.12626,0.00151
1988.06609,0.00240
1986.00592,0.00316
1983.94575,0.00353
1981.88558,0.00342
1979.82540,0.00282
1977.76523,0.00174
1975.70506,0.00051
1973.64489,0.00000
1971.58472,0.00041
1969.52454,0.00119
1967.46437,0.00205
1965.40420,0.00278
1963.34403,0.00304
1961.28386,0.00256
1959.22368,0.00176
1957.16351,0.00144
1955.10334,0.00152
1953.04317,0.00139
1950.98299,0.00141
1948.92282,0.00211
1946.86265,0.00280
1944.80248,0.00279
1942.74231,0.00230
1940.68213,0.00191
1938.62196,0.00204
1936.56179,0.00225
1934.50162,0.00186
1932.44145,0.00108
1930.38127,0.00070
1928.32110,0.00097
1926.26093,0.00129
1924.20076,0.00131
1922.14059,0.00134
1920.08041,0.00147
1918.02024,0.00150
1915.96007,0.00150
1913.89990,0.00155
1911.83972,0.00172
1909.77955,0.00179
1907.71938,0.00167
1905.65921,0.00156
1903.59904,0.00129
1901.53886,0.00080
1899.47869,0.00054
1897.41852,0.00070
1895.35835,0.00109
1893.29818,0.00141
1891.23800,0.00148
1889.17783,0.00140
1887.11766,0.00133
1885.05749,0.00146
1882.99731,0.00166
1880.93714,0.00153
1878.87697,0.00107
1876.81680,0.00077
1874.75663,0.00079
1872.69645,0.00096
1870.63628,0.00115
1868.57611,0.00127
1866.51594,0.00125
1864.45577,0.00116
1862.39559,0.00103
1860.33542,0.00083
1858.27525,0.00063
1856.21508,0.00051
1854.15491,0.00048
1852.09473,0.00048
1850.03456,0.00039
1847.97439,0.00022
1845.91422,0.00009
1843.85404,0.00013
1841.79387,0.00038
1839.73370,0.00060
1837.67353,0.00070
1835.61336,0.00067
1833.55318,0.00056
1831.49301,0.00052
1829.43284,0.00055
1827.37267,0.00056
1825.31250,0.00055
1823.25232,0.00059
1821.19215,0.00061
1819.13198,0.00044
1817.07181,0.00013
1815.01163,0.00000
1812.95146,0.00012
1810.89129,0.00038
1808.83112,0.00063
1806.77095,0.00077
1804.71077,0.00066
1802.65060,0.00031
1800.59043,0.00007
1798.53026,0.00008
1796.47009,0.00002
1794.40991,-0.00018
1792.34974,-0.00015
1790.28957,0.00011
1788.22940,0.00032
1786.16923,0.00051
1784.10905,0.00064
1782.04888,0.00058
1779.98871,0.00047
1777.92854,0.00046
1775.86836,0.00045
1773.80819,0.00040
1771.74802,0.00042
1769.68785,0.00067
1767.62768,0.00119
1765.56750,0.00168
1763.50733,0.00193
1761.44716,0.00207
1759.38699,0.00223
1757.32682,0.00251
1755.26664,0.00293
1753.20647,0.00331
1751.14630,0.00380
1749.08613,0.00457
1747.02596,0.00536
1744.96578,0.00589
1742.90561,0.00615
1740.84544,0.00629
1738.78527,0.00636
1736.72509,0.00640
1734.66492,0.00651
1732.60475,0.00675
1730.54458,0.00700
1728.48441,0.00718
1726.42423,0.00716
1724.36406,0.00693
1722.30389,0.00657
1720.24372,0.00617
1718.18355,0.00589
1716.12337,0.00591
1714.06320,0.00596
1712.00303,0.00570
1709.94286,0.00526
1707.88268,0.00493
1705.82251,0.00479
1703.76234,0.00478
1701.70217,0.00488
1699.64200,0.00511
1697.58182,0.00534
1695.52165,0.00558
1693.46148,0.00578
1691.40131,0.00594
1689.34114,0.00622
1687.28096,0.00660
1685.22079,0.00708
1683.16062,0.00778
1681.10045,0.00843
1679.04028,0.00898
1676.98010,0.00960
1674.91993,0.01038
1672.85976,0.01118
1670.79959,0.01205
1668.73941,0.01312
1666.67924,0.01397
1664.61907,0.01457
1662.55890,0.01538
1660.49873,0.01631
1658.43855,0.01694
1656.37838,0.01728
1654.31821,0.01784
1652.25804,0.01886
1650.19787,0.01943
1648.13769,0.01972
1646.07752,0.02035
1644.01735,0.02092
1641.95718,0.02106
1639.89701,0.02090
1637.83683,0.02067
1635.77666,0.02083
1633.71649,0.02129
1631.65632,0.02145
1629.59614,0.02138
1627.53597,0.02124
1625.47580,0.02096
1623.41563,0.02064
1621.35546,0.02036
1619.29528,0.02004
1617.23511,0.01980
1615.17494,0.01970
1613.11477,0.01943
1611.05460,0.01891
1608.99442,0.01833
1606.93425,0.01781
1604.87408,0.01727
1602.81391,0.01652
1600.75373,0.01559
1598.69356,0.01463
1596.63339,0.01372
1594.57322,0.01291
1592.51305,0.01215
1590.45287,0.01123
1588.39270,0.01012
1586.33253,0.00914
1584.27236,0.00845
1582.21219,0.00783
1580.15201,0.00710
1578.09184,0.00628
1576.03167,0.00551
1573.97150,0.00499
1571.91133,0.00460
1569.85115,0.00419
1567.79098,0.00379
1565.73081,0.00340
1563.67064,0.00304
1561.61046,0.00278
1559.55029,0.00266
1557.49012,0.00264
1555.42995,0.00247
1553.36978,0.00216
1551.30960,0.00184
1549.24943,0.00165
1547.18926,0.00158
1545.12909,0.00143
1543.06892,0.00108
1541.00874,0.00073
1538.94857,0.00069
1536.88840,0.00077
1534.82823,0.00077
1532.76805,0.00072
1530.70788,0.00063
1528.64771,0.00043
1526.58754,0.00026
1524.52737,0.00024
1522.46719,0.00022
1520.40702,0.00009
1518.34685,0.00000
1516.28668,0.00010
1514.22651,0.00020
1512.16633,0.00009
1510.10616,-0.00013
1508.04599,-0.00008
1505.98582,0.00044
1503.92565,0.00088
1501.86547,0.00090
1499.80530,0.00070
1497.74513,0.00056
1495.68496,0.00065
1493.62478,0.00081
1491.56461,0.00090
1489.50444,0.00107
1487.44427,0.00137
1485.38410,0.00164
1483.32392,0.00185
1481.26375,0.00204
1479.20358,0.00226
1477.14341,0.00257
1475.08324,0.00300
1473.02306,0.00364
1470.96289,0.00447
1468.90272,0.00512
1466.84255,0.00558
1464.78238,0.00614
1462.72220,0.00665
1460.66203,0.00688
1458.60186,0.00714
1456.54169,0.00770
1454.48151,0.00815
1452.42134,0.00830
1450.36117,0.00834
1448.30100,0.00848
1446.24083,0.00885
1444.18065,0.00933
1442.12048,0.00972
1440.06031,0.00997
1438.00014,0.01023
1435.93997,0.01065
1433.87979,0.01102
1431.81962,0.01130
1429.75945,0.01168
1427.69928,0.01212
1425.63910,0.01243
1423.57893,0.01270
1421.51876,0.01302
1419.45859,0.01345
1417.39842,0.01386
1415.33824,0.01404
1413.27807,0.01412
1411.21790,0.01419
1409.15773,0.01413
1407.09756,0.01384
1405.03738,0.01339
1402.97721,0.01290
1400.91704,0.01244
1398.85687,0.01197
1396.79670,0.01153
1394.73652,0.01119
1392.67635,0.01097
1390.61618,0.01091
1388.55601,0.01104
1386.49583,0.01134
1384.43566,0.01175
1382.37549,0.01217
1380.31532,0.01250
1378.25515,0.01274
1376.19497,0.01298
1374.13480,0.01325
1372.07463,0.01347
1370.01446,0.01354
1367.95429,0.01348
1365.89411,0.01327
1363.83394,0.01292
1361.77377,0.01260
1359.71360,0.01237
1357.65343,0.01218
1355.59325,0.01200
1353.53308,0.01187
1351.47291,0.01179
1349.41274,0.01176
1347.35256,0.01170
1345.29239,0.01150
1343.23222,0.01113
1341.17205,0.01078
1339.11188,0.01067
1337.05170,0.01080
1334.99153,0.01093
1332.93136,0.01097
1330.87119,0.01105
1328.81102,0.01120
1326.75084,0.01132
1324.69067,0.01133
1322.63050,0.01130
1320.57033,0.01137
1318.51015,0.01149
1316.44998,0.01156
1314.38981,0.01161
1312.32964,0.01162
1310.26947,0.01152
1308.20929,0.01129
1306.14912,0.01097
1304.08895,0.01065
1302.02878,0.01038
1299.96861,0.01015
1297.90843,0.00994
1295.84826,0.00975
1293.78809,0.00967
1291.72792,0.00964
1289.66775,0.00946
1287.60757,0.00912
1285.54740,0.00884
1283.48723,0.00872
1281.42706,0.00875
1279.36688,0.00888
1277.30671,0.00907
1275.24654,0.00926
1273.18637,0.00952
1271.12620,0.00989
1269.06602,0.01035
1267.00585,0.01086
1264.94568,0.01146
1262.88551,0.01214
1260.82534,0.01280
1258.76516,0.01332
1256.70499,0.01372
1254.64482,0.01404
1252.58465,0.01425
1250.52447,0.01439
1248.46430,0.01450
1246.40413,0.01456
1244.34396,0.01458
1242.28379,0.01448
1240.22361,0.01419
1238.16344,0.01378
1236.10327,0.01336
1234.04310,0.01293
1231.98293,0.01242
1229.92275,0.01183
1227.86258,0.01122
1225.80241,0.01069
1223.74224,0.01029
1221.68207,0.00988
1219.62189,0.00938
1217.56172,0.00889
1215.50155,0.00832
1213.44138,0.00763
1211.38120,0.00690
1209.32103,0.00616
1207.26086,0.00533
1205.20069,0.00443
1203.14052,0.00353
1201.08034,0.00277
1199.02017,0.00212
1196.96000,0.00151
1194.89983,0.00098
1192.83966,0.00051
1190.77948,0.00017
1188.71931,0.00000
1186.65914,-0.00009
1184.59897,0.00012
1182.53880,0.00057
1180.47862,0.00102
1178.41845,0.00157
1176.35828,0.00233
1174.29811,0.00325
1172.23793,0.00426
1170.17776,0.00537
1168.11759,0.00662
1166.05742,0.00787
1163.99725,0.00897
1161.93707,0.00995
1159.87690,0.01088
1157.81673,0.01185
1155.75656,0.01279
1153.69639,0.01361
1151.63621,0.01441
1149.57604,0.01517
1147.51587,0.01582
1145.45570,0.01641
1143.39552,0.01685
1141.33535,0.01711
1139.27518,0.01725
1137.21501,0.01745
1135.15484,0.01783
1133.09466,0.01839
1131.03449,0.01899
1128.97432,0.01971
1126.91415,0.02063
1124.85398,0.02162
1122.79380,0.02259
1120.73363,0.02350
1118.67346,0.02434
1116.61329,0.02526
1114.55312,0.02613
1112.49294,0.02682
1110.43277,0.02749
1108.37260,0.02833
1106.31243,0.02934
1104.25225,0.03037
1102.19208,0.03143
1100.13191,0.03278
1098.07174,0.03439
1096.01157,0.03597
1093.95139,0.03749
1091.89122,0.03887
1089.83105,0.03998
1087.77088,0.04088
1085.71071,0.04185
1083.65053,0.04295
1081.59036,0.04404
1079.53019,0.04516
1077.47002,0.04647
1075.40985,0.04789
1073.34967,0.04917
1071.28950,0.05021
1069.22933,0.05106
1067.16916,0.05186
1065.10898,0.05252
1063.04881,0.05302
1060.98864,0.05355
1058.92847,0.05402
1056.86830,0.05435
1054.80812,0.05479
1052.74795,0.05557
1050.68778,0.05656
1048.62761,0.05749
1046.56744,0.05836
1044.50726,0.05926
1042.44709,0.06030
1040.38692,0.06136
1038.32675,0.06200
1036.26657,0.06218
1034.20640,0.06227
1032.14623,0.06241
1030.08606,0.06242
1028.02589,0.06231
1025.96571,0.06212
1023.90554,0.06185
1021.84537,0.06165
1019.78520,0.06166
1017.72503,0.06167
1015.66485,0.06153
1013.60468,0.06139
1011.54451,0.06132
1009.48434,0.06097
1007.42417,0.06014
1005.36399,0.05903
1003.30382,0.05788
1001.24365,0.05685
999.18348,0.05585
997.12330,0.05462
995.06313,0.05326
993.00296,0.05212
990.94279,0.05117
988.88262,0.05016
986.82244,0.04910
984.76227,0.04819
982.70210,0.04751
980.64193,0.04689
978.58176,0.04606
976.52158,0.04501
974.46141,0.04400
972.40124,0.04311
970.34107,0.04221
968.28089,0.04116
966.22072,0.04008
964.16055,0.03905
962.10038,0.03804
960.04021,0.03696
957.98003,0.03569
955.91986,0.03434
953.85969,0.03315
951.79952,0.03198
949.73935,0.03061
947.67917,0.02902
945.61900,0.02732
943.55883,0.02547
941.49866,0.02328
939.43849,0.02081
937.37831,0.01827
935.31814,0.01587
933.25797,0.01379
931.19780,0.01190
929.13762,0.01017
927.07745,0.00876
925.01728,0.00772
922.95711,0.00697
920.89694,0.00628
918.83676,0.00554
916.77659,0.00471
914.71642,0.00385
912.65625,0.00331
910.59608,0.00306
908.53590,0.00291
906.47573,0.00273
904.41556,0.00246
902.35539,0.00228
900.29522,0.00246
898.23504,0.00292
896.17487,0.00335
894.11470,0.00340
892.05453,0.00318
889.99435,0.00295
887.93418,0.00268
885.87401,0.00242
883.81384,0.00231
881.75367,0.00200
879.69349,0.00133
877.63332,0.00073
875.57315,0.00051
873.51298,0.00052
871.45281,0.00052
869.39263,0.00062
867.33246,0.00081
865.27229,0.00078
863.21212,0.00059
861.15194,0.00054
859.09177,0.00057
857.03160,0.00058
854.97143,0.00064
852.91126,0.00060
850.85108,0.00026
848.79091,0.00000
846.73074,-0.00002
844.67057,-0.00013
842.61040,-0.00046
840.55022,-0.00079
838.49005,-0.00104
836.42988,-0.00113
834.36971,-0.00113
832.30954,-0.00131
830.24936,-0.00164
828.18919,-0.00178
826.12902,-0.00177
824.06885,-0.00180
822.00867,-0.00162
819.94850,-0.00112
817.88833,-0.00067
815.82816,-0.00039
813.76799,0.00003
811.70781,0.00042
809.64764,0.00055
807.58747,0.00067
805.52730,0.00095
803.46713,0.00122
801.40695,0.00125
799.34678,0.00086
797.28661,0.00031
795.22644,0.00000
793.16627,-0.00018
791.10609,-0.00022
789.04592,-0.00018
786.98575,-0.00032
784.92558,-0.00044
782.86540,-0.00036
780.80523,-0.00032
778.74506,-0.00024
776.68489,-0.00010
774.62472,-0.00001
772.56454,-0.00013
770.50437,-0.00062
768.44420,-0.00115
766.38403,-0.00131
764.32386,-0.00102
762.26368,-0.00057
760.20351,-0.00039
758.14334,-0.00047
756.08317,-0.00041
754.02299,-0.00017
751.96282,0.00000
749.90265,-0.00017
747.84248,-0.00066
745.78231,-0.00107
743.72213,-0.00103
741.66196,-0.00095
739.60179,-0.00115
737.54162,-0.00142
735.48145,-0.00157
733.42127,-0.00167
731.36110,-0.00159
729.30093,-0.00096
727.24076,-0.00029
725.18059,-0.00031
723.12041,-0.00060
721.06024,-0.00065
719.00007,-0.00033
716.93990,-0.00001
714.87972,0.00002
712.81955,0.00005
710.75938,0.00035
708.69921,0.00086
706.63904,0.00131
704.57886,0.00136
702.51869,0.00109
700.45852,0.00096
698.39835,0.00106
696.33818,0.00139
694.27800,0.00184
692.21783,0.00173
690.15766,0.00087
688.09749,-0.00001
686.03731,-0.00055
683.97714,-0.00106
681.91697,-0.00169
679.85680,-0.00188
677.79663,-0.00134
675.73645,-0.00077
673.67628,-0.00083
671.61611,-0.00142
669.55594,-0.00172
667.49577,-0.00092
665.43559,-0.00002
663.37542,0.00003
661.31525,-0.00053
659.25508,-0.00086
657.19491,-0.00059
655.13473,-0.00021
653.07456,-0.00013
651.01439,-0.00019
648.95422,0.00000
646.89404,0.00021
644.83387,0.00005
642.77370,-0.00026
640.71353,-0.00070
638.65336,-0.00148
636.59318,-0.00196
634.53301,-0.00137
632.47284,-0.00068
630.41267,-0.00099
628.35250,-0.00152
626.29232,-0.00168
624.23215,-0.00223
622.17198,-0.00236
620.11181,-0.00202
618.05164,-0.00118
615.99146,0.00042
613.93129,0.00097
611.87112,0.00051
609.81095,0.00087
607.75077,0.00162
605.69060,0.00097
603.63043,-0.00028
601.57026,-0.00034
599.51009,0.00000
