3996.73391,0.00033
3994.67373,0.00021
3992.61356,0.00020
3990.55339,0.00018
3988.49322,0.00032
3986.43305,0.00040
3984.37287,0.00037
3982.31270,0.00040
3980.25253,0.00057
3978.19236,0.00044
3976.13219,0.00002
3974.07201,0.00000
3972.01184,0.00047
3969.95167,0.00089
3967.89150,0.00107
3965.83133,0.00114
3963.77115,0.00098
3961.71098,0.00097
3959.65081,0.00124
3957.59064,0.00117
3955.53046,0.00100
3953.47029,0.00109
3951.41012,0.00111
3949.34995,0.00109
3947.28978,0.00154
3945.22960,0.00160
3943.16943,0.00112
3941.10926,0.00158
3939.04909,0.00225
3936.98892,0.00246
3934.92874,0.00222
3932.86857,0.00159
3930.80840,0.00170
3928.74823,0.00232
3926.68805,0.00203
3924.62788,0.00177
3922.56771,0.00254
3920.50754,0.00270
3918.44737,0.00233
3916.38719,0.00275
3914.32702,0.00339
3912.26685,0.00319
3910.20668,0.00320
3908.14651,0.00332
3906.08633,0.00231
3904.02616,0.00200
3901.96599,0.00317
3899.90582,0.00348
3897.84565,0.00417
3895.78547,0.00488
3893.72530,0.00361
3891.66513,0.00265
3889.60496,0.00439
3887.54478,0.00458
3885.48461,0.00365
3883.42444,0.00423
3881.36427,0.00325
3879.30410,0.00379
3877.24392,0.00539
3875.18375,0.00455
3873.12358,0.00397
3871.06341,0.00342
3869.00324,0.00441
3866.94306,0.00569
3864.88289,0.00397
3862.82272,0.00361
3860.76255,0.00532
3858.70237,0.00654
3856.64220,0.00456
3854.58203,0.00000
3852.52186,0.00100
3850.46169,0.00602
3848.40151,0.00729
3846.34134,0.00592
3844.28117,0.00483
3842.22100,0.00499
3840.16083,0.00434
3838.10065,0.00351
3836.04048,0.00464
3833.98031,0.00519
3831.92014,0.00462
3829.85997,0.00472
3827.79979,0.00465
3825.73962,0.00523
3823.67945,0.00490
3821.61928,0.00329
3819.55910,0.00521
3817.49893,0.00512
3815.43876,0.00377
3813.37859,0.00538
3811.31842,0.00595
3809.25824,0.00427
3807.19807,0.00328
3805.13790,0.00497
3803.07773,0.00394
3801.01756,0.00286
3798.95738,0.00482
3796.89721,0.00474
3794.83704,0.00474
3792.77687,0.00506
3790.71670,0.00466
3788.65652,0.00420
3786.59635,0.00365
3784.53618,0.00396
3782.47601,0.00480
3780.41583,0.00413
3778.35566,0.00408
3776.29549,0.00509
3774.23532,0.00514
3772.17515,0.00404
3770.11497,0.00314
3768.05480,0.00373
3765.99463,0.00410
3763.93446,0.00492
3761.87429,0.00471
3759.81411,0.00346
3757.75394,0.00443
3755.69377,0.00594
3753.63360,0.00444
3751.57342,0.00225
3749.51325,0.00467
3747.45308,0.00689
3745.39291,0.00365
3743.33274,0.00358
3741.27256,0.00671
3739.21239,0.00623
3737.15222,0.00321
3735.09205,0.00176
3733.03188,0.00303
3730.97170,0.00511
3728.91153,0.00583
3726.85136,0.00478
3724.79119,0.00463
3722.73102,0.00495
3720.67084,0.00499
3718.61067,0.00519
3716.55050,0.00574
3714.49033,0.00502
3712.43015,0.00314
3710.36998,0.00341
3708.30981,0.00517
3706.24964,0.00565
3704.18947,0.00425
3702.12929,0.00295
3700.06912,0.00392
3698.00895,0.00486
3695.94878,0.00484
3693.88861,0.00479
3691.82843,0.00364
3689.76826,0.00222
3687.70809,0.00348
3685.64792,0.00563
3683.58775,0.00587
3681.52757,0.00553
3679.46740,0.00539
3677.40723,0.00397
3675.34706,0.00393
3673.28688,0.00740
3671.22671,0.00599
3669.16654,0.00409
3667.10637,0.00597
3665.04620,0.00628
3662.98602,0.00531
3660.92585,0.00516
3658.86568,0.00486
3656.80551,0.00454
3654.74534,0.00668
3652.68516,0.00711
3650.62499,0.00407
3648.56482,0.00359
3646.50465,0.00603
3644.44447,0.00739
3642.38430,0.00672
3640.32413,0.00597
3638.26396,0.00573
3636.20379,0.00597
3634.14361,0.00691
3632.08344,0.00740
3630.02327,0.00510
3627.96310,0.00507
3625.90293,0.00830
3623.84275,0.00922
3621.78258,0.00767
3619.72241,0.00622
3617.66224,0.00739
3615.60207,0.00844
3613.54189,0.00780
3611.48172,0.00784
3609.42155,0.00777
3607.36138,0.00794
3605.30120,0.00901
3603.24103,0.00904
3601.18086,0.00847
3599.12069,0.00892
3597.06052,0.00931
3595.00034,0.00918
3592.94017,0.01000
3590.88000,0.01048
3588.81983,0.00899
3586.75966,0.00872
3584.69948,0.01055
3582.63931,0.01101
3580.57914,0.01044
3578.51897,0.01035
3576.45879,0.01048
3574.39862,0.01078
3572.33845,0.01158
3570.27828,0.01176
3568.21811,0.01075
3566.15793,0.01100
3564.09776,0.01239
3562.03759,0.01225
3559.97742,0.01156
3557.91725,0.01178
3555.85707,0.01229
3553.79690,0.01233
3551.73673,0.01273
3549.67656,0.01345
3547.61639,0.01318
3545.55621,0.01271
3543.49604,0.01304
3541.43587,0.01354
3539.37570,0.01366
3537.31552,0.01348
3535.25535,0.01364
3533.19518,0.01422
3531.13501,0.01463
3529.07484,0.01475
3527.01466,0.01473
3524.95449,0.01454
3522.89432,0.01449
3520.83415,0.01479
3518.77398,0.01491
3516.71380,0.01496
3514.65363,0.01512
3512.59346,0.01523
3510.53329,0.01518
3508.47312,0.01556
3506.41294,0.01622
3504.35277,0.01631
3502.29260,0.01661
3500.23243,0.01692
3498.17225,0.01651
3496.11208,0.01633
3494.05191,0.01683
3491.99174,0.01734
3489.93157,0.01754
3487.87139,0.01771
3485.81122,0.01797
3483.75105,0.01781
3481.69088,0.01751
3479.63071,0.01774
3477.57053,0.01784
3475.51036,0.01772
3473.45019,0.01786
3471.39002,0.01811
3469.32984,0.01828
3467.26967,0.01841
3465.20950,0.01857
3463.14933,0.01849
3461.08916,0.01845
3459.02898,0.01869
3456.96881,0.01904
3454.90864,0.01928
3452.84847,0.01935
3450.78830,0.01941
3448.72812,0.01927
3446.66795,0.01948
3444.60778,0.02013
3442.54761,0.02017
3440.48744,0.02020
3438.42726,0.02027
3436.36709,0.02019
3434.30692,0.02037
3432.24675,0.02065
3430.18657,0.02070
3428.12640,0.02076
3426.06623,0.02113
3424.00606,0.02145
3421.94589,0.02125
3419.88571,0.02116
3417.82554,0.02135
3415.76537,0.02142
3413.70520,0.02145
3411.64503,0.02142
3409.58485,0.02138
3407.52468,0.02137
3405.46451,0.02159
3403.40434,0.02191
3401.34416,0.02205
3399.28399,0.02205
3397.22382,0.02222
3395.16365,0.02251
3393.10348,0.02272
3391.04330,0.02305
3388.98313,0.02319
3386.92296,0.02296
3384.86279,0.02276
3382.80262,0.02280
3380.74244,0.02300
3378.68227,0.02308
3376.62210,0.02287
3374.56193,0.02271
3372.50176,0.02296
3370.44158,0.02335
3368.38141,0.02358
3366.32124,0.02368
3364.26107,0.02365
3362.20089,0.02343
3360.14072,0.02335
3358.08055,0.02344
3356.02038,0.02345
3353.96021,0.02354
3351.90003,0.02370
3349.83986,0.02364
3347.77969,0.02341
3345.71952,0.02342
3343.65935,0.02373
3341.59917,0.02397
3339.53900,0.02397
3337.47883,0.02387
3335.41866,0.02385
3333.35849,0.02396
3331.29831,0.02404
3329.23814,0.02405
3327.17797,0.02408
3325.11780,0.02408
3323.05762,0.02395
3320.99745,0.02374
3318.93728,0.02372
3316.87711,0.02398
3314.81694,0.02421
3312.75676,0.02419
3310.69659,0.02398
3308.63642,0.02383
3306.57625,0.02383
3304.51608,0.02375
3302.45590,0.02360
3300.39573,0.02359
3298.33556,0.02377
3296.27539,0.02389
3294.21521,0.02378
3292.15504,0.02355
3290.09487,0.02343
3288.03470,0.02348
3285.97453,0.02351
3283.91435,0.02347
3281.85418,0.02352
3279.79401,0.02372
3277.73384,0.02392
3275.67367,0.02396
3273.61349,0.02386
3271.55332,0.02379
3269.49315,0.02379
3267.43298,0.02376
3265.37281,0.02364
3263.31263,0.02358
3261.25246,0.02371
3259.19229,0.02378
3257.13212,0.02374
3255.07194,0.02370
3253.01177,0.02367
3250.95160,0.02360
3248.89143,0.02359
3246.83126,0.02362
3244.77108,0.02361
3242.71091,0.02369
3240.65074,0.02368
3238.59057,0.02346
3236.53040,0.02326
3234.47022,0.02343
3232.41005,0.02359
3230.34988,0.02332
3228.28971,0.02295
3226.22954,0.02283
3224.16936,0.02286
3222.10919,0.02288
3220.04902,0.02286
3217.98885,0.02293
3215.92867,0.02281
3213.86850,0.02247
3211.80833,0.02229
3209.74816,0.02224
3207.68799,0.02219
3205.62781,0.02198
3203.56764,0.02172
3201.50747,0.02153
3199.44730,0.02131
3197.38713,0.02112
3195.32695,0.02115
3193.26678,0.02123
3191.20661,0.02122
3189.14644,0.02113
3187.08626,0.02099
3185.02609,0.02087
3182.96592,0.02093
3180.90575,0.02098
3178.84558,0.02074
3176.78540,0.02050
3174.72523,0.02040
3172.66506,0.02030
3170.60489,0.02010
3168.54472,0.01978
3166.48454,0.01950
3164.42437,0.01926
3162.36420,0.01901
3160.30403,0.01888
3158.24386,0.01901
3156.18368,0.01927
3154.12351,0.01947
3152.06334,0.01950
3150.00317,0.01931
3147.94299,0.01895
3145.88282,0.01855
3143.82265,0.01829
3141.76248,0.01825
3139.70231,0.01826
3137.64213,0.01817
3135.58196,0.01801
3133.52179,0.01780
3131.46162,0.01774
3129.40145,0.01769
3127.34127,0.01747
3125.28110,0.01721
3123.22093,0.01704
3121.16076,0.01708
3119.10058,0.01710
3117.04041,0.01688
3114.98024,0.01672
3112.92007,0.01662
3110.85990,0.01639
3108.79972,0.01617
3106.73955,0.01609
3104.67938,0.01610
3102.61921,0.01594
3100.55904,0.01560
3098.49886,0.01538
3096.43869,0.01532
3094.37852,0.01536
3092.31835,0.01530
3090.25818,0.01510
3088.19800,0.01494
3086.13783,0.01483
3084.07766,0.01470
3082.01749,0.01444
3079.95731,0.01406
3077.89714,0.01388
3075.83697,0.01402
3073.77680,0.01419
3071.71663,0.01425
3069.65645,0.01419
3067.59628,0.01400
3065.53611,0.01365
3063.47594,0.01325
3061.41577,0.01303
3059.35559,0.01300
3057.29542,0.01293
3055.23525,0.01283
3053.17508,0.01291
3051.11491,0.01303
3049.05473,0.01294
3046.99456,0.01271
3044.93439,0.01253
3042.87422,0.01237
3040.81404,0.01215
3038.75387,0.01209
3036.69370,0.01230
3034.63353,0.01244
3032.57336,0.01217
3030.51318,0.01178
3028.45301,0.01174
3026.39284,0.01191
3024.33267,0.01191
3022.27250,0.01155
3020.21232,0.01120
3018.15215,0.01111
3016.09198,0.01102
3014.03181,0.01082
3011.97163,0.01058
3009.91146,0.01060
3007.85129,0.01087
3005.79112,0.01098
3003.73095,0.01083
3001.67077,0.01074
2999.61060,0.01079
2997.55043,0.01080
2995.49026,0.01075
2993.43009,0.01077
2991.36991,0.01069
2989.30974,0.01051
2987.24957,0.01049
2985.18940,0.01057
2983.12923,0.01060
2981.06905,0.01060
2979.00888,0.01066
2976.94871,0.01065
2974.88854,0.01055
2972.82836,0.01055
2970.76819,0.01061
2968.70802,0.01070
2966.64785,0.01088
2964.58768,0.01103
2962.52750,0.01108
2960.46733,0.01117
2958.40716,0.01134
2956.34699,0.01147
2954.28682,0.01154
2952.22664,0.01167
2950.16647,0.01182
2948.10630,0.01186
2946.04613,0.01176
2943.98596,0.01174
2941.92578,0.01187
2939.86561,0.01204
2937.80544,0.01227
2935.74527,0.01253
2933.68509,0.01262
2931.62492,0.01252
2929.56475,0.01243
2927.50458,0.01235
2925.44441,0.01221
2923.38423,0.01210
2921.32406,0.01207
2919.26389,0.01196
2917.20372,0.01185
2915.14355,0.01186
2913.08337,0.01179
2911.02320,0.01158
2908.96303,0.01145
2906.90286,0.01140
2904.84268,0.01133
2902.78251,0.01126
2900.72234,0.01128
2898.66217,0.01133
2896.60200,0.01123
2894.54182,0.01103
2892.48165,0.01097
2890.42148,0.01107
2888.36131,0.01115
2886.30114,0.01119
2884.24096,0.01121
2882.18079,0.01111
2880.12062,0.01095
2878.06045,0.01079
2876.00028,0.01069
2873.94010,0.01059
2871.87993,0.01037
2869.81976,0.01025
2867.75959,0.01017
2865.69941,0.00998
2863.63924,0.00988
2861.57907,0.00989
2859.51890,0.00989
2857.45873,0.00988
2855.39855,0.00983
2853.33838,0.00960
2851.27821,0.00931
2849.21804,0.00925
2847.15787,0.00923
2845.09769,0.00905
2843.03752,0.00889
2840.97735,0.00885
2838.91718,0.00885
2836.85700,0.00888
2834.79683,0.00892
2832.73666,0.00877
2830.67649,0.00843
2828.61632,0.00824
2826.55614,0.00828
2824.49597,0.00822
2822.43580,0.00808
2820.37563,0.00814
2818.31546,0.00828
2816.25528,0.00828
2814.19511,0.00818
2812.13494,0.00812
2810.07477,0.00811
2808.01460,0.00807
2805.95442,0.00788
2803.89425,0.00772
2801.83408,0.00768
2799.77391,0.00769
2797.71373,0.00777
2795.65356,0.00775
2793.59339,0.00758
2791.53322,0.00751
2789.47305,0.00759
2787.41287,0.00752
2785.35270,0.00733
2783.29253,0.00727
2781.23236,0.00729
2779.17219,0.00729
2777.11201,0.00728
2775.05184,0.00730
2772.99167,0.00735
2770.93150,0.00733
2768.87133,0.00728
2766.81115,0.00728
2764.75098,0.00727
2762.69081,0.00715
2760.63064,0.00698
2758.57046,0.00686
2756.51029,0.00680
2754.45012,0.00685
2752.38995,0.00690
2750.32978,0.00691
2748.26960,0.00700
2746.20943,0.00710
2744.14926,0.00711
2742.08909,0.00702
2740.02892,0.00686
2737.96874,0.00673
2735.90857,0.00667
2733.84840,0.00664
2731.78823,0.00667
2729.72805,0.00676
2727.66788,0.00669
2725.60771,0.00653
2723.54754,0.00646
2721.48737,0.00650
2719.42719,0.00660
2717.36702,0.00665
2715.30685,0.00662
2713.24668,0.00656
2711.18651,0.00652
2709.12633,0.00643
2707.06616,0.00633
2705.00599,0.00621
2702.94582,0.00608
2700.88565,0.00604
2698.82547,0.00607
2696.76530,0.00614
2694.70513,0.00629
2692.64496,0.00640
2690.58478,0.00631
2688.52461,0.00617
2686.46444,0.00616
2684.40427,0.00617
2682.34410,0.00614
2680.28392,0.00609
2678.22375,0.00600
2676.16358,0.00583
2674.10341,0.00570
2672.04324,0.00566
2669.98306,0.00554
2667.92289,0.00544
2665.86272,0.00556
2663.80255,0.00572
2661.74238,0.00580
2659.68220,0.00584
2657.62203,0.00584
2655.56186,0.00585
2653.50169,0.00579
2651.44151,0.00570
2649.38134,0.00564
2647.32117,0.00556
2645.26100,0.00547
2643.20083,0.00541
2641.14065,0.00536
2639.08048,0.00529
2637.02031,0.00522
2634.96014,0.00510
2632.89997,0.00496
2630.83979,0.00488
2628.77962,0.00483
2626.71945,0.00480
2624.65928,0.00481
2622.59910,0.00481
2620.53893,0.00484
2618.47876,0.00476
2616.41859,0.00454
2614.35842,0.00448
2612.29824,0.00472
2610.23807,0.00492
2608.17790,0.00486
2606.11773,0.00479
2604.05756,0.00476
2601.99738,0.00456
2599.93721,0.00441
2597.87704,0.00442
2595.81687,0.00441
2593.75670,0.00445
2591.69652,0.00456
2589.63635,0.00459
2587.57618,0.00449
2585.51601,0.00439
2583.45583,0.00445
2581.39566,0.00447
2579.33549,0.00425
2577.27532,0.00402
2575.21515,0.00388
2573.15497,0.00373
2571.09480,0.00379
2569.03463,0.00392
2566.97446,0.00390
2564.91429,0.00398
2562.85411,0.00407
2560.79394,0.00404
2558.73377,0.00393
2556.67360,0.00378
2554.61342,0.00371
2552.55325,0.00379
2550.49308,0.00400
2548.43291,0.00397
2546.37274,0.00372
2544.31256,0.00365
2542.25239,0.00367
2540.19222,0.00356
2538.13205,0.00353
2536.07188,0.00359
2534.01170,0.00357
2531.95153,0.00363
2529.89136,0.00384
2527.83119,0.00400
2525.77102,0.00412
2523.71084,0.00423
2521.65067,0.00408
2519.59050,0.00387
2517.53033,0.00389
2515.47015,0.00389
2513.40998,0.00388
2511.34981,0.00404
2509.28964,0.00412
2507.22947,0.00411
2505.16929,0.00415
2503.10912,0.00409
2501.04895,0.00384
2498.98878,0.00373
2496.92861,0.00393
2494.86843,0.00412
2492.80826,0.00401
2490.74809,0.00379
2488.68792,0.00377
2486.62775,0.00377
2484.56757,0.00350
2482.50740,0.00314
2480.44723,0.00310
2478.38706,0.00341
2476.32688,0.00370
2474.26671,0.00365
2472.20654,0.00341
2470.14637,0.00328
2468.08620,0.00337
2466.02602,0.00352
2463.96585,0.00358
2461.90568,0.00354
2459.84551,0.00346
2457.78534,0.00351
2455.72516,0.00363
2453.66499,0.00357
2451.60482,0.00343
2449.54465,0.00334
2447.48447,0.00325
2445.42430,0.00332
2443.36413,0.00351
2441.30396,0.00348
2439.24379,0.00336
2437.18361,0.00340
2435.12344,0.00334
2433.06327,0.00307
2431.00310,0.00296
2428.94293,0.00308
2426.88275,0.00325
2424.82258,0.00344
2422.76241,0.00357
2420.70224,0.00368
2418.64207,0.00377
2416.58189,0.00367
2414.52172,0.00344
2412.46155,0.00319
2410.40138,0.00301
2408.34120,0.00299
2406.28103,0.00298
2404.22086,0.00298
2402.16069,0.00313
2400.10052,0.00321
2398.04034,0.00313
2395.98017,0.00304
2393.92000,0.00294
2391.85983,0.00286
2389.79966,0.00287
2387.73948,0.00300
2385.67931,0.00320
2383.61914,0.00342
2381.55897,0.00341
2379.49880,0.00305
2377.43862,0.00252
2375.37845,0.00200
2373.31828,0.00193
2371.25811,0.00258
2369.19793,0.00269
2367.13776,0.00180
2365.07759,0.00148
2363.01742,0.00107
2360.95725,0.00018
2358.89707,0.00000
2356.83690,0.00164
2354.77673,0.00333
2352.71656,0.00378
2350.65639,0.00410
2348.59621,0.00386
2346.53604,0.00225
2344.47587,0.00284
2342.41570,0.00449
2340.35552,0.00505
2338.29535,0.00484
2336.23518,0.00441
2334.17501,0.00400
2332.11484,0.00365
2330.05466,0.00347
2327.99449,0.00320
2325.93432,0.00344
2323.87415,0.00387
2321.81398,0.00429
2319.75380,0.00423
2317.69363,0.00432
2315.63346,0.00434
2313.57329,0.00429
2311.51312,0.00420
2309.45294,0.00386
2307.39277,0.00338
2305.33260,0.00310
2303.27243,0.00315
2301.21225,0.00331
2299.15208,0.00353
2297.09191,0.00357
2295.03174,0.00325
2292.97157,0.00300
2290.91139,0.00310
2288.85122,0.00334
2286.79105,0.00354
2284.73088,0.00369
2282.67071,0.00360
2280.61053,0.00343
2278.55036,0.00344
2276.49019,0.00350
2274.43002,0.00340
2272.36984,0.00334
2270.30967,0.00352
2268.24950,0.00360
2266.18933,0.00345
2264.12916,0.00353
2262.06898,0.00377
2260.00881,0.00371
2257.94864,0.00341
2255.88847,0.00302
2253.82830,0.00260
2251.76812,0.00255
2249.70795,0.00265
2247.64778,0.00234
2245.58761,0.00217
2243.52744,0.00245
2241.46726,0.00293
2239.40709,0.00329
2237.34692,0.00306
2235.28675,0.00266
2233.22657,0.00274
2231.16640,0.00289
2229.10623,0.00273
2227.04606,0.00242
2224.98589,0.00248
2222.92571,0.00302
2220.86554,0.00308
2218.80537,0.00221
2216.74520,0.00141
2214.68503,0.00147
2212.62485,0.00173
2210.56468,0.00155
2208.50451,0.00147
2206.44434,0.00177
2204.38417,0.00212
2202.32399,0.00236
2200.26382,0.00244
2198.20365,0.00284
2196.14348,0.00351
2194.08330,0.00387
2192.02313,0.00392
2189.96296,0.00370
2187.90279,0.00333
2185.84262,0.00294
2183.78244,0.00248
2181.72227,0.00261
2179.66210,0.00324
2177.60193,0.00280
2175.54176,0.00115
2173.48158,0.00022
2171.42141,0.00060
2169.36124,0.00112
2167.30107,0.00148
2165.24089,0.00197
2163.18072,0.00238
2161.12055,0.00208
2159.06038,0.00106
2157.00021,0.00014
2154.94003,0.00022
2152.87986,0.00129
2150.81969,0.00178
2148.75952,0.00126
2146.69935,0.00077
2144.63917,0.00075
2142.57900,0.00086
2140.51883,0.00084
2138.45866,0.00083
2136.39849,0.00079
2134.33831,0.00094
2132.27814,0.00116
2130.21797,0.00140
2128.15780,0.00194
2126.09762,0.00234
2124.03745,0.00245
2121.97728,0.00249
2119.91711,0.00240
2117.85694,0.00221
2115.79676,0.00220
2113.73659,0.00240
2111.67642,0.00238
2109.61625,0.00224
2107.55608,0.00238
2105.49590,0.00245
2103.43573,0.00229
2101.37556,0.00228
2099.31539,0.00282
2097.25521,0.00355
2095.19504,0.00345
2093.13487,0.00258
2091.07470,0.00195
2089.01453,0.00185
2086.95435,0.00190
2084.89418,0.00191
2082.83401,0.00211
2080.77384,0.00232
2078.71367,0.00206
2076.65349,0.00161
2074.59332,0.00172
2072.53315,0.00223
2070.47298,0.00222
2068.41281,0.00172
2066.35263,0.00131
2064.29246,0.00131
2062.23229,0.00157
2060.17212,0.00158
2058.11194,0.00180
2056.05177,0.00252
2053.99160,0.00285
2051.93143,0.00234
2049.87126,0.00153
2047.81108,0.00082
2045.75091,0.00025
2043.69074,0.00006
2041.63057,0.00060
2039.57040,0.00166
2037.51022,0.00226
2035.45005,0.00183
2033.38988,0.00084
2031.32971,0.00063
2029.26954,0.00143
2027.20936,0.00206
2025.14919,0.00222
2023.08902,0.00240
2021.02885,0.00248
2018.96867,0.00193
2016.90850,0.00154
2014.84833,0.00195
2012.78816,0.00179
2010.72799,0.00083
2008.66781,0.00005
2006.60764,0.00020
2004.54747,0.00094
2002.48730,0.00113
2000.42713,0.00067
1998.36695,0.00028
1996.30678,0.00017
1994.24661,0.00000
1992.18644,0.00046
1990.12626,0.00181
1988.06609,0.00199
1986.00592,0.00121
1983.94575,0.00064
1981.88558,0.00042
1979.82540,0.00039
1977.76523,0.00045
1975.70506,0.00067
1973.64489,0.00124
1971.58472,0.00196
1969.52454,0.00187
1967.46437,0.00166
1965.40420,0.00242
1963.34403,0.00239
1961.28386,0.00145
1959.22368,0.00124
1957.16351,0.00146
1955.10334,0.00131
1953.04317,0.00093
1950.98299,0.00093
1948.92282,0.00135
1946.86265,0.00139
1944.80248,0.00093
1942.74231,0.00070
1940.68213,0.00144
1938.62196,0.00176
1936.56179,0.00164
1934.50162,0.00152
1932.44145,0.00105
1930.38127,0.00061
1928.32110,0.00055
1926.26093,0.00069
1924.20076,0.00034
1922.14059,0.00055
1920.08041,0.00096
1918.02024,0.00077
1915.96007,0.00168
1913.89990,0.00216
1911.83972,0.00154
1909.77955,0.00100
1907.71938,0.00119
1905.65921,0.00135
1903.59904,0.00112
1901.53886,0.00102
1899.47869,0.00112
1897.41852,0.00098
1895.35835,0.00085
1893.29818,0.00141
1891.23800,0.00136
1889.17783,0.00096
1887.11766,0.00132
1885.05749,0.00143
1882.99731,0.00146
1880.93714,0.00141
1878.87697,0.00111
1876.81680,0.00105
1874.75663,0.00153
1872.69645,0.00195
1870.63628,0.00113
1868.57611,0.00040
1866.51594,0.00138
1864.45577,0.00198
1862.39559,0.00155
1860.33542,0.00118
1858.27525,0.00096
1856.21508,0.00067
1854.15491,0.00065
1852.09473,0.00101
1850.03456,0.00133
1847.97439,0.00146
1845.91422,0.00071
1843.85404,0.00020
1841.79387,0.00173
1839.73370,0.00230
1837.67353,0.00168
1835.61336,0.00184
1833.55318,0.00221
1831.49301,0.00130
1829.43284,0.00108
1827.37267,0.00218
1825.31250,0.00207
1823.25232,0.00211
1821.19215,0.00216
1819.13198,0.00137
1817.07181,0.00097
1815.01163,0.00136
1812.95146,0.00131
1810.89129,0.00089
1808.83112,0.00124
1806.77095,0.00180
1804.71077,0.00182
1802.65060,0.00114
1800.59043,0.00085
1798.53026,0.00191
1796.47009,0.00274
1794.40991,0.00158
1792.34974,0.00011
1790.28957,0.00147
1788.22940,0.00282
1786.16923,0.00226
1784.10905,0.00185
1782.04888,0.00153
1779.98871,0.00130
1777.92854,0.00217
1775.86836,0.00246
1773.80819,0.00099
1771.74802,0.00041
1769.68785,0.00191
1767.62768,0.00284
1765.56750,0.00348
1763.50733,0.00268
1761.44716,0.00205
1759.38699,0.00286
1757.32682,0.00299
1755.26664,0.00406
1753.20647,0.00438
1751.14630,0.00303
1749.08613,0.00344
1747.02596,0.00505
1744.96578,0.00569
1742.90561,0.00532
1740.84544,0.00483
1738.78527,0.00611
1736.72509,0.00653
1734.66492,0.00351
1732.60475,0.00403
1730.54458,0.00605
1728.48441,0.00610
1726.42423,0.00569
1724.36406,0.00535
1722.30389,0.00615
1720.24372,0.00560
1718.18355,0.00301
1716.12337,0.00362
1714.06320,0.00595
1712.00303,0.00675
1709.94286,0.00617
1707.88268,0.00503
1705.82251,0.00491
1703.76234,0.00669
1701.70217,0.00563
1699.64200,0.00463
1697.58182,0.00558
1695.52165,0.00509
1693.46148,0.00673
1691.40131,0.00701
1689.34114,0.00668
1687.28096,0.00653
1685.22079,0.00343
1683.16062,0.00378
1681.10045,0.00771
1679.04028,0.00888
1676.98010,0.00745
1674.91993,0.00708
1672.85976,0.00888
1670.79959,0.00793
1668.73941,0.00787
1666.67924,0.01050
1664.61907,0.01002
1662.55890,0.00830
1660.49873,0.01011
1658.43855,0.01271
1656.37838,0.01188
1654.31821,0.00698
1652.25804,0.00862
1650.19787,0.01474
1648.13769,0.01279
1646.07752,0.01011
1644.01735,0.01223
1641.95718,0.01358
1639.89701,0.01337
1637.83683,0.01106
1635.77666,0.00854
1633.71649,0.01120
1631.65632,0.01349
1629.59614,0.01237
1627.53597,0.01179
1625.47580,0.01168
1623.41563,0.01095
1621.35546,0.01251
1619.29528,0.01258
1617.23511,0.00982
1615.17494,0.01050
1613.11477,0.01221
1611.05460,0.01137
1608.99442,0.01030
1606.93425,0.01030
1604.87408,0.01029
1602.81391,0.00977
1600.75373,0.00943
1598.69356,0.00924
1596.63339,0.00875
1594.57322,0.00834
1592.51305,0.00823
1590.45287,0.00781
1588.39270,0.00711
1586.33253,0.00650
1584.27236,0.00617
1582.21219,0.00655
1580.15201,0.00711
1578.09184,0.00523
1576.03167,0.00349
1573.97150,0.00639
1571.91133,0.00691
1569.85115,0.00427
1567.79098,0.00489
1565.73081,0.00631
1563.67064,0.00742
1561.61046,0.00550
1559.55029,0.00000
1557.49012,0.00291
1555.42995,0.00677
1553.36978,0.00624
1551.30960,0.00494
1549.24943,0.00489
1547.18926,0.00591
1545.12909,0.00564
1543.06892,0.00426
1541.00874,0.00146
1538.94857,0.00278
1536.88840,0.00699
1534.82823,0.00538
1532.76805,0.00332
1530.70788,0.00500
1528.64771,0.00493
1526.58754,0.00425
1524.52737,0.00467
1522.46719,0.00349
1520.40702,0.00377
1518.34685,0.00454
1516.28668,0.00381
1514.22651,0.00479
1512.16633,0.00593
1510.10616,0.00496
1508.04599,0.00055
1505.98582,0.00021
1503.92565,0.00533
1501.86547,0.00663
1499.80530,0.00422
1497.74513,0.00220
1495.68496,0.00344
1493.62478,0.00563
1491.56461,0.00410
1489.50444,0.00187
1487.44427,0.00281
1485.38410,0.00431
1483.32392,0.00423
1481.26375,0.00378
1479.20358,0.00444
1477.14341,0.00482
1475.08324,0.00406
1473.02306,0.00296
1470.96289,0.00485
1468.90272,0.00708
1466.84255,0.00576
1464.78238,0.00470
1462.72220,0.00723
1460.66203,0.00813
1458.60186,0.00471
1456.54169,0.00367
1454.48151,0.00721
1452.42134,0.00840
1450.36117,0.00706
1448.30100,0.00571
1446.24083,0.00606
1444.18065,0.00702
1442.12048,0.00762
1440.06031,0.00780
1438.00014,0.00615
1435.93997,0.00593
1433.87979,0.00829
1431.81962,0.00832
1429.75945,0.00748
1427.69928,0.00821
1425.63910,0.00853
1423.57893,0.00890
1421.51876,0.00899
1419.45859,0.00742
1417.39842,0.00800
1415.33824,0.00939
1413.27807,0.00915
1411.21790,0.00869
1409.15773,0.00890
1407.09756,0.00850
1405.03738,0.00779
1402.97721,0.00831
1400.91704,0.00821
1398.85687,0.00743
1396.79670,0.00719
1394.73652,0.00682
1392.67635,0.00758
1390.61618,0.00788
1388.55601,0.00655
1386.49583,0.00637
1384.43566,0.00762
1382.37549,0.00803
1380.31532,0.00798
1378.25515,0.00820
1376.19497,0.00791
1374.13480,0.00746
1372.07463,0.00818
1370.01446,0.00844
1367.95429,0.00828
1365.89411,0.00822
1363.83394,0.00720
1361.77377,0.00684
1359.71360,0.00764
1357.65343,0.00782
1355.59325,0.00747
1353.53308,0.00733
1351.47291,0.00724
1349.41274,0.00704
1347.35256,0.00702
1345.29239,0.00723
1343.23222,0.00727
1341.17205,0.00647
1339.11188,0.00585
1337.05170,0.00641
1334.99153,0.00684
1332.93136,0.00670
1330.87119,0.00659
1328.81102,0.00665
1326.75084,0.00667
1324.69067,0.00664
1322.63050,0.00662
1320.57033,0.00650
1318.51015,0.00657
1316.44998,0.00693
1314.38981,0.00696
1312.32964,0.00689
1310.26947,0.00687
1308.20929,0.00659
1306.14912,0.00635
1304.08895,0.00619
1302.02878,0.00601
1299.96861,0.00591
1297.90843,0.00586
1295.84826,0.00573
1293.78809,0.00558
1291.72792,0.00549
1289.66775,0.00534
1287.60757,0.00516
1285.54740,0.00513
1283.48723,0.00506
1281.42706,0.00490
1279.36688,0.00486
1277.30671,0.00497
1275.24654,0.00510
1273.18637,0.00511
1271.12620,0.00518
1269.06602,0.00551
1267.00585,0.00586
1264.94568,0.00619
1262.88551,0.00650
1260.82534,0.00670
1258.76516,0.00688
1256.70499,0.00696
1254.64482,0.00693
1252.58465,0.00692
1250.52447,0.00704
1248.46430,0.00726
1246.40413,0.00741
1244.34396,0.00737
1242.28379,0.00719
1240.22361,0.00695
1238.16344,0.00675
1236.10327,0.00663
1234.04310,0.00651
1231.98293,0.00628
1229.92275,0.00595
1227.86258,0.00563
1225.80241,0.00524
1223.74224,0.00487
1221.68207,0.00465
1219.62189,0.00447
1217.56172,0.00416
1215.50155,0.00379
1213.44138,0.00352
1211.38120,0.00335
1209.32103,0.00311
1207.26086,0.00272
1205.20069,0.00222
1203.14052,0.00173
1201.08034,0.00137
1199.02017,0.00109
1196.96000,0.00085
1194.89983,0.00063
1192.83966,0.00036
1190.77948,0.00010
1188.71931,0.00000
1186.65914,0.00003
1184.59897,0.00017
1182.53880,0.00038
1180.47862,0.00066
1178.41845,0.00099
1176.35828,0.00139
1174.29811,0.00190
1172.23793,0.00246
1170.17776,0.00308
1168.11759,0.00381
1166.05742,0.00451
1163.99725,0.00496
1161.93707,0.00532
1159.87690,0.00581
1157.81673,0.00641
1155.75656,0.00693
1153.69639,0.00739
1151.63621,0.00790
1149.57604,0.00823
1147.51587,0.00834
1145.45570,0.00856
1143.39552,0.00880
1141.33535,0.00888
1139.27518,0.00892
1137.21501,0.00904
1135.15484,0.00937
1133.09466,0.00985
1131.03449,0.01028
1128.97432,0.01061
1126.91415,0.01105
1124.85398,0.01166
1122.79380,0.01228
1120.73363,0.01283
1118.67346,0.01333
1116.61329,0.01393
1114.55312,0.01459
1112.49294,0.01510
1110.43277,0.01558
1108.37260,0.01611
1106.31243,0.01662
1104.25225,0.01711
1102.19208,0.01764
1100.13191,0.01835
1098.07174,0.01923
1096.01157,0.02006
1093.95139,0.02081
1091.89122,0.02150
1089.83105,0.02202
1087.77088,0.02253
1085.71071,0.02316
1083.65053,0.02371
1081.59036,0.02416
1079.53019,0.02473
1077.47002,0.02545
1075.40985,0.02622
1073.34967,0.02686
1071.28950,0.02729
1069.22933,0.02768
1067.16916,0.02802
1065.10898,0.02824
1063.04881,0.02847
1060.98864,0.02878
1058.92847,0.02920
1056.86830,0.02956
1054.80812,0.02976
1052.74795,0.02996
1050.68778,0.03015
1048.62761,0.03032
1046.56744,0.03072
1044.50726,0.03125
1042.44709,0.03172
1040.38692,0.03205
1038.32675,0.03215
1036.26657,0.03204
1034.20640,0.03196
1032.14623,0.03199
1030.08606,0.03190
1028.02589,0.03166
1025.96571,0.03146
1023.90554,0.03137
1021.84537,0.03133
1019.78520,0.03138
1017.72503,0.03139
1015.66485,0.03129
1013.60468,0.03116
1011.54451,0.03091
1009.48434,0.03046
1007.42417,0.03004
1005.36399,0.02976
1003.30382,0.02954
1001.24365,0.02927
999.18348,0.02896
997.12330,0.02848
995.06313,0.02792
993.00296,0.02749
990.94279,0.02713
988.88262,0.02667
986.82244,0.02612
984.76227,0.02576
982.70210,0.02572
980.64193,0.02576
978.58176,0.02554
976.52158,0.02499
974.46141,0.02437
972.40124,0.02393
970.34107,0.02348
968.28089,0.02283
966.22072,0.02207
964.16055,0.02131
962.10038,0.02073
960.04021,0.02030
957.98003,0.01977
955.91986,0.01918
953.85969,0.01855
951.79952,0.01788
949.73935,0.01721
947.67917,0.01648
945.61900,0.01565
943.55883,0.01470
941.49866,0.01363
939.43849,0.01245
937.37831,0.01111
935.31814,0.00974
933.25797,0.00856
931.19780,0.00754
929.13762,0.00666
927.07745,0.00595
925.01728,0.00514
922.95711,0.00443
920.89694,0.00407
918.83676,0.00384
916.77659,0.00353
914.71642,0.00327
912.65625,0.00300
910.59608,0.00268
908.53590,0.00253
906.47573,0.00241
904.41556,0.00224
902.35539,0.00224
900.29522,0.00241
898.23504,0.00255
896.17487,0.00263
894.11470,0.00266
892.05453,0.00254
889.99435,0.00229
887.93418,0.00216
885.87401,0.00230
883.81384,0.00258
881.75367,0.00255
879.69349,0.00207
877.63332,0.00141
875.57315,0.00099
873.51298,0.00102
871.45281,0.00113
869.39263,0.00107
867.33246,0.00109
865.27229,0.00111
863.21212,0.00102
861.15194,0.00107
859.09177,0.00125
857.03160,0.00126
854.97143,0.00106
852.91126,0.00095
850.85108,0.00110
848.79091,0.00122
846.73074,0.00120
844.67057,0.00099
842.61040,0.00066
840.55022,0.00037
838.49005,0.00010
836.42988,0.00000
834.36971,0.00005
832.30954,-0.00003
830.24936,-0.00015
828.18919,-0.00010
826.12902,-0.00010
824.06885,-0.00038
822.00867,-0.00051
819.94850,-0.00034
817.88833,-0.00028
815.82816,-0.00021
813.76799,0.00015
811.70781,0.00062
809.64764,0.00100
807.58747,0.00114
805.52730,0.00119
803.46713,0.00158
801.40695,0.00202
799.34678,0.00195
797.28661,0.00158
795.22644,0.00120
793.16627,0.00076
791.10609,0.00044
789.04592,0.00023
786.98575,0.00000
784.92558,0.00008
782.86540,0.00055
780.80523,0.00066
778.74506,0.00041
776.68489,0.00026
774.62472,0.00033
772.56454,0.00052
770.50437,0.00043
768.44420,-0.00008
766.38403,-0.00057
764.32386,-0.00063
762.26368,-0.00047
760.20351,-0.00035
758.14334,-0.00004
756.08317,0.00051
754.02299,0.00075
751.96282,0.00054
749.90265,0.00018
747.84248,0.00001
745.78231,0.00015
743.72213,0.00023
741.66196,-0.00005
739.60179,-0.00032
737.54162,-0.00033
735.48145,-0.00024
733.42127,-0.00021
731.36110,-0.00023
729.30093,-0.00004
727.24076,0.00018
725.18059,-0.00008
723.12041,-0.00035
721.06024,-0.00034
719.00007,0.00038
716.93990,0.00098
714.87972,0.00094
712.81955,0.00057
710.75938,0.00031
708.69921,0.00046
706.63904,0.00068
704.57886,0.00047
702.51869,0.00019
700.45852,0.00059
698.39835,0.00137
696.33818,0.00176
694.27800,0.00163
692.21783,0.00106
690.15766,0.00012
688.09749,-0.00045
686.03731,-0.00002
683.97714,0.00087
681.91697,0.00129
679.85680,0.00120
677.79663,0.00117
675.73645,0.00131
673.67628,0.00166
671.61611,0.00192
669.55594,-0.00029
667.49577,-0.00243
665.43559,0.00072
663.37542,0.00099
661.31525,0.00045
659.25508,0.00061
657.19491,0.00119
655.13473,0.00170
653.07456,0.00171
651.01439,0.00087
648.95422,0.00000
646.89404,0.00013
644.83387,0.00100
642.77370,0.00187
640.71353,0.00210
638.65336,0.00168
636.59318,0.00088
634.53301,0.00011
632.47284,-0.00035
630.41267,-0.00053
628.35250,-0.00025
626.29232,0.00009
624.23215,-0.00036
622.17198,-0.00047
620.11181,-0.00043
618.05164,-0.00051
615.99146,0.00031
613.93129,0.00091
611.87112,-0.00016
609.81095,-0.00173
607.75077,-0.00269
605.69060,-0.00342
603.63043,-0.00290
601.57026,-0.00107
599.51009,0.00000
