3996.73391,0.00001
3994.67373,-0.00006
3992.61356,0.00007
3990.55339,0.00019
3988.49322,0.00021
3986.43305,0.00013
3984.37287,0.00005
3982.31270,-0.00000
3980.25253,-0.00000
3978.19236,-0.00002
3976.13219,0.00000
3974.07201,0.00016
3972.01184,0.00033
3969.95167,0.00040
3967.89150,0.00055
3965.83133,0.00073
3963.77115,0.00066
3961.71098,0.00062
3959.65081,0.00080
3957.59064,0.00081
3955.53046,0.00066
3953.47029,0.00060
3951.41012,0.00056
3949.34995,0.00056
3947.28978,0.00089
3945.22960,0.00104
3943.16943,0.00079
3941.10926,0.00087
3939.04909,0.00108
3936.98892,0.00118
3934.92874,0.00103
3932.86857,0.00063
3930.80840,0.00071
3928.74823,0.00123
3926.68805,0.00122
3924.62788,0.00101
3922.56771,0.00126
3920.50754,0.00120
3918.44737,0.00083
3916.38719,0.00094
3914.32702,0.00135
3912.26685,0.00148
3910.20668,0.00167
3908.14651,0.00188
3906.08633,0.00152
3904.02616,0.00134
3901.96599,0.00171
3899.90582,0.00172
3897.84565,0.00201
3895.78547,0.00232
3893.72530,0.00171
3891.66513,0.00136
3889.60496,0.00230
3887.54478,0.00239
3885.48461,0.00203
3883.42444,0.00253
3881.36427,0.00209
3879.30410,0.00208
3877.24392,0.00271
3875.18375,0.00230
3873.12358,0.00196
3871.06341,0.00171
3869.00324,0.00227
3866.94306,0.00287
3864.88289,0.00200
3862.82272,0.00181
3860.76255,0.00260
3858.70237,0.00311
3856.64220,0.00209
3854.58203,0.00000
3852.52186,0.00072
3850.46169,0.00329
3848.40151,0.00392
3846.34134,0.00322
3844.28117,0.00263
3842.22100,0.00243
3840.16083,0.00162
3838.10065,0.00081
3836.04048,0.00131
3833.98031,0.00183
3831.92014,0.00194
3829.85997,0.00227
3827.79979,0.00226
3825.73962,0.00236
3823.67945,0.00185
3821.61928,0.00078
3819.55910,0.00198
3817.49893,0.00259
3815.43876,0.00224
3813.37859,0.00292
3811.31842,0.00309
3809.25824,0.00234
3807.19807,0.00209
3805.13790,0.00315
3803.07773,0.00282
3801.01756,0.00239
3798.95738,0.00337
3796.89721,0.00328
3794.83704,0.00301
3792.77687,0.00284
3790.71670,0.00243
3788.65652,0.00207
3786.59635,0.00177
3784.53618,0.00204
3782.47601,0.00251
3780.41583,0.00218
3778.35566,0.00226
3776.29549,0.00281
3774.23532,0.00265
3772.17515,0.00191
3770.11497,0.00151
3768.05480,0.00192
3765.99463,0.00217
3763.93446,0.00267
3761.87429,0.00278
3759.81411,0.00234
3757.75394,0.00285
3755.69377,0.00347
3753.63360,0.00249
3751.57342,0.00116
3749.51325,0.00242
3747.45308,0.00379
3745.39291,0.00232
3743.33274,0.00219
3741.27256,0.00374
3739.21239,0.00355
3737.15222,0.00196
3735.09205,0.00104
3733.03188,0.00157
3730.97170,0.00254
3728.91153,0.00274
3726.85136,0.00221
3724.79119,0.00239
3722.73102,0.00282
3720.67084,0.00301
3718.61067,0.00317
3716.55050,0.00340
3714.49033,0.00279
3712.43015,0.00153
3710.36998,0.00178
3708.30981,0.00312
3706.24964,0.00369
3704.18947,0.00303
3702.12929,0.00227
3700.06912,0.00267
3698.00895,0.00320
3695.94878,0.00333
3693.88861,0.00344
3691.82843,0.00296
3689.76826,0.00212
3687.70809,0.00263
3685.64792,0.00384
3683.58775,0.00414
3681.52757,0.00405
3679.46740,0.00412
3677.40723,0.00357
3675.34706,0.00372
3673.28688,0.00565
3671.22671,0.00517
3669.16654,0.00419
3667.10637,0.00501
3665.04620,0.00525
3662.98602,0.00514
3660.92585,0.00566
3658.86568,0.00601
3656.80551,0.00609
3654.74534,0.00728
3652.68516,0.00761
3650.62499,0.00639
3648.56482,0.00675
3646.50465,0.00850
3644.44447,0.00924
3642.38430,0.00878
3640.32413,0.00851
3638.26396,0.00884
3636.20379,0.00937
3634.14361,0.01002
3632.08344,0.01044
3630.02327,0.00973
3627.96310,0.01032
3625.90293,0.01254
3623.84275,0.01370
3621.78258,0.01357
3619.72241,0.01325
3617.66224,0.01409
3615.60207,0.01488
3613.54189,0.01483
3611.48172,0.01503
3609.42155,0.01520
3607.36138,0.01559
3605.30120,0.01658
3603.24103,0.01705
3601.18086,0.01705
3599.12069,0.01761
3597.06052,0.01837
3595.00034,0.01905
3592.94017,0.02010
3590.88000,0.02072
3588.81983,0.02026
3586.75966,0.02057
3584.69948,0.02190
3582.63931,0.02255
3580.57914,0.02287
3578.51897,0.02349
3576.45879,0.02412
3574.39862,0.02480
3572.33845,0.02568
3570.27828,0.02617
3568.21811,0.02610
3566.15793,0.02659
3564.09776,0.02753
3562.03759,0.02791
3559.97742,0.02823
3557.91725,0.02897
3555.85707,0.02968
3553.79690,0.03022
3551.73673,0.03112
3549.67656,0.03200
3547.61639,0.03200
3545.55621,0.03187
3543.49604,0.03245
3541.43587,0.03326
3539.37570,0.03386
3537.31552,0.03427
3535.25535,0.03476
3533.19518,0.03540
3531.13501,0.03591
3529.07484,0.03625
3527.01466,0.03656
3524.95449,0.03699
3522.89432,0.03774
3520.83415,0.03860
3518.77398,0.03913
3516.71380,0.03949
3514.65363,0.03983
3512.59346,0.04021
3510.53329,0.04071
3508.47312,0.04143
3506.41294,0.04217
3504.35277,0.04263
3502.29260,0.04328
3500.23243,0.04389
3498.17225,0.04387
3496.11208,0.04381
3494.05191,0.04425
3491.99174,0.04498
3489.93157,0.04561
3487.87139,0.04603
3485.81122,0.04636
3483.75105,0.04653
3481.69088,0.04691
3479.63071,0.04772
3477.57053,0.04832
3475.51036,0.04867
3473.45019,0.04923
3471.39002,0.04992
3469.32984,0.05046
3467.26967,0.05081
3465.20950,0.05115
3463.14933,0.05139
3461.08916,0.05155
3459.02898,0.05180
3456.96881,0.05228
3454.90864,0.05293
3452.84847,0.05340
3450.78830,0.05360
3448.72812,0.05378
3446.66795,0.05452
3444.60778,0.05547
3442.54761,0.05587
3440.48744,0.05616
3438.42726,0.05648
3436.36709,0.05662
3434.30692,0.05693
3432.24675,0.05762
3430.18657,0.05815
3428.12640,0.05835
3426.06623,0.05873
3424.00606,0.05927
3421.94589,0.05958
3419.88571,0.05982
3417.82554,0.05998
3415.76537,0.06010
3413.70520,0.06029
3411.64503,0.06044
3409.58485,0.06065
3407.52468,0.06087
3405.46451,0.06107
3403.40434,0.06147
3401.34416,0.06198
3399.28399,0.06238
3397.22382,0.06270
3395.16365,0.06301
3393.10348,0.06335
3391.04330,0.06383
3388.98313,0.06409
3386.92296,0.06408
3384.86279,0.06414
3382.80262,0.06425
3380.74244,0.06441
3378.68227,0.06464
3376.62210,0.06489
3374.56193,0.06522
3372.50176,0.06557
3370.44158,0.06564
3368.38141,0.06547
3366.32124,0.06545
3364.26107,0.06571
3362.20089,0.06596
3360.14072,0.06614
3358.08055,0.06631
3356.02038,0.06628
3353.96021,0.06618
3351.90003,0.06626
3349.83986,0.06638
3347.77969,0.06637
3345.71952,0.06654
3343.65935,0.06692
3341.59917,0.06714
3339.53900,0.06703
3337.47883,0.06676
3335.41866,0.06656
3333.35849,0.06650
3331.29831,0.06645
3329.23814,0.06645
3327.17797,0.06666
3325.11780,0.06680
3323.05762,0.06674
3320.99745,0.06675
3318.93728,0.06699
3316.87711,0.06734
3314.81694,0.06751
3312.75676,0.06742
3310.69659,0.06719
3308.63642,0.06694
3306.57625,0.06690
3304.51608,0.06707
3302.45590,0.06725
3300.39573,0.06727
3298.33556,0.06705
3296.27539,0.06680
3294.21521,0.06672
3292.15504,0.06672
3290.09487,0.06676
3288.03470,0.06678
3285.97453,0.06669
3283.91435,0.06663
3281.85418,0.06665
3279.79401,0.06670
3277.73384,0.06674
3275.67367,0.06667
3273.61349,0.06654
3271.55332,0.06652
3269.49315,0.06650
3267.43298,0.06632
3265.37281,0.06611
3263.31263,0.06602
3261.25246,0.06600
3259.19229,0.06598
3257.13212,0.06595
3255.07194,0.06582
3253.01177,0.06557
3250.95160,0.06528
3248.89143,0.06504
3246.83126,0.06483
3244.77108,0.06464
3242.71091,0.06455
3240.65074,0.06447
3238.59057,0.06438
3236.53040,0.06431
3234.47022,0.06428
3232.41005,0.06415
3230.34988,0.06368
3228.28971,0.06308
3226.22954,0.06265
3224.16936,0.06236
3222.10919,0.06214
3220.04902,0.06195
3217.98885,0.06162
3215.92867,0.06115
3213.86850,0.06083
3211.80833,0.06071
3209.74816,0.06055
3207.68799,0.06020
3205.62781,0.05955
3203.56764,0.05889
3201.50747,0.05851
3199.44730,0.05815
3197.38713,0.05762
3195.32695,0.05712
3193.26678,0.05678
3191.20661,0.05659
3189.14644,0.05635
3187.08626,0.05588
3185.02609,0.05531
3182.96592,0.05490
3180.90575,0.05455
3178.84558,0.05407
3176.78540,0.05358
3174.72523,0.05323
3172.66506,0.05295
3170.60489,0.05245
3168.54472,0.05176
3166.48454,0.05113
3164.42437,0.05049
3162.36420,0.04979
3160.30403,0.04941
3158.24386,0.04942
3156.18368,0.04936
3154.12351,0.04900
3152.06334,0.04835
3150.00317,0.04753
3147.94299,0.04683
3145.88282,0.04627
3143.82265,0.04559
3141.76248,0.04489
3139.70231,0.04442
3137.64213,0.04419
3135.58196,0.04394
3133.52179,0.04348
3131.46162,0.04305
3129.40145,0.04263
3127.34127,0.04203
3125.28110,0.04136
3123.22093,0.04079
3121.16076,0.04037
3119.10058,0.03995
3117.04041,0.03945
3114.98024,0.03899
3112.92007,0.03849
3110.85990,0.03784
3108.79972,0.03725
3106.73955,0.03680
3104.67938,0.03651
3102.61921,0.03619
3100.55904,0.03554
3098.49886,0.03479
3096.43869,0.03426
3094.37852,0.03390
3092.31835,0.03355
3090.25818,0.03311
3088.19800,0.03270
3086.13783,0.03245
3084.07766,0.03218
3082.01749,0.03166
3079.95731,0.03095
3077.89714,0.03039
3075.83697,0.03020
3073.77680,0.03006
3071.71663,0.02971
3069.65645,0.02923
3067.59628,0.02879
3065.53611,0.02843
3063.47594,0.02808
3061.41577,0.02771
3059.35559,0.02731
3057.29542,0.02686
3055.23525,0.02646
3053.17508,0.02621
3051.11491,0.02602
3049.05473,0.02573
3046.99456,0.02519
3044.93439,0.02464
3042.87422,0.02436
3040.81404,0.02418
3038.75387,0.02396
3036.69370,0.02375
3034.63353,0.02347
3032.57336,0.02306
3030.51318,0.02266
3028.45301,0.02239
3026.39284,0.02221
3024.33267,0.02201
3022.27250,0.02163
3020.21232,0.02123
3018.15215,0.02097
3016.09198,0.02077
3014.03181,0.02050
3011.97163,0.02029
3009.91146,0.02034
3007.85129,0.02047
3005.79112,0.02040
3003.73095,0.02019
3001.67077,0.02001
2999.61060,0.01988
2997.55043,0.01973
2995.49026,0.01956
2993.43009,0.01951
2991.36991,0.01958
2989.30974,0.01958
2987.24957,0.01952
2985.18940,0.01948
2983.12923,0.01944
2981.06905,0.01944
2979.00888,0.01962
2976.94871,0.02001
2974.88854,0.02036
2972.82836,0.02055
2970.76819,0.02080
2968.70802,0.02116
2966.64785,0.02145
2964.58768,0.02176
2962.52750,0.02223
2960.46733,0.02284
2958.40716,0.02340
2956.34699,0.02378
2954.28682,0.02413
2952.22664,0.02453
2950.16647,0.02503
2948.10630,0.02568
2946.04613,0.02619
2943.98596,0.02644
2941.92578,0.02670
2939.86561,0.02702
2937.80544,0.02727
2935.74527,0.02752
2933.68509,0.02775
2931.62492,0.02779
2929.56475,0.02767
2927.50458,0.02744
2925.44441,0.02698
2923.38423,0.02645
2921.32406,0.02606
2919.26389,0.02574
2917.20372,0.02554
2915.14355,0.02557
2913.08337,0.02552
2911.02320,0.02508
2908.96303,0.02450
2906.90286,0.02414
2904.84268,0.02410
2902.78251,0.02413
2900.72234,0.02413
2898.66217,0.02413
2896.60200,0.02401
2894.54182,0.02372
2892.48165,0.02342
2890.42148,0.02329
2888.36131,0.02316
2886.30114,0.02295
2884.24096,0.02284
2882.18079,0.02279
2880.12062,0.02267
2878.06045,0.02241
2876.00028,0.02203
2873.94010,0.02149
2871.87993,0.02101
2869.81976,0.02077
2867.75959,0.02040
2865.69941,0.01983
2863.63924,0.01938
2861.57907,0.01904
2859.51890,0.01876
2857.45873,0.01853
2855.39855,0.01828
2853.33838,0.01795
2851.27821,0.01755
2849.21804,0.01721
2847.15787,0.01695
2845.09769,0.01674
2843.03752,0.01661
2840.97735,0.01650
2838.91718,0.01635
2836.85700,0.01615
2834.79683,0.01586
2832.73666,0.01556
2830.67649,0.01530
2828.61632,0.01505
2826.55614,0.01474
2824.49597,0.01438
2822.43580,0.01422
2820.37563,0.01443
2818.31546,0.01459
2816.25528,0.01434
2814.19511,0.01395
2812.13494,0.01373
2810.07477,0.01359
2808.01460,0.01344
2805.95442,0.01332
2803.89425,0.01326
2801.83408,0.01314
2799.77391,0.01301
2797.71373,0.01302
2795.65356,0.01300
2793.59339,0.01278
2791.53322,0.01264
2789.47305,0.01268
2787.41287,0.01261
2785.35270,0.01239
2783.29253,0.01222
2781.23236,0.01211
2779.17219,0.01203
2777.11201,0.01191
2775.05184,0.01183
2772.99167,0.01183
2770.93150,0.01177
2768.87133,0.01171
2766.81115,0.01174
2764.75098,0.01176
2762.69081,0.01166
2760.63064,0.01142
2758.57046,0.01123
2756.51029,0.01117
2754.45012,0.01110
2752.38995,0.01106
2750.32978,0.01112
2748.26960,0.01119
2746.20943,0.01119
2744.14926,0.01109
2742.08909,0.01085
2740.02892,0.01065
2737.96874,0.01060
2735.90857,0.01056
2733.84840,0.01048
2731.78823,0.01044
2729.72805,0.01036
2727.66788,0.01020
2725.60771,0.01001
2723.54754,0.00995
2721.48737,0.01003
2719.42719,0.01005
2717.36702,0.01006
2715.30685,0.01011
2713.24668,0.01012
2711.18651,0.01012
2709.12633,0.01014
2707.06616,0.01005
2705.00599,0.00985
2702.94582,0.00968
2700.88565,0.00956
2698.82547,0.00950
2696.76530,0.00948
2694.70513,0.00944
2692.64496,0.00935
2690.58478,0.00919
2688.52461,0.00904
2686.46444,0.00905
2684.40427,0.00908
2682.34410,0.00904
2680.28392,0.00899
2678.22375,0.00890
2676.16358,0.00870
2674.10341,0.00850
2672.04324,0.00850
2669.98306,0.00856
2667.92289,0.00854
2665.86272,0.00857
2663.80255,0.00863
2661.74238,0.00863
2659.68220,0.00856
2657.62203,0.00840
2655.56186,0.00833
2653.50169,0.00833
2651.44151,0.00816
2649.38134,0.00785
2647.32117,0.00765
2645.26100,0.00760
2643.20083,0.00766
2641.14065,0.00769
2639.08048,0.00756
2637.02031,0.00725
2634.96014,0.00696
2632.89997,0.00691
2630.83979,0.00699
2628.77962,0.00691
2626.71945,0.00675
2624.65928,0.00669
2622.59910,0.00673
2620.53893,0.00678
2618.47876,0.00670
2616.41859,0.00651
2614.35842,0.00638
2612.29824,0.00643
2610.23807,0.00648
2608.17790,0.00634
2606.11773,0.00623
2604.05756,0.00614
2601.99738,0.00588
2599.93721,0.00564
2597.87704,0.00566
2595.81687,0.00585
2593.75670,0.00606
2591.69652,0.00601
2589.63635,0.00563
2587.57618,0.00532
2585.51601,0.00533
2583.45583,0.00550
2581.39566,0.00566
2579.33549,0.00577
2577.27532,0.00572
2575.21515,0.00536
2573.15497,0.00499
2571.09480,0.00507
2569.03463,0.00527
2566.97446,0.00528
2564.91429,0.00540
2562.85411,0.00559
2560.79394,0.00554
2558.73377,0.00518
2556.67360,0.00482
2554.61342,0.00469
2552.55325,0.00486
2550.49308,0.00512
2548.43291,0.00506
2546.37274,0.00484
2544.31256,0.00485
2542.25239,0.00489
2540.19222,0.00478
2538.13205,0.00459
2536.07188,0.00442
2534.01170,0.00446
2531.95153,0.00467
2529.89136,0.00479
2527.83119,0.00472
2525.77102,0.00460
2523.71084,0.00462
2521.65067,0.00469
2519.59050,0.00467
2517.53033,0.00460
2515.47015,0.00444
2513.40998,0.00439
2511.34981,0.00465
2509.28964,0.00477
2507.22947,0.00449
2505.16929,0.00427
2503.10912,0.00434
2501.04895,0.00433
2498.98878,0.00411
2496.92861,0.00409
2494.86843,0.00448
2492.80826,0.00461
2490.74809,0.00417
2488.68792,0.00396
2486.62775,0.00418
2484.56757,0.00409
2482.50740,0.00374
2480.44723,0.00374
2478.38706,0.00384
2476.32688,0.00373
2474.26671,0.00382
2472.20654,0.00402
2470.14637,0.00393
2468.08620,0.00376
2466.02602,0.00370
2463.96585,0.00364
2461.90568,0.00363
2459.84551,0.00370
2457.78534,0.00389
2455.72516,0.00402
2453.66499,0.00403
2451.60482,0.00406
2449.54465,0.00402
2447.48447,0.00372
2445.42430,0.00342
2443.36413,0.00339
2441.30396,0.00344
2439.24379,0.00346
2437.18361,0.00346
2435.12344,0.00346
2433.06327,0.00358
2431.00310,0.00369
2428.94293,0.00350
2426.88275,0.00332
2424.82258,0.00353
2422.76241,0.00371
2420.70224,0.00355
2418.64207,0.00335
2416.58189,0.00335
2414.52172,0.00337
2412.46155,0.00322
2410.40138,0.00310
2408.34120,0.00318
2406.28103,0.00324
2404.22086,0.00313
2402.16069,0.00306
2400.10052,0.00319
2398.04034,0.00344
2395.98017,0.00346
2393.92000,0.00322
2391.85983,0.00308
2389.79966,0.00320
2387.73948,0.00337
2385.67931,0.00354
2383.61914,0.00373
2381.55897,0.00378
2379.49880,0.00363
2377.43862,0.00341
2375.37845,0.00300
2373.31828,0.00304
2371.25811,0.00362
2369.19793,0.00329
2367.13776,0.00178
2365.07759,0.00087
2363.01742,0.00062
2360.95725,0.00142
2358.89707,0.00157
2356.83690,0.00262
2354.77673,0.00382
2352.71656,0.00388
2350.65639,0.00478
2348.59621,0.00524
2346.53604,0.00234
2344.47587,0.00224
2342.41570,0.00372
2340.35552,0.00490
2338.29535,0.00553
2336.23518,0.00519
2334.17501,0.00437
2332.11484,0.00354
2330.05466,0.00304
2327.99449,0.00247
2325.93432,0.00309
2323.87415,0.00379
2321.81398,0.00434
2319.75380,0.00401
2317.69363,0.00388
2315.63346,0.00350
2313.57329,0.00326
2311.51312,0.00355
2309.45294,0.00376
2307.39277,0.00377
2305.33260,0.00386
2303.27243,0.00396
2301.21225,0.00365
2299.15208,0.00348
2297.09191,0.00369
2295.03174,0.00380
2292.97157,0.00361
2290.91139,0.00336
2288.85122,0.00329
2286.79105,0.00352
2284.73088,0.00385
2282.67071,0.00380
2280.61053,0.00343
2278.55036,0.00332
2276.49019,0.00356
2274.43002,0.00378
2272.36984,0.00372
2270.30967,0.00355
2268.24950,0.00338
2266.18933,0.00314
2264.12916,0.00301
2262.06898,0.00317
2260.00881,0.00339
2257.94864,0.00344
2255.88847,0.00316
2253.82830,0.00293
2251.76812,0.00311
2249.70795,0.00317
2247.64778,0.00272
2245.58761,0.00268
2243.52744,0.00312
2241.46726,0.00333
2239.40709,0.00336
2237.34692,0.00321
2235.28675,0.00307
2233.22657,0.00327
2231.16640,0.00337
2229.10623,0.00290
2227.04606,0.00235
2224.98589,0.00223
2222.92571,0.00256
2220.86554,0.00276
2218.80537,0.00235
2216.74520,0.00208
2214.68503,0.00239
2212.62485,0.00271
2210.56468,0.00267
2208.50451,0.00258
2206.44434,0.00271
2204.38417,0.00299
2202.32399,0.00319
2200.26382,0.00279
2198.20365,0.00238
2196.14348,0.00292
2194.08330,0.00395
2192.02313,0.00437
2189.96296,0.00384
2187.90279,0.00321
2185.84262,0.00314
2183.78244,0.00331
2181.72227,0.00345
2179.66210,0.00340
2177.60193,0.00298
2175.54176,0.00263
2173.48158,0.00260
2171.42141,0.00264
2169.36124,0.00247
2167.30107,0.00277
2165.24089,0.00429
2163.18072,0.00518
2161.12055,0.00348
2159.06038,0.00118
2157.00021,0.00046
2154.94003,0.00102
2152.87986,0.00178
2150.81969,0.00176
2148.75952,0.00160
2146.69935,0.00180
2144.63917,0.00148
2142.57900,0.00093
2140.51883,0.00117
2138.45866,0.00174
2136.39849,0.00178
2134.33831,0.00163
2132.27814,0.00172
2130.21797,0.00220
2128.15780,0.00289
2126.09762,0.00318
2124.03745,0.00306
2121.97728,0.00290
2119.91711,0.00287
2117.85694,0.00311
2115.79676,0.00348
2113.73659,0.00375
2111.67642,0.00371
2109.61625,0.00363
2107.55608,0.00389
2105.49590,0.00398
2103.43573,0.00351
2101.37556,0.00322
2099.31539,0.00357
2097.25521,0.00397
2095.19504,0.00373
2093.13487,0.00303
2091.07470,0.00274
2089.01453,0.00301
2086.95435,0.00335
2084.89418,0.00364
2082.83401,0.00397
2080.77384,0.00410
2078.71367,0.00373
2076.65349,0.00311
2074.59332,0.00291
2072.53315,0.00328
2070.47298,0.00335
2068.41281,0.00301
2066.35263,0.00295
2064.29246,0.00284
2062.23229,0.00240
2060.17212,0.00210
2058.11194,0.00238
2056.05177,0.00298
2053.99160,0.00337
2051.93143,0.00322
2049.87126,0.00232
2047.81108,0.00112
2045.75091,0.00075
2043.69074,0.00176
2041.63057,0.00337
2039.57040,0.00386
2037.51022,0.00272
2035.45005,0.00145
2033.38988,0.00121
2031.32971,0.00181
2029.26954,0.00270
2027.20936,0.00322
2025.14919,0.00347
2023.08902,0.00390
2021.02885,0.00372
2018.96867,0.00221
2016.90850,0.00060
2014.84833,0.00019
2012.78816,0.00045
2010.72799,0.00083
2008.66781,0.00148
2006.60764,0.00235
2004.54747,0.00277
2002.48730,0.00216
2000.42713,0.00085
1998.36695,0.00000
1996.30678,0.00034
1994.24661,0.00087
1992.18644,0.00082
1990.12626,0.00118
1988.06609,0.00186
1986.00592,0.00187
1983.94575,0.00118
1981.88558,0.00066
1979.82540,0.00075
1977.76523,0.00109
1975.70506,0.00082
1973.64489,0.00043
1971.58472,0.00090
1969.52454,0.00120
1967.46437,0.00114
1965.40420,0.00156
1963.34403,0.00167
1961.28386,0.00118
1959.22368,0.00080
1957.16351,0.00047
1955.10334,0.00004
1953.04317,0.00001
1950.98299,0.00064
1948.92282,0.00141
1946.86265,0.00181
1944.80248,0.00176
1942.74231,0.00122
1940.68213,0.00088
1938.62196,0.00115
1936.56179,0.00191
1934.50162,0.00233
1932.44145,0.00178
1930.38127,0.00117
1928.32110,0.00133
1926.26093,0.00173
1924.20076,0.00145
1922.14059,0.00101
1920.08041,0.00074
1918.02024,0.00068
1915.96007,0.00150
1913.89990,0.00185
1911.83972,0.00121
1909.77955,0.00045
1907.71938,0.00030
1905.65921,0.00053
1903.59904,0.00062
1901.53886,0.00059
1899.47869,0.00057
1897.41852,0.00064
1895.35835,0.00102
1893.29818,0.00150
1891.23800,0.00099
1889.17783,0.00016
1887.11766,0.00020
1885.05749,0.00049
1882.99731,0.00083
1880.93714,0.00107
1878.87697,0.00090
1876.81680,0.00068
1874.75663,0.00084
1872.69645,0.00107
1870.63628,0.00059
1868.57611,0.00000
1866.51594,0.00034
1864.45577,0.00073
1862.39559,0.00055
1860.33542,0.00031
1858.27525,0.00024
1856.21508,0.00016
1854.15491,0.00019
1852.09473,0.00046
1850.03456,0.00078
1847.97439,0.00091
1845.91422,0.00030
1843.85404,-0.00033
1841.79387,0.00031
1839.73370,0.00081
1837.67353,0.00076
1835.61336,0.00087
1833.55318,0.00090
1831.49301,0.00034
1829.43284,0.00024
1827.37267,0.00083
1825.31250,0.00090
1823.25232,0.00118
1821.19215,0.00138
1819.13198,0.00082
1817.07181,0.00034
1815.01163,0.00042
1812.95146,0.00041
1810.89129,0.00025
1808.83112,0.00053
1806.77095,0.00093
1804.71077,0.00091
1802.65060,0.00035
1800.59043,-0.00009
1798.53026,0.00034
1796.47009,0.00087
1794.40991,0.00044
1792.34974,-0.00016
1790.28957,0.00059
1788.22940,0.00124
1786.16923,0.00096
1784.10905,0.00081
1782.04888,0.00068
1779.98871,0.00051
1777.92854,0.00088
1775.86836,0.00102
1773.80819,0.00025
1771.74802,0.00000
1769.68785,0.00094
1767.62768,0.00176
1765.56750,0.00242
1763.50733,0.00230
1761.44716,0.00234
1759.38699,0.00328
1757.32682,0.00400
1755.26664,0.00505
1753.20647,0.00563
1751.14630,0.00546
1749.08613,0.00627
1747.02596,0.00767
1744.96578,0.00853
1742.90561,0.00880
1740.84544,0.00893
1738.78527,0.00984
1736.72509,0.01018
1734.66492,0.00879
1732.60475,0.00921
1730.54458,0.01044
1728.48441,0.01067
1726.42423,0.01065
1724.36406,0.01055
1722.30389,0.01077
1720.24372,0.01012
1718.18355,0.00837
1716.12337,0.00818
1714.06320,0.00897
1712.00303,0.00908
1709.94286,0.00851
1707.88268,0.00764
1705.82251,0.00731
1703.76234,0.00792
1701.70217,0.00712
1699.64200,0.00642
1697.58182,0.00690
1695.52165,0.00706
1693.46148,0.00852
1691.40131,0.00930
1689.34114,0.00949
1687.28096,0.00948
1685.22079,0.00823
1683.16062,0.00930
1681.10045,0.01224
1679.04028,0.01348
1676.98010,0.01327
1674.91993,0.01376
1672.85976,0.01550
1670.79959,0.01600
1668.73941,0.01714
1666.67924,0.01953
1664.61907,0.02010
1662.55890,0.02005
1660.49873,0.02188
1658.43855,0.02407
1656.37838,0.02425
1654.31821,0.02241
1652.25804,0.02421
1650.19787,0.02802
1648.13769,0.02739
1646.07752,0.02641
1644.01735,0.02800
1641.95718,0.02915
1639.89701,0.02923
1637.83683,0.02808
1635.77666,0.02697
1633.71649,0.02860
1631.65632,0.02992
1629.59614,0.02934
1627.53597,0.02889
1625.47580,0.02866
1623.41563,0.02814
1621.35546,0.02878
1619.29528,0.02857
1617.23511,0.02685
1615.17494,0.02694
1613.11477,0.02767
1611.05460,0.02701
1608.99442,0.02595
1606.93425,0.02523
1604.87408,0.02443
1602.81391,0.02328
1600.75373,0.02212
1598.69356,0.02101
1596.63339,0.01978
1594.57322,0.01858
1592.51305,0.01747
1590.45287,0.01617
1588.39270,0.01473
1586.33253,0.01344
1584.27236,0.01240
1582.21219,0.01176
1580.15201,0.01121
1578.09184,0.00943
1576.03167,0.00778
1573.97150,0.00867
1571.91133,0.00848
1569.85115,0.00658
1567.79098,0.00635
1565.73081,0.00681
1563.67064,0.00706
1561.61046,0.00549
1559.55029,0.00207
1557.49012,0.00324
1555.42995,0.00534
1553.36978,0.00515
1551.30960,0.00431
1549.24943,0.00402
1547.18926,0.00435
1545.12909,0.00409
1543.06892,0.00311
1541.00874,0.00132
1538.94857,0.00175
1536.88840,0.00388
1534.82823,0.00321
1532.76805,0.00227
1530.70788,0.00313
1528.64771,0.00306
1526.58754,0.00264
1524.52737,0.00279
1522.46719,0.00209
1520.40702,0.00199
1518.34685,0.00225
1516.28668,0.00202
1514.22651,0.00262
1512.16633,0.00310
1510.10616,0.00236
1508.04599,0.00000
1505.98582,0.00005
1503.92565,0.00303
1501.86547,0.00403
1499.80530,0.00295
1497.74513,0.00197
1495.68496,0.00272
1493.62478,0.00395
1491.56461,0.00327
1489.50444,0.00236
1487.44427,0.00316
1485.38410,0.00422
1483.32392,0.00446
1481.26375,0.00452
1479.20358,0.00518
1477.14341,0.00575
1475.08324,0.00581
1473.02306,0.00592
1470.96289,0.00779
1468.90272,0.00974
1466.84255,0.00976
1464.78238,0.00992
1462.72220,0.01183
1460.66203,0.01277
1458.60186,0.01144
1456.54169,0.01132
1454.48151,0.01348
1452.42134,0.01442
1450.36117,0.01403
1448.30100,0.01366
1446.24083,0.01423
1444.18065,0.01511
1442.12048,0.01572
1440.06031,0.01596
1438.00014,0.01528
1435.93997,0.01558
1433.87979,0.01736
1431.81962,0.01796
1429.75945,0.01811
1427.69928,0.01899
1425.63910,0.01959
1423.57893,0.02009
1421.51876,0.02039
1419.45859,0.02003
1417.39842,0.02083
1415.33824,0.02188
1413.27807,0.02186
1411.21790,0.02155
1409.15773,0.02144
1407.09756,0.02096
1405.03738,0.02025
1402.97721,0.02009
1400.91704,0.01957
1398.85687,0.01866
1396.79670,0.01795
1394.73652,0.01730
1392.67635,0.01748
1390.61618,0.01764
1388.55601,0.01709
1386.49583,0.01722
1384.43566,0.01821
1382.37549,0.01883
1380.31532,0.01919
1378.25515,0.01962
1376.19497,0.01976
1374.13480,0.01981
1372.07463,0.02042
1370.01446,0.02071
1367.95429,0.02058
1365.89411,0.02023
1363.83394,0.01931
1361.77377,0.01884
1359.71360,0.01903
1357.65343,0.01886
1355.59325,0.01846
1353.53308,0.01826
1351.47291,0.01811
1349.41274,0.01783
1347.35256,0.01754
1345.29239,0.01733
1343.23222,0.01706
1341.17205,0.01645
1339.11188,0.01607
1337.05170,0.01642
1334.99153,0.01669
1332.93136,0.01660
1330.87119,0.01656
1328.81102,0.01674
1326.75084,0.01694
1324.69067,0.01704
1322.63050,0.01714
1320.57033,0.01722
1318.51015,0.01733
1316.44998,0.01744
1314.38981,0.01732
1312.32964,0.01720
1310.26947,0.01716
1308.20929,0.01690
1306.14912,0.01643
1304.08895,0.01595
1302.02878,0.01557
1299.96861,0.01534
1297.90843,0.01506
1295.84826,0.01467
1293.78809,0.01435
1291.72792,0.01417
1289.66775,0.01393
1287.60757,0.01361
1285.54740,0.01336
1283.48723,0.01316
1281.42706,0.01300
1279.36688,0.01307
1277.30671,0.01340
1275.24654,0.01376
1273.18637,0.01403
1271.12620,0.01442
1269.06602,0.01506
1267.00585,0.01580
1264.94568,0.01666
1262.88551,0.01754
1260.82534,0.01825
1258.76516,0.01886
1256.70499,0.01943
1254.64482,0.01994
1252.58465,0.02033
1250.52447,0.02060
1248.46430,0.02082
1246.40413,0.02085
1244.34396,0.02063
1242.28379,0.02026
1240.22361,0.01983
1238.16344,0.01934
1236.10327,0.01885
1234.04310,0.01836
1231.98293,0.01780
1229.92275,0.01707
1227.86258,0.01624
1225.80241,0.01542
1223.74224,0.01467
1221.68207,0.01404
1219.62189,0.01342
1217.56172,0.01268
1215.50155,0.01177
1213.44138,0.01073
1211.38120,0.00968
1209.32103,0.00859
1207.26086,0.00740
1205.20069,0.00618
1203.14052,0.00496
1201.08034,0.00388
1199.02017,0.00302
1196.96000,0.00225
1194.89983,0.00149
1192.83966,0.00082
1190.77948,0.00029
1188.71931,0.00000
1186.65914,-0.00002
1184.59897,0.00026
1182.53880,0.00072
1180.47862,0.00134
1178.41845,0.00222
1176.35828,0.00344
1174.29811,0.00484
1172.23793,0.00619
1170.17776,0.00759
1168.11759,0.00917
1166.05742,0.01081
1163.99725,0.01231
1161.93707,0.01366
1159.87690,0.01503
1157.81673,0.01651
1155.75656,0.01786
1153.69639,0.01895
1151.63621,0.01992
1149.57604,0.02080
1147.51587,0.02162
1145.45570,0.02239
1143.39552,0.02302
1141.33535,0.02349
1139.27518,0.02373
1137.21501,0.02389
1135.15484,0.02440
1133.09466,0.02528
1131.03449,0.02625
1128.97432,0.02726
1126.91415,0.02843
1124.85398,0.02980
1122.79380,0.03116
1120.73363,0.03242
1118.67346,0.03354
1116.61329,0.03458
1114.55312,0.03564
1112.49294,0.03675
1110.43277,0.03792
1108.37260,0.03904
1106.31243,0.04016
1104.25225,0.04144
1102.19208,0.04299
1100.13191,0.04482
1098.07174,0.04683
1096.01157,0.04892
1093.95139,0.05093
1091.89122,0.05272
1089.83105,0.05427
1087.77088,0.05567
1085.71071,0.05718
1083.65053,0.05881
1081.59036,0.06030
1079.53019,0.06178
1077.47002,0.06345
1075.40985,0.06521
1073.34967,0.06689
1071.28950,0.06836
1069.22933,0.06948
1067.16916,0.07032
1065.10898,0.07112
1063.04881,0.07191
1060.98864,0.07260
1058.92847,0.07327
1056.86830,0.07401
1054.80812,0.07486
1052.74795,0.07579
1050.68778,0.07674
1048.62761,0.07781
1046.56744,0.07904
1044.50726,0.08036
1042.44709,0.08180
1040.38692,0.08332
1038.32675,0.08444
1036.26657,0.08487
1034.20640,0.08502
1032.14623,0.08520
1030.08606,0.08534
1028.02589,0.08540
1025.96571,0.08543
1023.90554,0.08541
1021.84537,0.08527
1019.78520,0.08503
1017.72503,0.08491
1015.66485,0.08489
1013.60468,0.08476
1011.54451,0.08439
1009.48434,0.08384
1007.42417,0.08309
1005.36399,0.08211
1003.30382,0.08097
1001.24365,0.07971
999.18348,0.07832
997.12330,0.07676
995.06313,0.07509
993.00296,0.07362
990.94279,0.07231
988.88262,0.07095
986.82244,0.06959
984.76227,0.06835
982.70210,0.06729
980.64193,0.06638
978.58176,0.06545
976.52158,0.06445
974.46141,0.06346
972.40124,0.06243
970.34107,0.06126
968.28089,0.05996
966.22072,0.05875
964.16055,0.05755
962.10038,0.05629
960.04021,0.05498
957.98003,0.05352
955.91986,0.05200
953.85969,0.05055
951.79952,0.04904
949.73935,0.04719
947.67917,0.04513
945.61900,0.04307
943.55883,0.04059
941.49866,0.03726
939.43849,0.03344
937.37831,0.02972
935.31814,0.02627
933.25797,0.02313
931.19780,0.02043
929.13762,0.01820
927.07745,0.01631
925.01728,0.01466
922.95711,0.01332
920.89694,0.01224
918.83676,0.01120
916.77659,0.01004
914.71642,0.00881
912.65625,0.00779
910.59608,0.00716
908.53590,0.00670
906.47573,0.00629
904.41556,0.00617
902.35539,0.00640
900.29522,0.00683
898.23504,0.00727
896.17487,0.00741
894.11470,0.00724
892.05453,0.00702
889.99435,0.00672
887.93418,0.00613
885.87401,0.00551
883.81384,0.00511
881.75367,0.00457
879.69349,0.00385
877.63332,0.00342
875.57315,0.00332
873.51298,0.00334
871.45281,0.00327
869.39263,0.00309
867.33246,0.00281
865.27229,0.00250
863.21212,0.00231
861.15194,0.00236
859.09177,0.00238
857.03160,0.00226
854.97143,0.00226
852.91126,0.00237
850.85108,0.00235
848.79091,0.00214
846.73074,0.00176
844.67057,0.00135
842.61040,0.00116
840.55022,0.00105
838.49005,0.00076
836.42988,0.00031
834.36971,0.00000
832.30954,-0.00018
830.24936,-0.00022
828.18919,-0.00006
826.12902,0.00016
824.06885,0.00007
822.00867,0.00004
819.94850,0.00036
817.88833,0.00064
815.82816,0.00092
813.76799,0.00136
811.70781,0.00171
809.64764,0.00184
807.58747,0.00179
805.52730,0.00176
803.46713,0.00220
801.40695,0.00272
799.34678,0.00244
797.28661,0.00186
795.22644,0.00163
793.16627,0.00125
791.10609,0.00062
789.04592,0.00030
786.98575,0.00032
784.92558,0.00036
782.86540,0.00032
780.80523,0.00017
778.74506,0.00025
776.68489,0.00052
774.62472,0.00039
772.56454,-0.00002
770.50437,-0.00009
768.44420,0.00003
766.38403,-0.00009
764.32386,-0.00014
762.26368,-0.00012
760.20351,-0.00012
758.14334,0.00017
756.08317,0.00072
754.02299,0.00104
751.96282,0.00061
749.90265,0.00000
747.84248,-0.00002
745.78231,0.00018
743.72213,-0.00002
741.66196,-0.00044
739.60179,-0.00059
737.54162,-0.00026
735.48145,0.00026
733.42127,0.00054
731.36110,0.00044
729.30093,0.00041
727.24076,0.00061
725.18059,0.00060
723.12041,0.00069
721.06024,0.00064
719.00007,0.00116
716.93990,0.00155
714.87972,0.00171
712.81955,0.00199
710.75938,0.00254
708.69921,0.00322
706.63904,0.00363
704.57886,0.00354
702.51869,0.00326
700.45852,0.00343
698.39835,0.00399
696.33818,0.00431
694.27800,0.00443
692.21783,0.00428
690.15766,0.00367
688.09749,0.00319
686.03731,0.00330
683.97714,0.00344
681.91697,0.00299
679.85680,0.00266
677.79663,0.00300
675.73645,0.00346
673.67628,0.00449
671.61611,0.00640
669.55594,0.00389
667.49577,-0.00024
665.43559,0.00509
663.37542,0.00442
661.31525,0.00294
659.25508,0.00284
657.19491,0.00315
655.13473,0.00331
653.07456,0.00313
651.01439,0.00308
648.95422,0.00420
646.89404,0.00586
644.83387,0.00567
642.77370,0.00399
640.71353,0.00219
638.65336,0.00099
636.59318,0.00087
634.53301,0.00170
632.47284,0.00235
630.41267,0.00243
628.35250,0.00268
626.29232,0.00296
624.23215,0.00209
622.17198,0.00160
620.11181,0.00210
618.05164,0.00248
615.99146,0.00345
613.93129,0.00470
611.87112,0.00504
609.81095,0.00544
607.75077,0.00567
605.69060,0.00463
603.63043,0.00248
601.57026,0.00056
599.51009,0.00000
