3996.73391,0.00042
3994.67373,0.00030
3992.61356,0.00033
3990.55339,0.00038
3988.49322,0.00033
3986.43305,0.00025
3984.37287,0.00022
3982.31270,0.00017
3980.25253,0.00009
3978.19236,0.00003
3976.13219,-0.00001
3974.07201,0.00000
3972.01184,0.00016
3969.95167,0.00044
3967.89150,0.00061
3965.83133,0.00056
3963.77115,0.00047
3961.71098,0.00053
3959.65081,0.00069
3957.59064,0.00072
3955.53046,0.00059
3953.47029,0.00040
3951.41012,0.00030
3949.34995,0.00029
3947.28978,0.00024
3945.22960,0.00017
3943.16943,0.00032
3941.10926,0.00061
3939.04909,0.00070
3936.98892,0.00055
3934.92874,0.00044
3932.86857,0.00043
3930.80840,0.00043
3928.74823,0.00041
3926.68805,0.00033
3924.62788,0.00035
3922.56771,0.00053
3920.50754,0.00080
3918.44737,0.00119
3916.38719,0.00142
3914.32702,0.00111
3912.26685,0.00052
3910.20668,0.00014
3908.14651,-0.00001
3906.08633,0.00000
3904.02616,0.00025
3901.96599,0.00062
3899.90582,0.00079
3897.84565,0.00077
3895.78547,0.00071
3893.72530,0.00066
3891.66513,0.00076
3889.60496,0.00103
3887.54478,0.00128
3885.48461,0.00131
3883.42444,0.00114
3881.36427,0.00102
3879.30410,0.00107
3877.24392,0.00110
3875.18375,0.00091
3873.12358,0.00065
3871.06341,0.00079
3869.00324,0.00127
3866.94306,0.00137
3864.88289,0.00101
3862.82272,0.00067
3860.76255,0.00066
3858.70237,0.00086
3856.64220,0.00097
3854.58203,0.00096
3852.52186,0.00121
3850.46169,0.00156
3848.40151,0.00165
3846.34134,0.00148
3844.28117,0.00114
3842.22100,0.00073
3840.16083,0.00037
3838.10065,0.00013
3836.04048,0.00004
3833.98031,0.00013
3831.92014,0.00048
3829.85997,0.00083
3827.79979,0.00087
3825.73962,0.00057
3823.67945,0.00015
3821.61928,0.00000
3819.55910,0.00050
3817.49893,0.00129
3815.43876,0.00175
3813.37859,0.00165
3811.31842,0.00128
3809.25824,0.00108
3807.19807,0.00113
3805.13790,0.00115
3803.07773,0.00116
3801.01756,0.00139
3798.95738,0.00150
3796.89721,0.00150
3794.83704,0.00159
3792.77687,0.00158
3790.71670,0.00142
3788.65652,0.00121
3786.59635,0.00111
3784.53618,0.00126
3782.47601,0.00144
3780.41583,0.00147
3778.35566,0.00147
3776.29549,0.00133
3774.23532,0.00104
3772.17515,0.00096
3770.11497,0.00121
3768.05480,0.00144
3765.99463,0.00150
3763.93446,0.00150
3761.87429,0.00139
3759.81411,0.00135
3757.75394,0.00138
3755.69377,0.00120
3753.63360,0.00088
3751.57342,0.00075
3749.51325,0.00088
3747.45308,0.00093
3745.39291,0.00104
3743.33274,0.00161
3741.27256,0.00201
3739.21239,0.00168
3737.15222,0.00109
3735.09205,0.00117
3733.03188,0.00187
3730.97170,0.00211
3728.91153,0.00175
3726.85136,0.00152
3724.79119,0.00174
3722.73102,0.00207
3720.67084,0.00226
3718.61067,0.00235
3716.55050,0.00253
3714.49033,0.00276
3712.43015,0.00266
3710.36998,0.00215
3708.30981,0.00153
3706.24964,0.00108
3704.18947,0.00097
3702.12929,0.00137
3700.06912,0.00209
3698.00895,0.00258
3695.94878,0.00257
3693.88861,0.00222
3691.82843,0.00188
3689.76826,0.00173
3687.70809,0.00190
3685.64792,0.00225
3683.58775,0.00261
3681.52757,0.00280
3679.46740,0.00279
3677.40723,0.00286
3675.34706,0.00316
3673.28688,0.00329
3671.22671,0.00309
3669.16654,0.00292
3667.10637,0.00301
3665.04620,0.00310
3662.98602,0.00305
3660.92585,0.00298
3658.86568,0.00305
3656.80551,0.00324
3654.74534,0.00322
3652.68516,0.00292
3650.62499,0.00288
3648.56482,0.00361
3646.50465,0.00449
3644.44447,0.00479
3642.38430,0.00466
3640.32413,0.00460
3638.26396,0.00474
3636.20379,0.00494
3634.14361,0.00505
3632.08344,0.00513
3630.02327,0.00541
3627.96310,0.00599
3625.90293,0.00640
3623.84275,0.00669
3621.78258,0.00697
3619.72241,0.00710
3617.66224,0.00719
3615.60207,0.00735
3613.54189,0.00739
3611.48172,0.00737
3609.42155,0.00759
3607.36138,0.00802
3605.30120,0.00849
3603.24103,0.00890
3601.18086,0.00918
3599.12069,0.00950
3597.06052,0.00987
3595.00034,0.01018
3592.94017,0.01043
3590.88000,0.01056
3588.81983,0.01051
3586.75966,0.01068
3584.69948,0.01115
3582.63931,0.01152
3580.57914,0.01179
3578.51897,0.01214
3576.45879,0.01251
3574.39862,0.01278
3572.33845,0.01303
3570.27828,0.01344
3568.21811,0.01389
3566.15793,0.01412
3564.09776,0.01422
3562.03759,0.01449
3559.97742,0.01505
3557.91725,0.01570
3555.85707,0.01608
3553.79690,0.01614
3551.73673,0.01622
3549.67656,0.01657
3547.61639,0.01697
3545.55621,0.01723
3543.49604,0.01760
3541.43587,0.01811
3539.37570,0.01848
3537.31552,0.01855
3535.25535,0.01854
3533.19518,0.01875
3531.13501,0.01914
3529.07484,0.01950
3527.01466,0.01964
3524.95449,0.01958
3522.89432,0.01950
3520.83415,0.01958
3518.77398,0.01989
3516.71380,0.02039
3514.65363,0.02100
3512.59346,0.02161
3510.53329,0.02193
3508.47312,0.02195
3506.41294,0.02215
3504.35277,0.02264
3502.29260,0.02307
3500.23243,0.02322
3498.17225,0.02319
3496.11208,0.02324
3494.05191,0.02358
3491.99174,0.02415
3489.93157,0.02457
3487.87139,0.02457
3485.81122,0.02444
3483.75105,0.02462
3481.69088,0.02510
3479.63071,0.02549
3477.57053,0.02563
3475.51036,0.02577
3473.45019,0.02609
3471.39002,0.02651
3469.32984,0.02696
3467.26967,0.02740
3465.20950,0.02762
3463.14933,0.02749
3461.08916,0.02733
3459.02898,0.02757
3456.96881,0.02817
3454.90864,0.02865
3452.84847,0.02870
3450.78830,0.02847
3448.72812,0.02853
3446.66795,0.02913
3444.60778,0.02974
3442.54761,0.03000
3440.48744,0.03023
3438.42726,0.03046
3436.36709,0.03041
3434.30692,0.03039
3432.24675,0.03062
3430.18657,0.03079
3428.12640,0.03091
3426.06623,0.03126
3424.00606,0.03169
3421.94589,0.03189
3419.88571,0.03200
3417.82554,0.03221
3415.76537,0.03242
3413.70520,0.03253
3411.64503,0.03261
3409.58485,0.03266
3407.52468,0.03269
3405.46451,0.03297
3403.40434,0.03348
3401.34416,0.03390
3399.28399,0.03409
3397.22382,0.03408
3395.16365,0.03408
3393.10348,0.03432
3391.04330,0.03465
3388.98313,0.03469
3386.92296,0.03450
3384.86279,0.03443
3382.80262,0.03458
3380.74244,0.03477
3378.68227,0.03477
3376.62210,0.03476
3374.56193,0.03508
3372.50176,0.03542
3370.44158,0.03551
3368.38141,0.03561
3366.32124,0.03567
3364.26107,0.03553
3362.20089,0.03536
3360.14072,0.03539
3358.08055,0.03566
3356.02038,0.03589
3353.96021,0.03584
3351.90003,0.03583
3349.83986,0.03594
3347.77969,0.03597
3345.71952,0.03609
3343.65935,0.03638
3341.59917,0.03649
3339.53900,0.03639
3337.47883,0.03631
3335.41866,0.03633
3333.35849,0.03635
3331.29831,0.03624
3329.23814,0.03623
3327.17797,0.03646
3325.11780,0.03663
3323.05762,0.03666
3320.99745,0.03670
3318.93728,0.03686
3316.87711,0.03707
3314.81694,0.03714
3312.75676,0.03706
3310.69659,0.03677
3308.63642,0.03632
3306.57625,0.03609
3304.51608,0.03627
3302.45590,0.03651
3300.39573,0.03659
3298.33556,0.03654
3296.27539,0.03648
3294.21521,0.03657
3292.15504,0.03660
3290.09487,0.03645
3288.03470,0.03633
3285.97453,0.03627
3283.91435,0.03626
3281.85418,0.03637
3279.79401,0.03648
3277.73384,0.03657
3275.67367,0.03660
3273.61349,0.03656
3271.55332,0.03645
3269.49315,0.03626
3267.43298,0.03611
3265.37281,0.03608
3263.31263,0.03611
3261.25246,0.03629
3259.19229,0.03650
3257.13212,0.03646
3255.07194,0.03621
3253.01177,0.03596
3250.95160,0.03584
3248.89143,0.03581
3246.83126,0.03580
3244.77108,0.03588
3242.71091,0.03606
3240.65074,0.03610
3238.59057,0.03591
3236.53040,0.03572
3234.47022,0.03566
3232.41005,0.03537
3230.34988,0.03488
3228.28971,0.03467
3226.22954,0.03472
3224.16936,0.03467
3222.10919,0.03448
3220.04902,0.03433
3217.98885,0.03418
3215.92867,0.03397
3213.86850,0.03385
3211.80833,0.03386
3209.74816,0.03384
3207.68799,0.03360
3205.62781,0.03317
3203.56764,0.03273
3201.50747,0.03234
3199.44730,0.03209
3197.38713,0.03194
3195.32695,0.03174
3193.26678,0.03160
3191.20661,0.03162
3189.14644,0.03173
3187.08626,0.03165
3185.02609,0.03137
3182.96592,0.03118
3180.90575,0.03113
3178.84558,0.03109
3176.78540,0.03101
3174.72523,0.03085
3172.66506,0.03051
3170.60489,0.03000
3168.54472,0.02941
3166.48454,0.02893
3164.42437,0.02864
3162.36420,0.02848
3160.30403,0.02846
3158.24386,0.02849
3156.18368,0.02831
3154.12351,0.02794
3152.06334,0.02765
3150.00317,0.02745
3147.94299,0.02732
3145.88282,0.02725
3143.82265,0.02706
3141.76248,0.02678
3139.70231,0.02657
3137.64213,0.02646
3135.58196,0.02640
3133.52179,0.02628
3131.46162,0.02601
3129.40145,0.02571
3127.34127,0.02534
3125.28110,0.02487
3123.22093,0.02453
3121.16076,0.02445
3119.10058,0.02442
3117.04041,0.02427
3114.98024,0.02396
3112.92007,0.02359
3110.85990,0.02332
3108.79972,0.02321
3106.73955,0.02311
3104.67938,0.02292
3102.61921,0.02252
3100.55904,0.02189
3098.49886,0.02142
3096.43869,0.02136
3094.37852,0.02149
3092.31835,0.02150
3090.25818,0.02132
3088.19800,0.02112
3086.13783,0.02093
3084.07766,0.02064
3082.01749,0.02022
3079.95731,0.01973
3077.89714,0.01941
3075.83697,0.01946
3073.77680,0.01962
3071.71663,0.01959
3069.65645,0.01938
3067.59628,0.01914
3065.53611,0.01887
3063.47594,0.01858
3061.41577,0.01845
3059.35559,0.01837
3057.29542,0.01802
3055.23525,0.01750
3053.17508,0.01733
3051.11491,0.01748
3049.05473,0.01752
3046.99456,0.01735
3044.93439,0.01720
3042.87422,0.01716
3040.81404,0.01699
3038.75387,0.01676
3036.69370,0.01664
3034.63353,0.01653
3032.57336,0.01632
3030.51318,0.01607
3028.45301,0.01580
3026.39284,0.01566
3024.33267,0.01573
3022.27250,0.01565
3020.21232,0.01540
3018.15215,0.01525
3016.09198,0.01511
3014.03181,0.01477
3011.97163,0.01444
3009.91146,0.01442
3007.85129,0.01449
3005.79112,0.01442
3003.73095,0.01431
3001.67077,0.01425
2999.61060,0.01421
2997.55043,0.01417
2995.49026,0.01409
2993.43009,0.01414
2991.36991,0.01416
2989.30974,0.01394
2987.24957,0.01387
2985.18940,0.01411
2983.12923,0.01435
2981.06905,0.01448
2979.00888,0.01460
2976.94871,0.01466
2974.88854,0.01461
2972.82836,0.01460
2970.76819,0.01474
2968.70802,0.01500
2966.64785,0.01528
2964.58768,0.01555
2962.52750,0.01571
2960.46733,0.01580
2958.40716,0.01598
2956.34699,0.01628
2954.28682,0.01659
2952.22664,0.01683
2950.16647,0.01710
2948.10630,0.01731
2946.04613,0.01738
2943.98596,0.01745
2941.92578,0.01752
2939.86561,0.01764
2937.80544,0.01793
2935.74527,0.01825
2933.68509,0.01837
2931.62492,0.01836
2929.56475,0.01839
2927.50458,0.01846
2925.44441,0.01851
2923.38423,0.01854
2921.32406,0.01843
2919.26389,0.01805
2917.20372,0.01770
2915.14355,0.01769
2913.08337,0.01778
2911.02320,0.01759
2908.96303,0.01717
2906.90286,0.01694
2904.84268,0.01690
2902.78251,0.01680
2900.72234,0.01678
2898.66217,0.01693
2896.60200,0.01689
2894.54182,0.01657
2892.48165,0.01639
2890.42148,0.01639
2888.36131,0.01622
2886.30114,0.01598
2884.24096,0.01594
2882.18079,0.01606
2880.12062,0.01613
2878.06045,0.01596
2876.00028,0.01566
2873.94010,0.01540
2871.87993,0.01519
2869.81976,0.01502
2867.75959,0.01487
2865.69941,0.01471
2863.63924,0.01452
2861.57907,0.01433
2859.51890,0.01433
2857.45873,0.01443
2855.39855,0.01438
2853.33838,0.01413
2851.27821,0.01376
2849.21804,0.01350
2847.15787,0.01332
2845.09769,0.01310
2843.03752,0.01293
2840.97735,0.01282
2838.91718,0.01264
2836.85700,0.01248
2834.79683,0.01238
2832.73666,0.01220
2830.67649,0.01187
2828.61632,0.01157
2826.55614,0.01153
2824.49597,0.01153
2822.43580,0.01146
2820.37563,0.01150
2818.31546,0.01157
2816.25528,0.01152
2814.19511,0.01140
2812.13494,0.01126
2810.07477,0.01116
2808.01460,0.01106
2805.95442,0.01095
2803.89425,0.01078
2801.83408,0.01060
2799.77391,0.01057
2797.71373,0.01072
2795.65356,0.01078
2793.59339,0.01057
2791.53322,0.01029
2789.47305,0.01022
2787.41287,0.01023
2785.35270,0.01011
2783.29253,0.01008
2781.23236,0.01020
2779.17219,0.01022
2777.11201,0.01008
2775.05184,0.00991
2772.99167,0.00981
2770.93150,0.00982
2768.87133,0.00997
2766.81115,0.01008
2764.75098,0.01000
2762.69081,0.00983
2760.63064,0.00970
2758.57046,0.00965
2756.51029,0.00966
2754.45012,0.00980
2752.38995,0.00987
2750.32978,0.00972
2748.26960,0.00956
2746.20943,0.00954
2744.14926,0.00958
2742.08909,0.00959
2740.02892,0.00949
2737.96874,0.00931
2735.90857,0.00918
2733.84840,0.00915
2731.78823,0.00920
2729.72805,0.00925
2727.66788,0.00916
2725.60771,0.00903
2723.54754,0.00894
2721.48737,0.00889
2719.42719,0.00893
2717.36702,0.00899
2715.30685,0.00898
2713.24668,0.00897
2711.18651,0.00894
2709.12633,0.00885
2707.06616,0.00867
2705.00599,0.00853
2702.94582,0.00853
2700.88565,0.00857
2698.82547,0.00866
2696.76530,0.00873
2694.70513,0.00865
2692.64496,0.00852
2690.58478,0.00843
2688.52461,0.00837
2686.46444,0.00831
2684.40427,0.00825
2682.34410,0.00827
2680.28392,0.00837
2678.22375,0.00837
2676.16358,0.00815
2674.10341,0.00788
2672.04324,0.00777
2669.98306,0.00774
2667.92289,0.00778
2665.86272,0.00802
2663.80255,0.00822
2661.74238,0.00813
2659.68220,0.00793
2657.62203,0.00788
2655.56186,0.00799
2653.50169,0.00798
2651.44151,0.00775
2649.38134,0.00748
2647.32117,0.00742
2645.26100,0.00752
2643.20083,0.00757
2641.14065,0.00749
2639.08048,0.00734
2637.02031,0.00718
2634.96014,0.00701
2632.89997,0.00690
2630.83979,0.00691
2628.77962,0.00692
2626.71945,0.00686
2624.65928,0.00682
2622.59910,0.00682
2620.53893,0.00680
2618.47876,0.00670
2616.41859,0.00656
2614.35842,0.00648
2612.29824,0.00648
2610.23807,0.00645
2608.17790,0.00636
2606.11773,0.00631
2604.05756,0.00627
2601.99738,0.00611
2599.93721,0.00596
2597.87704,0.00593
2595.81687,0.00588
2593.75670,0.00588
2591.69652,0.00602
2589.63635,0.00615
2587.57618,0.00610
2585.51601,0.00605
2583.45583,0.00610
2581.39566,0.00597
2579.33549,0.00562
2577.27532,0.00548
2575.21515,0.00557
2573.15497,0.00553
2571.09480,0.00544
2569.03463,0.00537
2566.97446,0.00526
2564.91429,0.00535
2562.85411,0.00574
2560.79394,0.00603
2558.73377,0.00597
2556.67360,0.00568
2554.61342,0.00527
2552.55325,0.00508
2550.49308,0.00538
2548.43291,0.00573
2546.37274,0.00569
2544.31256,0.00548
2542.25239,0.00531
2540.19222,0.00515
2538.13205,0.00495
2536.07188,0.00479
2534.01170,0.00486
2531.95153,0.00519
2529.89136,0.00547
2527.83119,0.00552
2525.77102,0.00548
2523.71084,0.00550
2521.65067,0.00538
2519.59050,0.00528
2517.53033,0.00533
2515.47015,0.00518
2513.40998,0.00511
2511.34981,0.00543
2509.28964,0.00557
2507.22947,0.00530
2505.16929,0.00504
2503.10912,0.00505
2501.04895,0.00524
2498.98878,0.00545
2496.92861,0.00572
2494.86843,0.00583
2492.80826,0.00550
2490.74809,0.00494
2488.68792,0.00456
2486.62775,0.00446
2484.56757,0.00442
2482.50740,0.00438
2480.44723,0.00451
2478.38706,0.00465
2476.32688,0.00469
2474.26671,0.00476
2472.20654,0.00474
2470.14637,0.00469
2468.08620,0.00483
2466.02602,0.00492
2463.96585,0.00484
2461.90568,0.00470
2459.84551,0.00457
2457.78534,0.00469
2455.72516,0.00496
2453.66499,0.00503
2451.60482,0.00505
2449.54465,0.00518
2447.48447,0.00518
2445.42430,0.00505
2443.36413,0.00505
2441.30396,0.00503
2439.24379,0.00485
2437.18361,0.00480
2435.12344,0.00475
2433.06327,0.00454
2431.00310,0.00445
2428.94293,0.00447
2426.88275,0.00446
2424.82258,0.00454
2422.76241,0.00461
2420.70224,0.00465
2418.64207,0.00471
2416.58189,0.00483
2414.52172,0.00490
2412.46155,0.00481
2410.40138,0.00479
2408.34120,0.00480
2406.28103,0.00474
2404.22086,0.00473
2402.16069,0.00474
2400.10052,0.00476
2398.04034,0.00476
2395.98017,0.00462
2393.92000,0.00430
2391.85983,0.00414
2389.79966,0.00433
2387.73948,0.00457
2385.67931,0.00462
2383.61914,0.00452
2381.55897,0.00433
2379.49880,0.00409
2377.43862,0.00382
2375.37845,0.00339
2373.31828,0.00303
2371.25811,0.00297
2369.19793,0.00265
2367.13776,0.00190
2365.07759,0.00137
2363.01742,0.00054
2360.95725,0.00028
2358.89707,0.00107
2356.83690,0.00275
2354.77673,0.00370
2352.71656,0.00348
2350.65639,0.00402
2348.59621,0.00453
2346.53604,0.00313
2344.47587,0.00300
2342.41570,0.00381
2340.35552,0.00436
2338.29535,0.00453
2336.23518,0.00421
2334.17501,0.00369
2332.11484,0.00313
2330.05466,0.00290
2327.99449,0.00314
2325.93432,0.00415
2323.87415,0.00487
2321.81398,0.00517
2319.75380,0.00499
2317.69363,0.00487
2315.63346,0.00462
2313.57329,0.00457
2311.51312,0.00464
2309.45294,0.00448
2307.39277,0.00436
2305.33260,0.00439
2303.27243,0.00442
2301.21225,0.00442
2299.15208,0.00455
2297.09191,0.00469
2295.03174,0.00462
2292.97157,0.00443
2290.91139,0.00438
2288.85122,0.00452
2286.79105,0.00460
2284.73088,0.00442
2282.67071,0.00409
2280.61053,0.00402
2278.55036,0.00435
2276.49019,0.00466
2274.43002,0.00465
2272.36984,0.00454
2270.30967,0.00442
2268.24950,0.00403
2266.18933,0.00367
2264.12916,0.00382
2262.06898,0.00444
2260.00881,0.00504
2257.94864,0.00509
2255.88847,0.00461
2253.82830,0.00429
2251.76812,0.00442
2249.70795,0.00457
2247.64778,0.00443
2245.58761,0.00444
2243.52744,0.00441
2241.46726,0.00403
2239.40709,0.00428
2237.34692,0.00492
2235.28675,0.00506
2233.22657,0.00474
2231.16640,0.00403
2229.10623,0.00310
2227.04606,0.00272
2224.98589,0.00300
2222.92571,0.00344
2220.86554,0.00367
2218.80537,0.00316
2216.74520,0.00215
2214.68503,0.00175
2212.62485,0.00221
2210.56468,0.00272
2208.50451,0.00316
2206.44434,0.00369
2204.38417,0.00381
2202.32399,0.00367
2200.26382,0.00390
2198.20365,0.00432
2196.14348,0.00425
2194.08330,0.00398
2192.02313,0.00449
2189.96296,0.00539
2187.90279,0.00578
2185.84262,0.00537
2183.78244,0.00453
2181.72227,0.00439
2179.66210,0.00457
2177.60193,0.00373
2175.54176,0.00254
2173.48158,0.00264
2171.42141,0.00359
2169.36124,0.00383
2167.30107,0.00359
2165.24089,0.00354
2163.18072,0.00334
2161.12055,0.00252
2159.06038,0.00126
2157.00021,0.00050
2154.94003,0.00093
2152.87986,0.00194
2150.81969,0.00230
2148.75952,0.00205
2146.69935,0.00169
2144.63917,0.00132
2142.57900,0.00132
2140.51883,0.00180
2138.45866,0.00186
2136.39849,0.00118
2134.33831,0.00073
2132.27814,0.00084
2130.21797,0.00142
2128.15780,0.00251
2126.09762,0.00330
2124.03745,0.00342
2121.97728,0.00335
2119.91711,0.00323
2117.85694,0.00318
2115.79676,0.00339
2113.73659,0.00359
2111.67642,0.00342
2109.61625,0.00339
2107.55608,0.00396
2105.49590,0.00447
2103.43573,0.00419
2101.37556,0.00374
2099.31539,0.00383
2097.25521,0.00419
2095.19504,0.00404
2093.13487,0.00338
2091.07470,0.00321
2089.01453,0.00367
2086.95435,0.00404
2084.89418,0.00395
2082.83401,0.00366
2080.77384,0.00342
2078.71367,0.00296
2076.65349,0.00261
2074.59332,0.00304
2072.53315,0.00373
2070.47298,0.00374
2068.41281,0.00337
2066.35263,0.00312
2064.29246,0.00287
2062.23229,0.00269
2060.17212,0.00271
2058.11194,0.00287
2056.05177,0.00318
2053.99160,0.00384
2051.93143,0.00435
2049.87126,0.00378
2047.81108,0.00209
2045.75091,0.00068
2043.69074,0.00106
2041.63057,0.00297
2039.57040,0.00468
2037.51022,0.00454
2035.45005,0.00260
2033.38988,0.00074
2031.32971,0.00049
2029.26954,0.00148
2027.20936,0.00268
2025.14919,0.00348
2023.08902,0.00366
2021.02885,0.00327
2018.96867,0.00273
2016.90850,0.00258
2014.84833,0.00228
2012.78816,0.00105
2010.72799,0.00000
2008.66781,0.00032
2006.60764,0.00129
2004.54747,0.00170
2002.48730,0.00176
2000.42713,0.00178
1998.36695,0.00136
1996.30678,0.00080
1994.24661,0.00058
1992.18644,0.00085
1990.12626,0.00168
1988.06609,0.00273
1986.00592,0.00342
1983.94575,0.00325
1981.88558,0.00222
1979.82540,0.00105
1977.76523,0.00062
1975.70506,0.00057
1973.64489,0.00076
1971.58472,0.00171
1969.52454,0.00253
1967.46437,0.00251
1965.40420,0.00216
1963.34403,0.00190
1961.28386,0.00172
1959.22368,0.00170
1957.16351,0.00204
1955.10334,0.00239
1953.04317,0.00230
1950.98299,0.00196
1948.92282,0.00164
1946.86265,0.00123
1944.80248,0.00104
1942.74231,0.00121
1940.68213,0.00133
1938.62196,0.00139
1936.56179,0.00166
1934.50162,0.00193
1932.44145,0.00170
1930.38127,0.00125
1928.32110,0.00107
1926.26093,0.00108
1924.20076,0.00106
1922.14059,0.00095
1920.08041,0.00109
1918.02024,0.00157
1915.96007,0.00188
1913.89990,0.00183
1911.83972,0.00182
1909.77955,0.00193
1907.71938,0.00194
1905.65921,0.00188
1903.59904,0.00170
1901.53886,0.00143
1899.47869,0.00123
1897.41852,0.00104
1895.35835,0.00092
1893.29818,0.00108
1891.23800,0.00129
1889.17783,0.00133
1887.11766,0.00135
1885.05749,0.00149
1882.99731,0.00167
1880.93714,0.00163
1878.87697,0.00129
1876.81680,0.00097
1874.75663,0.00095
1872.69645,0.00110
1870.63628,0.00118
1868.57611,0.00121
1866.51594,0.00127
1864.45577,0.00135
1862.39559,0.00135
1860.33542,0.00118
1858.27525,0.00093
1856.21508,0.00082
1854.15491,0.00106
1852.09473,0.00135
1850.03456,0.00127
1847.97439,0.00096
1845.91422,0.00076
1843.85404,0.00084
1841.79387,0.00116
1839.73370,0.00139
1837.67353,0.00137
1835.61336,0.00116
1833.55318,0.00083
1831.49301,0.00061
1829.43284,0.00069
1827.37267,0.00090
1825.31250,0.00102
1823.25232,0.00105
1821.19215,0.00095
1819.13198,0.00081
1817.07181,0.00080
1815.01163,0.00083
1812.95146,0.00082
1810.89129,0.00088
1808.83112,0.00105
1806.77095,0.00113
1804.71077,0.00103
1802.65060,0.00084
1800.59043,0.00072
1798.53026,0.00074
1796.47009,0.00075
1794.40991,0.00067
1792.34974,0.00064
1790.28957,0.00068
1788.22940,0.00078
1786.16923,0.00103
1784.10905,0.00127
1782.04888,0.00121
1779.98871,0.00089
1777.92854,0.00063
1775.86836,0.00052
1773.80819,0.00043
1771.74802,0.00041
1769.68785,0.00063
1767.62768,0.00105
1765.56750,0.00148
1763.50733,0.00175
1761.44716,0.00192
1759.38699,0.00213
1757.32682,0.00242
1755.26664,0.00270
1753.20647,0.00281
1751.14630,0.00287
1749.08613,0.00320
1747.02596,0.00387
1744.96578,0.00457
1742.90561,0.00500
1740.84544,0.00512
1738.78527,0.00504
1736.72509,0.00493
1734.66492,0.00495
1732.60475,0.00516
1730.54458,0.00545
1728.48441,0.00562
1726.42423,0.00562
1724.36406,0.00553
1722.30389,0.00546
1720.24372,0.00530
1718.18355,0.00494
1716.12337,0.00457
1714.06320,0.00445
1712.00303,0.00441
1709.94286,0.00431
1707.88268,0.00420
1705.82251,0.00410
1703.76234,0.00404
1701.70217,0.00402
1699.64200,0.00397
1697.58182,0.00393
1695.52165,0.00409
1693.46148,0.00440
1691.40131,0.00471
1689.34114,0.00494
1687.28096,0.00492
1685.22079,0.00486
1683.16062,0.00524
1681.10045,0.00594
1679.04028,0.00657
1676.98010,0.00700
1674.91993,0.00729
1672.85976,0.00758
1670.79959,0.00799
1668.73941,0.00855
1666.67924,0.00919
1664.61907,0.00973
1662.55890,0.01023
1660.49873,0.01082
1658.43855,0.01139
1656.37838,0.01165
1654.31821,0.01162
1652.25804,0.01175
1650.19787,0.01222
1648.13769,0.01262
1646.07752,0.01283
1644.01735,0.01299
1641.95718,0.01319
1639.89701,0.01331
1637.83683,0.01317
1635.77666,0.01293
1633.71649,0.01298
1631.65632,0.01327
1629.59614,0.01352
1627.53597,0.01358
1625.47580,0.01345
1623.41563,0.01315
1621.35546,0.01298
1619.29528,0.01299
1617.23511,0.01288
1615.17494,0.01267
1613.11477,0.01260
1611.05460,0.01253
1608.99442,0.01232
1606.93425,0.01207
1604.87408,0.01183
1602.81391,0.01143
1600.75373,0.01083
1598.69356,0.01023
1596.63339,0.00970
1594.57322,0.00911
1592.51305,0.00848
1590.45287,0.00784
1588.39270,0.00720
1586.33253,0.00665
1584.27236,0.00624
1582.21219,0.00585
1580.15201,0.00542
1578.09184,0.00482
1576.03167,0.00409
1573.97150,0.00367
1571.91133,0.00364
1569.85115,0.00358
1567.79098,0.00340
1565.73081,0.00321
1563.67064,0.00310
1561.61046,0.00296
1559.55029,0.00258
1557.49012,0.00211
1555.42995,0.00201
1553.36978,0.00210
1551.30960,0.00210
1549.24943,0.00197
1547.18926,0.00176
1545.12909,0.00144
1543.06892,0.00100
1541.00874,0.00069
1538.94857,0.00074
1536.88840,0.00091
1534.82823,0.00097
1532.76805,0.00102
1530.70788,0.00108
1528.64771,0.00103
1526.58754,0.00084
1524.52737,0.00065
1522.46719,0.00048
1520.40702,0.00037
1518.34685,0.00040
1516.28668,0.00054
1514.22651,0.00071
1512.16633,0.00075
1510.10616,0.00047
1508.04599,0.00000
1505.98582,0.00009
1503.92565,0.00078
1501.86547,0.00126
1499.80530,0.00131
1497.74513,0.00119
1495.68496,0.00124
1493.62478,0.00139
1491.56461,0.00135
1489.50444,0.00124
1487.44427,0.00141
1485.38410,0.00177
1483.32392,0.00203
1481.26375,0.00217
1479.20358,0.00233
1477.14341,0.00267
1475.08324,0.00315
1473.02306,0.00357
1470.96289,0.00397
1468.90272,0.00438
1466.84255,0.00475
1464.78238,0.00513
1462.72220,0.00551
1460.66203,0.00577
1458.60186,0.00589
1456.54169,0.00596
1454.48151,0.00614
1452.42134,0.00640
1450.36117,0.00655
1448.30100,0.00657
1446.24083,0.00673
1444.18065,0.00713
1442.12048,0.00754
1440.06031,0.00784
1438.00014,0.00797
1435.93997,0.00800
1433.87979,0.00811
1431.81962,0.00837
1429.75945,0.00871
1427.69928,0.00906
1425.63910,0.00927
1423.57893,0.00935
1421.51876,0.00944
1419.45859,0.00958
1417.39842,0.00971
1415.33824,0.00988
1413.27807,0.01008
1411.21790,0.01023
1409.15773,0.01021
1407.09756,0.00996
1405.03738,0.00960
1402.97721,0.00932
1400.91704,0.00912
1398.85687,0.00885
1396.79670,0.00845
1394.73652,0.00802
1392.67635,0.00777
1390.61618,0.00780
1388.55601,0.00797
1386.49583,0.00826
1384.43566,0.00864
1382.37549,0.00903
1380.31532,0.00936
1378.25515,0.00962
1376.19497,0.00974
1374.13480,0.00972
1372.07463,0.00975
1370.01446,0.00984
1367.95429,0.00981
1365.89411,0.00961
1363.83394,0.00942
1361.77377,0.00933
1359.71360,0.00923
1357.65343,0.00911
1355.59325,0.00906
1353.53308,0.00901
1351.47291,0.00895
1349.41274,0.00890
1347.35256,0.00881
1345.29239,0.00865
1343.23222,0.00844
1341.17205,0.00815
1339.11188,0.00788
1337.05170,0.00783
1334.99153,0.00792
1332.93136,0.00797
1330.87119,0.00797
1328.81102,0.00798
1326.75084,0.00803
1324.69067,0.00808
1322.63050,0.00817
1320.57033,0.00827
1318.51015,0.00837
1316.44998,0.00847
1314.38981,0.00855
1312.32964,0.00855
1310.26947,0.00849
1308.20929,0.00834
1306.14912,0.00810
1304.08895,0.00785
1302.02878,0.00764
1299.96861,0.00748
1297.90843,0.00731
1295.84826,0.00708
1293.78809,0.00691
1291.72792,0.00691
1289.66775,0.00690
1287.60757,0.00671
1285.54740,0.00647
1283.48723,0.00636
1281.42706,0.00630
1279.36688,0.00626
1277.30671,0.00632
1275.24654,0.00648
1273.18637,0.00664
1271.12620,0.00682
1269.06602,0.00713
1267.00585,0.00760
1264.94568,0.00807
1262.88551,0.00839
1260.82534,0.00858
1258.76516,0.00876
1256.70499,0.00898
1254.64482,0.00919
1252.58465,0.00939
1250.52447,0.00959
1248.46430,0.00974
1246.40413,0.00977
1244.34396,0.00969
1242.28379,0.00954
1240.22361,0.00932
1238.16344,0.00903
1236.10327,0.00876
1234.04310,0.00860
1231.98293,0.00835
1229.92275,0.00791
1227.86258,0.00739
1225.80241,0.00690
1223.74224,0.00649
1221.68207,0.00625
1219.62189,0.00606
1217.56172,0.00573
1215.50155,0.00532
1213.44138,0.00489
1211.38120,0.00449
1209.32103,0.00407
1207.26086,0.00356
1205.20069,0.00294
1203.14052,0.00227
1201.08034,0.00174
1199.02017,0.00145
1196.96000,0.00124
1194.89983,0.00092
1192.83966,0.00049
1190.77948,0.00017
1188.71931,0.00000
1186.65914,-0.00004
1184.59897,0.00015
1182.53880,0.00047
1180.47862,0.00090
1178.41845,0.00146
1176.35828,0.00216
1174.29811,0.00297
1172.23793,0.00378
1170.17776,0.00457
1168.11759,0.00547
1166.05742,0.00643
1163.99725,0.00728
1161.93707,0.00806
1159.87690,0.00877
1157.81673,0.00933
1155.75656,0.00981
1153.69639,0.01030
1151.63621,0.01084
1149.57604,0.01129
1147.51587,0.01164
1145.45570,0.01208
1143.39552,0.01243
1141.33535,0.01255
1139.27518,0.01267
1137.21501,0.01295
1135.15484,0.01338
1133.09466,0.01393
1131.03449,0.01459
1128.97432,0.01525
1126.91415,0.01590
1124.85398,0.01661
1122.79380,0.01733
1120.73363,0.01801
1118.67346,0.01872
1116.61329,0.01955
1114.55312,0.02034
1112.49294,0.02103
1110.43277,0.02170
1108.37260,0.02241
1106.31243,0.02313
1104.25225,0.02375
1102.19208,0.02444
1100.13191,0.02546
1098.07174,0.02666
1096.01157,0.02773
1093.95139,0.02863
1091.89122,0.02945
1089.83105,0.03014
1087.77088,0.03079
1085.71071,0.03161
1083.65053,0.03253
1081.59036,0.03341
1079.53019,0.03416
1077.47002,0.03490
1075.40985,0.03577
1073.34967,0.03656
1071.28950,0.03723
1069.22933,0.03789
1067.16916,0.03851
1065.10898,0.03906
1063.04881,0.03947
1060.98864,0.03976
1058.92847,0.04018
1056.86830,0.04066
1054.80812,0.04098
1052.74795,0.04127
1050.68778,0.04167
1048.62761,0.04211
1046.56744,0.04260
1044.50726,0.04317
1042.44709,0.04378
1040.38692,0.04436
1038.32675,0.04461
1036.26657,0.04451
1034.20640,0.04447
1032.14623,0.04463
1030.08606,0.04470
1028.02589,0.04449
1025.96571,0.04406
1023.90554,0.04362
1021.84537,0.04343
1019.78520,0.04339
1017.72503,0.04327
1015.66485,0.04301
1013.60468,0.04284
1011.54451,0.04262
1009.48434,0.04202
1007.42417,0.04126
1005.36399,0.04064
1003.30382,0.04015
1001.24365,0.03976
999.18348,0.03938
997.12330,0.03874
995.06313,0.03792
993.00296,0.03728
990.94279,0.03681
988.88262,0.03621
986.82244,0.03548
984.76227,0.03488
982.70210,0.03455
980.64193,0.03433
978.58176,0.03395
976.52158,0.03333
974.46141,0.03264
972.40124,0.03197
970.34107,0.03132
968.28089,0.03056
966.22072,0.02966
964.16055,0.02884
962.10038,0.02817
960.04021,0.02742
957.98003,0.02652
955.91986,0.02576
953.85969,0.02503
951.79952,0.02411
949.73935,0.02306
947.67917,0.02201
945.61900,0.02100
943.55883,0.01988
941.49866,0.01858
939.43849,0.01713
937.37831,0.01548
935.31814,0.01391
933.25797,0.01263
931.19780,0.01148
929.13762,0.01041
927.07745,0.00933
925.01728,0.00822
922.95711,0.00747
920.89694,0.00708
918.83676,0.00666
916.77659,0.00607
914.71642,0.00549
912.65625,0.00503
910.59608,0.00470
908.53590,0.00451
906.47573,0.00431
904.41556,0.00407
902.35539,0.00403
900.29522,0.00431
898.23504,0.00459
896.17487,0.00467
894.11470,0.00459
892.05453,0.00437
889.99435,0.00421
887.93418,0.00416
885.87401,0.00406
883.81384,0.00376
881.75367,0.00323
879.69349,0.00285
877.63332,0.00268
875.57315,0.00250
873.51298,0.00241
871.45281,0.00240
869.39263,0.00228
867.33246,0.00227
865.27229,0.00239
863.21212,0.00243
861.15194,0.00235
859.09177,0.00216
857.03160,0.00195
854.97143,0.00182
852.91126,0.00165
850.85108,0.00157
848.79091,0.00180
846.73074,0.00185
844.67057,0.00147
842.61040,0.00112
840.55022,0.00091
838.49005,0.00074
836.42988,0.00075
834.36971,0.00086
832.30954,0.00072
830.24936,0.00043
828.18919,0.00036
826.12902,0.00028
824.06885,0.00000
822.00867,-0.00009
819.94850,0.00030
817.88833,0.00081
815.82816,0.00112
813.76799,0.00126
811.70781,0.00123
809.64764,0.00119
807.58747,0.00142
805.52730,0.00154
803.46713,0.00134
801.40695,0.00116
799.34678,0.00106
797.28661,0.00086
795.22644,0.00057
793.16627,0.00035
791.10609,0.00034
789.04592,0.00029
786.98575,0.00009
784.92558,0.00006
782.86540,0.00020
780.80523,0.00003
778.74506,-0.00016
776.68489,0.00007
774.62472,0.00057
772.56454,0.00085
770.50437,0.00058
768.44420,0.00006
766.38403,-0.00018
764.32386,0.00009
762.26368,0.00033
760.20351,0.00028
758.14334,0.00030
756.08317,0.00046
754.02299,0.00061
751.96282,0.00055
749.90265,0.00029
747.84248,0.00000
745.78231,-0.00015
743.72213,0.00004
741.66196,0.00022
739.60179,0.00010
737.54162,0.00005
735.48145,0.00014
733.42127,-0.00013
731.36110,-0.00045
729.30093,-0.00009
727.24076,0.00069
725.18059,0.00094
723.12041,0.00057
721.06024,-0.00010
719.00007,-0.00008
716.93990,0.00016
714.87972,0.00015
712.81955,0.00020
710.75938,0.00053
708.69921,0.00092
706.63904,0.00095
704.57886,0.00056
702.51869,0.00034
700.45852,0.00078
698.39835,0.00134
696.33818,0.00163
694.27800,0.00190
692.21783,0.00200
690.15766,0.00173
688.09749,0.00159
686.03731,0.00178
683.97714,0.00177
681.91697,0.00153
679.85680,0.00174
677.79663,0.00244
675.73645,0.00284
673.67628,0.00287
671.61611,0.00266
669.55594,0.00020
667.49577,-0.00181
665.43559,0.00143
663.37542,0.00153
661.31525,0.00082
659.25508,0.00109
657.19491,0.00189
655.13473,0.00203
653.07456,0.00133
651.01439,0.00043
648.95422,0.00000
646.89404,0.00006
644.83387,0.00016
642.77370,0.00044
640.71353,0.00055
638.65336,0.00014
636.59318,0.00002
634.53301,0.00071
632.47284,0.00128
630.41267,0.00129
628.35250,0.00146
626.29232,0.00182
624.23215,0.00105
622.17198,-0.00029
620.11181,-0.00101
618.05164,-0.00049
615.99146,0.00124
613.93129,0.00272
611.87112,0.00298
609.81095,0.00274
607.75077,0.00270
605.69060,0.00228
603.63043,0.00070
601.57026,-0.00048
599.51009,0.00000
